Data from orange_diffuse_book_FLMS001491_00018.txt Node
Date: Wed Feb 08 15:29:12 GMT 2017
User: dcchb
Spectrometer: FLMS00149
Trigger mode: 0
Integration Time (sec): 2.000000E-2
Scans to average: 10
Electric dark correction enabled: true
Nonlinearity correction enabled: false
Boxcar width: 0
XAxis mode: Wavelengths
Number of Pixels in Spectrum: 2048
>>>>>Begin Spectral Data<<<<<
341.393	-19.11
341.776	-19.11
342.16	-19.11
342.543	-54.59
342.927	-64.08
343.31	-58.43
343.693	-71.76
344.077	-94.36
344.46	-52.56
344.843	-60.01
345.226	-59.79
345.61	-23.4
345.993	-17.98
346.376	15.01
346.759	15.01
347.142	27.44
347.525	52.07
347.908	41.45
348.291	78.51
348.674	96.37
349.057	112.41
349.44	137.04
349.823	153.09
350.206	162.13
350.588	218.85
350.971	235.12
351.354	256.36
351.737	253.43
352.119	244.39
352.502	289.13
352.884	290.03
353.267	284.61
353.65	304.72
354.032	316.93
354.414	319.86
354.797	314.21
355.179	317.15
355.562	345.85
355.944	342.91
356.326	335.01
356.709	339.3
357.091	357.38
357.473	341.56
357.855	370.26
358.238	367.09
358.62	379.98
359.002	354.67
359.384	345.85
359.766	362.58
360.148	345.4
360.53	327.77
360.912	359.41
361.294	357.83
361.676	356.93
362.057	342.24
362.439	341.33
362.821	335.23
363.203	342.01
363.584	348.11
363.966	328.68
364.348	333.2
364.729	351.73
365.111	319.64
365.493	335.68
365.874	330.49
366.256	322.35
366.637	323.25
367.019	337.04
367.4	331.39
367.781	318.51
368.163	347.21
368.544	348.56
368.925	323.03
369.306	327.1
369.688	326.87
370.069	331.84
370.45	321.67
370.831	334.55
371.212	337.94
371.593	332.75
371.974	342.91
372.355	337.27
372.736	325.97
373.117	351.5
373.498	323.48
373.879	362.12
374.26	335.68
374.641	327.1
375.021	330.49
375.402	319.64
375.783	320.32
376.163	344.5
376.544	337.72
376.925	342.46
377.305	346.53
377.686	327.77
378.066	336.59
378.447	344.95
378.827	337.04
379.208	341.56
379.588	336.81
379.968	345.85
380.349	350.82
380.729	336.36
381.109	351.05
381.489	351.95
381.87	351.28
382.25	357.38
382.63	379.52
383.01	359.19
383.39	359.64
383.77	334.1
384.15	354.21
384.53	341.56
384.91	363.71
385.29	356.47
385.67	374.78
386.049	370.94
386.429	339.75
386.809	368.45
387.189	353.54
387.568	363.25
387.948	366.87
388.328	377.49
388.707	361.22
389.087	386.3
389.466	380.2
389.846	363.03
390.225	364.61
390.605	384.04
390.984	393.08
391.363	365.29
391.743	409.81
392.122	386.98
392.501	380.43
392.881	395.34
393.26	405.06
393.639	391.73
394.018	372.07
394.397	393.53
394.776	404.38
395.155	405.74
395.534	432.18
395.913	384.95
396.292	383.82
396.671	399.41
397.05	396.02
397.429	389.92
397.808	405.29
398.186	403.93
398.565	409.81
398.944	407.77
399.323	407.32
399.701	409.13
400.08	403.03
400.458	407.32
400.837	403.7
401.215	417.49
401.594	416.13
401.972	426.98
402.351	434.89
402.729	418.17
403.107	419.75
403.486	425.4
403.864	433.99
404.242	411.16
404.62	438.05
404.999	433.99
405.377	433.08
405.755	448
406.133	433.76
406.511	440.31
406.889	435.57
407.267	446.19
407.645	441.67
408.023	454.78
408.401	447.54
408.779	453.65
409.156	473.53
409.534	469.01
409.912	471.5
410.29	476.92
410.667	473.76
411.045	479.18
411.422	477.6
411.8	491.16
412.178	480.31
412.555	487.54
412.933	502.01
413.31	503.81
413.687	473.31
414.065	521.89
414.442	502.23
414.819	505.62
415.197	501.33
415.574	514.89
415.951	509.24
416.328	537.94
416.705	528.22
417.082	538.39
417.46	520.76
417.837	546.53
418.214	537.49
418.591	537.94
418.967	548.33
419.344	527.32
419.721	561.89
420.098	553.76
420.475	563.7
420.852	562.57
421.228	554.43
421.605	584.26
421.982	565.06
422.358	574.77
422.735	552.85
423.111	577.71
423.488	608.44
423.864	583.81
424.241	595.56
424.617	581.55
424.994	608.9
425.37	589.46
425.746	576.58
426.123	598.5
426.499	587.43
426.875	614.09
427.251	611.83
427.627	612.06
428.003	619.52
428.379	642.12
428.756	644.15
429.132	667.65
429.507	650.93
429.883	636.92
430.259	672.17
430.635	669.23
431.011	677.14
431.387	655.22
431.763	678.5
432.138	673.53
432.514	686.18
432.89	696.13
433.265	704.71
433.641	721.89
434.016	720.76
434.392	707.2
434.767	740.42
435.143	730.7
435.518	734.99
435.894	731.38
436.269	757.37
436.644	770.93
437.02	750.59
437.395	758.05
437.77	749.91
438.145	778.16
438.52	773.19
438.895	778.84
439.271	767.76
439.646	820.87
440.021	799.63
440.395	793.07
440.77	812.73
441.145	794.43
441.52	828.33
441.895	831.04
442.27	821.32
442.645	843.47
443.019	835.11
443.394	848.21
443.769	826.74
444.143	844.6
444.518	828.33
444.892	821.32
445.267	838.04
445.641	844.37
446.016	877.36
446.39	857.7
446.764	871.49
447.139	855.9
447.513	856.8
447.887	877.36
448.262	894.76
448.636	900.64
449.01	894.76
449.384	885.05
449.758	895.67
450.132	903.13
450.506	911.71
450.88	897.25
451.254	920.98
451.628	910.36
452.002	924.59
452.376	934.54
452.75	949.9
453.123	923.24
453.497	969.11
453.871	965.05
454.244	994.65
454.618	993.07
454.992	1010.47
455.365	998.94
455.739	1005.04
456.112	1010.02
456.486	993.75
456.859	1041.65
457.232	1021.09
457.606	1034.2
457.979	1028.09
458.352	1043.24
458.725	1056.12
459.099	1069.9
459.472	1081.2
459.845	1076
460.218	1097.47
460.591	1109.45
460.964	1114.65
461.337	1125.27
461.71	1119.62
462.083	1154.87
462.456	1137.92
462.829	1164.59
463.201	1164.36
463.574	1154.87
463.947	1183.34
464.32	1187.19
464.692	1200.07
465.065	1205.26
465.438	1240.29
465.81	1241.2
466.183	1248.65
466.555	1251.82
466.928	1248.88
467.3	1244.36
467.672	1259.05
468.045	1316.45
468.417	1331.82
468.789	1327.52
469.161	1313.06
469.534	1340.63
469.906	1379.5
470.278	1361.19
470.65	1378.82
471.022	1384.02
471.394	1368.88
471.766	1434.64
472.138	1460.4
472.51	1427.86
472.882	1494.52
473.253	1485.26
473.625	1537.69
473.997	1517.57
474.369	1563.22
474.74	1534.52
475.112	1546.95
475.484	1579.27
475.855	1583.56
476.227	1603.67
476.598	1654.74
476.97	1666.5
477.341	1693.61
477.713	1715.76
478.084	1721.41
478.455	1787.62
478.827	1768.19
479.198	1834.4
479.569	1828.07
479.94	1847.73
480.311	1861.52
480.682	1907.85
481.053	1943.1
481.424	2001.63
481.795	1991.68
482.166	2036.43
482.537	2055.64
482.908	2081.17
483.279	2096.09
483.65	2104
484.021	2185.8
484.391	2171.34
484.762	2223.54
485.133	2231
485.503	2242.53
485.874	2290.89
486.244	2333.6
486.615	2374.05
486.985	2390.77
487.356	2445.91
487.726	2471.45
488.097	2503.76
488.467	2506.47
488.837	2602.06
489.207	2603.19
489.578	2609.97
489.948	2668.5
490.318	2718.67
490.688	2741.27
491.058	2770.42
491.428	2828.73
491.798	2826.01
492.168	2906.69
492.538	2898.55
492.908	2969.96
493.278	2951.21
493.648	3012.45
494.017	3019.91
494.387	3060.58
494.757	3093.12
495.126	3160.47
495.496	3167.47
495.866	3200.92
496.235	3264.42
496.605	3243.63
496.974	3267.13
497.344	3346.23
497.713	3370.18
498.082	3383.74
498.452	3450.86
498.821	3429.61
499.19	3510.97
499.559	3553
499.928	3575.15
500.298	3543.06
500.667	3648.82
501.036	3641.13
501.405	3657.4
501.774	3696.5
502.143	3743.28
502.512	3743.96
502.88	3761.81
503.249	3801.81
503.618	3841.81
503.987	3841.81
504.356	3890.39
504.724	3901.47
505.093	3987.79
505.462	3944.18
505.83	3988.02
506.199	4023.72
506.567	4049.71
506.936	4030.73
507.304	4155.02
507.672	4149.82
508.041	4193.21
508.409	4219.87
508.777	4219.87
509.145	4307.56
509.514	4302.13
509.882	4342.58
510.25	4347.33
510.618	4395.46
510.986	4411.28
511.354	4417.61
511.722	4505.29
512.09	4517.72
512.458	4520.43
512.826	4566.08
513.193	4571.5
513.561	4609.92
513.929	4668.45
514.297	4676.13
514.664	4705.51
515.032	4725.85
515.4	4742.12
515.767	4780.99
516.135	4816.7
516.502	4820.31
516.869	4904.6
517.237	4949.8
517.604	4914.09
517.972	4969.91
518.339	5035.67
518.706	5006.97
519.073	5109.8
519.44	5131.26
519.808	5159.51
520.175	5186.4
520.542	5212.62
520.909	5296.23
521.276	5277.02
521.643	5299.17
522.009	5308.43
522.376	5365.38
522.743	5446.28
523.11	5418.49
523.477	5474.53
523.843	5556.34
524.21	5590.23
524.577	5620.06
524.943	5661.42
525.31	5677.24
525.676	5707.07
526.043	5764.92
526.409	5803.11
526.776	5864.8
527.142	5853.96
527.508	5914.97
527.874	5986.38
528.241	5976.89
528.607	5969.43
528.973	6105.25
529.339	6034.29
529.705	6097.11
530.071	6152.93
530.437	6206.04
530.803	6216.43
531.169	6266.15
531.535	6271.57
531.901	6265.24
532.267	6318.35
532.632	6378.01
532.998	6385.92
533.364	6383.21
533.73	6402.64
534.095	6518.57
534.461	6457.33
534.826	6519.02
535.192	6535.75
535.557	6620.94
535.923	6589.08
536.288	6616.2
536.653	6621.39
537.019	6650.09
537.384	6648.29
537.749	6731.67
538.114	6730.77
538.479	6791.11
538.845	6854.83
539.21	6797.21
539.575	6861.16
539.94	6892.8
540.305	6919.69
540.67	6926.47
541.034	6914.04
541.399	7016.41
541.764	7007.37
542.129	7064.32
542.494	7121.04
542.858	7142.51
543.223	7115.62
543.587	7220.02
543.952	7194.71
544.316	7206.92
544.681	7229.06
545.045	7305.44
545.41	7359.68
545.774	7374.59
546.138	7404.2
546.503	7384.99
546.867	7454.37
547.231	7508.83
547.595	7526.45
547.959	7590.18
548.324	7623.18
548.688	7676.28
549.052	7690.52
549.416	7709.05
549.779	7767.8
550.143	7757.18
550.507	7827.69
550.871	7880.8
551.235	7857.97
551.599	7991.53
551.962	7950.17
552.326	8018.65
552.689	8059.32
553.053	8052.54
553.417	8103.61
553.78	8243.72
554.143	8224.06
554.507	8278.98
554.87	8284.63
555.234	8423.83
555.597	8392.42
555.96	8463.15
556.323	8618.86
556.686	8646.65
557.05	8641
557.413	8731.85
557.776	8745.63
558.139	8859.07
558.502	8872.18
558.865	8959.64
559.228	9036.92
559.59	8971.16
559.953	9078.73
560.316	9206.18
560.679	9259.29
561.041	9371.15
561.404	9448.66
561.767	9556.23
562.129	9486.4
562.492	9654.31
562.854	9669.45
563.217	9741.54
563.579	9829.22
563.941	9944.92
564.304	10007.07
564.666	10146.27
565.028	10260.17
565.39	10325.93
565.753	10422.65
566.115	10550.33
566.477	10583.32
566.839	10779.93
567.201	10838.23
567.563	10917.1
567.925	11033.93
568.287	11179.92
568.648	11215.62
569.01	11439.12
569.372	11562.73
569.734	11661.49
570.095	11782.16
570.457	11868.49
570.819	12032.32
571.18	12219.44
571.542	12369.72
571.903	12500.11
572.265	12685.42
572.626	12804.73
572.987	12989.59
573.349	13190.71
573.71	13311.84
574.071	13516.81
574.432	13734.88
574.794	13928.32
575.155	14088.54
575.516	14246.05
575.877	14514.75
576.238	14712.71
576.599	14972.81
576.96	15154.05
577.32	15348.62
577.681	15588.84
578.042	15866.12
578.403	16143.4
578.763	16271.76
579.124	16635.14
579.485	16981.57
579.845	17357.61
580.206	17481.45
580.566	17713.98
580.927	18087.98
581.287	18444.59
581.648	18663.34
582.008	18987.62
582.368	19388.29
582.728	19644.55
583.089	19994.83
583.449	20254.71
583.809	20657.63
584.169	20991.41
584.529	21263.04
584.889	21919.97
585.249	22096.92
585.609	22448.55
585.969	22979.38
586.329	23323.78
586.688	23651.23
587.048	23981.39
587.408	24351.55
587.768	24869.5
588.127	25294.35
588.487	25628.8
588.846	26212.52
589.206	26541.1
589.565	26989.67
589.925	27501.75
590.284	27929.08
590.643	28311.44
591.003	28842.28
591.362	29346.45
591.721	29775.14
592.08	30108.46
592.44	30773.3
592.799	31131.71
593.158	31516.78
593.517	32089.88
593.876	32568.96
594.235	32943.41
594.593	33409.16
594.952	33928.47
595.311	34214.11
595.67	34856.58
596.029	35527.53
596.387	35983.56
596.746	36428.07
597.104	36668.97
597.463	37132.91
597.822	37662.39
598.18	38029.61
598.538	38516.6
598.897	39122.46
599.255	39159.07
599.613	40059.16
599.972	40205.14
600.33	40821.85
600.688	41111.79
601.046	41599.23
601.404	42118.54
601.762	42477.4
602.12	42896.6
602.478	43233.99
602.836	43686.86
603.194	43788.78
603.552	44346.96
603.91	44491.81
604.268	45082.98
604.625	45209.08
604.983	45724.09
605.341	45783.08
605.698	46326.79
606.056	46808.81
606.413	47024.85
606.771	47307.78
607.128	47562.92
607.485	47756.36
607.843	47937.82
608.2	48460.97
608.557	48707.29
608.914	48778.93
609.272	49240.61
609.629	49374.62
609.986	49717.21
610.343	49689.87
610.7	50132.79
611.057	50172.56
611.414	50286.69
611.771	50516.51
612.127	50721.03
612.484	50889.61
612.841	51119.66
613.198	51182.71
613.554	51444.85
613.911	51609.36
614.267	51728.46
614.624	51770.94
614.98	51968.45
615.337	52104.94
615.693	52246.63
616.05	52247.54
616.406	52548.1
616.762	52516.01
617.118	52635.78
617.475	52669.9
617.831	52887.97
618.187	53047.52
618.543	53105.6
618.899	53255.65
619.255	53252.48
619.611	53296.1
619.967	53467.62
620.323	53629.2
620.678	53557.11
621.034	53530.89
621.39	53548.07
621.746	53599.14
622.101	53887.04
622.457	53704.9
622.812	53849.98
623.168	53922.52
623.523	53994.16
623.879	54116.19
624.234	53896.08
624.589	54157.09
624.945	54245.68
625.3	54175.85
625.655	54258.79
626.01	54265.56
626.365	54377.2
626.72	54277.09
627.075	54419.01
627.43	54327.26
627.785	54406.58
628.14	54408.61
628.495	54506.69
628.85	54479.34
629.205	54397.31
629.559	54704.42
629.914	54440.48
630.269	54543.52
630.623	54495.62
630.978	54417.65
631.332	54573.35
631.687	54644.31
632.041	54504.88
632.396	54614.26
632.75	54512.11
633.104	54543.52
633.459	54514.6
633.813	54402.96
634.167	54499.46
634.521	54509.85
634.875	54504.43
635.229	54512.56
635.583	54386.92
635.937	54432.34
636.291	54407.93
636.645	54391.21
636.999	54332
637.352	54501.26
637.706	54199.58
638.06	54390.53
638.413	54326.58
638.767	54311.44
639.121	54363.64
639.474	54187.83
639.828	54224.89
640.181	54215.62
640.534	54301.5
640.888	54215.62
641.241	54030.32
641.594	54212.46
641.947	54256.3
642.301	54145.57
642.654	54180.37
643.007	54230.31
643.36	54132.23
643.713	54045.23
644.066	54204.78
644.419	54036.64
644.771	53857.44
645.124	53646.15
645.477	53563.21
645.83	53352.37
646.182	53286.38
646.535	53288.19
646.888	53305.36
647.24	53164.58
647.593	53436.43
647.945	53287.74
648.298	53153.5
648.65	53099.72
649.002	52978.82
649.355	53244.57
649.707	53164.58
650.059	53260.39
650.411	53599.37
650.763	53652.02
651.115	53933.14
651.467	53793.71
651.819	53834.62
652.171	53749.19
652.523	53714.84
652.875	53728.18
653.227	53666.48
653.578	53827.84
653.93	53778.8
654.282	53596.88
654.633	53580.84
654.985	53605.02
655.337	53652.25
655.688	53656.77
656.039	53791.23
656.391	53501.74
656.742	53539.48
657.094	53528.18
657.445	53700.38
657.796	53608.41
658.147	53643.66
658.498	53558.92
658.849	53654.28
659.2	53594.4
659.551	53504.45
659.902	53600.72
660.253	53580.61
660.604	53638.46
660.955	53488.18
661.306	53540.61
661.656	53538.35
662.007	53526.6
662.358	53563.89
662.708	53464.46
663.059	53543.55
663.409	53361.18
663.76	53573.61
664.11	53537.45
664.461	53589.2
664.811	53550.1
665.161	53513.27
665.511	53330.67
665.862	53484.79
666.212	53506.71
666.562	53569.76
666.912	53502.65
667.262	53435.98
667.612	53456.77
667.962	53484.79
668.312	53359.6
668.662	53462.42
669.011	53397.56
669.361	53358.7
669.711	53325.48
670.06	53261.98
670.41	53297.68
670.76	53195.54
671.109	53297.23
671.459	53224.01
671.808	53150.79
672.157	53310.34
672.507	53072.83
672.856	53096.56
673.205	53121.64
673.554	53172.94
673.904	53121.41
674.253	53181.75
674.602	53146.72
674.951	52654.08
675.3	52493.86
675.649	52965.94
675.998	52906.05
676.346	53021.53
676.695	53040.74
677.044	52785.38
677.393	52856.34
677.741	52871.25
678.09	52850.91
678.438	52814.53
678.787	52927.29
679.135	52904.24
679.484	52575.67
679.832	52646.17
680.181	52578.6
680.529	52666.96
680.877	52511.26
681.225	52536.57
681.573	52742.89
681.922	52385.39
682.27	52424.26
682.618	52534.54
682.966	52393.07
683.314	52470.81
683.661	52305.16
684.009	52131.61
684.357	52080.54
684.705	52036.02
685.053	52097.71
685.4	52050.48
685.748	51862.46
686.095	51817.95
686.443	51779.75
686.79	51704.28
687.138	51798.96
687.485	51694.33
687.832	51546.31
688.18	51661.79
688.527	51531.85
688.874	51475.58
689.221	51349.03
689.568	51320.33
689.915	51142.71
690.262	51223.38
690.609	51069.72
690.956	50944.52
691.303	50997.63
691.65	50781.14
691.997	50686.22
692.344	50534.36
692.69	50557.64
693.037	50624.3
693.383	50260.7
693.73	50398.1
694.077	50235.39
694.423	50168.05
694.769	50123.3
695.116	50091.66
695.462	50040.37
695.808	49846.02
696.155	49829.75
696.501	49643.54
696.847	49492.36
697.193	49302.53
697.539	49497.1
697.885	49229.76
698.231	48999.49
698.577	49009.88
698.923	48955.2
699.269	48775.31
699.614	48605.37
699.96	48608.76
700.306	48623.91
700.651	48423.91
700.997	48190.47
701.342	48223.24
701.688	48030.93
702.033	48072.28
702.379	48042
702.724	47952.06
703.069	47989.8
703.415	47431.62
703.76	47668.9
704.105	47608.11
704.45	47418.06
704.795	47138.75
705.14	47054.91
705.485	46955.93
705.83	46859.88
706.175	46891.75
706.52	46759.1
706.865	46698.31
707.209	46629.61
707.554	46243.4
707.899	46501.25
708.243	46313.46
708.588	46184.2
708.932	45991.21
709.277	46014.26
709.621	45958.66
709.966	45660.14
710.31	45832.57
710.654	45386.02
710.998	45701.04
711.342	45631.89
711.687	45435.74
712.031	45179.25
712.375	45037.33
712.719	45181.96
713.063	45168.63
713.407	45183.77
713.75	44825.81
714.094	44830.11
714.438	44748.75
714.782	44784.68
715.125	44633.73
715.469	44624.24
715.812	44444.13
716.156	44163.23
716.499	44143.57
716.843	44367.97
717.186	44140.18
717.53	44360.06
717.873	44247.3
718.216	44128.43
718.559	43974.08
718.902	43770.02
719.246	43805.27
719.589	43629.69
719.932	43542
720.275	43504.94
720.617	43485.06
720.96	43479.86
721.303	43343.82
721.646	43441.89
721.989	43152.86
722.331	43335.68
722.674	43133.43
723.016	43210.71
723.359	43076.48
723.701	43112.86
724.044	42869.03
724.386	42705.42
724.729	42927.56
725.071	42723.72
725.413	42655.47
725.755	42775.7
726.097	42564.18
726.439	42288.48
726.782	42484.18
727.124	42481.92
727.465	42328.93
727.807	42219.1
728.149	42211.19
728.491	42232.66
728.833	42186.11
729.175	42038.77
729.516	42035.15
729.858	41946.79
730.199	42151.31
730.541	42040.35
730.882	41954.25
731.224	41898.66
731.565	41691.43
731.906	41796.74
732.248	41761.94
732.589	41654.14
732.93	41532.57
733.271	41590.64
733.612	41646.69
733.953	41568.5
734.294	41334.38
734.635	41408.5
734.976	41369.86
735.317	41178.23
735.658	41249.41
735.999	41153.59
736.339	41039.25
736.68	41212.57
737.021	41102.97
737.361	40954.05
737.702	41150.43
738.042	40983.43
738.383	41025.91
738.723	41033.82
739.063	40794.28
739.404	40906.14
739.744	40650.33
740.084	40584.79
740.424	40639.93
740.764	40606.71
741.104	40701.4
741.444	40419.38
741.784	40380.73
742.124	40497.79
742.464	40352.48
742.804	40366.5
743.143	40267.74
743.483	40314.07
743.823	40099.84
744.162	39990.01
744.502	40238.81
744.841	39929.9
745.181	40231.81
745.52	39892.84
745.86	39896.68
746.199	39971.25
746.538	39836.79
746.877	40101.87
747.216	39857.58
747.556	39746.4
747.895	39841.09
748.234	39681.77
748.573	39655.33
748.911	39631.83
749.25	39660.75
749.589	39326.97
749.928	39478.61
750.267	39459.85
750.605	39379.18
750.944	39302.34
751.283	39206.98
751.621	39269.12
751.96	39050.82
752.298	38932.63
752.636	39083.14
752.975	38775.58
753.313	38640.44
753.651	38959.07
753.989	38611.29
754.327	38468.01
754.666	38293.78
755.004	38418.75
755.342	38504.17
755.679	38342.37
756.017	38192.54
756.355	38295.82
756.693	38064.18
757.031	38141.47
757.368	37929.27
757.706	37878.42
758.044	37821.03
758.381	37718.66
758.719	37535.38
759.056	37583.29
759.394	37497.87
759.731	37302.39
760.068	37221.27
760.405	37036.64
760.743	37040.03
761.08	37135.85
761.417	36886.81
761.754	36951.44
762.091	36865.8
762.428	36713.94
762.765	36535.41
763.102	36460.16
763.438	36433.04
763.775	36200.95
764.112	36138.36
764.449	36201.86
764.785	36105.59
765.122	35783.79
765.458	35713.74
765.795	35780.63
766.131	35602.55
766.467	35465.61
766.804	35275.1
767.14	35282.34
767.476	35283.92
767.812	34984.49
768.148	35096.58
768.485	34780.43
768.821	34624.27
769.157	34536.82
769.492	34545.18
769.828	34457.5
770.164	34250.95
770.5	34038.07
770.836	34273.1
771.171	33943.39
771.507	33776.16
771.842	33553.57
772.178	33635.6
772.513	33581.14
772.849	33364.42
773.184	33194.48
773.519	33172.79
773.855	32958.55
774.19	32916.3
774.525	32744.1
774.86	32882.62
775.195	32794.49
775.53	32475.4
775.865	32418
776.2	32188.41
776.535	31952.25
776.87	32101.85
777.205	31887.4
777.539	31714.07
777.874	31772.6
778.209	31524.02
778.543	31393.17
778.878	31297.81
779.212	31296.23
779.547	31077.93
779.881	31139.17
780.215	30949.34
780.55	30976.23
780.884	30788.44
781.218	30821.66
781.552	30708.44
781.886	30504.61
782.22	30360.2
782.554	30155.69
782.888	29932.87
783.222	29876.6
783.556	29708.92
783.889	29666.21
784.223	29674.35
784.557	29482.49
784.89	29569.26
785.224	29381.93
785.557	29213.57
785.891	29257.86
786.224	29059.22
786.558	28963.63
786.891	28776.29
787.224	28563.64
787.557	28536.3
787.891	28530.2
788.224	28555.05
788.557	28560.25
788.89	28313.03
789.223	28305.12
789.556	28080.49
789.888	28082.3
790.221	27983.32
790.554	27641.63
790.887	27816.77
791.219	27656.09
791.552	27598.02
791.884	27474.86
792.217	27284.81
792.549	27203.68
792.882	27072.61
793.214	26961.42
793.546	26824.03
793.879	26781.99
794.211	26611.38
794.543	26800.75
794.875	26686.4
795.207	26761.88
795.539	26540.19
795.871	26480.98
796.203	26307.2
796.535	26003.26
796.867	26073.54
797.198	26076.25
797.53	26016.36
797.862	25828.8
798.193	25853.88
798.525	25785.41
798.856	25738.18
799.188	25370.28
799.519	25421.35
799.85	25184.07
800.182	25267.46
800.513	25316.04
800.844	24980.91
801.175	25099.33
801.506	25041.7
801.837	24943.17
802.168	24836.96
802.499	24828.15
802.83	24718.09
803.161	24646.68
803.491	24597.19
803.822	24460.7
804.153	24383.64
804.483	24304.32
804.814	24105.91
805.145	24130.54
805.475	24194.04
805.805	24103.65
806.136	24063.65
806.466	24016.42
806.796	23928.51
807.126	23775.97
807.457	23765.8
807.787	23783.65
808.117	23575.98
808.447	23520.16
808.777	23562.64
809.107	23471.57
809.436	23387.96
809.766	23304.34
810.096	23171.24
810.426	23213.27
810.755	23058.25
811.085	23160.17
811.414	23088.53
811.744	22851.25
812.073	22885.6
812.403	22774.42
812.732	22719.28
813.061	22670.01
813.39	22596.79
813.719	22528.55
814.049	22627.75
814.378	22499.85
814.707	22404.03
815.036	22361.09
815.365	22224.15
815.693	22025.73
816.022	22048.11
816.351	22035
816.68	22010.82
817.008	21978.28
817.337	21843.59
817.665	21702.13
817.994	21777.15
818.322	21747.78
818.651	21583.03
818.979	21475.47
819.307	21688.57
819.636	21545.97
819.964	21361.57
820.292	21606.08
820.62	21386.43
820.948	21315.47
821.276	21341.01
821.604	21345.98
821.932	21336.04
822.259	21377.39
822.587	21398.18
822.915	21357.5
823.243	21362.7
823.57	21373.1
823.898	21302.36
824.225	21173.78
824.553	21300.78
824.88	21317.28
825.207	21395.47
825.535	21309.6
825.862	21359.54
826.189	21155.25
826.516	21334
826.843	21377.84
827.17	21293.78
827.497	21244.29
827.824	21390.04
828.151	21357.05
828.478	21250.61
828.805	21316.6
829.131	21187.34
829.458	21194.57
829.785	21157.51
830.111	21226.66
830.438	21235.25
830.764	21386.66
831.09	21279.31
831.417	21062.82
831.743	21248.13
832.069	21218.3
832.395	21087
832.722	21156.6
833.048	21142.59
833.374	21068.92
833.7	20935.37
834.026	21059.88
834.351	21096.49
834.677	21043.16
835.003	21113.89
835.329	21019.43
835.654	20838.65
835.98	20920.23
836.306	20845.2
836.631	20856.27
836.956	20852.66
837.282	20826.44
837.607	20684.98
837.932	20674.58
838.258	20741.25
838.583	20753.9
838.908	20517.07
839.233	20510.07
839.558	20573.12
839.883	20493.12
840.208	20396.85
840.533	20438.21
840.858	20415.83
841.182	20383.07
841.507	20302.16
841.832	20261.71
842.156	20217.87
842.481	20253.58
842.805	20183.97
843.13	20192.56
843.454	20149.17
843.778	20002.06
844.103	20065.11
844.427	19885.23
844.751	19955.51
845.075	19989.86
845.399	19839.58
845.723	19786.25
846.047	19772.23
846.371	19555.74
846.695	19560.49
847.019	19475.97
847.343	19337.9
847.666	19212.7
847.99	19196.66
848.313	19172.48
848.637	19052.48
848.96	19102.65
849.284	18989.43
849.607	18852.03
849.931	18767.29
850.254	18633.51
850.577	18528.65
850.9	18399.62
851.223	18329.79
851.546	18322.55
851.869	18157.59
852.192	18376.56
852.515	18102
852.838	18109.91
853.161	18111.26
853.483	17949.68
853.806	17922.79
854.129	17816.58
854.451	17770.25
854.774	17621.33
855.096	17523.48
855.419	17539.3
855.741	17541.78
856.063	17512.63
856.385	17413.65
856.708	17396.7
857.03	17245.97
857.352	17345.63
857.674	17188.8
857.996	17131.4
858.318	17040.78
858.64	17067.45
858.961	17019.31
859.283	16937.96
859.605	16831.07
859.926	16820.45
860.248	16838.75
860.57	16766.89
860.891	16792.2
861.212	16691.86
861.534	16698.19
861.855	16628.14
862.176	16640.57
862.498	16645.76
862.819	16530.96
863.14	16506.56
863.461	16507.01
863.782	16398.09
864.103	16458.65
864.424	16425.43
864.745	16356.05
865.065	16257.75
865.386	16219.33
865.707	16211.65
866.027	16140.01
866.348	16179.11
866.668	16143.18
866.989	16160.35
867.309	16065.67
867.63	16087.13
867.95	16067.02
868.27	15859.34
868.59	16011.2
868.91	15928.04
869.23	15877.2
869.55	15848.04
869.87	15902.28
870.19	15813.47
870.51	15834.48
870.83	15916.29
871.15	15730.98
871.469	15694.6
871.789	15719.69
872.109	15660.7
872.428	15612.12
872.748	15672
873.067	15652.12
873.386	15634.72
873.706	15579.35
874.025	15546.58
874.344	15504.1
874.663	15570.99
874.982	15403.08
875.301	15506.58
875.62	15384.33
875.939	15318.11
876.258	15400.37
876.577	15295.74
876.896	15322.41
877.214	15289.41
877.533	15267.72
877.852	15288.51
878.17	15225.01
878.489	15261.62
878.807	15180.04
879.125	15196.54
879.444	15069.53
879.762	15069.53
880.08	15061.62
880.398	15017.78
880.716	15061.17
881.034	14988.63
881.352	15012.36
881.67	14957.9
881.988	14946.6
882.306	14824.57
882.624	14730.78
882.941	14687.85
883.259	14680.16
883.577	14573.95
883.894	14607.62
884.212	14595.42
884.529	14587.06
884.846	14628.19
885.164	14557.91
885.481	14491.92
885.798	14540.96
886.115	14407.63
886.432	14378.7
886.75	14328.76
887.067	14326.95
887.383	14225.26
887.7	14310.23
888.017	14116.34
888.334	14219.61
888.651	14199.05
888.967	14128.31
889.284	14037.7
889.6	14098.71
889.917	13930.13
890.233	14034.08
890.55	13836.8
890.866	13890.81
891.182	13801.77
891.498	13759.51
891.815	13658.5
892.131	13672.73
892.447	13599.29
892.763	13600.87
893.079	13511.61
893.395	13638.61
893.71	13479.97
894.026	13455.56
894.342	13412.63
894.657	13309.81
894.973	13342.8
895.289	13336.7
895.604	13317.49
895.92	13207.44
896.235	13202.92
896.55	13115.46
896.865	13020.32
897.181	13070.72
897.496	13031.62
897.811	12950.94
898.126	12903.94
898.441	12846.54
898.756	12836.6
899.071	12673.21
899.386	12747.79
899.7	12698.97
900.015	12643.83
900.33	12465.53
900.644	12532.2
900.959	12464.18
901.273	12431.64
901.588	12317.97
901.902	12254.24
902.216	12317.29
902.531	12255.37
902.845	12264.18
903.159	12170.85
903.473	12033.45
903.787	12098.54
904.101	11955.49
904.415	12033.68
904.729	11913.46
905.042	11898.32
905.356	11825.78
905.67	11791.2
905.984	11812.67
906.297	11777.87
906.611	11640.92
906.924	11694.48
907.237	11615.16
907.551	11581.49
907.864	11417.65
908.177	11382.62
908.491	11349.63
908.804	11358.9
909.117	11336.07
909.43	11242.29
909.743	11221.72
910.056	11252.91
910.368	11124.1
910.681	11100.37
910.994	11085.01
911.307	10997.78
911.619	10967.49
911.932	10882.52
912.244	10780.61
912.557	10839.14
912.869	10787.16
913.181	10699.25
913.494	10692.7
913.806	10624
914.118	10546.04
914.43	10469.88
914.742	10495.19
915.054	10417
915.366	10367.96
915.678	10350.79
915.99	10369.32
916.302	10247.51
916.613	10200.51
916.925	10163.67
917.236	10212.26
917.548	10072.15
917.859	10079.83
918.171	10017.01
918.482	10015.43
918.794	9926.84
919.105	9876
919.416	9902.44
919.727	9768.66
920.038	9792.16
920.349	9707.64
920.66	9706.28
920.971	9704.02
921.282	9634.87
921.593	9591.49
921.903	9516.23
922.214	9448.44
922.525	9375.22
922.835	9390.59
923.146	9402.34
923.456	9372.06
923.767	9311.72
924.077	9237.6
924.387	9180.2
924.697	9135.68
925.008	9091.16
925.318	9092.29
925.628	9052.97
925.938	9010.26
926.248	8928.45
926.558	8927.1
926.867	8913.31
927.177	8844.84
927.487	8836.7
927.796	8759.42
928.106	8714.22
928.416	8696.59
928.725	8691.4
929.034	8612.75
929.344	8626.76
929.653	8537.5
929.962	8501.8
930.271	8404.17
930.581	8420.22
930.89	8409.37
931.199	8306.77
931.508	8351.07
931.817	8358.07
932.125	8236.27
932.434	8203.5
932.743	8139.32
933.051	8120.11
933.36	8124.63
933.669	8036.5
933.977	8024.52
934.286	7970.74
934.594	7923.05
934.902	7910.63
935.21	7908.82
935.519	7889.61
935.827	7909.04
936.135	7787.01
936.443	7692.55
936.751	7676.28
937.059	7640.58
937.367	7622.5
937.674	7592.67
937.982	7607.58
938.29	7553.57
938.597	7471.54
938.905	7444.2
939.213	7429.96
939.52	7339.34
939.827	7390.41
940.135	7307.03
940.442	7315.61
940.749	7303.86
941.056	7296.18
941.363	7217.31
941.67	7199.68
941.977	7131.89
942.284	7071.33
942.591	7070.65
942.898	7006.92
943.205	7013.47
943.511	6952.46
943.818	6999.91
944.125	6925.34
944.431	6909.52
944.738	6854.38
945.044	6877.21
945.35	6836.76
945.657	6774.61
945.963	6754.27
946.269	6756.08
946.575	6747.27
946.881	6675.4
947.187	6676.99
947.493	6655.74
947.799	6604.9
948.105	6534.16
948.41	6484
948.716	6484.45
949.022	6461.62
949.327	6441.06
949.633	6378.24
949.938	6396.09
950.244	6348.86
950.549	6332.59
950.854	6285.81
951.16	6279.03
951.465	6245.13
951.77	6283.32
952.075	6175.53
952.38	6163.55
952.685	6115.87
952.99	6109.32
953.294	6035.19
953.599	6060.96
953.904	5989.77
954.209	5935.31
954.513	5968.53
954.818	5950
955.122	5962.65
955.426	5902.32
955.731	5827.74
956.035	5805.82
956.339	5806.73
956.643	5803.56
956.948	5756.11
957.252	5729.89
957.556	5706.84
957.86	5632.04
958.163	5688.54
958.467	5627.97
958.771	5584.81
959.075	5581.42
959.378	5475.66
959.682	5549.33
959.985	5525.6
960.289	5484.7
960.592	5443.57
960.896	5418.49
961.199	5387.53
961.502	5368.77
961.805	5332.84
962.108	5288.55
962.411	5279.51
962.714	5283.35
963.017	5243.35
963.32	5227.08
963.623	5237.25
963.926	5202.45
964.228	5173.97
964.531	5148.44
964.833	5138.95
965.136	5082.45
965.438	5065.73
965.741	5033.86
966.043	5008.55
966.345	5008.78
966.648	5008.33
966.95	4995.9
967.252	4935.34
967.554	4938.05
967.856	4898.73
968.158	4846.07
968.46	4870.48
968.761	4849.01
969.063	4820.76
969.365	4829.35
969.666	4846.75
969.968	4733.31
970.269	4738.28
970.571	4722.69
970.872	4679.75
971.174	4639.52
971.475	4653.08
971.776	4591.62
972.077	4656.93
972.378	4596.59
972.679	4611.96
972.98	4537.61
973.281	4540.09
973.582	4498.74
973.883	4470.49
974.183	4448.34
974.484	4456.7
974.785	4369.7
975.085	4427.55
975.386	4394.33
975.686	4412.41
975.986	4355.01
976.287	4319.31
976.587	4296.94
976.887	4259.42
977.187	4243.15
977.487	4260.33
977.787	4168.58
978.087	4224.85
978.387	4206.77
978.687	4197.95
978.987	4156.15
979.286	4080.67
979.586	4102.82
979.885	4051.74
980.185	4042.03
980.484	4078.64
980.784	4033.21
981.083	4027.79
981.382	3983.04
981.682	4019.2
981.981	3945.53
982.28	3986.43
982.579	3953.44
982.878	3873.22
983.177	3889.71
983.475	3879.77
983.774	3853.56
984.073	3805.42
984.372	3810.39
984.67	3807.46
984.969	3832.77
985.267	3772.43
985.566	3760.23
985.864	3705.99
986.162	3740.11
986.461	3693.34
986.759	3705.31
987.057	3675.48
987.355	3616.5
987.653	3647.46
987.951	3590.51
988.249	3609.27
988.547	3609.27
988.844	3581.02
989.142	3558.42
989.44	3523.4
989.737	3512.1
990.035	3509.39
990.332	3456.73
990.63	3488.82
990.927	3459.89
991.224	3439.78
991.521	3397.52
991.819	3404.98
992.116	3391.2
992.413	3401.59
992.71	3384.42
993.006	3361.59
993.303	3325.21
993.6	3326.34
993.897	3306.45
994.193	3266.23
994.49	3236.4
994.787	3230.52
995.083	3230.3
995.379	3206.57
995.676	3242.95
995.972	3196.17
996.268	3201.37
996.565	3143.97
996.861	3134.03
997.157	3147.13
997.453	3103.75
997.749	3102.84
998.044	3111.66
998.34	2999.79
998.636	3005.22
998.932	3026.23
999.227	3008.83
999.523	3010.19
999.818	2969.74
1000.114	2962.28
1000.409	2939
1000.704	2925.22
1001	2903.75
1001.295	2907.37
1001.59	2870.98
1001.885	2849.97
1002.18	2851.1
1002.475	2833.92
1002.77	2809.52
1003.065	2755.05
1003.359	2774.72
1003.654	2740.14
1003.949	2753.25
1004.243	2724.32
1004.538	2699.24
1004.832	2669.63
1005.127	2653.81
1005.421	2669.63
1005.715	2688.16
1006.009	2632.12
1006.304	2586.02
1006.598	2581.5
1006.892	2604.32
1007.186	2574.49
1007.48	2584.44
1007.773	2543.53
1008.067	2529.98
1008.361	2521.84
1008.655	2520.71
1008.948	2455.4
1009.242	2490.43
1009.535	2452.46
1009.829	2452.69
1010.122	2424.44
1010.415	2398
1010.708	2401.39
1011.001	2359.36
1011.295	2350.55
1011.588	2371.34
1011.881	2342.64
1012.173	2299.02
1012.466	2346.03
1012.759	2303.09
1013.052	2290.89
1013.344	2265.35
1013.637	2239.59
1013.93	2236.42
1014.222	2235.07
1014.514	2202.07
1014.807	2162.3
1015.099	2136.09
1015.391	2137.67
1015.683	2138.8
1015.976	2148.06
1016.268	2131.79
1016.56	2102.87
1016.851	2104.45
1017.143	2102.64
1017.435	2082.98
1017.727	2049.99
1018.018	2047.05
1018.31	2048.63
1018.602	2016.09
1018.893	2045.02
1019.185	2012.7
1019.476	1956.88
1019.767	1977.45
1020.058	1962.99
1020.35	1949.43
1020.641	1940.61
1020.932	1929.31
1021.223	1898.58
1021.514	1888.18
1021.804	1877.56
1022.095	1881.86
1022.386	1848.19
1022.677	1817.68
1022.967	1821.97
1023.258	1808.41
1023.548	1765.48
1023.839	1790.11
1024.129	1796.66
1024.419	1773.84
1024.709	1757.57
1025	1733.61
1025.29	1735.19
1025.58	1694.52
1025.87	1721.41
1026.16	1701.3
1026.449	1704.69
1026.739	1666.95
1027.029	1661.52
1027.319	1628.98
1027.608	1633.05
1027.898	1615.2
1028.187	1612.71
1028.477	1578.59
1028.766	1582.88
1029.055	1562.54
1029.344	1544.92
1029.634	1558.7
1029.923	1540.85
1030.212	1548.08
1030.501	1501.3
1030.79	1483.45
1031.078	1505.82
1031.367	1492.04
1031.656	1461.3
1031.945	1448.65
1032.233	1474.64
1032.522	1473.73
1032.81	1436.9
1033.099	1433.28
1033.387	1401.87
1033.675	1399.84
1033.963	1377.01
1034.251	1381.31
1034.54	1387.86
1034.828	1365.94
1035.116	1344.24
1035.403	1330.91
1035.691	1337.01
1035.979	1312.15
1036.267	1323.23
1036.554	1274.42
1036.842	1288.88
1037.129	1283
1037.417	1294.08
1037.704	1261.53
1037.992	1280.29
1038.279	1237.13
1038.566	1243.91
1038.853	1243.91
1039.14	1243.91
