Data from orange_diffuse_book_FLMS001491_00084.txt Node
Date: Wed Feb 08 15:30:09 GMT 2017
User: dcchb
Spectrometer: FLMS00149
Trigger mode: 0
Integration Time (sec): 2.000000E-2
Scans to average: 10
Electric dark correction enabled: true
Nonlinearity correction enabled: false
Boxcar width: 0
XAxis mode: Wavelengths
Number of Pixels in Spectrum: 2048
>>>>>Begin Spectral Data<<<<<
341.393	-19
341.776	-19
342.16	-19
342.543	-60.13
342.927	-51.76
343.31	-79.33
343.693	-61.93
344.077	-56.28
344.46	-60.58
344.843	-54.7
345.226	-31.88
345.61	-37.08
345.993	-35.04
346.376	-3.4
346.759	7.22
347.142	27.1
347.525	56.71
347.908	76.59
348.291	85.63
348.674	71.17
349.057	95.8
349.44	121.34
349.823	156.37
350.206	157.27
350.588	230.71
350.971	214.44
351.354	231.17
351.737	253.99
352.119	263.26
352.502	270.04
352.884	287.89
353.267	299.86
353.65	298.51
354.032	297.61
354.414	320.88
354.797	319.75
355.179	333.76
355.562	319.98
355.944	321.11
356.326	338.51
356.709	358.39
357.091	333.31
357.473	347.1
357.855	365.4
358.238	351.62
358.62	347.77
359.002	359.52
359.384	349.81
359.766	343.03
360.148	347.1
360.53	333.76
360.912	345.06
361.294	362.24
361.676	353.65
362.057	357.26
362.439	344.84
362.821	336.25
363.203	338.28
363.584	343.25
363.966	342.35
364.348	313.88
364.729	329.47
365.111	314.78
365.493	329.69
365.874	322.01
366.256	331.73
366.637	305.51
367.019	310.94
367.4	338.73
367.781	333.31
368.163	303.71
368.544	301.45
368.925	327.21
369.306	353.42
369.688	344.84
370.069	313.88
370.45	314.33
370.831	315.91
371.212	317.72
371.593	303.48
371.974	324.05
372.355	306.42
372.736	331.05
373.117	326.76
373.498	305.74
373.879	326.08
374.26	333.54
374.641	326.3
375.021	342.58
375.402	328.11
375.783	330.37
376.163	345.74
376.544	327.43
376.925	323.14
377.305	325.85
377.686	358.17
378.066	325.18
378.447	355.23
378.827	348.45
379.208	335.57
379.588	364.27
379.968	340.54
380.349	340.09
380.729	361.78
381.109	360.43
381.489	343.71
381.87	332.18
382.25	367.21
382.63	351.84
383.01	346.64
383.39	341.22
383.77	343.71
384.15	339.64
384.53	358.62
384.91	370.15
385.29	369.92
385.67	368.11
386.049	361.33
386.429	364.72
386.809	379.86
387.189	358.85
387.568	362.24
387.948	350.94
388.328	367.43
388.707	371.73
389.087	358.39
389.466	359.52
389.846	383.03
390.225	389.13
390.605	373.99
390.984	383.03
391.363	373.08
391.743	379.64
392.122	389.81
392.501	380.54
392.881	394.55
393.26	393.2
393.639	389.81
394.018	398.39
394.397	389.13
394.776	386.42
395.155	384.83
395.534	374.67
395.913	401.33
396.292	395.23
396.671	391.61
397.05	407.43
397.429	395.91
397.808	385.96
398.186	399.3
398.565	399.3
398.944	385.29
399.323	409.69
399.701	428
400.08	401.33
400.458	397.49
400.837	410.82
401.215	404.27
401.594	428
401.972	416.7
402.351	427.09
402.729	419.64
403.107	445.62
403.486	412.4
403.864	426.87
404.242	406.53
404.62	439.07
404.999	421.67
405.377	448.34
405.755	446.53
406.133	439.75
406.511	443.14
406.889	449.69
407.267	441.1
407.645	446.3
408.023	435.23
408.401	450.14
408.779	470.26
409.156	466.19
409.534	469.13
409.912	463.25
410.29	474.32
410.667	464.61
411.045	483.14
411.422	478.39
411.8	499.41
412.178	484.27
412.555	493.98
412.933	511.38
413.31	512.06
413.687	489.92
414.065	492.63
414.442	505.96
414.819	499.41
415.197	496.02
415.574	494.21
415.951	509.58
416.328	526.3
416.705	517.26
417.082	512.74
417.46	508
417.837	529.46
418.214	530.59
418.591	530.37
418.967	548.45
419.344	530.82
419.721	548.9
420.098	529.92
420.475	546.41
420.852	541.44
421.228	552.74
421.605	587.54
421.982	597.26
422.358	570.82
422.735	568.56
423.111	586.86
423.488	578.95
423.864	564.72
424.241	581.67
424.617	583.7
424.994	613.98
425.37	610.82
425.746	591.61
426.123	609.01
426.499	619.18
426.875	612.4
427.251	624.38
427.627	616.01
428.003	608.11
428.379	624.38
428.756	626.41
429.132	638.16
429.507	646.3
429.883	640.2
430.259	636.35
430.635	651.49
431.011	670.48
431.387	688.1
431.763	685.39
432.138	691.49
432.514	697.82
432.89	691.49
433.265	696.24
433.641	710.93
434.016	705.5
434.392	714.32
434.767	729.91
435.143	724.71
435.518	718.84
435.894	724.26
436.269	725.39
436.644	751.83
437.02	750.47
437.395	733.98
437.77	744.37
438.145	745.73
438.52	789.34
438.895	780.53
439.271	771.72
439.646	822.11
440.021	804.26
440.395	800.87
440.77	816.24
441.145	823.47
441.52	810.36
441.895	821.89
442.27	824.14
442.645	835.9
443.019	853.97
443.394	836.57
443.769	823.69
444.143	837.93
444.518	842
444.892	833.18
445.267	831.83
445.641	879.28
446.016	844.26
446.39	864.14
446.764	860.98
447.139	855.33
447.513	867.76
447.887	848.33
448.262	884.03
448.636	895.78
449.01	903.69
449.384	883.13
449.758	896.46
450.132	922.9
450.506	917.48
450.88	900.75
451.254	882.45
451.628	927.42
452.002	930.81
452.376	902.11
452.75	934.42
453.123	903.24
453.497	951.83
453.871	951.37
454.244	974.42
454.618	964.48
454.992	975.33
455.365	983.01
455.739	990.47
456.112	1034.31
456.486	1010.58
456.859	1010.35
457.232	1028.21
457.606	1036.57
457.979	1041.31
458.352	1063.46
458.725	1039.73
459.099	1084.25
459.472	1079.73
459.845	1085.83
460.218	1077.47
460.591	1091.93
460.964	1084.7
461.337	1137.36
461.71	1122.89
462.083	1155.21
462.456	1147.98
462.829	1130.58
463.201	1155.89
463.574	1184.81
463.947	1165.15
464.32	1169.22
464.692	1184.81
465.065	1180.75
465.438	1224.36
465.81	1255.55
466.183	1246.05
466.555	1262.1
466.928	1243.12
467.3	1224.13
467.672	1243.12
468.045	1275.21
468.417	1292.83
468.789	1276.11
469.161	1313.4
469.534	1318.82
469.906	1344.13
470.278	1342.1
470.65	1377.12
471.022	1350.23
471.394	1387.97
471.766	1415.99
472.138	1414.19
472.51	1408.31
472.882	1438.37
473.253	1462.09
473.625	1478.59
473.997	1516.78
474.369	1543.9
474.74	1484.69
475.112	1557.01
475.484	1565.59
475.855	1570.79
476.227	1592.03
476.598	1633.62
476.97	1643.56
477.341	1665.03
477.713	1672.71
478.084	1683.56
478.455	1714.74
478.827	1721.75
479.198	1777.11
479.569	1764.46
479.94	1847.85
480.311	1846.27
480.682	1877.22
481.053	1920.84
481.424	1945.47
481.795	1953.38
482.166	2007.16
482.537	2012.81
482.908	2028.41
483.279	2109.53
483.65	2102.3
484.021	2140.04
484.391	2148.18
484.762	2158.57
485.133	2189.53
485.503	2214.16
485.874	2256.2
486.244	2338
486.615	2320.15
486.985	2350.66
487.356	2382.07
487.726	2406.48
488.097	2490.09
488.467	2458.45
488.837	2558.56
489.207	2539.13
489.578	2618.22
489.948	2625
490.318	2655.96
490.688	2703.87
491.058	2726.92
491.428	2759.24
491.798	2791.55
492.168	2830.42
492.538	2874.49
492.908	2873.13
493.278	2935.95
493.648	2934.37
494.017	2993.58
494.387	3016.86
494.757	3029.51
495.126	3093.46
495.496	3097.76
495.866	3181.6
496.235	3213.46
496.605	3207.81
496.974	3252.33
497.344	3300.69
497.713	3315.6
498.082	3318.09
498.452	3369.84
498.821	3411.42
499.19	3420.01
499.559	3431.76
499.928	3536.84
500.298	3487.13
500.667	3563.51
501.036	3588.14
501.405	3604.86
501.774	3605.77
502.143	3653.22
502.512	3709.04
502.88	3724.63
503.249	3739.77
503.618	3772.77
503.987	3782.94
504.356	3820.9
504.724	3833.56
505.093	3838.98
505.462	3885.76
505.83	3917.17
506.199	3989.03
506.567	4017.73
506.936	3967.57
507.304	4040.56
507.672	4086.88
508.041	4115.58
508.409	4153.55
508.777	4159.42
509.145	4187.45
509.514	4237.16
509.882	4236.71
510.25	4221.12
510.618	4298.63
510.986	4316.03
511.354	4377.27
511.722	4440.32
512.09	4457.5
512.458	4446.87
512.826	4493.43
513.193	4500.43
513.561	4522.8
513.929	4583.14
514.297	4639.19
514.664	4636.47
515.032	4653.42
515.4	4675.34
515.767	4717.83
516.135	4766.87
516.502	4735
516.869	4828.33
517.237	4852.97
517.604	4838.05
517.972	4916.69
518.339	4938.61
518.706	4946.07
519.073	4973.41
519.44	5033.53
519.808	5080.08
520.175	5069.91
520.542	5155.33
520.909	5171.38
521.276	5188.32
521.643	5205.95
522.009	5259.51
522.376	5330.24
522.743	5333.18
523.11	5372.95
523.477	5421.99
523.843	5432.84
524.21	5511.93
524.577	5526.39
524.943	5556.9
525.31	5580.86
525.676	5630.8
526.043	5677.58
526.409	5707.41
526.776	5736.56
527.142	5786.5
527.508	5804.8
527.874	5833.05
528.241	5941.98
528.607	5913.05
528.973	5960.73
529.339	5968.87
529.705	6023.1
530.071	6082.76
530.437	6075.53
530.803	6174.74
531.169	6180.39
531.535	6182.2
531.901	6210.9
532.267	6258.35
532.632	6258.13
532.998	6228.07
533.364	6324.34
533.73	6345.36
534.095	6406.82
534.461	6384.22
534.826	6429.87
535.192	6437.56
535.557	6525.46
535.923	6502.41
536.288	6551.9
536.653	6561.62
537.019	6586.03
537.384	6597.78
537.749	6674.16
538.114	6680.71
538.479	6673.03
538.845	6685.91
539.21	6720.49
539.575	6745.8
539.94	6792.35
540.305	6809.3
540.67	6754.38
541.034	6842.07
541.399	6917.54
541.764	6935.17
542.129	6972.01
542.494	7006.36
542.858	6983.08
543.223	7015.17
543.587	7075.96
543.952	7094.94
544.316	7120.93
544.681	7135.39
545.045	7230.76
545.41	7221.49
545.774	7215.39
546.138	7280.7
546.503	7283.41
546.867	7335.16
547.231	7383.52
547.595	7460.35
547.959	7476.4
548.324	7489.96
548.688	7488.38
549.052	7594.59
549.416	7567.7
549.779	7600.01
550.143	7678.88
550.507	7678.88
550.871	7774.92
551.235	7709.61
551.599	7833.23
551.962	7888.14
552.326	7892.89
552.689	7973.56
553.053	7956.39
553.417	8030.96
553.78	8160.9
554.143	8030.51
554.507	8082.26
554.87	8210.62
555.234	8356.38
555.597	8342.37
555.96	8326.09
556.323	8429.59
556.686	8395.92
557.05	8528.58
557.413	8562.7
557.776	8696.48
558.139	8751.85
558.502	8786.42
558.865	8793.2
559.228	8830.71
559.59	8965.17
559.953	8984.16
560.316	9093.08
560.679	9188.9
561.041	9290.82
561.404	9321.32
561.767	9413.52
562.129	9389.34
562.492	9542.79
562.854	9580.52
563.217	9662.33
563.579	9706.85
563.941	9822.1
564.304	9926.73
564.666	10089.21
565.028	10105.71
565.39	10196.78
565.753	10304.12
566.115	10375.98
566.477	10478.13
566.839	10559.48
567.201	10779.36
567.563	10755.41
567.925	10973.26
568.287	11005.8
568.648	11104.55
569.01	11290.54
569.372	11413.25
569.734	11499.12
570.095	11632.45
570.457	11815.49
570.819	11963.51
571.18	12079.44
571.542	12248.93
571.903	12356.72
572.265	12580.67
572.626	12670.16
572.987	12847.11
573.349	13014.33
573.71	13259.75
574.071	13445.73
574.432	13670.59
574.794	13909.45
575.155	13990.58
575.516	14222.89
575.877	14443
576.238	14662.88
576.599	14887.28
576.96	15146.48
577.32	15352.8
577.681	15600.71
578.042	15895.16
578.403	15996.18
578.763	16371.53
579.124	16706.67
579.485	17034.79
579.845	17267.55
580.206	17548.23
580.566	17823.92
580.927	18204.48
581.287	18452.83
581.648	18798.14
582.008	19161.97
582.368	19497.55
582.728	19847.6
583.089	20143.19
583.449	20459.79
583.809	20818.42
584.169	21159.66
584.529	21531.4
584.889	22100.65
585.249	22267.87
585.609	22704.47
585.969	23203.44
586.329	23483.21
586.688	24036.87
587.048	24543.52
587.408	24782.39
587.768	25253.56
588.127	25673.21
588.487	26012.64
588.846	26712.73
589.206	26856.68
589.565	27350.68
589.925	28035.41
590.284	28299.81
590.643	28871.77
591.003	29295.26
591.362	29776.15
591.721	30207.78
592.08	30645.73
592.44	31278.03
592.799	31706.5
593.158	31975.87
593.517	32643.65
593.876	33051.09
594.235	33579.89
594.593	34148.01
594.952	34546.2
595.311	34995.68
595.67	35426.17
596.029	35920.4
596.387	36626.59
596.746	37023.19
597.104	37376.18
597.463	37819.1
597.822	38354.68
598.18	38683.49
598.538	39188.11
598.897	39753.52
599.255	39745.38
599.613	40924.79
599.972	40990.32
600.33	41527.26
600.688	41801.6
601.046	42422.6
601.404	42888.8
601.762	43119.08
602.12	43638.39
602.478	43838.83
602.836	44323.11
603.194	44519.95
603.552	45107.27
603.91	45364.67
604.268	45875.39
604.625	46097.3
604.983	46422.95
605.341	46607.57
605.698	47111.74
606.056	47542.24
606.413	47675.34
606.771	48074.43
607.128	48435.77
607.485	48463.8
607.843	48675.32
608.2	48997.57
608.557	49428.52
608.914	49428.06
609.272	49868.51
609.629	50089.74
609.986	50294.03
610.343	50360.02
610.7	50741.48
611.057	50805.43
611.414	51021.92
611.771	51152.99
612.127	51464.17
612.484	51450.84
612.841	51734.67
613.198	51728.12
613.554	51907.32
613.911	52156.81
614.267	52306.41
614.624	52369.46
614.98	52517.25
615.337	52748.43
615.693	52833.85
616.05	52993.17
616.406	53203.11
616.762	53123.11
617.118	53254.4
617.475	53303.67
617.831	53429.32
618.187	53537.11
618.543	53588.86
618.899	53817.78
619.255	53844.9
619.611	53883.31
619.967	54094.83
620.323	54201.27
620.678	54049.86
621.034	54100.03
621.39	54058
621.746	54195.85
622.101	54445.56
622.457	54316.75
622.812	54434.26
623.168	54526.69
623.523	54547.25
623.879	54667.7
624.234	54560.13
624.589	54661.37
624.945	54637.42
625.3	54739.79
625.655	54731.65
626.01	54738.89
626.365	54920.35
626.72	54832.44
627.075	54893.23
627.43	54875.83
627.785	54843.52
628.14	54994.25
628.495	55068.37
628.85	55054.81
629.205	54913.12
629.559	55141.81
629.914	55001.48
630.269	55046.67
630.623	54994.7
630.978	54952.67
631.332	54980.46
631.687	55193.56
632.041	55116.95
632.396	55125.77
632.75	55008.03
633.104	55028.14
633.459	54908.82
633.813	54975.72
634.167	55019.56
634.521	54965.09
634.875	55059.78
635.229	54975.26
635.583	54952.67
635.937	54985.21
636.291	54911.31
636.645	54977.52
636.999	54852.78
637.352	54926.45
637.706	54750.86
638.06	54953.57
638.413	54895.27
638.767	54774.36
639.121	54822.05
639.474	54721.94
639.828	54756.96
640.181	54738.89
640.534	54835.61
640.888	54840.13
641.241	54696.63
641.594	54704.99
641.947	54859.79
642.301	54671.99
642.654	54698.43
643.007	54748.6
643.36	54727.59
643.713	54698.43
644.066	54745.67
644.419	54598.55
644.771	54356.3
645.124	54131.44
645.477	54073.59
645.83	53900.26
646.182	53902.98
646.535	53855.52
646.888	53831.11
647.24	53760.38
647.593	53863.88
647.945	53838.34
648.298	53670.89
648.65	53630.44
649.002	53614.4
649.355	53691.91
649.707	53632.93
650.059	53782.07
650.411	54070.88
650.763	54149.3
651.115	54424.09
651.467	54321.5
651.819	54368.73
652.171	54348.39
652.523	54292.57
652.875	54255.51
653.227	54148.62
653.578	54444.43
653.93	54323.08
654.282	54090.32
654.633	54081.95
654.985	54240.37
655.337	54210.54
655.688	54215.74
656.039	54363.53
656.391	54081.73
656.742	54074.04
657.094	54056.42
657.445	54178
657.796	54227.49
658.147	54127.83
658.498	54107.94
658.849	54166.25
659.2	54158.56
659.551	53973.26
659.902	54093.03
660.253	54072.46
660.604	54127.83
660.955	54033.59
661.306	54135.29
661.656	54051.45
662.007	54093.25
662.358	54029.07
662.708	54084.21
663.059	54060.26
663.409	53906.59
663.76	54127.38
664.11	54114.5
664.461	54134.61
664.811	54128.73
665.161	54049.86
665.511	53983.65
665.862	54072.01
666.212	54072.46
666.562	54114.27
666.912	54074.72
667.262	53895.29
667.612	53865.46
667.962	53996.31
668.312	53869.08
668.662	54036.08
669.011	53906.14
669.361	53836.99
669.711	53922.86
670.06	53887.16
670.41	53853.94
670.76	53763.32
671.109	53868.63
671.459	53835.86
671.808	53741.17
672.157	53829.98
672.507	53631.34
672.856	53631.8
673.205	53667.05
673.554	53706.6
673.904	53584.34
674.253	53827.95
674.602	53637.22
674.951	53243.56
675.3	53088.31
675.649	53536.21
675.998	53519.26
676.346	53495.53
676.695	53655.52
677.044	53408.53
677.393	53472.48
677.741	53455.53
678.09	53409.65
678.438	53281.52
678.787	53425.25
679.135	53451.46
679.484	53228.64
679.832	53332.82
680.181	53125.37
680.529	53247.63
680.877	53091.47
681.225	53204.91
681.573	53239.04
681.922	53074.97
682.27	52934.19
682.618	52961.53
682.966	52888.99
683.314	53022.77
683.661	52891.02
684.009	52634.76
684.357	52639.28
684.705	52565.61
685.053	52610.81
685.4	52583.91
685.748	52408.55
686.095	52447.42
686.443	52263.7
686.79	52356.58
687.138	52386.63
687.485	52324.94
687.832	52157.26
688.18	52193.64
688.527	51992.07
688.874	51952.74
689.221	51939.64
689.568	51867.55
689.915	51719.53
690.262	51791.39
690.609	51620.32
690.956	51545.52
691.303	51522.02
691.65	51371.29
691.997	51418.29
692.344	51155.48
692.69	51162.26
693.037	51153.9
693.383	50905.77
693.73	51089.72
694.077	50820.34
694.423	50885.2
694.769	50701.48
695.116	50632.33
695.462	50520.01
695.808	50302.62
696.155	50443.41
696.501	50242.73
696.847	50124.09
697.193	49876.64
697.539	50141.72
697.885	49871.89
698.231	49740.37
698.577	49690.2
698.923	49754.38
699.269	49387.84
699.614	49246.6
699.96	49226.04
700.306	49361.85
700.651	48946.27
700.997	49016.55
701.342	48871.02
701.688	48817.01
702.033	48706.05
702.379	48657.01
702.724	48586.96
703.069	48584.25
703.415	48080.98
703.76	48226.29
704.105	48250.92
704.45	48059.51
704.795	47787.43
705.14	47770.03
705.485	47658.62
705.83	47506.99
706.175	47670.37
706.52	47381.11
706.865	47341.79
707.209	47288.23
707.554	47085.98
707.899	47276.48
708.243	46994
708.588	46897.74
708.932	46553.11
709.277	46554.02
709.621	46601.92
709.966	46443.51
710.31	46455.04
710.654	46122.16
710.998	46237.41
711.342	46152.22
711.687	46122.16
712.031	45828.39
712.375	45818.67
712.719	45806.47
713.063	45601.72
713.407	45871.32
713.75	45583.42
714.094	45623.42
714.438	45485.34
714.782	45495.29
715.125	45186.37
715.469	45310.88
715.812	45129.42
716.156	44933.49
716.499	45048.74
716.843	44927.62
717.186	44850.78
717.53	45045.13
717.873	44852.37
718.216	44769.88
718.559	44555.88
718.902	44381.87
719.246	44485.37
719.589	44335.77
719.932	44242.21
720.275	44218.48
720.617	44270.01
720.96	44257.35
721.303	44096.91
721.646	44023.46
721.989	43885.16
722.331	44036.57
722.674	43921.77
723.016	43813.3
723.359	43778.72
723.701	43840.64
724.044	43453.98
724.386	43366.08
724.729	43776.24
725.071	43519.52
725.413	43461.89
725.755	43390.71
726.097	43273.88
726.439	43076.59
726.782	43148.23
727.124	43245.18
727.465	43015.13
727.807	43014.45
728.149	43047.89
728.491	42844.96
728.833	42939.2
729.175	42742.82
729.516	42696.72
729.858	42700.78
730.199	42774.23
730.541	42530.17
730.882	42683.16
731.224	42758.18
731.565	42367.46
731.906	42601.13
732.248	42518.64
732.589	42422.15
732.93	42107.58
733.271	42173.57
733.612	42079.78
733.953	42254.69
734.294	42119.1
734.635	41969.5
734.976	41991.88
735.317	41913.69
735.658	41800.47
735.999	41883.63
736.339	41677.99
736.68	41953.91
737.021	41741.49
737.361	41491.78
737.702	41861.94
738.042	41600.7
738.383	41499.23
738.723	41576.29
739.063	41467.6
739.404	41425.79
739.744	41411.1
740.084	41431.44
740.424	41313.48
740.764	41257.21
741.104	41416.3
741.444	41146.93
741.784	41039.81
742.124	41087.49
742.464	41026.7
742.804	40966.14
743.143	40887.27
743.483	41007.27
743.823	40677.79
744.162	40825.13
744.502	40756.88
744.841	40635.08
745.181	40721.18
745.52	40576.55
745.86	40697.22
746.199	40546.94
746.538	40431.47
746.877	40539.03
747.216	40486.15
747.556	40395.53
747.895	40445.02
748.234	40201.87
748.573	40131.36
748.911	40131.81
749.25	40176.33
749.589	39983.12
749.928	40020.85
750.267	40034.41
750.605	39900.63
750.944	39818.83
751.283	39834.64
751.621	39686.17
751.96	39553.97
752.298	39523.92
752.636	39613.18
752.975	39448.67
753.313	39226.53
753.651	39532.51
753.989	39239.86
754.327	39238.05
754.666	39005.06
755.004	39108.56
755.342	39047.32
755.679	38996.25
756.017	38766.88
756.355	38846.2
756.693	38701.34
757.031	38639.2
757.368	38503.83
757.706	38409.6
758.044	38227.68
758.381	38396.94
758.719	38251.41
759.056	38221.35
759.394	38015.94
759.731	37951.08
760.068	37778.43
760.405	37628.6
760.743	37606.45
761.08	37589.51
761.417	37396.29
761.754	37402.84
762.091	37356.07
762.428	37204.43
762.765	37053.25
763.102	37033.59
763.438	36821.39
763.775	36692.13
764.112	36740.26
764.449	36807.61
764.785	36570.32
765.122	36440.16
765.458	36291.46
765.795	36212.82
766.131	36148.87
766.467	36017.8
766.804	35810.8
767.14	35664.13
767.476	35624.13
767.812	35538.26
768.148	35561.99
768.485	35242.68
768.821	35271.15
769.157	35129.01
769.492	34994.32
769.828	34895.79
770.164	34635.91
770.5	34639.98
770.836	34539.19
771.171	34352.75
771.507	34251.51
771.842	34076.83
772.178	34146.43
772.513	33954.57
772.849	34008.36
773.184	33743.96
773.519	33684.98
773.855	33582.83
774.19	33386.23
774.525	33315.27
774.86	33259.9
775.195	33323.18
775.53	33041.15
775.865	32905.56
776.2	32643.87
776.535	32419.7
776.87	32487.27
777.205	32368.85
777.539	32341.51
777.874	32167.5
778.209	31960.05
778.543	31896.55
778.878	31644.8
779.212	31683.45
779.547	31552.6
779.881	31518.03
780.215	31458.14
780.55	31449.55
780.884	31241.2
781.218	31068.55
781.552	31095.21
781.886	30876.24
782.22	30751.72
782.554	30729.57
782.888	30395.57
783.222	30258.4
783.556	30186.54
783.889	30121.45
784.223	29996.49
784.557	29786.32
784.89	29926.66
785.224	29803.04
785.557	29628.13
785.891	29629.49
786.224	29386.78
786.558	29419.55
786.891	29173.23
787.224	29077.19
787.557	28923.07
787.891	28937.76
788.224	29061.37
788.557	28995.61
788.89	28687.37
789.223	28689.85
789.556	28495.28
789.888	28366.92
790.221	28222.52
790.554	28133.48
790.887	28108.17
791.219	28055.29
791.552	27992.92
791.884	27804.45
792.217	27752.25
792.549	27623.89
792.882	27404.24
793.214	27364.69
793.546	27380.73
793.879	27257.12
794.211	27149.1
794.543	27161.08
794.875	27013.06
795.207	27121.76
795.539	26898.94
795.871	26888.32
796.203	26626.86
796.535	26407.65
796.867	26501.66
797.198	26362.46
797.53	26388.22
797.862	26242.01
798.193	26221.22
798.525	26034.78
798.856	26139.64
799.188	25858.51
799.519	25746.65
799.85	25668.46
800.182	25614.68
800.513	25673.44
800.844	25344.63
801.175	25496.26
801.506	25485.64
801.837	25259.66
802.168	25269.6
802.499	25128.36
802.83	25096.5
803.161	24959.56
803.491	24969.5
803.822	24932.44
804.153	24773.57
804.483	24659.45
804.814	24489.06
805.145	24531.77
805.475	24574.25
805.805	24453.81
806.136	24435.5
806.466	24485.22
806.796	24337.43
807.126	24140.82
807.457	23984.44
807.787	24103.98
808.117	24013.37
808.447	23979.69
808.777	23971.78
809.107	23768.63
809.436	23680.72
809.766	23725.92
810.096	23656.54
810.426	23526.82
810.755	23513.49
811.085	23504.23
811.414	23371.12
811.744	23106.5
812.073	23213.16
812.403	23235.76
812.732	22994.64
813.061	23098.36
813.39	22897.24
813.719	22717.35
814.049	22968.42
814.378	22777.92
814.707	22687.98
815.036	22650.24
815.365	22645.04
815.693	22377.25
816.022	22469
816.351	22422
816.68	22229.46
817.008	22348.55
817.337	22138.84
817.665	22062.23
817.994	22129.8
818.322	22086.86
818.651	21963.25
818.979	21828.11
819.307	21946.3
819.636	21894.55
819.964	21716.93
820.292	21761.9
820.62	21706.76
820.948	21692.97
821.276	21819.53
821.604	21620.43
821.932	21698.62
822.259	21756.02
822.587	21671.05
822.915	21683.03
823.243	21683.71
823.57	21664.95
823.898	21643.48
824.225	21537.95
824.553	21595.8
824.88	21594.67
825.207	21541.79
825.535	21483.49
825.862	21710.38
826.189	21494.56
826.516	21618.17
826.843	21692.75
827.17	21734.33
827.497	21650.72
827.824	21669.02
828.151	21622.69
828.478	21528.01
828.805	21677.83
829.131	21548.35
829.458	21579.08
829.785	21450.04
830.111	21474.68
830.438	21567.1
830.764	21590.38
831.09	21584.05
831.417	21429.93
831.743	21517.84
832.069	21541.34
832.395	21400.55
832.722	21472.87
833.048	21431.06
833.374	21451.17
833.7	21412.08
834.026	21332.98
834.351	21412.76
834.677	21302.25
835.003	21366.66
835.329	21210.5
835.654	21227.45
835.98	21175.47
836.306	21192.65
836.631	21101.58
836.956	21181.58
837.282	21152.2
837.607	21076.04
837.932	20913.33
838.258	20951.98
838.583	20880.79
838.908	20894.8
839.233	20911.98
839.558	20852.09
839.883	20851.87
840.208	20730.06
840.533	20705.66
840.858	20730.29
841.182	20702.49
841.507	20709.72
841.832	20541.59
842.156	20605.09
842.481	20369.62
842.805	20436.51
843.13	20417.3
843.454	20334.82
843.778	20261.15
844.103	20208.27
844.427	20136.41
844.751	20267.02
845.075	20135.95
845.399	20207.14
845.723	19952.68
846.047	20014.15
846.371	19797.43
846.695	19818.22
847.019	19660.71
847.343	19627.94
847.666	19545.91
847.99	19435.63
848.313	19365.13
848.637	19361.06
848.96	19274.06
849.284	19296.65
849.607	19072.93
849.931	19053.04
850.254	18907.06
850.577	18788.87
850.9	18712.94
851.223	18720.85
851.546	18599.04
851.869	18519.05
852.192	18626.16
852.515	18500.74
852.838	18290.58
853.161	18364.7
853.483	18249.45
853.806	18153.63
854.129	18082
854.451	17994.31
854.774	18050.58
855.096	17758.39
855.419	17794.77
855.741	17762.91
856.063	17645.17
856.385	17603.14
856.708	17530.37
857.03	17473.65
857.352	17464.61
857.674	17398.4
857.996	17446.76
858.318	17169.48
858.64	17286.99
858.961	17234.11
859.283	17243.83
859.605	17110.95
859.926	17068.46
860.248	17105.52
860.57	16987.34
860.891	16991.86
861.212	16859.2
861.534	16972.19
861.855	16788.92
862.176	16783.5
862.498	16930.61
862.819	16826.21
863.14	16683.84
863.461	16636.61
863.782	16656.72
864.103	16636.84
864.424	16575.82
864.745	16640.68
865.065	16564.52
865.386	16464.86
865.707	16498.99
866.027	16508.03
866.348	16300.57
866.668	16388.26
866.989	16282.95
867.309	16219.9
867.63	16396.84
867.95	16363.4
868.27	16275.04
868.59	16281.59
868.91	16201.82
869.23	16144.65
869.55	15997.08
869.87	16087.25
870.19	16052.9
870.51	16136.96
870.83	16102.84
871.15	15976.74
871.469	16026.23
871.789	16068.26
872.109	15969.51
872.428	15840.93
872.748	15892.9
873.067	15877.76
873.386	15925.89
873.706	15794.15
874.025	15827.59
874.344	15720.7
874.663	15636.41
874.982	15696.97
875.301	15635.05
875.62	15654.94
875.939	15558.9
876.258	15621.27
876.577	15557.09
876.896	15563.42
877.214	15449.3
877.533	15449.07
877.852	15388.96
878.17	15373.14
878.489	15474.61
878.807	15348.28
879.125	15358.9
879.444	15373.37
879.762	15281.17
880.08	15282.52
880.398	15193.03
880.716	15178.34
881.034	15068.29
881.352	15151.45
881.67	15083.66
881.988	15091.79
882.306	15064.45
882.624	14998.24
882.941	14939.71
883.259	14887.73
883.577	14796.88
883.894	14832.82
884.212	14753.04
884.529	14755.53
884.846	14708.53
885.164	14726.83
885.481	14720.95
885.798	14755.53
886.115	14617.91
886.432	14574.74
886.75	14461.98
887.067	14524.12
887.383	14463.11
887.7	14547.4
888.017	14344.69
888.334	14454.52
888.651	14357.12
888.967	14412.04
889.284	14306.05
889.6	14227.18
889.917	14127.98
890.233	14182.89
890.55	14044.81
890.866	14144.25
891.182	14053.63
891.498	13989.67
891.815	13915.33
892.131	13904.93
892.447	13874.42
892.763	13773.86
893.079	13802.33
893.395	13732.51
893.71	13753.3
894.026	13589.23
894.342	13617.03
894.657	13517.6
894.973	13477.37
895.289	13488.67
895.604	13456.13
895.92	13434.89
896.235	13343.36
896.55	13342.91
896.865	13302.69
897.181	13245.29
897.496	13237.15
897.811	13154.67
898.126	13008.68
898.441	13094.1
898.756	12972.3
899.071	12919.19
899.386	12969.81
899.7	12837.84
900.015	12731.63
900.33	12656.15
900.644	12696.15
900.959	12691.63
901.273	12548.81
901.588	12520.79
901.902	12473.78
902.216	12434.24
902.531	12448.7
902.845	12365.99
903.159	12286.22
903.473	12250.96
903.787	12187.69
904.101	12111.98
904.415	12166.22
904.729	12038.54
905.042	12046.67
905.356	12030.4
905.67	11932.33
905.984	11966.9
906.297	11886.45
906.611	11791.77
906.924	11791.54
907.237	11737.76
907.551	11705.44
907.864	11603.3
908.177	11535.5
908.491	11585.9
908.804	11442.62
909.117	11464.09
909.43	11412.12
909.743	11416.18
910.056	11356.07
910.368	11312.23
910.681	11229.52
910.994	11199.24
911.307	11105.68
911.619	11028.62
911.932	11007.61
912.244	11022.07
912.557	10984.78
912.869	10811.9
913.181	10833.15
913.494	10859.59
913.806	10759.7
914.118	10690.1
914.43	10638.58
914.742	10594.96
915.054	10634.28
915.366	10535.3
915.678	10537.56
915.99	10438.81
916.302	10349.54
916.613	10338.7
916.925	10342.09
917.236	10288.75
917.548	10233.16
917.859	10241.75
918.171	10176.22
918.482	10149.78
918.794	10134.18
919.105	10047.41
919.416	9982.32
919.727	10011.7
920.038	9893.74
920.349	9930.35
920.66	9747.53
920.971	9806.73
921.282	9754.98
921.593	9689.22
921.903	9656.23
922.214	9610.58
922.525	9534.88
922.835	9550.47
923.146	9501.88
923.456	9364.49
923.767	9357.25
924.077	9368.78
924.387	9333.53
924.697	9268.67
925.008	9237.94
925.318	9187.54
925.628	9172.85
925.938	9080.2
926.248	9004.49
926.558	9027.77
926.867	8938.73
927.177	9018.73
927.487	8926.76
927.796	8826.87
928.106	8820.32
928.416	8805.4
928.725	8747.1
929.034	8714.78
929.344	8677.72
929.653	8721.34
929.962	8656.93
930.271	8518.86
930.581	8589.14
930.89	8509.14
931.199	8446.32
931.508	8453.32
931.817	8379.88
932.125	8342.14
932.434	8346.66
932.743	8241.35
933.051	8316.38
933.36	8166.78
933.669	8158.64
933.977	8130.85
934.286	8094.24
934.594	8073.9
934.902	8018.98
935.21	8015.59
935.519	7948.25
935.827	7973.56
936.135	7892.21
936.443	7761.36
936.751	7828.25
937.059	7811.31
937.367	7717.75
937.674	7707.58
937.982	7719.1
938.29	7600.69
938.597	7640.69
938.905	7498.09
939.213	7525.89
939.52	7499
939.827	7522.27
940.135	7449.96
940.442	7368.61
940.749	7367.02
941.056	7448.38
941.363	7308.27
941.67	7268.95
941.977	7252.9
942.284	7167.93
942.591	7157.76
942.898	7101.95
943.205	7097.2
943.511	7088.16
943.818	7086.13
944.125	7023.08
944.431	7042.74
944.738	6932.01
945.044	6976.75
945.35	6912.57
945.657	6875.51
945.963	6842.29
946.269	6816.53
946.575	6803.87
946.881	6736.31
947.187	6747.83
947.493	6686.36
947.799	6655.63
948.105	6661.51
948.41	6628.74
948.716	6551.68
949.022	6512.81
949.327	6543.32
949.633	6425.81
949.938	6447.27
950.244	6462.87
950.549	6392.36
950.854	6375.64
951.16	6369.08
951.465	6286.6
951.77	6277.79
952.075	6219.71
952.38	6240.05
952.685	6236.66
952.99	6144.91
953.294	6125.47
953.599	6074.4
953.904	6100.39
954.209	6054.29
954.513	6021.07
954.818	6010.45
955.122	5979.94
955.426	5980.17
955.731	5894.29
956.035	5890.23
956.339	5883.22
956.643	5881.64
956.948	5822.43
957.252	5783.11
957.556	5799.61
957.86	5797.35
958.163	5741.53
958.467	5693.4
958.771	5742.21
959.075	5651.59
959.378	5644.36
959.682	5622.44
959.985	5570.91
960.289	5519.61
960.592	5526.17
960.896	5532.04
961.199	5450.92
961.502	5478.03
961.805	5470.58
962.108	5386.96
962.411	5426.06
962.714	5389.22
963.017	5300.64
963.32	5324.37
963.623	5258.83
963.926	5263.12
964.228	5234.2
964.531	5204.82
964.833	5208.66
965.136	5155.78
965.438	5163.47
965.741	5070.36
966.043	5111.72
966.345	5053.19
966.648	5020.87
966.95	5051.83
967.252	4997.59
967.554	4998.05
967.856	4984.49
968.158	4955.79
968.46	4936.13
968.761	4850.48
969.063	4868.33
969.365	4892.74
969.666	4812.29
969.968	4779.75
970.269	4812.51
970.571	4781.56
970.872	4776.36
971.174	4682.8
971.475	4709.01
971.776	4638.06
972.077	4640.77
972.378	4669.02
972.679	4667.43
972.98	4603.93
973.281	4571.17
973.582	4512.41
973.883	4556.48
974.183	4464.5
974.484	4510.38
974.785	4476.7
975.085	4496.82
975.386	4485.29
975.686	4459.98
975.986	4411.85
976.287	4350.61
976.587	4367.1
976.887	4331.62
977.187	4341.34
977.487	4286.43
977.787	4223.83
978.087	4257.5
978.387	4237.84
978.687	4236.03
978.987	4204.17
979.286	4126.21
979.586	4150.39
979.885	4149.03
980.185	4132.98
980.484	4090.95
980.784	4056.6
981.083	4079.88
981.382	4059.09
981.682	4068.58
981.981	3994.01
982.28	3978.86
982.579	3956.27
982.878	3958.98
983.177	3961.01
983.475	3924.85
983.774	3888.25
984.073	3915.82
984.372	3850.28
984.67	3853.9
984.969	3852.99
985.267	3833.33
985.566	3814.8
985.864	3807.57
986.162	3745.42
986.461	3761.92
986.759	3743.39
987.057	3661.36
987.355	3721.02
987.653	3693.9
987.951	3647.8
988.249	3641.02
988.547	3652.09
988.844	3610.74
989.142	3631.98
989.44	3609.38
989.737	3573.68
990.035	3589.04
990.332	3537.52
990.63	3534.13
990.927	3491.65
991.224	3477.18
991.521	3474.47
991.819	3437.18
992.116	3451.19
992.413	3434.92
992.71	3371.2
993.006	3389.95
993.303	3399.9
993.6	3331.65
993.897	3297.98
994.193	3331.42
994.49	3311.76
994.787	3300.92
995.083	3264.98
995.379	3260.24
995.676	3204.65
995.972	3192.22
996.268	3202.39
996.565	3152.67
996.861	3139.56
997.157	3147.02
997.453	3132.11
997.749	3112.22
998.044	3109.73
998.34	3069.28
998.636	3056.18
998.932	3009.17
999.227	3034.26
999.523	3031.77
999.818	3020.02
1000.114	3000.13
1000.409	2953.13
1000.704	2970.76
1001	2944.32
1001.295	2915.16
1001.59	2877.42
1001.885	2908.16
1002.18	2871.55
1002.475	2857.09
1002.77	2860.25
1003.065	2788.84
1003.359	2777.31
1003.654	2790.87
1003.949	2748.84
1004.243	2757.43
1004.538	2727.15
1004.832	2723.76
1005.127	2714.26
1005.421	2719.01
1005.715	2664.32
1006.009	2673.14
1006.304	2603.53
1006.598	2636.75
1006.892	2600.37
1007.186	2613.93
1007.48	2624.55
1007.773	2573.25
1008.067	2552.24
1008.361	2505
1008.655	2521.05
1008.948	2487.38
1009.242	2498.68
1009.535	2439.47
1009.829	2485.8
1010.122	2449.64
1010.415	2454.61
1010.708	2413.71
1011.001	2411.9
1011.295	2395.4
1011.588	2375.97
1011.881	2353.14
1012.173	2341.62
1012.466	2345.46
1012.759	2322.18
1013.052	2328.74
1013.344	2321.96
1013.637	2298
1013.93	2251.45
1014.222	2246.93
1014.514	2230.44
1014.807	2239.02
1015.099	2225.92
1015.391	2192.02
1015.683	2169.65
1015.976	2131.46
1016.268	2150.44
1016.56	2118.8
1016.851	2136.88
1017.143	2128.29
1017.435	2094.39
1017.727	2062.53
1018.018	2031.57
1018.31	2029.09
1018.602	2050.33
1018.893	2038.35
1019.185	2014.4
1019.476	1984.57
1019.767	1980.27
1020.058	1988.63
1020.35	1960.84
1020.641	1934.62
1020.932	1947.96
1021.223	1953.83
1021.514	1921.74
1021.804	1856.89
1022.095	1914.51
1022.386	1877.22
1022.677	1845.14
1022.967	1845.81
1023.258	1841.07
1023.548	1809.88
1023.839	1800.84
1024.129	1787.51
1024.419	1772.82
1024.709	1764.46
1025	1744.35
1025.29	1727.62
1025.58	1706.16
1025.87	1709.32
1026.16	1665.93
1026.449	1664.35
1026.739	1663.22
1027.029	1696.89
1027.319	1693.73
1027.608	1635.65
1027.898	1637.91
1028.187	1642.43
1028.477	1570.34
1028.766	1600.85
1029.055	1594.29
1029.344	1584.35
1029.634	1572.15
1029.923	1559.94
1030.212	1570.57
1030.501	1532.15
1030.79	1515.2
1031.078	1472.94
1031.367	1484.24
1031.656	1507.06
1031.945	1471.81
1032.233	1464.35
1032.522	1435.88
1032.81	1440.85
1033.099	1432.04
1033.387	1426.84
1033.675	1439.27
1033.963	1392.27
1034.251	1387.97
1034.54	1384.36
1034.828	1389.33
1035.116	1324.02
1035.403	1347.75
1035.691	1344.36
1035.979	1337.8
1036.267	1317.24
1036.554	1295.32
1036.842	1286.73
1037.129	1297.8
1037.417	1278.82
1037.704	1285.6
1037.992	1264.36
1038.279	1256.45
1038.566	1256.68
1038.853	1256.68
1039.14	1256.68
