Data from orange_diffuse_book_FLMS001491_00060.txt Node
Date: Wed Feb 08 15:29:46 GMT 2017
User: dcchb
Spectrometer: FLMS00149
Trigger mode: 0
Integration Time (sec): 2.000000E-2
Scans to average: 10
Electric dark correction enabled: true
Nonlinearity correction enabled: false
Boxcar width: 0
XAxis mode: Wavelengths
Number of Pixels in Spectrum: 2048
>>>>>Begin Spectral Data<<<<<
341.393	4.18
341.776	4.18
342.16	4.18
342.543	-53.9
342.927	-64.52
343.31	-69.49
343.693	-64.52
344.077	-67.46
344.46	-54.12
344.843	-39.66
345.226	-61.58
345.61	-36.27
345.993	0.56
346.376	-22.71
346.759	18.87
347.142	27
347.525	43.5
347.908	63.16
348.291	62.26
348.674	90.96
349.057	109.49
349.44	127.34
349.823	127.34
350.206	152.88
350.588	207.34
350.971	213.44
351.354	241.24
351.737	274.23
352.119	266.77
352.502	267.22
352.884	294.12
353.267	292.76
353.65	305.87
354.032	324.62
354.414	335.7
354.797	321.69
355.179	316.71
355.562	343.61
355.944	342.7
356.326	341.57
356.709	345.64
357.091	354.68
357.473	339.54
357.855	350.61
358.238	345.87
358.62	356.94
359.002	341.12
359.384	346.77
359.766	353.55
360.148	350.16
360.53	347.45
360.912	382.93
361.294	346.54
361.676	333.66
362.057	338.18
362.439	372.53
362.821	348.35
363.203	340.67
363.584	357.62
363.966	343.61
364.348	329.6
364.729	328.92
365.111	335.02
365.493	330.95
365.874	333.21
366.256	321.69
366.637	343.15
367.019	331.4
367.4	342.48
367.781	335.25
368.163	336.38
368.544	334.79
368.925	305.64
369.306	333.89
369.688	320.78
370.069	323.72
370.45	339.77
370.831	324.17
371.212	333.66
371.593	314.23
371.974	317.62
372.355	321.91
372.736	339.99
373.117	342.25
373.498	337.05
373.879	331.63
374.26	315.58
374.641	343.15
375.021	336.15
375.402	339.77
375.783	331.63
376.163	352.19
376.544	322.14
376.925	332.53
377.305	349.03
377.686	324.17
378.066	337.51
378.447	330.73
378.827	354.68
379.208	349.03
379.588	325.75
379.968	333.66
380.349	328.69
380.729	365.08
381.109	358.3
381.489	321.91
381.87	337.73
382.25	332.31
382.63	359.2
383.01	342.7
383.39	352.42
383.77	343.15
384.15	363.04
384.53	344.06
384.91	347
385.29	368.69
385.67	343.38
386.049	367.56
386.429	367.79
386.809	379.76
387.189	356.71
387.568	377.5
387.948	366.88
388.328	375.7
388.707	366.88
389.087	370.95
389.466	380.67
389.846	380.89
390.225	393.77
390.605	386.09
390.984	385.19
391.363	369.14
391.743	408.24
392.122	386.54
392.501	370.95
392.881	385.64
393.26	387.45
393.639	405.07
394.018	390.61
394.397	381.57
394.776	398.07
395.155	393.77
395.534	407.11
395.913	380.67
396.292	385.19
396.671	395.81
397.05	405.53
397.429	409.82
397.808	407.56
398.186	401.68
398.565	401.46
398.944	395.36
399.323	399.65
399.701	410.95
400.08	409.37
400.458	432.42
400.837	425.64
401.215	421.57
401.594	410.72
401.972	419.99
402.351	425.19
402.729	392.19
403.107	441.23
403.486	440.1
403.864	407.33
404.242	427.67
404.62	437.84
404.999	417.5
405.377	460.44
405.755	454.79
406.133	452.76
406.511	448.91
406.889	451.63
407.267	463.6
407.645	459.31
408.023	463.6
408.401	450.04
408.779	456.6
409.156	479.65
409.534	481.68
409.912	474
410.29	457.5
410.667	476.71
411.045	461.34
411.422	480.78
411.8	473.09
412.178	479.65
412.555	475.35
412.933	470.38
413.31	501.34
413.687	509.93
414.065	496.82
414.442	509.25
414.819	492.76
415.197	504.28
415.574	511.51
415.951	504.28
416.328	496.37
416.705	516.03
417.082	520.1
417.46	532.08
417.837	536.82
418.214	519.87
418.591	558.52
418.967	538.63
419.344	539.08
419.721	564.17
420.098	539.99
420.475	548.35
420.852	587.89
421.228	545.86
421.605	572.08
421.982	564.17
422.358	549.7
422.735	570.95
423.111	583.37
423.488	583.6
423.864	597.39
424.241	582.7
424.617	588.12
424.994	598.29
425.37	610.49
425.746	602.81
426.123	602.81
426.499	596.26
426.875	601.23
427.251	625.86
427.627	637.38
428.003	630.15
428.379	638.06
428.756	627.44
429.132	645.52
429.507	640.77
429.883	653.2
430.259	666.31
430.635	655.91
431.011	658.63
431.387	669.93
431.763	665.18
432.138	680.32
432.514	682.13
432.89	666.08
433.265	704.05
433.641	676.71
434.016	704.28
434.392	699.53
434.767	717.38
435.143	713.31
435.518	712.18
435.894	737.95
436.269	751.05
436.644	738.85
437.02	765.06
437.395	763.71
437.77	764.61
438.145	761.9
438.52	765.52
438.895	785.18
439.271	788.11
439.646	789.47
440.021	771.62
440.395	792.18
440.77	792.63
441.145	799.87
441.52	820.88
441.895	811.17
442.27	791.5
442.645	812.52
443.019	844.16
443.394	808.45
443.769	818.4
444.143	845.29
444.518	824.5
444.892	833.76
445.267	857.27
445.641	841.45
446.016	845.06
446.39	845.06
446.764	852.29
447.139	872.86
447.513	857.27
447.887	864.5
448.262	855.46
448.636	883.48
449.01	885.74
449.384	878.28
449.758	877.83
450.132	882.58
450.506	895.91
450.88	919.41
451.254	912.41
451.628	918.96
452.002	962.12
452.376	931.61
452.75	924.38
453.123	922.35
453.497	946.98
453.871	938.39
454.244	967.55
454.618	961.67
454.992	987.88
455.365	994.44
455.739	997.83
456.112	1000.54
456.486	1026.53
456.859	1004.15
457.232	1020.43
457.606	1026.07
457.979	1003.02
458.352	1044.83
458.725	1071.5
459.099	1066.53
459.472	1088.67
459.845	1076.47
460.218	1088.9
460.591	1073.98
460.964	1070.14
461.337	1110.82
461.71	1132.06
462.083	1134.77
462.456	1131.61
462.829	1127.77
463.201	1169.35
463.574	1167.54
463.947	1187.65
464.32	1170.03
464.692	1206.63
465.065	1188.56
465.438	1177.71
465.81	1196.69
466.183	1227.2
466.555	1250.02
466.928	1232.17
467.3	1243.92
467.672	1240.08
468.045	1286.18
468.417	1255.67
468.789	1277.82
469.161	1304.71
469.534	1321.21
469.906	1337.03
470.278	1345.84
470.65	1335.9
471.022	1352.39
471.394	1405.73
471.766	1368.21
472.138	1403.92
472.51	1420.64
472.882	1427.42
473.253	1497.7
473.625	1456.57
473.997	1495.89
474.369	1492.05
474.74	1525.27
475.112	1516.01
475.484	1551.03
475.855	1534.31
476.227	1588.77
476.598	1620.18
476.97	1625.38
477.341	1678.94
477.713	1680.75
478.084	1699.73
478.455	1729.56
478.827	1732.5
479.198	1782.89
479.569	1790.35
479.94	1848.65
480.311	1821.31
480.682	1903.11
481.053	1920.74
481.424	1929.55
481.795	1960.74
482.166	1950.8
482.537	2022.21
482.908	2043.22
483.279	2066.5
483.65	2100.85
484.021	2090.23
484.391	2123.67
484.762	2119.15
485.133	2169.1
485.503	2231.01
485.874	2266.04
486.244	2252.26
486.615	2298.13
486.985	2350.79
487.356	2402.08
487.726	2380.62
488.097	2447.73
488.467	2467.17
488.837	2504.45
489.207	2539.26
489.578	2591.68
489.948	2617.45
490.318	2627.84
490.688	2663.32
491.058	2692.02
491.428	2739.25
491.798	2753.26
492.168	2764.56
492.538	2857.89
492.908	2871.45
493.278	2932.47
493.648	2928.85
494.017	2985.57
494.387	3017.66
494.757	3021.5
495.126	3054.5
495.496	3083.42
495.866	3085.68
496.235	3097.88
496.605	3176.3
496.974	3185.34
497.344	3253.81
497.713	3256.98
498.082	3307.82
498.452	3347.6
498.821	3345.56
499.19	3336.3
499.559	3443.64
499.928	3470.53
500.298	3435.05
500.667	3481.15
501.036	3538.1
501.405	3563.41
501.774	3574.93
502.143	3600.02
502.512	3622.16
502.88	3657.19
503.249	3683.18
503.618	3704.87
503.987	3753.46
504.356	3823.06
504.724	3810.18
505.093	3806.57
505.462	3812.22
505.83	3841.37
506.199	3880.46
506.567	3907.81
506.936	3967.69
507.304	3989.84
507.672	3998.65
508.041	4033.45
508.409	4086.33
508.777	4099.21
509.145	4137.41
509.514	4157.97
509.882	4193.45
510.25	4188.7
510.618	4201.36
510.986	4288.14
511.354	4300.34
511.722	4330.62
512.09	4355.03
512.458	4373.78
512.826	4397.96
513.193	4379.21
513.561	4416.04
513.929	4488.81
514.297	4546.43
514.664	4544.17
515.032	4555.47
515.4	4629.82
515.767	4618.97
516.135	4640.44
516.502	4650.39
516.869	4739.42
517.237	4773.09
517.604	4767.9
517.972	4804.05
518.339	4820.33
518.706	4853.09
519.073	4849.7
519.44	4974.67
519.808	4956.59
520.175	4961.11
520.542	5093.31
520.909	4993.65
521.276	5062.58
521.643	5082.01
522.009	5168.11
522.376	5191.16
522.743	5211.28
523.11	5262.8
523.477	5356.81
523.843	5418.73
524.21	5389.58
524.577	5430.48
524.943	5455.79
525.31	5483.36
525.676	5553.64
526.043	5595.22
526.409	5602.23
526.776	5672.28
527.142	5644.03
527.508	5717.48
527.874	5736.69
528.241	5810.13
528.607	5778.04
528.973	5845.16
529.339	5844.93
529.705	5951.82
530.071	5885.38
530.437	5957.02
530.803	5989.33
531.169	5996.34
531.535	6009.45
531.901	6084.7
532.267	6134.19
532.632	6132.61
532.998	6157.92
533.364	6199.27
533.73	6209.22
534.095	6255.32
534.461	6248.31
534.826	6304.13
535.192	6313.39
535.557	6368.53
535.923	6423.9
536.288	6396.78
536.653	6450.34
537.019	6375.76
537.384	6480.17
537.749	6492.6
538.114	6538.02
538.479	6490.11
538.845	6562.88
539.21	6494.41
539.575	6672.25
539.94	6643.78
540.305	6706.6
540.67	6644.91
541.034	6705.25
541.399	6735.98
541.764	6799.48
542.129	6831.57
542.494	6799.03
542.858	6885.13
543.223	6928.74
543.587	6909.99
543.952	6935.3
544.316	6953.15
544.681	7016.2
545.045	7071.11
545.41	7120.38
545.774	7156.99
546.138	7100.72
546.503	7164.44
546.867	7156.99
547.231	7236.53
547.595	7287.38
547.959	7267.49
548.324	7355.85
548.688	7353.59
549.052	7371.9
549.416	7470.88
549.779	7446.02
550.143	7504.55
550.507	7595.39
550.871	7556.98
551.235	7641.72
551.599	7644.21
551.962	7769.63
552.326	7739.34
552.689	7782.73
553.053	7839.91
553.417	7907.93
553.78	7919.45
554.143	7918.1
554.507	8008.04
554.87	8111.76
555.234	8073.12
555.597	8164.64
555.96	8254.36
556.323	8260.91
556.686	8291.42
557.05	8386.56
557.413	8390.4
557.776	8442.83
558.139	8569.83
558.502	8574.8
558.865	8629.49
559.228	8685.99
559.59	8689.83
559.953	8794.01
560.316	8857.06
560.679	8935.92
561.041	9008.69
561.404	9066.77
561.767	9209.81
562.129	9229.02
562.492	9341.79
562.854	9379.3
563.217	9463.14
563.579	9539.3
563.941	9615.23
564.304	9685.73
564.666	9814.09
565.028	9945.16
565.39	9995.33
565.753	10066.51
566.115	10192.39
566.477	10264.48
566.839	10354.87
567.201	10473.28
567.563	10589.67
567.925	10771.13
568.287	10838.25
568.648	10940.39
569.01	11048.18
569.372	11214.51
569.734	11292.7
570.095	11367.95
570.457	11562.75
570.819	11750.09
571.18	11726.58
571.542	12007.25
571.903	12184.88
572.265	12271.88
572.626	12439.33
572.987	12657.63
573.349	12839.32
573.71	13008.58
574.071	13195.02
574.432	13400.44
574.794	13546.65
575.155	13731.73
575.516	13924.27
575.877	14214.2
576.238	14293.52
576.599	14621.88
576.96	14791.81
577.32	14995.42
577.681	15311.8
578.042	15575.75
578.403	15761.05
578.763	16121.5
579.124	16278.56
579.485	16657.3
579.845	16995.6
580.206	17168.48
580.566	17569.59
580.927	17876.93
581.287	18125.74
581.648	18325.05
582.008	18788.55
582.368	19004.81
582.728	19456.32
583.089	19724.34
583.449	20111.9
583.809	20412.01
584.169	20827.36
584.529	21110.97
584.889	21695.14
585.249	21879.99
585.609	22232.75
585.969	22733.98
586.329	23212.38
586.688	23669.55
587.048	23925.13
587.408	24294.39
587.768	24717.43
588.127	25087.14
588.487	25523.06
588.846	26102.25
589.206	26421.79
589.565	26873.98
589.925	27549.45
590.284	27791.25
590.643	28303.32
591.003	28751.9
591.362	29293.81
591.721	29692.44
592.08	30245.19
592.44	30762.69
592.799	31143.02
593.158	31478.38
593.517	32141.41
593.876	32492.37
594.235	33051.22
594.593	33580.47
594.952	34098.2
595.311	34282.38
595.67	34914.45
596.029	35575
596.387	36177.24
596.746	36474.41
597.104	36873.95
597.463	37218.34
597.822	37921.6
598.18	38130.41
598.538	38593
598.897	39184.17
599.255	39359.53
599.613	40275.66
599.972	40308.43
600.33	40862.09
600.688	41082.42
601.046	41873.81
601.404	42149.51
601.762	42481.71
602.12	43195.59
602.478	43486.65
602.836	43678.29
603.194	43925.51
603.552	44530.02
603.91	44670.58
604.268	45292.48
604.625	45376.1
604.983	45888.85
605.341	46123.65
605.698	46503.97
606.056	46763.86
606.413	47138.31
606.771	47554.57
607.128	47769.7
607.485	47894.67
607.843	48079.75
608.2	48545.73
608.557	48836.12
608.914	48972.84
609.272	49330.34
609.629	49582.31
609.986	49840.16
610.343	49821.18
610.7	50297.55
611.057	50293.71
611.414	50617.09
611.771	50774.37
612.127	51049.62
612.484	51090.52
612.841	51352.44
613.198	51325.54
613.554	51535.48
613.911	51856.6
614.267	51867
614.624	51924.17
614.98	52090.49
615.337	52272.18
615.693	52379.53
616.05	52509.24
616.406	52741.55
616.762	52733.42
617.118	52769.57
617.475	52949.46
617.831	53026.74
618.187	53169.56
618.543	53356.9
618.899	53428.76
619.255	53463.34
619.611	53520.29
619.967	53635.76
620.323	53783.11
620.678	53657.69
621.034	53663.79
621.39	53741.07
621.746	53774.52
622.101	54091.57
622.457	53941.97
622.812	54084.11
623.168	54202.08
623.523	54148.29
623.879	54293.83
624.234	54119.82
624.589	54337.89
624.945	54377.21
625.3	54381.73
625.655	54380.38
626.01	54411.11
626.365	54525.68
626.72	54535.63
627.075	54532.24
627.43	54641.39
627.785	54492.47
628.14	54618.79
628.495	54730.2
628.85	54645.68
629.205	54650.2
629.559	54886.35
629.914	54621.95
630.269	54735.85
630.623	54616.76
630.978	54675.74
631.332	54808.62
631.687	54813.36
632.041	54728.39
632.396	54809.07
632.75	54649.07
633.104	54726.81
633.459	54636.64
633.813	54638.9
634.167	54625.57
634.521	54640.03
634.875	54680.48
635.229	54680.48
635.583	54519.36
635.937	54577.21
636.291	54626.02
636.645	54510.09
636.999	54518
637.352	54671.67
637.706	54409.53
638.06	54559.13
638.413	54603.42
638.767	54503.76
639.121	54456.76
639.474	54297.22
639.828	54449.75
640.181	54397.55
640.534	54446.14
640.888	54365.24
641.241	54282.08
641.594	54352.58
641.947	54421.51
642.301	54289.76
642.654	54394.39
643.007	54377.89
643.36	54324.79
643.713	54339.93
644.066	54399.59
644.419	54167.73
644.771	54007.51
645.124	53765.7
645.477	53726.61
645.83	53596.22
646.182	53457.46
646.535	53392.61
646.888	53553.96
647.24	53378.6
647.593	53484.81
647.945	53492.72
648.298	53315.77
648.65	53202.1
649.002	53199.62
649.355	53424.02
649.707	53262.89
650.059	53373.85
650.411	53708.08
650.763	53784.91
651.115	54108.97
651.467	53986.49
651.819	53922.99
652.171	53914.18
652.523	53875.76
652.875	53864.91
653.227	53763.45
653.578	53951.01
653.93	53885.48
654.282	53754.41
654.633	53742.43
654.985	53837.34
655.337	53838.92
655.688	53865.82
656.039	53894.52
656.391	53704.46
656.742	53708.53
657.094	53812.48
657.445	53830.56
657.796	53860.39
658.147	53777.68
658.498	53798.7
658.849	53771.81
659.2	53768.42
659.551	53777.68
659.902	53819.49
660.253	53718.25
660.604	53746.04
660.955	53674.18
661.306	53805.25
661.656	53675.54
662.007	53734.07
662.358	53748.76
662.708	53819.26
663.059	53685.26
663.409	53533.85
663.76	53844.57
664.11	53700.85
664.461	53731.81
664.811	53734.29
665.161	53640.06
665.511	53540.63
665.862	53666.27
666.212	53708.98
666.562	53775.65
666.912	53640.28
667.262	53639.83
667.612	53581.53
667.962	53541.53
668.312	53544.24
668.662	53657.46
669.011	53527.75
669.361	53583.11
669.711	53487.97
670.06	53562.77
670.41	53391.93
670.76	53401.42
671.109	53499.27
671.459	53487.29
671.808	53384.02
672.157	53370.69
672.507	53217.92
672.856	53196.45
673.205	53337.24
673.554	53349.67
673.904	53268.77
674.253	53387.86
674.602	53166.62
674.951	52829.23
675.3	52758.05
675.649	53117.81
675.998	53093.86
676.346	53164.59
676.695	53206.4
677.044	53012.73
677.393	53005.05
677.741	53097.47
678.09	53067.87
678.438	52920.3
678.787	53045.95
679.135	52970.25
679.484	52740.42
679.832	52870.14
680.181	52749.69
680.529	52807.54
680.877	52747.43
681.225	52722.79
681.573	52874.88
681.922	52655.23
682.27	52544.49
682.618	52678.95
682.966	52542.01
683.314	52538.62
683.661	52426.76
684.009	52323.26
684.357	52230.38
684.705	52221.11
685.053	52277.38
685.4	52216.37
685.748	52027.9
686.095	52022.25
686.443	51929.82
686.79	51834.46
687.138	51955.13
687.485	51893.21
687.832	51750.39
688.18	51818.41
688.527	51552.66
688.874	51557.18
689.221	51567.8
689.568	51409.61
689.915	51288.71
690.262	51341.14
690.609	51201.48
690.956	51198.09
691.303	51076.96
691.65	50972.11
691.997	50904.76
692.344	50761.94
692.69	50721.04
693.037	50751.55
693.383	50508.62
693.73	50537.54
694.077	50385.45
694.423	50392.23
694.769	50246.48
695.116	50165.35
695.462	50223.65
695.808	49925.13
696.155	50144.33
696.501	49797.67
696.847	49741.63
697.193	49401.75
697.539	49684.46
697.885	49341.19
698.231	49177.58
698.577	49142.78
698.923	49174.41
699.269	49051.93
699.614	48764.25
699.96	48841.09
700.306	48701.21
700.651	48569.01
700.997	48390.25
701.342	48449.23
701.688	48432.96
702.033	48218.51
702.379	48198.39
702.724	47956.14
703.069	48164.95
703.415	47644.28
703.76	47733.1
704.105	47667.56
704.45	47585.98
704.795	47378.08
705.14	47212.88
705.485	47189.61
705.83	47131.3
706.175	46980.57
706.52	46902.61
706.865	46802.27
707.209	46756.4
707.554	46653.35
707.899	46729.96
708.243	46502.62
708.588	46366.35
708.932	46209.07
709.277	46104.89
709.621	46196.64
709.966	45827.83
710.31	45933.59
710.654	45542.87
710.998	45708.06
711.342	45751.23
711.687	45606.6
712.031	45404.79
712.375	45328.64
712.719	45316.21
713.063	45297.23
713.407	45404.34
713.75	45039.61
714.094	45173.39
714.438	44993.96
714.782	45002.09
715.125	44770.01
715.469	44917.12
715.812	44724.36
716.156	44568.21
716.499	44485.72
716.843	44429.91
717.186	44237.59
717.53	44446.4
717.873	44504.03
718.216	44284.6
718.559	44086.86
718.902	43843.93
719.246	44047.09
719.589	43757.83
719.932	43777.27
720.275	43726.42
720.617	43812.52
720.96	43388.35
721.303	43614.56
721.646	43608.23
721.989	43389.93
722.331	43507.9
722.674	43322.36
723.016	43364.62
723.359	43278.52
723.701	43301.57
724.044	42982.03
724.386	42884.86
724.729	43025.87
725.071	42963.28
725.413	42900
725.755	42844.41
726.097	42679.67
726.439	42479.45
726.782	42651.19
727.124	42754.47
727.465	42530.97
727.807	42429.28
728.149	42544.76
728.491	42320.81
728.833	42391.31
729.175	42292.56
729.516	42203.75
729.858	42151.1
730.199	42074.94
730.541	42183.64
730.882	42121.94
731.224	42064.77
731.565	41825.45
731.906	41964.89
732.248	42015.96
732.589	41702.07
732.93	41621.17
733.271	41637.89
733.612	41612.13
733.953	41695.29
734.294	41541.62
734.635	41481.51
734.976	41580.71
735.317	41362.87
735.658	41379.14
735.999	41510.21
736.339	41216.88
736.68	41328.52
737.021	41028.41
737.361	41084.68
737.702	41239.71
738.042	41075.19
738.383	41095.53
738.723	41044.46
739.063	41011.92
739.404	40993.84
739.744	40934.86
740.084	40669.55
740.424	40808.08
740.764	40613.73
741.104	40890.11
741.444	40606.73
741.784	40577.8
742.124	40570.12
742.464	40442.89
742.804	40556.33
743.143	40462.78
743.483	40452.16
743.823	40232.5
744.162	40212.61
744.502	40343.23
744.841	40154.99
745.181	40211.49
745.52	40232.28
745.86	40267.75
746.199	39993.86
746.538	40007.87
746.877	40061.21
747.216	39931.72
747.556	39981.43
747.895	39942.34
748.234	39633.87
748.573	39746.64
748.911	39683.14
749.25	39699.41
749.589	39506.64
749.928	39483.37
750.267	39567.43
750.605	39435.01
750.944	39312.98
751.283	39268.68
751.621	39438.62
751.96	39191.62
752.298	39101.01
752.636	38981.69
752.975	38922.03
753.313	38874.12
753.651	38869.6
753.989	38810.84
754.327	38651.53
754.666	38539.66
755.004	38529.72
755.342	38456.28
755.679	38369.05
756.017	38240.01
756.355	38359.78
756.693	38173.35
757.031	38229.84
757.368	38041.82
757.706	37913.92
758.044	37875.28
758.381	37903.07
758.719	37739.01
759.056	37691.55
759.394	37507.83
759.731	37407.27
760.068	37305.57
760.405	37191
760.743	37069.65
761.08	37148.29
761.417	36947.16
761.754	36924.34
762.091	36914.62
762.428	36690.45
762.765	36485.26
763.102	36669.43
763.438	36462.21
763.775	36272.61
764.112	36193.74
764.449	36363.9
764.785	36043.01
765.122	35844.37
765.458	35684.15
765.795	35747.2
766.131	35837.59
766.467	35446.41
766.804	35356.47
767.14	35208.45
767.476	35318.73
767.812	35200.77
768.148	35062.02
768.485	34843.26
768.821	34687.11
769.157	34647.34
769.492	34568.92
769.828	34419.77
770.164	34196.73
770.5	34197.18
770.836	34171.64
771.171	33967.58
771.507	33810.75
771.842	33658.89
772.178	33663.18
772.513	33588.61
772.849	33535.28
773.184	33347.48
773.519	33288.5
773.855	33180.03
774.19	32990.43
774.525	32818.91
774.86	32891
775.195	32919.02
775.53	32802.64
775.865	32410.33
776.2	32228.42
776.535	32116.78
776.87	32121.98
777.205	32016.45
777.539	31838.6
777.874	31821.65
778.209	31624.82
778.543	31443.13
778.878	31363.58
779.212	31298.73
779.547	31222.34
779.881	31390.47
780.215	31142.34
780.55	31093.98
780.884	30799.53
781.218	30602.47
781.552	30680.21
781.886	30530.61
782.22	30353.67
782.554	30309.15
782.888	30152.31
783.222	29980.79
783.556	29768.14
783.889	29738.54
784.223	29518.66
784.557	29572.89
784.89	29590.3
785.224	29380.13
785.557	29259.91
785.891	29192.79
786.224	29208.84
786.558	29091.78
786.891	28828.28
787.224	28689.53
787.557	28750.77
787.891	28649.53
788.224	28666.93
788.557	28452.7
788.89	28435.98
789.223	28383.32
789.556	28100.17
789.888	28066.95
790.221	27995.54
790.554	27715.32
790.887	27745.15
791.219	27746.28
791.552	27697.01
791.884	27511.48
792.217	27396.23
792.549	27288.44
792.882	27146.97
793.214	27006.86
793.546	26991.72
793.879	26908.56
794.211	26615.91
794.543	26892.29
794.875	26738.39
795.207	26822.01
795.539	26567.78
795.871	26455.91
796.203	26275.13
796.535	26249.37
796.867	26097.28
797.198	26148.13
797.53	26010.5
797.862	25826.78
798.193	25849.15
798.525	25603.96
798.856	25783.39
799.188	25417.07
799.519	25443.51
799.85	25234.93
800.182	25309.28
800.513	25303.4
800.844	24975.73
801.175	25115.38
801.506	25122.39
801.837	24979.12
802.168	24944.54
802.499	24788.84
802.83	24630.2
803.161	24622.06
803.491	24599.01
803.822	24635.85
804.153	24408.51
804.483	24339.13
804.814	24258.91
805.145	24229.98
805.475	24133.26
805.805	23932.59
806.136	24189.99
806.466	24084.23
806.796	23986.15
807.126	23919.03
807.457	23774.86
807.787	23841.97
808.117	23644.24
808.447	23688.76
808.777	23626.16
809.107	23610.79
809.436	23316.34
809.766	23410.34
810.096	23305.94
810.426	23248.77
810.755	23242.21
811.085	23026.4
811.414	23177.81
811.744	22941.66
812.073	22927.65
812.403	22905.5
812.732	22716.35
813.061	22693.53
813.39	22588.9
813.719	22519.75
814.049	22735.33
814.378	22514.78
814.707	22365.17
815.036	22421.9
815.365	22271.39
815.693	22175.8
816.022	22110.27
816.351	22071.62
816.68	21891.29
817.008	21979.2
817.337	21789.37
817.665	21864.4
817.994	21861.01
818.322	21793.44
818.651	21574.01
818.979	21569.04
819.307	21689.49
819.636	21608.13
819.964	21471.64
820.292	21630.96
820.62	21416.95
820.948	21363.85
821.276	21531.3
821.604	21434.35
821.932	21334.02
822.259	21400.68
822.587	21436.84
822.915	21380.57
823.243	21352.77
823.57	21322.26
823.898	21331.98
824.225	21268.03
824.553	21230.29
824.88	21280.01
825.207	21293.56
825.535	21298.76
825.862	21360
826.189	21287.01
826.516	21283.4
826.843	21393.9
827.17	21346.9
827.497	21447.68
827.824	21303.73
828.151	21333.79
828.478	21294.47
828.805	21411.53
829.131	21174.92
829.458	21204.75
829.785	21098.77
830.111	21181.25
830.438	21353
830.764	21183.74
831.09	21310.74
831.417	21243.4
831.743	21242.94
832.069	21248.14
832.395	21115.94
832.722	21134.02
833.048	21045.66
833.374	21095.15
833.7	21092.21
834.026	21058.32
834.351	21119.11
834.677	21054.02
835.003	21068.49
835.329	21022.16
835.654	21000.92
835.98	20942.84
836.306	20903.97
836.631	20819
836.956	20829.17
837.282	20882.5
837.607	20801.6
837.932	20778.55
838.258	20695.61
838.583	20692
838.908	20598.67
839.233	20541.49
839.558	20542.17
839.883	20507.37
840.208	20438.22
840.533	20515.96
840.858	20558.22
841.182	20400.71
841.507	20397.54
841.832	20314.16
842.156	20260.37
842.481	20188.06
842.805	20145.12
843.13	20173.82
843.454	20150.09
843.778	20053.82
844.103	19981.51
844.427	19937.67
844.751	19894.28
845.075	19904.9
845.399	19712.59
845.723	19746.03
846.047	19776.54
846.371	19599.37
846.695	19614.06
847.019	19497.23
847.343	19336.1
847.666	19259.49
847.99	19083.9
848.313	19140.63
848.637	18982.89
848.96	19058.82
849.284	19033.28
849.607	18915.32
849.931	18773.63
850.254	18724.14
850.577	18610.47
850.9	18504.26
851.223	18457.03
851.546	18347.43
851.869	18293.19
852.192	18353.53
852.515	18160.77
852.838	18099.75
853.161	18099.3
853.483	18017.72
853.806	17928.46
854.129	17895.46
854.451	17869.93
854.774	17730.27
855.096	17627.67
855.419	17574.79
855.741	17584.06
856.063	17412.54
856.385	17483.04
856.708	17414.34
857.03	17290.73
857.352	17250.51
857.674	17129.15
857.996	17244.18
858.318	17048.03
858.64	17057.07
858.961	16995.6
859.283	16977.52
859.605	16754.7
859.926	16845.55
860.248	16860.69
860.57	16698.43
860.891	16860.91
861.212	16669.73
861.534	16676.51
861.855	16657.75
862.176	16551.09
862.498	16546.34
862.819	16491.88
863.14	16475.84
863.461	16450.08
863.782	16443.07
864.103	16405.11
864.424	16467.93
864.745	16479.45
865.065	16371.43
865.386	16278.78
865.707	16216.64
866.027	16244.88
866.348	16094.38
866.668	16170.76
866.989	16141.38
867.309	16026.36
867.63	16121.27
867.95	15983.2
868.27	15946.36
868.59	15912.46
868.91	15959.02
869.23	15939.58
869.55	15815.52
869.87	15894.61
870.19	15842.41
870.51	15818.23
870.83	15866.14
871.15	15760.6
871.469	15695.97
871.789	15763.31
872.109	15754.73
872.428	15642.19
872.748	15706.37
873.067	15609.87
873.386	15636.99
873.706	15635.86
874.025	15447.62
874.344	15412.14
874.663	15473.15
874.982	15441.74
875.301	15385.7
875.62	15415.07
875.939	15432.93
876.258	15355.87
876.577	15336.66
876.896	15286.94
877.214	15235.64
877.533	15265.47
877.852	15163.78
878.17	15233.38
878.489	15214.63
878.807	15194.29
879.125	15183.22
879.444	15086.5
879.762	14950.45
880.08	15001.75
880.398	14948.87
880.716	15102.77
881.034	14899.38
881.352	14961.08
881.67	14873.62
881.988	14945.93
882.306	14892.83
882.624	14837.24
882.941	14797.92
883.259	14675.21
883.577	14636.11
883.894	14656.22
884.212	14649.9
884.529	14577.81
884.846	14622.1
885.164	14536.91
885.481	14512.27
885.798	14525.83
886.115	14309.12
886.432	14395.21
886.75	14359.06
887.067	14312.51
887.383	14270.47
887.7	14210.59
888.017	14172.4
888.334	14239.96
888.651	14163.13
888.967	14192.51
889.284	14076.81
889.6	14115
889.917	13917.49
890.233	13996.58
890.55	13787.55
890.866	13922.91
891.182	13811.05
891.498	13782.12
891.815	13766.53
892.131	13682.24
892.447	13646.99
892.763	13676.82
893.079	13579.64
893.395	13538.51
893.71	13509.59
894.026	13531.06
894.342	13449.93
894.657	13377.39
894.973	13322.02
895.289	13348.01
895.604	13311.18
895.92	13255.81
896.235	13139.43
896.55	13213.78
896.865	13087.68
897.181	13082.71
897.496	12999.55
897.811	12913.9
898.126	12931.75
898.441	12883.62
898.756	12920.23
899.071	12828.02
899.386	12799.1
899.7	12697.18
900.015	12579.9
900.33	12528.82
900.644	12470.52
900.959	12566.11
901.273	12461.03
901.588	12411.09
901.902	12320.24
902.216	12298.09
902.531	12256.06
902.845	12190.53
903.159	12072.56
903.473	12077.99
903.787	12024.88
904.101	11992.57
904.415	11991.89
904.729	11928.39
905.042	11903.75
905.356	11847.49
905.67	11888.84
905.984	11806.36
906.297	11765
906.611	11667.6
906.924	11665.57
907.237	11574.72
907.551	11630.99
907.864	11425.35
908.177	11441.39
908.491	11389.64
908.804	11383.99
909.117	11305.13
909.43	11308.06
909.743	11165.24
910.056	11185.13
910.368	11137.22
910.681	11115.75
910.994	11039.14
911.307	11032.14
911.619	10886.15
911.932	10885.7
912.244	10835.53
912.557	10928.19
912.869	10729.77
913.181	10718.48
913.494	10726.61
913.806	10604.58
914.118	10637.35
914.43	10529.78
914.742	10547.63
915.054	10416.34
915.366	10441.19
915.678	10383.57
915.99	10254.31
916.302	10255.21
916.613	10167.3
916.925	10237.58
917.236	10088.21
917.548	10080.3
917.859	10203.46
918.171	10006.63
918.482	9991.04
918.794	9899.97
919.105	9925.5
919.416	9821.1
919.727	9787.65
920.038	9800.31
920.349	9731.16
920.66	9693.19
920.971	9675.79
921.282	9673.98
921.593	9558.05
921.903	9459.07
922.214	9497.04
922.525	9439.19
922.835	9413.2
923.146	9335.46
923.456	9370.26
923.767	9244.84
924.077	9238.29
924.387	9173.21
924.697	9093.66
925.008	9139.76
925.318	9064.73
925.628	9035.36
925.938	8996.49
926.248	8910.84
926.558	8849.15
926.867	8878.75
927.177	8860.67
927.487	8811.41
927.796	8758.3
928.106	8728.92
928.416	8711.97
928.725	8622.26
929.034	8598.3
929.344	8565.54
929.653	8534.58
929.962	8540.91
930.271	8505.2
930.581	8407.58
930.89	8356.28
931.199	8277.64
931.508	8273.79
931.817	8267.24
932.125	8302.04
932.434	8213
932.743	8184.98
933.051	8136.4
933.36	8134.36
933.669	8116.96
933.977	7983.86
934.286	7983.63
934.594	7919.45
934.902	7926.23
935.21	7906.12
935.519	7898.44
935.827	7886.69
936.135	7797.65
936.443	7693.24
936.751	7671.55
937.059	7703.87
937.367	7675.17
937.674	7652.34
937.982	7589.52
938.29	7522.4
938.597	7492.12
938.905	7450.99
939.213	7407.38
939.52	7378.22
939.827	7401.5
940.135	7315.85
940.442	7295.74
940.749	7297.1
941.056	7340.48
941.363	7223.65
941.67	7182.75
941.977	7131.22
942.284	7066.59
942.591	7100.94
942.898	7003.54
943.205	7020.72
943.511	6990.89
943.818	6958.12
944.125	6947.05
944.431	6901.63
944.738	6897.78
945.044	6850.78
945.35	6804.91
945.657	6782.76
945.963	6820.72
946.269	6735.08
946.575	6692.37
946.881	6699.6
947.187	6654.85
947.493	6594.52
947.799	6617.34
948.105	6572.6
948.41	6537.12
948.716	6481.52
949.022	6441.53
949.327	6485.59
949.633	6399.49
949.938	6348.42
950.244	6417.57
950.549	6281.53
950.854	6336.9
951.16	6295.54
951.465	6243.56
951.77	6225.71
952.075	6172.83
952.38	6134.19
952.685	6160.85
952.99	6086.73
953.294	6044.47
953.599	6046.28
953.904	6018.94
954.209	5996.79
954.513	6032.27
954.818	5940.97
955.122	5932.84
955.426	5879.28
955.731	5853.29
956.035	5837.93
956.339	5830.47
956.643	5806.29
956.948	5717.48
957.252	5762
957.556	5720.19
957.86	5633.19
958.163	5690.58
958.467	5621.89
958.771	5642.9
959.075	5604.71
959.378	5542.57
959.682	5552.06
959.985	5507.76
960.289	5463.02
960.592	5479.97
960.896	5415.56
961.199	5448.78
961.502	5376.69
961.805	5386.19
962.108	5330.14
962.411	5340.31
962.714	5281.1
963.017	5312.29
963.32	5264.38
963.623	5194.55
963.926	5251.95
964.228	5182.35
964.531	5176.47
964.833	5129.7
965.136	5113.65
965.438	5129.02
965.741	5066.87
966.043	5056.7
966.345	4990.49
966.648	5006.99
966.95	5017.61
967.252	4956.82
967.554	4902.36
967.856	4925.63
968.158	4874.11
968.46	4865.75
968.761	4818.97
969.063	4801.79
969.365	4813.09
969.666	4754.34
969.968	4750.5
970.269	4751.17
970.571	4703.72
970.872	4723.15
971.174	4691.74
971.475	4667.56
971.776	4624.85
972.077	4578.75
972.378	4588.24
972.679	4579.2
972.98	4545.53
973.281	4484.51
973.582	4482.71
973.883	4508.02
974.183	4440.67
974.484	4452.43
974.785	4407.45
975.085	4378.08
975.386	4422.37
975.686	4382.6
975.986	4340.79
976.287	4342.37
976.587	4272.09
976.887	4260.11
977.187	4270.06
977.487	4247.23
977.787	4206.56
978.087	4181.47
978.387	4186.22
978.687	4191.87
978.987	4211.53
979.286	4123.17
979.586	4107.58
979.885	4119.78
980.185	4057.41
980.484	4007.47
980.784	4009.73
981.083	4027.8
981.382	3999.1
981.682	3960.69
981.981	3979.67
982.28	3926.56
982.579	3931.76
982.878	3925.66
983.177	3905.55
983.475	3885.21
983.774	3816.28
984.073	3848.37
984.372	3806.11
984.67	3834.36
984.969	3854.7
985.267	3791.2
985.566	3808.83
985.864	3748.71
986.162	3734.25
986.461	3723.63
986.759	3698.09
987.057	3651.54
987.355	3656.97
987.653	3625.78
987.951	3604.99
988.249	3627.14
988.547	3595.05
988.844	3561.6
989.142	3531.55
989.44	3515.95
989.737	3498.33
990.035	3510.3
990.332	3471.43
990.63	3441.38
990.927	3443.41
991.224	3412.68
991.521	3444.77
991.819	3417.2
992.116	3397.99
992.413	3383.98
992.71	3325.9
993.006	3339.69
993.303	3336.75
993.6	3323.64
993.897	3295.39
994.193	3297.88
994.49	3253.13
994.787	3217.88
995.083	3208.39
995.379	3238.22
995.676	3163.87
995.972	3174.04
996.268	3150.09
996.565	3164.1
996.861	3119.58
997.157	3091.78
997.453	3091.33
997.749	3041.16
998.044	3029.19
998.34	3038.45
998.636	3028.28
998.932	3010.66
999.227	3012.24
999.523	2979.24
999.818	2959.58
1000.114	2939.47
1000.409	2934.05
1000.704	2904.67
1001	2922.3
1001.295	2879.59
1001.59	2882.07
1001.885	2871.68
1002.18	2832.58
1002.475	2816.99
1002.77	2804.33
1003.065	2780.6
1003.359	2758.01
1003.654	2749.19
1003.949	2772.7
1004.243	2711.45
1004.538	2707.39
1004.832	2699.93
1005.127	2667.61
1005.421	2644.34
1005.715	2666.48
1006.009	2633.72
1006.304	2625.35
1006.598	2605.02
1006.892	2562.53
1007.186	2558.69
1007.48	2564.79
1007.773	2545.58
1008.067	2514.62
1008.361	2531.8
1008.655	2502.42
1008.948	2461.29
1009.242	2473.49
1009.535	2449.09
1009.829	2465.13
1010.122	2417.9
1010.415	2425.36
1010.708	2418.81
1011.001	2376.1
1011.295	2362.31
1011.588	2357.34
1011.881	2364.8
1012.173	2344.68
1012.466	2314.85
1012.759	2299.04
1013.052	2288.64
1013.344	2270.34
1013.637	2254.97
1013.93	2197.8
1014.222	2211.58
1014.514	2178.13
1014.807	2212.26
1015.099	2158.7
1015.391	2185.59
1015.683	2171.58
1015.976	2142.66
1016.268	2126.61
1016.56	2097.46
1016.851	2105.37
1017.143	2064.69
1017.435	2088.19
1017.727	2052.49
1018.018	2071.24
1018.31	2018.37
1018.602	2021.08
1018.893	2034.64
1019.185	1993.73
1019.476	1977.69
1019.767	1952.6
1020.058	1964.36
1020.35	1934.75
1020.641	1952.38
1020.932	1923
1021.223	1898.14
1021.514	1874.19
1021.804	1886.62
1022.095	1853.4
1022.386	1824.7
1022.677	1817.47
1022.967	1793.29
1023.258	1808.43
1023.548	1802.33
1023.839	1793.06
1024.129	1754.42
1024.419	1739.28
1024.709	1730.69
1025	1727.98
1025.29	1729.56
1025.58	1702.22
1025.87	1673.97
1026.16	1669.67
1026.449	1695.66
1026.739	1664.48
1027.029	1678.26
1027.319	1643.91
1027.608	1633.74
1027.898	1626.06
1028.187	1610.92
1028.477	1613.86
1028.766	1585.16
1029.055	1601.65
1029.344	1567.3
1029.634	1552.84
1029.923	1545.84
1030.212	1533.63
1030.501	1515.55
1030.79	1507.42
1031.078	1496.34
1031.367	1490.24
1031.656	1474.88
1031.945	1462.9
1032.233	1450.47
1032.522	1436.46
1032.81	1434.65
1033.099	1431.26
1033.387	1433.97
1033.675	1423.35
1033.963	1384.26
1034.251	1395.78
1034.54	1365.73
1034.828	1391.04
1035.116	1367.31
1035.403	1324.82
1035.691	1354.88
1035.979	1300.87
1036.267	1358.72
1036.554	1314.88
1036.842	1312.17
1037.129	1292.96
1037.417	1292.73
1037.704	1295.22
1037.992	1257.71
1038.279	1250.93
1038.566	1236.46
1038.853	1236.46
1039.14	1236.46
