Data from orange_diffuse_book_FLMS001491_00050.txt Node
Date: Wed Feb 08 15:29:38 GMT 2017
User: dcchb
Spectrometer: FLMS00149
Trigger mode: 0
Integration Time (sec): 2.000000E-2
Scans to average: 10
Electric dark correction enabled: true
Nonlinearity correction enabled: false
Boxcar width: 0
XAxis mode: Wavelengths
Number of Pixels in Spectrum: 2048
>>>>>Begin Spectral Data<<<<<
341.393	4.17
341.776	4.17
342.16	4.17
342.543	-41.26
342.927	-74.02
343.31	-76.51
343.693	-69.05
344.077	-73.8
344.46	-47.58
344.843	-55.49
345.226	-52.1
345.61	-30.18
345.993	-23.18
346.376	-3.29
346.759	8.46
347.142	17.5
347.525	45.07
347.908	70.38
348.291	88.68
348.674	91.4
349.057	109.7
349.44	127.55
349.823	143.15
350.206	150.83
350.588	211.62
350.971	215.46
351.354	227.44
351.737	247.32
352.119	247.1
352.502	267.89
352.884	290.71
353.267	309.24
353.65	322.8
354.032	298.62
354.414	312.63
354.797	327.32
355.179	315.34
355.562	321.9
355.944	333.2
356.326	344.04
356.709	333.42
357.091	328.9
357.473	347.21
357.855	367.09
358.238	348.34
358.62	340.88
359.002	350.37
359.384	351.28
359.766	340.2
360.148	350.82
360.53	333.65
360.912	345.17
361.294	347.66
361.676	338.85
362.057	352.86
362.439	327.55
362.821	330.71
363.203	345.85
363.584	324.16
363.966	331.16
364.348	331.39
364.729	328.45
365.111	309.92
365.493	355.12
365.874	323.25
366.256	330.26
366.637	327.77
367.019	343.14
367.4	325.51
367.781	325.74
368.163	313.08
368.544	313.31
368.925	331.84
369.306	334.55
369.688	328.23
370.069	301.79
370.45	304.72
370.831	342.46
371.212	328.68
371.593	328
371.974	309.02
372.355	334.55
372.736	324.61
373.117	340.2
373.498	328.23
373.879	322.58
374.26	310.37
374.641	319.64
375.021	332.52
375.402	313.31
375.783	325.74
376.163	332.52
376.544	337.49
376.925	337.72
377.305	347.43
377.686	340.65
378.066	341.33
378.447	317.15
378.827	334.55
379.208	346.53
379.588	334.33
379.968	359.19
380.349	352.63
380.729	335.01
381.109	336.14
381.489	334.55
381.87	353.54
382.25	344.72
382.63	328.68
383.01	363.03
383.39	358.51
383.77	337.94
384.15	364.16
384.53	352.18
384.91	370.03
385.29	365.51
385.67	377.04
386.049	364.38
386.429	377.49
386.809	372.97
387.189	349.24
387.568	368.68
387.948	380.65
388.328	376.81
388.707	337.94
389.087	364.61
389.466	367.09
389.846	376.13
390.225	368.45
390.605	360.32
390.984	371.16
391.363	378.39
391.743	375.91
392.122	360.99
392.501	390.82
392.881	389.69
393.26	387.43
393.639	391.05
394.018	391.5
394.397	398.05
394.776	376.36
395.155	385.63
395.534	395.79
395.913	392.18
396.292	390.6
396.671	408.22
397.05	390.15
397.429	409.35
397.808	408.9
398.186	388.56
398.565	375.46
398.944	401.44
399.323	393.76
399.701	405.51
400.08	412.97
400.458	401.22
400.837	389.92
401.215	410.71
401.594	421.1
401.972	415.68
402.351	401.44
402.729	410.26
403.107	410.71
403.486	408.22
403.864	415.46
404.242	403.7
404.62	418.62
404.999	419.75
405.377	417.04
405.755	406.19
406.133	427.43
406.511	429.69
406.889	435.34
407.267	437.83
407.645	437.38
408.023	447.77
408.401	460.88
408.779	455
409.156	464.04
409.534	465.17
409.912	476.92
410.29	459.3
410.667	469.92
411.045	477.83
411.422	483.7
411.8	499.52
412.178	465.85
412.555	484.83
412.933	476.02
413.31	489.35
413.687	490.71
414.065	510.59
414.442	497.26
414.819	492.29
415.197	494.78
415.574	506.75
415.951	511.27
416.328	538.16
416.705	513.08
417.082	530.71
417.46	512.18
417.837	514.66
418.214	520.54
418.591	548.11
418.967	524.6
419.344	563.25
419.721	541.55
420.098	551.27
420.475	544.04
420.852	532.29
421.228	558.73
421.605	545.17
421.982	564.6
422.358	573.42
422.735	572.97
423.111	565.28
423.488	585.85
423.864	554.21
424.241	585.39
424.617	573.19
424.994	605.28
425.37	592.17
425.746	605.96
426.123	607.31
426.499	617.26
426.875	606.41
427.251	616.13
427.627	616.35
428.003	615
428.379	627.88
428.756	641.21
429.132	633.53
429.507	655.22
429.883	639.4
430.259	645.28
430.635	669.23
431.011	653.87
431.387	680.98
431.763	685.96
432.138	665.17
432.514	685.5
432.89	697.93
433.265	720.98
433.641	702
434.016	696.35
434.392	725.73
434.767	732.51
435.143	723.24
435.518	739.29
435.894	747.65
436.269	752.62
436.644	732.28
437.02	777.48
437.395	768.44
437.77	753.75
438.145	795.11
438.52	790.13
438.895	801.89
439.271	785.16
439.646	783.36
440.021	791.94
440.395	791.49
440.77	782.9
441.145	812.05
441.52	818.83
441.895	796.69
442.27	832.39
442.645	825.61
443.019	826.07
443.394	834.2
443.769	861.09
444.143	845.5
444.518	845.73
444.892	863.58
445.267	863.8
445.641	874.2
446.016	867.65
446.39	864.26
446.764	862.45
447.139	863.13
447.513	870.13
447.887	865.61
448.262	899.51
448.636	865.61
449.01	875.56
449.384	906.97
449.758	890.24
450.132	901.54
450.506	915.33
450.88	933.41
451.254	960.07
451.628	921.66
452.002	953.52
452.376	947.42
452.75	959.4
453.123	940.41
453.497	957.14
453.871	965.95
454.244	963.69
454.618	990.81
454.992	1007.53
455.365	977.25
455.739	989.45
456.112	1009.79
456.486	1036.23
456.859	1020.19
457.232	1026.96
457.606	1030.81
457.979	1061.54
458.352	1044.37
458.725	1084.14
459.099	1063.35
459.472	1094.99
459.845	1078.94
460.218	1081.43
460.591	1110.13
460.964	1105.38
461.337	1129.56
461.71	1137.47
462.083	1152.38
462.456	1130.69
462.829	1140.18
463.201	1166.62
463.574	1166.17
463.947	1173.4
464.32	1179.73
464.692	1216.56
465.065	1170.24
465.438	1218.15
465.81	1233.96
466.183	1228.32
466.555	1265.83
466.928	1264.25
467.3	1273.74
467.672	1287.75
468.045	1296.11
468.417	1289.1
468.789	1319.61
469.161	1341.76
469.534	1333.17
469.906	1360.74
470.278	1367.75
470.65	1380.63
471.022	1391.7
471.394	1410.91
471.766	1434.41
472.138	1430.34
472.51	1429.67
472.882	1476.44
473.253	1477.12
473.625	1471.25
473.997	1521.64
474.369	1538.82
474.74	1545.59
475.112	1562.54
475.484	1597.57
475.855	1634.63
476.227	1613.84
476.598	1642.09
476.97	1690.22
477.341	1700.39
477.713	1734.97
478.084	1721.64
478.455	1756.66
478.827	1779.04
479.198	1803.22
479.569	1829.88
479.94	1873.04
480.311	1885.02
480.682	1913.49
481.053	1959.82
481.424	1958.24
481.795	1943.55
482.166	2037.11
482.537	2031.01
482.908	2078.46
483.279	2092.47
483.65	2137.44
484.021	2151
484.391	2166.14
484.762	2189.65
485.133	2260.83
485.503	2273.71
485.874	2319.81
486.244	2310.32
486.615	2351.45
486.985	2400.71
487.356	2439.58
487.726	2416.31
488.097	2489.07
488.467	2530.2
488.837	2552.35
489.207	2584.89
489.578	2644.55
489.948	2677.32
490.318	2695.62
490.688	2687.49
491.058	2723.87
491.428	2791.21
491.798	2853.13
492.168	2864.43
492.538	2919.8
492.908	2953.92
493.278	2994.37
493.648	2981.72
494.017	3058.55
494.387	3086.35
494.757	3102.84
495.126	3140.36
495.496	3159.34
495.866	3174.03
496.235	3250.41
496.605	3276.17
496.974	3352.33
497.344	3337.86
497.713	3351.88
498.082	3363.4
498.452	3418.31
498.821	3440.01
499.19	3467.58
499.559	3477.75
499.928	3542.83
500.298	3601.36
500.667	3637.74
501.036	3611.76
501.405	3665.31
501.774	3694.01
502.143	3729.94
502.512	3739.89
502.88	3788.02
503.249	3815.59
503.618	3817.17
503.987	3854.69
504.356	3875.03
504.724	3897.17
505.093	3940.11
505.462	3914.8
505.83	3979.43
506.199	4047.22
506.567	4037.96
506.936	4043.38
507.304	4110.05
507.672	4119.09
508.041	4160.22
508.409	4191.18
508.777	4242.7
509.145	4251.96
509.514	4237.05
509.882	4326.09
510.25	4311.17
510.618	4337.16
510.986	4381
511.354	4430.94
511.722	4460.55
512.09	4476.14
512.458	4543.03
512.826	4567.66
513.193	4551.39
513.561	4569.47
513.929	4613.76
514.297	4681.56
514.664	4730.14
515.032	4718.84
515.4	4782.8
515.767	4792.97
516.135	4809.24
516.502	4842.68
516.869	4894.66
517.237	4934.66
517.604	4938.95
517.972	4987.76
518.339	4990.25
518.706	5044.71
519.073	5074.99
519.44	5077.48
519.808	5135.33
520.175	5184.82
520.542	5175.56
520.909	5232.96
521.276	5224.59
521.643	5317.25
522.009	5374.87
522.376	5392.05
522.743	5421.65
523.11	5429.79
523.477	5491.93
523.843	5506.39
524.21	5559.73
524.577	5655.77
524.943	5659.61
525.31	5704.13
525.676	5770.34
526.043	5785.26
526.409	5788.42
526.776	5836.78
527.142	5871.58
527.508	5873.39
527.874	6007.85
528.241	6003.1
528.607	5997.23
528.973	6043.78
529.339	6048.3
529.705	6134.85
530.071	6131.92
530.437	6091.92
530.803	6220.5
531.169	6264.57
531.535	6234.96
531.901	6328.75
532.267	6293.49
532.632	6362.19
532.998	6379.14
533.364	6420.5
533.73	6474.73
534.095	6460.04
534.461	6493.71
534.826	6595.63
535.192	6590.66
535.557	6617.33
535.923	6612.58
536.288	6637.66
536.653	6698.68
537.019	6661.39
537.384	6760.15
537.749	6720.6
538.114	6785.01
538.479	6801.95
538.845	6856.19
539.21	6858.9
539.575	6835.85
539.94	6853.03
540.305	6947.26
540.67	6946.58
541.034	6973.25
541.399	7035.85
541.764	7062.51
542.129	7114.04
542.494	7138.89
542.858	7102.96
543.223	7186.8
543.587	7210.98
543.952	7215.05
544.316	7195.84
544.681	7260.92
545.045	7318.78
545.41	7393.35
545.774	7391.32
546.138	7309.96
546.503	7416.18
546.867	7493.69
547.231	7497.98
547.595	7511.77
547.959	7584.53
548.324	7559
548.688	7617.07
549.052	7683.51
549.416	7717.41
549.779	7780.91
550.143	7750.63
550.507	7829.95
550.871	7878.54
551.235	7902.72
551.599	7926.9
551.962	7961.92
552.326	8036.5
552.689	8128.92
553.053	8051.19
553.417	8218.19
553.78	8240.56
554.143	8217.51
554.507	8311.97
554.87	8368.01
555.234	8470.38
555.597	8474.23
555.96	8499.76
556.323	8529.59
556.686	8544.51
557.05	8702.24
557.413	8661.34
557.776	8761.22
558.139	8837.61
558.502	8826.99
558.865	8917.83
559.228	8965.96
559.59	9012.97
559.953	9086.19
560.316	9270.36
560.679	9249.57
561.041	9353.75
561.404	9385.16
561.767	9473.75
562.129	9513.52
562.492	9642.11
562.854	9672.16
563.217	9707.19
563.579	9801.42
563.941	9888.43
564.304	10052.72
564.666	10126.16
565.028	10196.89
565.39	10227.85
565.753	10345.36
566.115	10401.41
566.477	10570.44
566.839	10617.45
567.201	10831
567.563	10796.88
567.925	10939.25
568.287	11125
568.648	11219.01
569.01	11252.23
569.372	11464.2
569.734	11541.04
570.095	11639.34
570.457	11816.51
570.819	11904.42
571.18	12141.93
571.542	12183.51
571.903	12309.15
572.265	12542.37
572.626	12698.75
572.987	12790.5
573.349	13051.73
573.71	13105.74
574.071	13309.35
574.432	13470.03
574.794	13683.81
575.155	13933.07
575.516	14049.9
575.877	14282.21
576.238	14489.44
576.599	14765.36
576.96	14950.89
577.32	15089.65
577.681	15364.44
578.042	15534.38
578.403	15916.29
578.763	16026.34
579.124	16349.05
579.485	16612.09
579.845	16933.21
580.206	17195.58
580.566	17523.71
580.927	17743.36
581.287	18121.2
581.648	18221.31
582.008	18720.06
582.368	18971.13
582.728	19184.23
583.089	19672.8
583.449	19884.32
583.809	20289.28
584.169	20647.24
584.529	20887.23
584.889	21369.25
585.249	21632.07
585.609	22016.02
585.969	22469.11
586.329	22765.15
586.688	23256.21
587.048	23488.07
587.408	23901.62
587.768	24332.34
588.127	24741.6
588.487	25115.82
588.846	25705.41
589.206	25896.82
589.565	26278.05
589.925	26882.1
590.284	27167.52
590.643	27618.58
591.003	28167.49
591.362	28725.45
591.721	29002.27
592.08	29344.41
592.44	29873.66
592.799	30366.98
593.158	30801.1
593.517	31199.96
593.876	31717.01
594.235	32072.02
594.593	32578.68
594.952	32992.45
595.311	33425.43
595.67	33858.19
596.029	34503.37
596.387	34953.53
596.746	35447.3
597.104	35741.98
597.463	36158.02
597.822	36693.15
598.18	36860.37
598.538	37356.4
598.897	37978.76
599.255	38043.39
599.613	38980.54
599.972	39070.71
600.33	39695.1
600.688	39805.38
601.046	40432.48
601.404	40952.47
601.762	41287.15
602.12	41765.78
602.478	42111.31
602.836	42439.66
603.194	42525.31
603.552	43042.13
603.91	43226.08
604.268	43856.12
604.625	43896.35
604.983	44412.26
605.341	44622.65
605.698	45088.4
606.056	45398.45
606.413	45696.75
606.771	45978.78
607.128	46429.84
607.485	46345.32
607.843	46689.94
608.2	47065.75
608.557	47454.22
608.914	47550.49
609.272	48076.57
609.629	48257.59
609.986	48432.27
610.343	48352.27
610.7	48977.79
611.057	48991.58
611.414	49152.03
611.771	49304.57
612.127	49591.34
612.484	49781.39
612.841	49922.63
613.198	50010.99
613.554	50086.24
613.911	50453.01
614.267	50502.05
614.624	50557.87
614.98	50827.24
615.337	51052.32
615.693	51196.72
616.05	51216.38
616.406	51486.88
616.762	51523.26
617.118	51518.52
617.475	51618.85
617.831	51831.96
618.187	51900.2
618.543	52068.56
618.899	52176.13
619.255	52199.63
619.611	52216.13
619.967	52449.79
620.323	52594.65
620.678	52456.35
621.034	52470.81
621.39	52511.03
621.746	52506.06
622.101	52885.71
622.457	52709.45
622.812	52838.03
623.168	52823.79
623.523	52961.19
623.879	53024.24
624.234	52930.46
624.589	53157.8
624.945	53230.11
625.3	53190.11
625.655	53274.18
626.01	53306.04
626.365	53354.18
626.72	53301.52
627.075	53327.28
627.43	53343.56
627.785	53292.93
628.14	53396.21
628.495	53560.05
628.85	53505.81
629.205	53420.16
629.559	53540.84
629.914	53439.15
630.269	53506.94
630.623	53451.12
630.978	53344.23
631.332	53554.85
631.687	53590.55
632.041	53478.92
632.396	53568.86
632.75	53455.19
633.104	53627.39
633.459	53406.83
633.813	53406.15
634.167	53420.62
634.521	53431.24
634.875	53484.34
635.229	53477.34
635.583	53310.79
635.937	53384.68
636.291	53395.31
636.645	53445.47
636.999	53345.59
637.352	53365.25
637.706	53240.51
638.06	53374.06
638.413	53327.74
638.767	53169.77
639.121	53326.61
639.474	53183.11
639.828	53129.55
640.181	53215.42
640.534	53203.9
640.888	53144.69
641.241	53047.97
641.594	53090
641.947	53252.71
642.301	53067.18
642.654	53206.84
643.007	53194.86
643.36	53106.73
643.713	53070.12
644.066	53226.04
644.419	52898.14
644.771	52773.63
645.124	52595.1
645.477	52493.86
645.83	52255.45
646.182	52220.65
646.535	52243.92
646.888	52329.57
647.24	52083.25
647.593	52345.39
647.945	52184.94
648.298	52057.04
648.65	51996.25
649.002	51904.95
649.355	51967.55
649.707	52023.14
650.059	52138.61
650.411	52543.58
650.763	52622.9
651.115	52860.86
651.467	52713.52
651.819	52788.77
652.171	52662.44
652.523	52703.35
652.875	52724.14
653.227	52513.75
653.578	52771.37
653.93	52610.47
654.282	52514.88
654.633	52461.54
654.985	52601.2
655.337	52624.03
655.688	52623.8
656.039	52764.36
656.391	52485.72
656.742	52581.54
657.094	52553.29
657.445	52661.54
657.796	52579.96
658.147	52538.6
658.498	52490.02
658.849	52659.05
659.2	52425.84
659.551	52492.73
659.902	52545.61
660.253	52515.55
660.604	52574.99
660.955	52423.13
661.306	52479.4
661.656	52422.45
662.007	52395.78
662.358	52430.13
662.708	52460.41
663.059	52401.66
663.409	52270.36
663.76	52543.35
664.11	52411.38
664.461	52510.13
664.811	52339.51
665.161	52392.39
665.511	52357.82
665.862	52318.05
666.212	52405.73
666.562	52473.75
666.912	52339.29
667.262	52359.4
667.612	52330.02
667.962	52354.65
668.312	52306.07
668.662	52452.05
669.011	52338.61
669.361	52312.62
669.711	52285.5
670.06	52253.19
670.41	52129.35
670.76	52164.15
671.109	52260.65
671.459	52218.16
671.808	52091.61
672.157	52120.08
672.507	51986.98
672.856	51994.66
673.205	52032.18
673.554	52115.56
673.904	52022.91
674.253	52077.15
674.602	52013.19
674.951	51645.97
675.3	51373.21
675.649	51908.79
675.998	51898.85
676.346	51911.95
676.695	51939.3
677.044	51641
677.393	51751.73
677.741	51809.81
678.09	51681.23
678.438	51725.52
678.787	51845.29
679.135	51726.42
679.484	51509.93
679.832	51638.52
680.181	51355.36
680.529	51520.78
680.877	51368.47
681.225	51372.08
681.573	51644.62
681.922	51408.24
682.27	51335.02
682.618	51222.71
682.966	51159.21
683.314	51234.46
683.661	51142.48
684.009	50966.89
684.357	50977.97
684.705	51024.52
685.053	50966.22
685.4	50815.26
685.748	50730.52
686.095	50690.74
686.443	50534.59
686.79	50503.63
687.138	50600.8
687.485	50477.64
687.832	50457.08
688.18	50422.28
688.527	50217.76
688.874	50214.37
689.221	50216.63
689.568	50067.48
689.915	49942.74
690.262	49948.84
690.609	49828.39
690.956	49693.48
691.303	49633.37
691.65	49573.26
691.997	49528.06
692.344	49228.18
692.69	49180.05
693.037	49399.03
693.383	48892.6
693.73	49164.68
694.077	48790.68
694.423	48865.71
694.769	48782.09
695.116	48734.64
695.462	48671.81
695.808	48463.91
696.155	48560.63
696.501	48118.61
696.847	48264.59
697.193	47942.57
697.539	48084.71
697.885	47834.1
698.231	47665.29
698.577	47686.75
698.923	47570.83
699.269	47327.89
699.614	47290.61
699.96	47139.42
700.306	47282.02
700.651	46933.78
700.997	46911.18
701.342	46888.81
701.688	46862.6
702.033	46690.17
702.379	46536.05
702.724	46540.34
703.069	46526.33
703.415	46122.73
703.76	46137.19
704.105	46148.49
704.45	45949.63
704.795	45863.53
705.14	45702.85
705.485	45689.52
705.83	45536.75
706.175	45600.48
706.52	45376.76
706.865	45133.6
707.209	45078.91
707.554	44816.77
707.899	45184.67
708.243	44738.13
708.588	44866.72
708.932	44445.03
709.277	44552.37
709.621	44491.13
709.966	44281.65
710.31	44445.03
710.654	43993.74
710.998	44174.98
711.342	44088.43
711.687	44108.32
712.031	43859.28
712.375	43624.94
712.719	43815.44
713.063	43668.33
713.407	43621.55
713.75	43516.02
714.094	43551.04
714.438	43197.61
714.782	43405.96
715.125	43009.59
715.469	43248.68
715.812	43017.27
716.156	42794.68
716.499	42841.68
716.843	42858.18
717.186	42680.56
717.53	42843.49
717.873	42814.11
718.216	42600.33
718.559	42446.89
718.902	42250.74
719.246	42386.55
719.589	42194.47
719.932	42029.95
720.275	42112.44
720.617	42109.95
720.96	42047.13
721.303	42024.98
721.646	41945.44
721.989	41756.29
722.331	41848.72
722.674	41722.39
723.016	41861.6
723.359	41693.47
723.701	41711.32
724.044	41382.74
724.386	41133.03
724.729	41545.9
725.071	41293.48
725.413	41359.24
725.755	41341.61
726.097	41065.01
726.439	40891.91
726.782	40929.19
727.124	41246.7
727.465	40981.85
727.807	40897.33
728.149	40946.82
728.491	40662.98
728.833	40823.66
729.175	40622.31
729.516	40582.76
729.858	40642.19
730.199	40734.62
730.541	40436.55
730.882	40481.07
731.224	40639.71
731.565	40262.77
731.906	40322.2
732.248	40397.23
732.589	40124.92
732.93	40110
733.271	40103.9
733.612	40149.33
733.953	40273.84
734.294	39891.25
734.635	39951.59
734.976	39906.85
735.317	39686.96
735.658	39759.73
735.999	39818.49
736.339	39677.25
736.68	39712.95
737.021	39837.02
737.361	39552.73
737.702	39696.91
738.042	39587.98
738.383	39495.78
738.723	39629.79
739.063	39368.33
739.404	39395.9
739.744	39412.17
740.084	39298.5
740.424	39347.54
740.764	39206.75
741.104	39367.65
741.444	39018.96
741.784	38995.01
742.124	39035.23
742.464	38947.78
742.804	39087.88
743.143	38740.1
743.483	38897.83
743.823	38821.45
744.162	38766.31
744.502	38680.21
744.841	38513.66
745.181	38675.01
745.52	38459.2
745.86	38653.55
746.199	38500.56
746.538	38483.61
746.877	38570.38
747.216	38446.77
747.556	38354.57
747.895	38378.75
748.234	38142.15
748.573	38076.39
748.911	38142.82
749.25	38143.05
749.589	38015.6
749.928	38061.24
750.267	38127.68
750.605	37890.63
750.944	37818.99
751.283	37825.32
751.621	37775.83
751.96	37517.53
752.298	37606.79
752.636	37626.23
752.975	37472.56
753.313	37479.11
753.651	37525.89
753.989	37157.09
754.327	37302.62
754.666	37051.33
755.004	37107.6
755.342	37182.4
755.679	37056.3
756.017	36780.37
756.355	36874.16
756.693	36611.11
757.031	36660.15
757.368	36526.82
757.706	36550.55
758.044	36361.85
758.381	36469.65
758.719	36299.71
759.056	36374.74
759.394	36188.07
759.731	35846.61
760.068	35840.06
760.405	35697.01
760.743	35792.38
761.08	35600.07
761.417	35565.72
761.754	35595.77
762.091	35442.78
762.428	35263.58
762.765	34998.5
763.102	35246.18
763.438	35017.94
763.775	34900.42
764.112	34887.77
764.449	34852.97
764.785	34756.02
765.122	34379.31
765.458	34460.66
765.795	34404.84
766.131	34324.62
766.467	34174.34
766.804	33962.14
767.14	33981.35
767.476	33908.81
767.812	33675.82
768.148	33644.41
768.485	33548.6
768.821	33364.87
769.157	33353.8
769.492	33273.8
769.828	33241.03
770.164	32869.07
770.5	32905
770.836	32940.93
771.171	32662.29
771.507	32649.64
771.842	32479.7
772.178	32326.25
772.513	32241.06
772.849	32085.58
773.184	31990.22
773.519	32052.59
773.855	31928.52
774.19	31707.06
774.525	31595.88
774.86	31579.61
775.195	31517.24
775.53	31454.87
775.865	31242.22
776.2	30949.34
776.535	30707.09
776.87	30811.49
777.205	30682.68
777.539	30599.29
777.874	30598.62
778.209	30321.56
778.543	30222.81
778.878	30114.11
779.212	30159.98
779.547	29874.34
779.881	30012.42
780.215	29785.53
780.55	29756.83
780.884	29608.81
781.218	29511.87
781.552	29538.98
781.886	29228.03
782.22	29256.73
782.554	29002.27
782.888	28834.59
783.222	28831.21
783.556	28768.38
783.889	28580.36
784.223	28410.65
784.557	28309.41
784.89	28432.12
785.224	28289.98
785.557	28160.71
785.891	28183.76
786.224	28004.33
786.558	27913.26
786.891	27698.35
787.224	27480.05
787.557	27482.99
787.891	27520.28
788.224	27560.05
788.557	27528.19
788.89	27370.68
789.223	27258.82
789.556	26994.42
789.888	26987.19
790.221	26783.8
790.554	26706.97
790.887	26690.24
791.219	26704.26
791.552	26546.52
791.884	26438.95
792.217	26300.88
792.549	26256.58
792.882	25988.57
793.214	25949.02
793.546	26047.32
793.879	25743.83
794.211	25703.83
794.543	25678.07
794.875	25598.97
795.207	25713.32
795.539	25528.92
795.871	25525.76
796.203	25231.98
796.535	25106.56
796.867	25077.41
797.198	25108.82
797.53	25019.1
797.862	24808.49
798.193	24837.41
798.525	24688.26
798.856	24653.46
799.188	24488.04
799.519	24443.98
799.85	24346.8
800.182	24340.02
800.513	24392.45
800.844	24088.05
801.175	24265.45
801.506	24118.11
801.837	23941.62
802.168	24072.01
802.499	23865.23
802.83	23774.39
803.161	23688.97
803.491	23691.68
803.822	23660.72
804.153	23463.89
804.483	23338.02
804.814	23263.44
805.145	23334.17
805.475	23235.87
805.805	23126.72
806.136	23205.82
806.466	23143.9
806.796	23074.97
807.126	22802.44
807.457	22865.26
807.787	22761.53
808.117	22736.9
808.447	22612.39
808.777	22664.81
809.107	22587.08
809.436	22459.62
809.766	22427.76
810.096	22357.03
810.426	22327.87
810.755	22303.24
811.085	22216.69
811.414	22229.57
811.744	22100.99
812.073	22035.68
812.403	22056.47
812.732	21882.01
813.061	21785.06
813.39	21726.53
813.719	21625.97
814.049	21677.95
814.378	21578.97
814.707	21513.43
815.036	21542.81
815.365	21328.8
815.693	21249.48
816.022	21253.78
816.351	21195.7
816.68	21146.21
817.008	21136.04
817.337	20913.9
817.665	20935.82
817.994	21082.26
818.322	20922.71
818.651	20793
818.979	20671.87
819.307	20867.12
819.636	20826.67
819.964	20685.88
820.292	20718.88
820.62	20688.82
820.948	20549.84
821.276	20630.06
821.604	20501.03
821.932	20668.48
822.259	20613.34
822.587	20510.07
822.915	20564.53
823.243	20657.41
823.57	20507.36
823.898	20573.34
824.225	20430.97
824.553	20485.21
824.88	20554.36
825.207	20503.97
825.535	20487.47
825.862	20636.39
826.189	20425.32
826.516	20469.17
826.843	20613.57
827.17	20513.01
827.497	20484.98
827.824	20506.23
828.151	20607.92
828.478	20471.2
828.805	20557.98
829.131	20486.57
829.458	20428.49
829.785	20292.9
830.111	20444.31
830.438	20539.45
830.764	20414.93
831.09	20444.99
831.417	20259.91
831.743	20393.23
832.069	20442.5
832.395	20289.06
832.722	20439.34
833.048	20285.89
833.374	20260.36
833.7	20252.45
834.026	20288.6
834.351	20254.93
834.677	20225.1
835.003	20188.27
835.329	20229.62
835.654	20165.22
835.98	20038.22
836.306	20090.19
836.631	20056.29
836.956	20136.29
837.282	20082.51
837.607	20029.63
837.932	19947.6
838.258	19986.24
838.583	19899.46
838.908	19835.06
839.233	19919.8
839.558	19793.25
839.883	19730.2
840.208	19759.35
840.533	19702.86
840.858	19736.76
841.182	19768.17
841.507	19626.7
841.832	19590.77
842.156	19415.18
842.481	19416.54
842.805	19432.13
843.13	19421.06
843.454	19424.9
843.778	19271.46
844.103	19247.95
844.427	19193.72
844.751	19156.21
845.075	19147.39
845.399	19084.34
845.723	18904.46
846.047	18946.49
846.371	18805.93
846.695	18800.51
847.019	18665.82
847.343	18567.75
847.666	18433.96
847.99	18423.8
848.313	18433.29
848.637	18329.79
848.96	18290.24
849.284	18354.87
849.607	18181.32
849.931	17990.13
850.254	17908.78
850.577	17883.7
850.9	17699.29
851.223	17693.19
851.546	17645.06
851.869	17513.31
852.192	17601.22
852.515	17464.95
852.838	17362.81
853.161	17352.64
853.483	17336.14
853.806	17188.35
854.129	17181.57
854.451	17081.23
854.774	16997.62
855.096	16981.57
855.419	16792.2
855.741	16817.06
856.063	16695.48
856.385	16658.42
856.708	16655.71
857.03	16696.16
857.352	16544.3
857.674	16565.31
857.996	16458.2
858.318	16430.85
858.64	16483.73
858.961	16273.34
859.283	16322.16
859.605	16238.09
859.926	16276.28
860.248	16155.61
860.57	16179.56
860.891	16123.52
861.212	16085.33
861.534	16042.16
861.855	16011.88
862.176	15983.18
862.498	15994.93
862.819	15969.62
863.14	15864.09
863.461	15869.51
863.782	15770.98
864.103	15773.92
864.424	15839.46
864.745	15811.21
865.065	15704.77
865.386	15641.27
865.707	15536.64
866.027	15532.8
866.348	15534.83
866.668	15528.5
866.989	15546.58
867.309	15368.06
867.63	15467.94
867.95	15493.93
868.27	15386.59
868.59	15396.3
868.91	15392.69
869.23	15247.16
869.55	15221.17
869.87	15293.48
870.19	15243.77
870.51	15287.15
870.83	15288.96
871.15	15155.18
871.469	15153.37
871.789	15087.16
872.109	15098.46
872.428	15017.33
872.748	15044.9
873.067	15050.78
873.386	15006.48
873.706	14955.64
874.025	14958.12
874.344	14892.81
874.663	14913.61
874.982	14865.47
875.301	14818.24
875.62	14854.17
875.939	14759.48
876.258	14797.68
876.577	14724.46
876.896	14688.75
877.214	14685.14
877.533	14633.39
877.852	14673.16
878.17	14577.79
878.489	14653.72
878.807	14630.9
879.125	14563.11
879.444	14524.46
879.762	14473.62
880.08	14448.76
880.398	14364.01
880.716	14497.12
881.034	14399.27
881.352	14392.26
881.67	14373.05
881.988	14364.47
882.306	14299.84
882.624	14234.98
882.941	14185.26
883.259	14132.38
883.577	14099.16
883.894	14106.17
884.212	14018.71
884.529	14084.02
884.846	14009
885.164	13978.71
885.481	13938.72
885.798	13919.51
886.115	13876.57
886.432	13887.64
886.75	13834.31
887.067	13780.98
887.383	13746.63
887.7	13750.25
888.017	13586.86
888.334	13688.1
888.651	13609.46
888.967	13573.53
889.284	13514.09
889.6	13438.62
889.917	13409.24
890.233	13475.68
890.55	13388.45
890.866	13385.51
891.182	13304.38
891.498	13227.55
891.815	13267.55
892.131	13138.51
892.447	13176.48
892.763	13133.76
893.079	13065.07
893.395	13070.04
893.71	12938.74
894.026	13029.59
894.342	12935.35
894.657	12796.6
894.973	12812.19
895.289	12815.81
895.604	12728.13
895.92	12715.92
896.235	12673.66
896.55	12687.22
896.865	12588.02
897.181	12588.24
897.496	12569.71
897.811	12415.82
898.126	12412.88
898.441	12299.44
898.756	12308.48
899.071	12285.88
899.386	12270.06
899.7	12177.41
900.015	12133.34
900.33	12018.99
900.644	12030.74
900.959	12031.65
901.273	11949.16
901.588	11905.55
901.902	11828.49
902.216	11830.07
902.531	11753.24
902.845	11735.38
903.159	11727.47
903.473	11657.87
903.787	11614.71
904.101	11594.82
904.415	11550.08
904.729	11507.14
905.042	11381.04
905.356	11466.01
905.67	11395.28
905.984	11374.26
906.297	11296.07
906.611	11274.38
906.924	11252.46
907.237	11151.22
907.551	11072.58
907.864	11045.23
908.177	11057.21
908.491	10970.21
908.804	10937.44
909.117	10852.92
909.43	10878
909.743	10828.74
910.056	10807.5
910.368	10678.24
910.681	10642.98
910.994	10603.44
911.307	10526.6
911.619	10448.19
911.932	10448.64
912.244	10422.42
912.557	10410.45
912.869	10294.97
913.181	10308.53
913.494	10306.49
913.806	10209.32
914.118	10186.27
914.43	10122.09
914.742	10085.03
915.054	10037.35
915.366	10027.63
915.678	9943.11
915.99	9966.84
916.302	9818.6
916.613	9837.81
916.925	9833.74
917.236	9817.24
917.548	9697.92
917.859	9695.89
918.171	9684.14
918.482	9605.27
918.794	9667.42
919.105	9554.88
919.416	9500.19
919.727	9471.94
920.038	9450.25
920.349	9350.81
920.66	9371.83
920.971	9332.06
921.282	9328.67
921.593	9186.75
921.903	9158.5
922.214	9143.81
922.525	9071.95
922.835	9013.65
923.146	9071.72
923.456	8993.31
923.767	8954.21
924.077	8929.58
924.387	8928.9
924.697	8837.38
925.008	8829.47
925.318	8711.73
925.628	8710.38
925.938	8685.52
926.248	8579.99
926.558	8603.49
926.867	8590.38
927.177	8499.54
927.487	8462.02
927.796	8393.32
928.106	8434.68
928.416	8409.6
928.725	8345.19
929.034	8322.14
929.344	8250.28
929.653	8267.68
929.962	8138.87
930.271	8146.33
930.581	8091.86
930.89	8109.04
931.199	8005.99
931.508	8034.92
931.817	8017.74
932.125	7945.88
932.434	7872.43
932.743	7887.58
933.051	7768.71
933.36	7795.83
933.669	7771.42
933.977	7737.3
934.286	7730.97
934.594	7710.63
934.902	7638.99
935.21	7631.08
935.519	7528.26
935.827	7537.53
936.135	7507.92
936.443	7430.64
936.751	7408.94
937.059	7379.79
937.367	7357.65
937.674	7280.81
937.982	7278.78
938.29	7214.82
938.597	7257.31
938.905	7147.03
939.213	7130.98
939.52	7086.01
939.827	7101.83
940.135	7065.9
940.442	6985.23
940.749	7013.93
941.056	7031.55
941.363	6991.78
941.67	6944.78
941.977	6914.72
942.284	6834.95
942.591	6824.1
942.898	6777.1
943.205	6816.64
943.511	6751.33
943.818	6668.62
944.125	6726.48
944.431	6669.53
944.738	6656.87
945.044	6554.95
945.35	6584.78
945.657	6537.55
945.963	6582.3
946.269	6476.76
946.575	6452.36
946.881	6434.73
947.187	6490.32
947.493	6343.66
947.799	6409.42
948.105	6335.53
948.41	6288.75
948.716	6311.12
949.022	6261.63
949.327	6238.58
949.633	6173.72
949.938	6139.82
950.244	6208.3
950.549	6098.47
950.854	6032.71
951.16	6082.2
951.465	6068.64
951.77	6036.32
952.075	5987.96
952.38	5988.19
952.685	5927.85
952.99	5853.96
953.294	5928.3
953.599	5794.97
953.904	5793.84
954.209	5767.4
954.513	5799.27
954.818	5743.45
955.122	5675.66
955.426	5691.93
955.731	5605.15
956.035	5590.01
956.339	5580.07
956.643	5587.97
956.948	5590.46
957.252	5452.84
957.556	5557.01
957.86	5447.19
958.163	5512.27
958.467	5438.15
958.771	5410.8
959.075	5418.26
959.378	5391.14
959.682	5362.9
959.985	5364.7
960.289	5286.29
960.592	5296.23
960.896	5238.38
961.199	5230.47
961.502	5207.87
961.805	5189.11
962.108	5163.13
962.411	5110.92
962.714	5186.63
963.017	5072.28
963.32	5104.15
963.623	5033.64
963.926	5033.86
964.228	4966.07
964.531	4945.96
964.833	4939.4
965.136	4903.02
965.438	4917.71
965.741	4913.87
966.043	4843.81
966.345	4858.73
966.648	4822.8
966.95	4788.22
967.252	4771.72
967.554	4764.04
967.856	4735.57
968.158	4728.34
968.46	4688.34
968.761	4666.64
969.063	4656.93
969.365	4613.54
969.666	4630.94
969.968	4569.02
970.269	4567.44
970.571	4567.21
970.872	4534.44
971.174	4551.39
971.475	4470.94
971.776	4464.39
972.077	4444.5
972.378	4404.28
972.679	4415.8
972.98	4448.12
973.281	4392.53
973.582	4342.58
973.883	4351.4
974.183	4288.8
974.484	4275.47
974.785	4253.55
975.085	4302.58
975.386	4251.96
975.686	4216.94
975.986	4230.72
976.287	4217.84
976.587	4172.87
976.887	4145.07
977.187	4178.07
977.487	4104.62
977.787	4101.46
978.087	4068.69
978.387	4024.4
978.687	4064.85
978.987	4009.71
979.286	4017.39
979.586	3994.12
979.885	3980.11
980.185	3942.14
980.484	3889.71
980.784	3875.48
981.083	3833.9
981.382	3869.15
981.682	3837.96
981.981	3817.85
982.28	3830.96
982.579	3778.53
982.878	3775.14
983.177	3749.38
983.475	3778.3
983.774	3702.15
984.073	3734.24
984.372	3700.57
984.67	3692.21
984.969	3672.09
985.267	3645.2
985.566	3605.65
985.864	3613.34
986.162	3615.15
986.461	3563.62
986.759	3564.98
987.057	3510.52
987.355	3503.06
987.653	3507.58
987.951	3498.99
988.249	3452.21
988.547	3453.79
988.844	3472.32
989.142	3451.99
989.44	3416.73
989.737	3407.69
990.035	3376.96
990.332	3367.02
990.63	3315.49
990.927	3368.15
991.224	3332.89
991.521	3267.13
991.819	3267.13
992.116	3309.62
992.413	3224.87
992.71	3216.96
993.006	3242.95
993.303	3190.07
993.6	3163.63
993.897	3181.48
994.193	3151.2
994.49	3160.02
994.787	3120.24
995.083	3105.1
995.379	3082.96
995.676	3052
995.972	3048.61
996.268	3065.78
996.565	3055.84
996.861	2993.01
997.157	2998.44
997.453	2948.95
997.749	2968.83
998.044	2933.36
998.34	2911.43
998.636	2916.86
998.932	2901.94
999.227	2855.17
999.523	2873.47
999.818	2857.88
1000.114	2826.69
1000.409	2852
1000.704	2805.9
1001	2839.8
1001.295	2775.85
1001.59	2757.99
1001.885	2728.84
1002.18	2746.69
1002.475	2720.48
1002.77	2701.04
1003.065	2694.94
1003.359	2708.28
1003.654	2677.99
1003.949	2643.87
1004.243	2662.4
1004.538	2603.87
1004.832	2583.99
1005.127	2585.79
1005.421	2561.16
1005.715	2566.59
1006.009	2523.87
1006.304	2465.8
1006.598	2472.35
1006.892	2489.75
1007.186	2458.34
1007.48	2460.6
1007.773	2459.92
1008.067	2442.97
1008.361	2426.48
1008.655	2426.93
1008.948	2402.75
1009.242	2373.14
1009.535	2412.46
1009.829	2367.04
1010.122	2338.12
1010.415	2311.45
1010.708	2313.03
1011.001	2292.47
1011.295	2276.88
1011.588	2275.97
1011.881	2250.21
1012.173	2229.42
1012.466	2205.24
1012.759	2206.14
1013.052	2203.66
1013.344	2198.69
1013.637	2142.19
1013.93	2151.45
1014.222	2156.43
1014.514	2160.49
1014.807	2121.4
1015.099	2098.57
1015.391	2101.74
1015.683	2070.55
1015.976	2092.25
1016.268	2024.9
1016.56	2066.26
1016.851	2027.84
1017.143	2038.24
1017.435	2023.55
1017.727	1993.49
1018.018	1985.58
1018.31	1998.01
1018.602	1991.46
1018.893	1922.53
1019.185	1960.05
1019.476	1920.5
1019.767	1913.95
1020.058	1917.56
1020.35	1828.07
1020.641	1861.97
1020.932	1862.42
1021.223	1851.58
1021.514	1818.81
1021.804	1818.81
1022.095	1796.89
1022.386	1831.46
1022.677	1808.86
1022.967	1777
1023.258	1744.91
1023.548	1758.92
1023.839	1751.24
1024.129	1690
1024.419	1705.59
1024.709	1685.7
1025	1704.69
1025.29	1675.76
1025.58	1672.37
1025.87	1639.83
1026.16	1652.48
1026.449	1652.94
1026.739	1624.69
1027.029	1608.19
1027.319	1585.59
1027.608	1591.02
1027.898	1571.81
1028.187	1571.36
1028.477	1558.02
1028.766	1547.63
1029.055	1506.05
1029.344	1515.99
1029.634	1476.44
1029.923	1500.4
1030.212	1494.75
1030.501	1471.02
1030.79	1474.86
1031.078	1465.37
1031.367	1449.78
1031.656	1443.68
1031.945	1435.77
1032.233	1405.03
1032.522	1379.72
1032.81	1394.41
1033.099	1400.51
1033.387	1399.38
1033.675	1359.16
1033.963	1358.03
1034.251	1359.39
1034.54	1340.85
1034.828	1329.33
1035.116	1301.53
1035.403	1312.83
1035.691	1309.89
1035.979	1268.99
1036.267	1286.62
1036.554	1281.42
1036.842	1264.25
1037.129	1261.31
1037.417	1238.03
1037.704	1247.07
1037.992	1227.19
1038.279	1186.28
1038.566	1186.96
1038.853	1186.96
1039.14	1186.96
