Data from orange_diffuse_book_FLMS001491_00068.txt Node
Date: Wed Feb 08 15:29:54 GMT 2017
User: dcchb
Spectrometer: FLMS00149
Trigger mode: 0
Integration Time (sec): 2.000000E-2
Scans to average: 10
Electric dark correction enabled: true
Nonlinearity correction enabled: false
Boxcar width: 0
XAxis mode: Wavelengths
Number of Pixels in Spectrum: 2048
>>>>>Begin Spectral Data<<<<<
341.393	-22.37
341.776	-22.37
342.16	-22.37
342.543	-48.81
342.927	-90.62
343.31	-41.81
343.693	-81.13
344.077	-71.41
344.46	-65.08
344.843	-56.27
345.226	-48.36
345.61	-36.38
345.993	-14.01
346.376	-6.1
346.759	10.4
347.142	25.54
347.525	52.43
347.908	43.16
348.291	76.83
348.674	99.21
349.057	112.99
349.44	124.97
349.823	141.47
350.206	160.45
350.588	195.7
350.971	217.85
351.354	248.81
351.737	237.06
352.119	244.51
352.502	259.43
352.884	286.09
353.267	302.14
353.65	298.52
354.032	308.69
354.414	312.76
354.797	320.9
355.179	338.97
355.562	341.69
355.944	338.07
356.326	323.61
356.709	354.79
357.091	351.63
357.473	354.79
357.855	344.4
358.238	346.21
358.62	335.13
359.002	373.32
359.384	366.32
359.766	358.86
360.148	341.69
360.53	362.7
360.912	338.07
361.294	348.47
361.676	334
362.057	340.78
362.439	347.34
362.821	335.81
363.203	337.17
363.584	324.74
363.966	330.61
364.348	354.11
364.729	315.25
365.111	363.61
365.493	322.48
365.874	333.78
366.256	327.45
366.637	335.13
367.019	329.93
367.4	321.12
367.781	346.21
368.163	317.28
368.544	339.65
368.925	322.03
369.306	329.71
369.688	342.82
370.069	318.64
370.45	318.41
370.831	319.99
371.212	329.71
371.593	324.29
371.974	336.49
372.355	317.73
372.736	351.18
373.117	331.97
373.498	335.58
373.879	338.75
374.26	334.68
374.641	327
375.021	334.23
375.402	338.07
375.783	341.91
376.163	332.19
376.544	347.79
376.925	349.6
377.305	340.78
377.686	354.79
378.066	337.39
378.447	348.47
378.827	353.66
379.208	344.4
379.588	335.81
379.968	335.58
380.349	334.91
380.729	338.52
381.109	343.95
381.489	330.16
381.87	334.45
382.25	358.41
382.63	336.49
383.01	359.09
383.39	365.41
383.77	328.58
384.15	337.39
384.53	369.71
384.91	366.09
385.29	364.51
385.67	345.98
386.049	372.42
386.429	364.06
386.809	366.77
387.189	367
387.568	365.64
387.948	385.3
388.328	382.14
388.707	362.25
389.087	382.14
389.466	382.81
389.846	344.85
390.225	372.65
390.605	359.99
390.984	379.43
391.363	390.05
391.743	380.55
392.122	367
392.501	359.54
392.881	403.15
393.26	388.92
393.639	396.6
394.018	389.14
394.397	388.46
394.776	405.19
395.155	395.24
395.534	391.18
395.913	377.39
396.292	386.2
396.671	395.92
397.05	402.7
397.429	408.35
397.808	409.03
398.186	423.04
398.565	389.37
398.944	407.22
399.323	420.78
399.701	419.42
400.08	415.81
400.458	411.74
400.837	409.93
401.215	418.75
401.594	408.58
401.972	423.27
402.351	424.62
402.729	436.37
403.107	424.17
403.486	444.28
403.864	408.8
404.242	426.2
404.62	438.18
404.999	422.14
405.377	438.18
405.755	425.98
406.133	461.68
406.511	458.52
406.889	455.36
407.267	446.32
407.645	457.16
408.023	442.93
408.401	475.69
408.779	465.3
409.156	480.21
409.534	472.3
409.912	475.69
410.29	492.19
410.667	490.61
411.045	472.3
411.422	485.64
411.8	481.8
412.178	503.26
412.555	512.08
412.933	489.03
413.31	504.39
413.687	491.29
414.065	519.99
414.442	516.6
414.819	505.07
415.197	519.08
415.574	505.52
415.951	517.27
416.328	534.22
416.705	539.42
417.082	543.49
417.46	534.22
417.837	531.96
418.214	543.49
418.591	531.06
418.967	554.11
419.344	557.73
419.721	564.96
420.098	539.65
420.475	551.4
420.852	575.35
421.228	568.35
421.605	568.12
421.982	562.92
422.358	598.4
422.735	586.88
423.111	593.88
423.488	572.87
423.864	588.46
424.241	605.41
424.617	572.64
424.994	599.98
425.37	609.48
425.746	607.67
426.123	599.76
426.499	609.48
426.875	628.01
427.251	625.75
427.627	640.44
428.003	652.86
428.379	654.22
428.756	639.76
429.132	646.54
429.507	650.38
429.883	665.97
430.259	649.93
430.635	682.92
431.011	680.66
431.387	683.82
431.763	662.58
432.138	672.52
432.514	691.06
432.89	736.25
433.265	704.61
433.641	711.17
434.016	701
434.392	740.77
434.767	724.73
435.143	725.63
435.518	752.07
435.894	760.66
436.269	748.23
436.644	774.44
437.02	764.27
437.395	752.75
437.77	800.88
438.145	773.09
438.52	773.31
438.895	805.18
439.271	784.16
439.646	822.8
440.021	802.46
440.395	797.49
440.77	811.05
441.145	814.67
441.52	828.68
441.895	846.98
442.27	844.95
442.645	829.13
443.019	830.03
443.394	838.85
443.769	863.93
444.143	852.41
444.518	861.67
444.892	864.61
445.267	865.29
445.641	859.41
446.016	862.8
446.39	888.11
446.764	879.07
447.139	892.63
447.513	884.5
447.887	903.48
448.262	891.95
448.636	890.37
449.01	909.58
449.384	903.25
449.758	909.13
450.132	907.09
450.506	924.95
450.88	938.05
451.254	902.58
451.628	931.95
452.002	957.49
452.376	946.87
452.75	931.05
453.123	957.26
453.497	954.1
453.871	933.08
454.244	978.73
454.618	981.67
454.992	1006.98
455.365	969.69
455.739	1001.33
456.112	1019.41
456.486	1017.83
456.859	1033.42
457.232	1044.94
457.606	1018.05
457.979	1044.94
458.352	1061.22
458.725	1061.89
459.099	1092.63
459.472	1109.8
459.845	1126.75
460.218	1082.68
460.591	1085.4
460.964	1132.4
461.337	1141.21
461.71	1145.05
462.083	1131.27
462.456	1128.11
462.829	1131.04
463.201	1167.43
463.574	1154.09
463.947	1176.92
464.32	1193.64
464.692	1219.4
465.065	1193.41
465.438	1216.24
465.81	1238.84
466.183	1270.48
466.555	1259.85
466.928	1261.21
467.3	1260.08
467.672	1286.29
468.045	1299.85
468.417	1275.67
468.789	1311.38
469.161	1344.6
469.534	1360.42
469.906	1350.25
470.278	1381.66
470.65	1375.56
471.022	1399.96
471.394	1419.4
471.766	1413.3
472.138	1388.89
472.51	1437.48
472.882	1461.2
473.253	1479.28
473.625	1476.8
473.997	1531.94
474.369	1543.91
474.74	1527.19
475.112	1562.9
475.484	1579.85
475.855	1594.99
476.227	1621.65
476.598	1630.69
476.97	1660.52
477.341	1690.58
477.713	1692.16
478.084	1704.59
478.455	1765.6
478.827	1754.08
479.198	1774.19
479.569	1797.47
479.94	1861.65
480.311	1863.45
480.682	1877.69
481.053	1916.11
481.424	1941.42
481.795	1973.51
482.166	1975.54
482.537	2005.15
482.908	2055.99
483.279	2112.94
483.65	2094.41
484.021	2163.78
484.391	2206.72
484.762	2184.8
485.133	2211.69
485.503	2249.88
485.874	2276.78
486.244	2336.66
486.615	2345.48
486.985	2380.28
487.356	2408.75
487.726	2436.09
488.097	2485.13
488.467	2501.63
488.837	2519.26
489.207	2566.26
489.578	2634.51
489.948	2622.98
490.318	2679.25
490.688	2670.44
491.058	2770.1
491.428	2784.33
491.798	2809.42
492.168	2867.27
492.538	2918.79
492.908	2940.26
493.278	2978.68
493.648	2960.83
494.017	3037.21
494.387	3046.7
494.757	3062.07
495.126	3163.53
495.496	3133.48
495.866	3165.11
496.235	3230.42
496.605	3276.3
496.974	3307.71
497.344	3294.38
497.713	3396.29
498.082	3390.19
498.452	3413.02
498.821	3429.97
499.19	3508.61
499.559	3522.62
499.928	3534.82
500.298	3560.81
500.667	3629.28
501.036	3575.05
501.405	3667.25
501.774	3660.24
502.143	3725.1
502.512	3719.22
502.88	3806.23
503.249	3776.17
503.618	3846.9
503.987	3836.51
504.356	3870.41
504.724	3903.4
505.093	3908.6
505.462	3947.47
505.83	3988.14
506.199	4017.52
506.567	4083.06
506.936	4060.01
507.304	4162.83
507.672	4156.27
508.041	4192.21
508.409	4227.23
508.777	4221.58
509.145	4298.87
509.514	4311.3
509.882	4339.77
510.25	4351.3
510.618	4364.86
510.986	4367.12
511.354	4436.72
511.722	4495.7
512.09	4514.46
512.458	4489.83
512.826	4553.78
513.193	4571.18
513.561	4613.21
513.929	4674.68
514.297	4698.86
514.664	4720.55
515.032	4719.2
515.4	4732.53
515.767	4775.69
516.135	4835.13
516.502	4799.42
516.869	4927.33
517.237	4946.08
517.604	4903.15
517.972	4957.16
518.339	5032.86
518.706	4983.37
519.073	5087.32
519.44	5113.31
519.808	5197.15
520.175	5128.23
520.542	5227.89
520.909	5255
521.276	5266.75
521.643	5340.65
522.009	5353.53
522.376	5346.75
522.743	5374.32
523.11	5478.73
523.477	5534.77
523.843	5551.27
524.21	5635.11
524.577	5645.73
524.943	5637.82
525.31	5734.99
525.676	5760.75
526.043	5734.76
526.409	5835.1
526.776	5846.63
527.142	5958.49
527.508	5904.7
527.874	5989.22
528.241	6024.7
528.607	6024.25
528.973	6071.48
529.339	6097.47
529.705	6157.58
530.071	6176.79
530.437	6199.84
530.803	6218.14
531.169	6266.73
531.535	6245.49
531.901	6272.38
532.267	6327.74
532.632	6335.65
532.998	6439.15
533.364	6404.58
533.73	6444.58
534.095	6487.06
534.461	6499.72
534.826	6515.31
535.192	6610.22
535.557	6594.4
535.923	6608.19
536.288	6604.12
536.653	6671.46
537.019	6706.04
537.384	6720.05
537.749	6750.33
538.114	6706.04
538.479	6828.3
538.845	6856.54
539.21	6870.55
539.575	6874.17
539.94	6915.3
540.305	6920.27
540.67	6972.92
541.034	6992.58
541.399	7033.71
541.764	7037.33
542.129	7095.18
542.494	7127.04
542.858	7132.02
543.223	7172.69
543.587	7226.93
543.952	7259.47
544.316	7251.79
544.681	7285.68
545.045	7327.26
545.41	7330.43
545.774	7370.65
546.138	7421.05
546.503	7440.26
546.867	7426.92
547.231	7544.43
547.595	7574.94
547.959	7573.36
548.324	7611.33
548.688	7656.3
549.052	7705.33
549.416	7705.33
549.779	7759.34
550.143	7839.57
550.507	7858.32
550.871	7906.68
551.235	7931.09
551.599	8022.61
551.962	8046.12
552.326	8059.22
552.689	8192.1
553.053	8155.94
553.417	8111.2
553.78	8288.37
554.143	8280.91
554.507	8348.48
554.87	8374.02
555.234	8527.01
555.597	8487.23
555.96	8539.21
556.323	8602.94
556.686	8686.55
557.05	8694.69
557.413	8797.28
557.776	8783.72
558.139	8892.65
558.502	8910.5
558.865	9068.01
559.228	9037.05
559.59	9134.22
559.953	9181.23
560.316	9317.27
560.679	9298.96
561.041	9458.51
561.404	9530.82
561.767	9553.87
562.129	9616.47
562.492	9777.14
562.854	9815.79
563.217	9762.46
563.579	9873.86
563.941	9960.87
564.304	10086.29
564.666	10220.97
565.028	10314.08
565.39	10404.02
565.753	10496.22
566.115	10618.25
566.477	10655.54
566.839	10768.3
567.201	10883.78
567.563	10992.48
567.925	11120.16
568.287	11218.46
568.648	11341.17
569.01	11400.38
569.372	11594.72
569.734	11647.83
570.095	11894.83
570.457	12008.5
570.819	12122.62
571.18	12259.34
571.542	12433.8
571.903	12570.74
572.265	12634.7
572.626	12880.79
572.987	13106.1
573.349	13269.93
573.71	13462.02
574.071	13578.17
574.432	13801.67
574.794	14136.8
575.155	14236.91
575.516	14334.09
575.877	14630.58
576.238	14804.13
576.599	15104.69
576.96	15349.43
577.32	15515.98
577.681	15794.84
578.042	16020.6
578.403	16265.79
578.763	16504.42
579.124	16944.64
579.485	17118.42
579.845	17488.35
580.206	17709.82
580.566	18012.41
580.927	18294.21
581.287	18680.64
581.648	18800.64
582.008	19313.84
582.368	19720.61
582.728	20014.16
583.089	20282.86
583.449	20646.46
583.809	21083.29
584.169	21369.61
584.529	21668.36
584.889	22152.64
585.249	22400.99
585.609	22817.25
585.969	23409.78
586.329	23734.74
586.688	24190.32
587.048	24627.6
587.408	24925.9
587.768	25426.45
588.127	25745.09
588.487	26069.15
588.846	26721.33
589.206	27045.39
589.565	27584.13
589.925	28101.63
590.284	28461.85
590.643	28897.55
591.003	29482.39
591.362	29878.99
591.721	30231.97
592.08	30829.92
592.44	31481.88
592.799	31699.28
593.158	32323.9
593.517	32745.58
593.876	33316.19
594.235	33591.66
594.593	34272.77
594.952	34737.62
595.311	35028.23
595.67	35526.07
596.029	36192.04
596.387	36851.01
596.746	37185.24
597.104	37511.1
597.463	38002.39
597.822	38545.65
598.18	38817.28
598.538	39111.51
598.897	39867.2
599.255	39896.35
599.613	40969.77
599.972	40980.62
600.33	41604.33
600.688	41864.66
601.046	42343.75
601.404	42870.51
601.762	43381.46
602.12	43778.06
602.478	44141.44
602.836	44506.17
603.194	44693.97
603.552	45112.71
603.91	45366.72
604.268	45915.4
604.625	46024.33
604.983	46534.37
605.341	46719.22
605.698	47156.95
606.056	47645.07
606.413	47727.78
606.771	48075.8
607.128	48433.53
607.485	48485.05
607.843	48693.86
608.2	49057.92
608.557	49398.7
608.914	49475.99
609.272	49854.96
609.629	50158
609.986	50406.81
610.343	50372.69
610.7	50850.64
611.057	50882.73
611.414	51005.44
611.771	51297.41
612.127	51472.54
612.484	51547.35
612.841	51707.57
613.198	51797.51
613.554	51924.28
613.911	52178.97
614.267	52303.71
614.624	52342.35
614.98	52546.41
615.337	52752.96
615.693	52842
616.05	52886.29
616.406	53163.35
616.762	53155.21
617.118	53203.57
617.475	53302.33
617.831	53426.39
618.187	53532.6
618.543	53565.6
618.899	53789.55
619.255	53802.2
619.611	53900.05
619.967	54021.86
620.323	54192.25
620.678	54147.28
621.034	53956.77
621.39	54164.23
621.746	54112.25
622.101	54499.13
622.457	54302.53
622.812	54431.79
623.168	54513.14
623.523	54588.4
623.879	54655.51
624.234	54477.44
624.589	54613.93
624.945	54655.51
625.3	54741.16
625.655	54815.06
626.01	54782.51
626.365	54906.13
626.72	54831.55
627.075	54874.49
627.43	54867.48
627.785	54802.85
628.14	54962.85
628.495	54966.01
628.85	54922.62
629.205	54878.33
629.559	55149.28
629.914	55033.36
630.269	55004.43
630.623	54993.13
630.978	54906.35
631.332	55086.46
631.687	55141.37
632.041	55041.94
632.396	55170.53
632.75	54960.14
633.104	55029.97
633.459	54902.74
633.813	54933.92
634.167	54978.22
634.521	54917.43
634.875	55050.3
635.229	54963.07
635.583	54903.42
635.937	54920.14
636.291	54877.88
636.645	54882.4
636.999	54791.55
637.352	54960.81
637.706	54741.39
638.06	54868.39
638.413	54810.31
638.767	54764.44
639.121	54865
639.474	54653.7
639.828	54717.88
640.181	54742.29
640.534	54763.53
640.888	54742.06
641.241	54662.07
641.594	54604.89
641.947	54727.6
642.301	54660.71
642.654	54778.22
643.007	54769.18
643.36	54735.06
643.713	54693.03
644.066	54750.2
644.419	54541.39
644.771	54376.42
645.124	54129.65
645.477	54059.82
645.83	53957.23
646.182	53772.37
646.535	53748.42
646.888	53883.33
647.24	53799.26
647.593	53842.43
647.945	53911.8
648.298	53643.56
648.65	53683.56
649.002	53507.29
649.355	53677.01
649.707	53628.65
650.059	53749.32
650.411	54102.98
650.763	54177.33
651.115	54507.49
651.467	54330.32
651.819	54349.98
652.171	54282.41
652.523	54294.62
652.875	54254.62
653.227	54213.72
653.578	54352.47
653.93	54334.84
654.282	54137.56
654.633	54109.31
654.985	54276.99
655.337	54200.38
655.688	54135.75
656.039	54244
656.391	54128.75
656.742	54157.45
657.094	54081.06
657.445	54192.93
657.796	54219.59
658.147	54076.77
658.498	54179.14
658.849	54201.51
659.2	54182.76
659.551	54024.57
659.902	54170.1
660.253	54166.94
660.604	54220.27
660.955	54038.58
661.306	54169.65
661.656	54065.92
662.007	53989.54
662.358	54030.44
662.708	54091.01
663.059	54112.25
663.409	53830.45
663.76	54092.36
664.11	54101.63
664.461	54050.33
664.811	54134.62
665.161	54067.96
665.511	53958.36
665.862	54037
666.212	54154.96
666.562	54106.83
666.912	54019.82
667.262	53942.31
667.612	53915.42
667.962	53946.38
668.312	53954.51
668.662	54013.72
669.011	53964
669.361	53977.34
669.711	53905.02
670.06	53887.17
670.41	53805.14
670.76	53813.27
671.109	53829.55
671.459	53766.5
671.808	53721.53
672.157	53758.59
672.507	53537.58
672.856	53561.53
673.205	53654.18
673.554	53740.28
673.904	53588.65
674.253	53797.46
674.602	53582.55
674.951	53249.67
675.3	53100.52
675.649	53572.83
675.998	53540.06
676.346	53538.48
676.695	53530.57
677.044	53323.34
677.393	53368.54
677.741	53460.06
678.09	53429.33
678.438	53299.16
678.787	53417.8
679.135	53432.72
679.484	53169.45
679.832	53248.54
680.181	53126.29
680.529	53247.19
680.877	53082.67
681.225	53026.85
681.573	53240.41
681.922	53034.76
682.27	53011.71
682.618	53069.57
682.966	52842.23
683.314	52928.78
683.661	52918.38
684.009	52711.61
684.357	52627.32
684.705	52638.16
685.053	52685.85
685.4	52552.97
685.748	52470.48
686.095	52451.5
686.443	52346.19
686.79	52291.05
687.138	52371.73
687.485	52328.12
687.832	52068.91
688.18	52233.43
688.527	52071.17
688.874	52063.04
689.221	51979.88
689.568	51867.34
689.915	51830.95
690.262	51808.58
690.609	51704.63
690.956	51568.36
691.303	51624.41
691.65	51502.6
691.997	51381.93
692.344	51128.37
692.69	51171.31
693.037	51195.94
693.383	50914.59
693.73	51039.11
694.077	50819.45
694.423	50819.68
694.769	50685.67
695.116	50699.91
695.462	50618.33
695.808	50355.51
696.155	50442.06
696.501	50167.95
696.847	50158
697.193	49915.3
697.539	50094.95
697.885	49784.23
698.231	49748.97
698.577	49754.4
698.923	49630.33
699.269	49507.17
699.614	49245.71
699.96	49306.73
700.306	49327.74
700.651	49044.59
700.997	48862.67
701.342	48922.1
701.688	48908.77
702.033	48707.19
702.379	48721.2
702.724	48597.59
703.069	48748.1
703.415	48196.25
703.76	48243.25
704.105	48251.39
704.45	47968.23
704.795	48000.55
705.14	47830.61
705.485	47749.48
705.83	47508.58
706.175	47585.64
706.52	47497.96
706.865	47362.6
707.209	47239.89
707.554	47080.12
707.899	47095.03
708.243	46910.63
708.588	46917.18
708.932	46609.4
709.277	46556.52
709.621	46665.21
709.966	46349.97
710.31	46437.2
710.654	46147.94
710.998	46275.39
711.342	46326.69
711.687	46044.67
712.031	45945.01
712.375	45841.73
712.719	45898.68
713.063	45770.32
713.407	45933.26
713.75	45627.5
714.094	45667.5
714.438	45405.13
714.782	45417.79
715.125	45300.5
715.469	45399.26
715.812	45144.12
716.156	45058.7
716.499	44966.5
716.843	45023.9
717.186	44828.2
717.53	45043.11
717.873	44919.72
718.216	44807.86
718.559	44678.37
718.902	44369.91
719.246	44610.35
719.589	44465.5
719.932	44174.88
720.275	44198.39
720.617	44230.25
720.96	44117.26
721.303	44037.49
721.646	44145.73
721.989	43806.31
722.331	44030.25
722.674	43902.8
723.016	43973.31
723.359	43715.01
723.701	43773.99
724.044	43502.13
724.386	43345.98
724.729	43587.33
725.071	43427.56
725.413	43550.49
725.755	43380.78
726.097	43260.11
726.439	43060.56
726.782	43096.04
727.124	43206.32
727.465	42954.8
727.807	43061.01
728.149	43032.99
728.491	42855.37
728.833	42966.78
729.175	42798.2
729.516	42851.08
729.858	42669.84
730.199	42738.31
730.541	42768.59
730.882	42449.96
731.224	42649.05
731.565	42403.86
731.906	42564.3
732.248	42588.94
732.589	42266.23
732.93	42275.95
733.271	42197.53
733.612	42228.04
733.953	42222.39
734.294	42019.91
734.635	42032.12
734.976	42120.25
735.317	41768.85
735.658	41809.97
735.999	41893.36
736.339	41807.26
736.68	41909.41
737.021	41730.43
737.361	41646.59
737.702	41823.53
738.042	41637.78
738.383	41545.12
738.723	41616.98
739.063	41376.31
739.404	41589.64
739.744	41511.45
740.084	41330.44
740.424	41351
740.764	41254.28
741.104	41441.17
741.444	41182.65
741.784	41101.97
742.124	41181.29
742.464	41099.71
742.804	41120.27
743.143	40901.07
743.483	41046.38
743.823	40764.35
744.162	40838.47
744.502	40918.7
744.841	40830.11
745.181	40810.9
745.52	40681.64
745.86	40825.14
746.199	40624.69
746.538	40683.68
746.877	40715.77
747.216	40564.36
747.556	40507.86
747.895	40479.61
748.234	40249.56
748.573	40329.11
748.911	40131.37
749.25	40105.84
749.589	40021.77
749.928	40075.33
750.267	40123.69
750.605	39917.82
750.944	39953.98
751.283	39735
751.621	39911.27
751.96	39630.6
752.298	39530.26
752.636	39690.03
752.975	39462.92
753.313	39337.95
753.651	39512.86
753.989	39166.43
754.327	39163.49
754.666	39043.04
755.004	39064.96
755.342	39175.02
755.679	39091.4
756.017	38979.77
756.355	38902.93
756.693	38755.82
757.031	38886.44
757.368	38639.21
757.706	38502.49
758.044	38414.58
758.381	38576.16
758.719	38326.9
759.056	38327.58
759.394	38099.34
759.731	37999.68
760.068	37909.51
760.405	37624.1
760.743	37726.92
761.08	37780.02
761.417	37551.33
761.754	37484.89
762.091	37381.62
762.428	37253.71
762.765	37095.07
763.102	37076.77
763.438	36925.58
763.775	36956.54
764.112	36875.87
764.449	36904.34
764.785	36656.21
765.122	36375.99
765.458	36375.77
765.795	36269.78
766.131	36242.21
766.467	36125.6
766.804	35954.53
767.14	35689.68
767.476	35827.53
767.812	35446.75
768.148	35774.43
768.485	35368.11
768.821	35145.06
769.157	35214.89
769.492	35219.86
769.828	34965.41
770.164	34670.73
770.5	34731.74
770.836	34825.98
771.171	34505.76
771.507	34358.42
771.842	34180.12
772.178	34248.14
772.513	34180.57
772.849	34001.37
773.184	34017.86
773.519	33833.46
773.855	33618.55
774.19	33513.7
774.525	33353.25
774.86	33518.21
775.195	33372.68
775.53	33121.84
775.865	33140.37
776.2	32690.67
776.535	32635.3
776.87	32613.61
777.205	32478.24
777.539	32427.85
777.874	32505.13
778.209	32098.14
778.543	31894.08
778.878	31781.54
779.212	31879.61
779.547	31671.71
779.881	31797.13
780.215	31464.48
780.55	31556.68
780.884	31211.61
781.218	31125.28
781.552	31183.36
781.886	30911.73
782.22	30847.32
782.554	30757.38
782.888	30505.64
783.222	30466.77
783.556	30288.7
783.889	30107.68
784.223	30059.77
784.557	29951.53
784.89	30015.71
785.224	29927.12
785.557	29695.26
785.891	29577.75
786.224	29566.45
786.558	29537.75
786.891	29274.48
787.224	29119.69
787.557	29152.68
787.891	29120.14
788.224	29028.84
788.557	28993.14
788.89	28889.41
789.223	28914.49
789.556	28495.75
789.888	28559.25
790.221	28379.82
790.554	28192.48
790.887	28193.83
791.219	28133.05
791.552	28122.2
791.884	27950.68
792.217	27912.94
792.549	27733.96
792.882	27472.05
793.214	27441.31
793.546	27514.08
793.879	27204.26
794.211	27213.97
794.543	27176.69
794.875	27130.81
795.207	27158.61
795.539	27077.03
795.871	27074.32
796.203	26790.71
796.535	26588.91
796.867	26577.38
797.198	26464.84
797.53	26452.41
797.862	26320.44
798.193	26360.89
798.525	26051.07
798.856	26086.55
799.188	25862.14
799.519	25869.38
799.85	25673.22
800.182	25847.23
800.513	25745.76
800.844	25475.04
801.175	25510.29
801.506	25447.69
801.837	25345.32
802.168	25278.88
802.499	25242.27
802.83	25120.24
803.161	25056.29
803.491	25002.51
803.822	24931.1
804.153	24907.82
804.483	24670.31
804.814	24602.52
805.145	24666.02
805.475	24553.25
805.805	24474.16
806.136	24570.65
806.466	24461.73
806.796	24404.56
807.126	24092.02
807.457	24122.98
807.787	24154.39
808.117	24011.57
808.447	23955.98
808.777	24108.29
809.107	23911.46
809.436	23882.54
809.766	23857.45
810.096	23714.86
810.426	23640.51
810.755	23655.42
811.085	23477.35
811.414	23446.16
811.744	23308.99
812.073	23180.63
812.403	23274.64
812.732	23113.74
813.061	23183.8
813.39	22904.93
813.719	22837.82
814.049	23055.89
814.378	22864.26
814.707	22864.94
815.036	22790.81
815.365	22574.55
815.693	22403.03
816.022	22520.31
816.351	22412.07
816.68	22228.57
817.008	22362.12
817.337	22109.02
817.665	22111.96
817.994	22213.88
818.322	22150.83
818.651	22016.37
818.979	21926.2
819.307	22054.11
819.636	21960.1
819.964	21809.82
820.292	21914.68
820.62	21837.84
820.948	21687.57
821.276	21766.43
821.604	21815.7
821.932	21747
822.259	21773.44
822.587	21627.23
822.915	21766.43
823.243	21787
823.57	21767.56
823.898	21733.44
824.225	21596.49
824.553	21623.39
824.88	21737.06
825.207	21693.67
825.535	21617.96
825.862	21732.76
826.189	21630.17
826.516	21669.26
826.843	21773.44
827.17	21798.75
827.497	21730.05
827.824	21713.78
828.151	21762.59
828.478	21740.22
828.805	21697.73
829.131	21583.61
829.458	21636.04
829.785	21494.8
830.111	21636.72
830.438	21816.15
830.764	21562.37
831.09	21681.01
831.417	21471.98
831.743	21602.37
832.069	21679.2
832.395	21513.78
832.722	21576.16
833.048	21454.35
833.374	21527.12
833.7	21412.77
834.026	21418.42
834.351	21412.09
834.677	21413.22
835.003	21461.81
835.329	21412.54
835.654	21288.93
835.98	21252.32
836.306	21207.8
836.631	21309.72
836.956	21288.71
837.282	21292.1
837.607	21029.5
837.932	21087.81
838.258	21055.49
838.583	21127.58
838.908	20991.54
839.233	20915.38
839.558	20893.01
839.883	20829.96
840.208	20838.77
840.533	20775.05
840.858	20865.89
841.182	20839.23
841.507	20726.69
841.832	20658.67
842.156	20733.24
842.481	20570.08
842.805	20550.19
843.13	20441.95
843.454	20490.08
843.778	20440.82
844.103	20301.84
844.427	20302.74
844.751	20277.66
845.075	20123.76
845.399	20193.82
845.723	20048.96
846.047	20005.12
846.371	19984.33
846.695	19903.88
847.019	19755.41
847.343	19684
847.666	19654.85
847.99	19632.48
848.313	19427.06
848.637	19381.86
848.96	19371.24
849.284	19344.12
849.607	19205.37
849.931	19101.19
850.254	19067.07
850.577	18825.95
850.9	18784.82
851.223	18793.4
851.546	18694.2
851.869	18572.84
852.192	18606.29
852.515	18384.83
852.838	18445.39
853.161	18364.71
853.483	18319.97
853.806	18126.76
854.129	18182.12
854.451	18126.53
854.774	17986.19
855.096	17912.52
855.419	17887.44
855.741	17819.87
856.063	17734.9
856.385	17773.54
856.708	17679.08
857.03	17609.93
857.352	17528.8
857.674	17525.87
857.996	17419.88
858.318	17337.85
858.64	17363.61
858.961	17276.61
859.283	17243.61
859.605	17066.22
859.926	17211.98
860.248	17085.2
860.57	16984.86
860.891	17007.69
861.212	17014.92
861.534	16976.95
861.855	16917.3
862.176	16856.51
862.498	16894.25
862.819	16809.73
863.14	16793.46
863.461	16764.53
863.782	16622.84
864.103	16706.91
864.424	16713.23
864.745	16805.21
865.065	16582.61
865.386	16553.24
865.707	16524.99
866.027	16557.08
866.348	16456.06
866.668	16415.61
866.989	16410.19
867.309	16317.31
867.63	16457.19
867.95	16396.18
868.27	16262.17
868.59	16311.89
868.91	16191.44
869.23	16096.75
869.55	16020.14
869.87	16181.04
870.19	16038.45
870.51	16238.44
870.83	16139.24
871.15	16001.84
871.469	16044.78
871.789	16063.31
872.109	15912.58
872.428	15968.62
872.748	15890.43
873.067	15934.04
873.386	15957.32
873.706	15852.92
874.025	15775.63
874.344	15740.38
874.663	15797.32
874.982	15733.15
875.301	15731.34
875.62	15763.65
875.939	15561.4
876.258	15616.54
876.577	15519.59
876.896	15573.15
877.214	15561.4
877.533	15464.68
877.852	15437.79
878.17	15473.27
878.489	15498.8
878.807	15368.86
879.125	15383.55
879.444	15354.62
879.762	15333.83
880.08	15304
880.398	15209.77
880.716	15226.49
881.034	15195.53
881.352	15198.92
881.67	15206.61
881.988	15151.47
882.306	15171.8
882.624	15045.48
882.941	14921.87
883.259	14891.13
883.577	14922.77
883.894	14876.67
884.212	14820.63
884.529	14922.55
884.846	14768.88
885.164	14852.26
885.481	14706.96
885.798	14773.4
886.115	14625.6
886.432	14677.81
886.75	14596.23
887.067	14580.18
887.383	14577.7
887.7	14564.59
888.017	14480.75
888.334	14472.61
888.651	14405.27
888.967	14326.85
889.284	14284.14
889.6	14280.75
889.917	14224.03
890.233	14263.81
890.55	14156.92
890.866	14166.18
891.182	13981.78
891.498	13979.29
891.815	13991.04
892.131	13868.34
892.447	13889.58
892.763	13909.46
893.079	13827.89
893.395	13821.56
893.71	13736.36
894.026	13679.19
894.342	13593.31
894.657	13539.76
894.973	13483.26
895.289	13473.09
895.604	13586.99
895.92	13429.25
896.235	13407.33
896.55	13435.13
896.865	13330.27
897.181	13333.21
897.496	13181.8
897.811	13185.42
898.126	13022.71
898.441	13068.81
898.756	13071.29
899.071	12983.84
899.386	13003.5
899.7	12876.5
900.015	12759.89
900.33	12771.19
900.644	12793.11
900.959	12784.97
901.273	12725.32
901.588	12600.57
901.902	12558.77
902.216	12470.86
902.531	12518.99
902.845	12420.46
903.159	12363.97
903.473	12346.57
903.787	12248.04
904.101	12168.04
904.415	12193.13
904.729	12177.31
905.042	12024.32
905.356	11992.23
905.67	11994.71
905.984	12069.06
906.297	11956.3
906.611	11903.19
906.924	11826.58
907.237	11820.48
907.551	11765.11
907.864	11717.66
908.177	11666.13
908.491	11574.16
908.804	11605.57
909.117	11445.8
909.43	11465.46
909.743	11455.29
910.056	11455.97
910.368	11294.62
910.681	11276.54
910.994	11202.87
911.307	11168.97
911.619	11070.44
911.932	11112.25
912.244	10991.35
912.557	10987.06
912.869	10917
913.181	10855.31
913.494	10815.99
913.806	10788.87
914.118	10764.01
914.43	10721.07
914.742	10667.97
915.054	10567.86
915.366	10495.54
915.678	10541.87
915.99	10444.02
916.302	10405.15
916.613	10383.91
916.925	10377.58
917.236	10387.3
917.548	10290.35
917.859	10280.63
918.171	10178.04
918.482	10121.99
918.794	10090.13
919.105	10066.4
919.416	10000.19
919.727	9971.49
920.038	9922.68
920.349	9834.77
920.66	9805.84
920.971	9791.15
921.282	9769.01
921.593	9666.64
921.903	9723.81
922.214	9637.94
922.525	9657.37
922.835	9505.06
923.146	9499.64
923.456	9508
923.767	9405.18
924.077	9456.02
924.387	9391.62
924.697	9263.49
925.008	9222.13
925.318	9225.97
925.628	9204.28
925.938	9194.11
926.248	9067.33
926.558	9051.06
926.867	8974.91
927.177	8990.27
927.487	8980.1
927.796	8915.25
928.106	8858.07
928.416	8861.91
928.725	8819.88
929.034	8767
929.344	8770.84
929.653	8659.43
929.962	8641.35
930.271	8631.19
930.581	8587.12
930.89	8584.18
931.199	8545.31
931.508	8440.46
931.817	8442.26
932.125	8368.59
932.434	8396.39
932.743	8231.42
933.051	8279.78
933.36	8227.35
933.669	8132.44
933.977	8121.37
934.286	8141.48
934.594	8093.57
934.902	8059.45
935.21	7976.29
935.519	8016.29
935.827	7959.11
936.135	7868.27
936.443	7837.76
936.751	7794.82
937.059	7787.59
937.367	7749.17
937.674	7702.4
937.982	7710.76
938.29	7715.96
938.597	7638.9
938.905	7564.32
939.213	7549.63
939.52	7503.08
939.827	7503.98
940.135	7433.25
940.442	7429.18
940.749	7441.16
941.056	7383.53
941.363	7318.9
941.67	7334.27
941.977	7201.17
942.284	7152.58
942.591	7188.74
942.898	7164.33
943.205	7128.63
943.511	7078.68
943.818	7038.01
944.125	7012.02
944.431	7047.05
944.738	7029.65
945.044	6958.91
945.35	6974.73
945.657	6857.45
945.963	6828.52
946.269	6864.9
946.575	6795.3
946.881	6758.24
947.187	6771.35
947.493	6668.07
947.799	6725.02
948.105	6608.41
948.41	6582.88
948.716	6583.33
949.022	6638.24
949.327	6555.53
949.633	6506.04
949.938	6424.46
950.244	6432.37
950.549	6429.21
950.854	6336.78
951.16	6357.57
951.465	6340.62
951.77	6314.86
952.075	6311.92
952.38	6262.21
952.685	6219.05
952.99	6165.04
953.294	6180.18
953.599	6138.14
953.904	6141.53
954.209	6073.06
954.513	6068.09
954.818	6049.56
955.122	6009.79
955.426	5989
955.731	5924.14
956.035	5876
956.339	5883.01
956.643	5871.26
956.948	5838.04
957.252	5826.51
957.556	5813.86
957.86	5779.28
958.163	5753.3
958.467	5689.79
958.771	5673.75
959.075	5694.31
959.378	5652.05
959.682	5683.24
959.985	5583.13
960.289	5572.51
960.592	5582.45
960.896	5490.7
961.199	5517.82
961.502	5492.28
961.805	5445.05
962.108	5399.41
962.411	5404.15
962.714	5358.73
963.017	5360.76
963.32	5365.96
963.623	5353.31
963.926	5283.7
964.228	5262.91
964.531	5250.71
964.833	5171.62
965.136	5184.04
965.438	5151.5
965.741	5162.35
966.043	5120.77
966.345	5092.52
966.648	5073.54
966.95	5058.17
967.252	5031.96
967.554	5046.65
967.856	5020.21
968.158	4977.95
968.46	4933.43
968.761	4885.97
969.063	4918.51
969.365	4867.89
969.666	4789.93
969.968	4794.9
970.269	4804.62
970.571	4805.3
970.872	4750.84
971.174	4748.12
971.475	4690.27
971.776	4713.55
972.077	4699.54
972.378	4692.76
972.679	4651.4
972.98	4591.52
973.281	4565.76
973.582	4555.81
973.883	4540.22
974.183	4533.21
974.484	4541.12
974.785	4517.4
975.085	4492.54
975.386	4469.71
975.686	4448.7
975.986	4456.15
976.287	4455.93
976.587	4322.15
976.887	4332.77
977.187	4322.37
977.487	4303.16
977.787	4303.84
978.087	4316.27
978.387	4243.05
978.687	4258.42
978.987	4208.7
979.286	4196.95
979.586	4171.42
979.885	4133
980.185	4174.81
980.484	4114.24
980.784	4105.88
981.083	4109.72
981.382	4073.57
981.682	4051.64
981.981	4033.57
982.28	4002.83
982.579	3980.91
982.878	3969.61
983.177	3949.95
983.475	3932.78
983.774	3924.87
984.073	3912.89
984.372	3898.43
984.67	3867.47
984.969	3850.07
985.267	3808.26
985.566	3817.53
985.864	3789.96
986.162	3787.92
986.461	3777.08
986.759	3719.45
987.057	3689.39
987.355	3703.18
987.653	3676.51
987.951	3657.53
988.249	3632.22
988.547	3648.27
988.844	3606.23
989.142	3593.58
989.44	3566.01
989.737	3571.66
990.035	3550.64
990.332	3491.21
990.63	3511.55
990.927	3474.48
991.224	3478.55
991.521	3444.2
991.819	3441.27
992.116	3446.69
992.413	3412.57
992.71	3397.65
993.006	3374.37
993.303	3366.01
993.6	3327.6
993.897	3288.95
994.193	3298.22
994.49	3280.82
994.787	3274.26
995.083	3293.02
995.379	3234.72
995.676	3177.77
995.972	3206.47
996.268	3169.18
996.565	3130.09
996.861	3189.97
997.157	3132.35
997.453	3140.71
997.749	3108.84
998.044	3121.5
998.34	3074.27
998.636	3081.05
998.932	3086.25
999.227	3041.28
999.523	2994.5
999.818	2969.19
1000.114	2985.01
1000.409	2961.5
1000.704	2972.8
1001	2925.57
1001.295	2924.67
1001.59	2922.86
1001.885	2887.83
1002.18	2909.75
1002.475	2831.11
1002.77	2843.54
1003.065	2832.02
1003.359	2803.99
1003.654	2794.95
1003.949	2802.19
1004.243	2781.85
1004.538	2750.44
1004.832	2756.76
1005.127	2707.73
1005.421	2665.47
1005.715	2695.3
1006.009	2683.77
1006.304	2679.03
1006.598	2641.29
1006.892	2625.24
1007.186	2595.41
1007.48	2578.01
1007.773	2581.63
1008.067	2569.42
1008.361	2553.61
1008.655	2519.03
1008.948	2536.66
1009.242	2546.15
1009.535	2495.08
1009.829	2482.42
1010.122	2422.99
1010.415	2446.72
1010.708	2464.79
1011.001	2413.04
1011.295	2383.21
1011.588	2394.74
1011.881	2373.95
1012.173	2340.5
1012.466	2349.09
1012.759	2305.7
1013.052	2334.4
1013.344	2295.08
1013.637	2253.73
1013.93	2247.4
1014.222	2248.08
1014.514	2239.49
1014.807	2218.47
1015.099	2188.87
1015.391	2189.32
1015.683	2197.91
1015.976	2153.84
1016.268	2169.21
1016.56	2142.32
1016.851	2110.45
1017.143	2134.41
1017.435	2128.08
1017.727	2074.52
1018.018	2064.8
1018.31	2030.23
1018.602	2069.55
1018.893	2007.86
1019.185	2015.54
1019.476	2029.33
1019.767	2021.64
1020.058	1987.97
1020.35	1928.54
1020.641	1940.97
1020.932	1957.46
1021.223	1917.92
1021.514	1916.11
1021.804	1904.36
1022.095	1859.84
1022.386	1905.03
1022.677	1884.24
1022.967	1820.74
1023.258	1827.07
1023.548	1822.55
1023.839	1803.34
1024.129	1805.6
1024.419	1792.72
1024.709	1792.04
1025	1741.65
1025.29	1749.33
1025.58	1732.38
1025.87	1697.81
1026.16	1726.06
1026.449	1700.07
1026.739	1667.07
1027.029	1693.06
1027.319	1655.55
1027.608	1633.4
1027.898	1636.34
1028.187	1604.03
1028.477	1632.95
1028.766	1609.45
1029.055	1585.5
1029.344	1597.7
1029.634	1569.68
1029.923	1551.6
1030.212	1556.12
1030.501	1532.16
1030.79	1503.46
1031.078	1513.41
1031.367	1514.54
1031.656	1476.8
1031.945	1480.87
1032.233	1454.2
1032.522	1449
1032.81	1434.54
1033.099	1432.96
1033.387	1427.53
1033.675	1427.76
1033.963	1426.4
1034.251	1409.68
1034.54	1418.04
1034.828	1388.66
1035.116	1392.51
1035.403	1353.41
1035.691	1373.75
1035.979	1313.64
1036.267	1344.82
1036.554	1320.87
1036.842	1336.69
1037.129	1318.38
1037.417	1284.03
1037.704	1296.46
1037.992	1277.48
1038.279	1268.44
1038.566	1272.28
1038.853	1272.28
1039.14	1272.28
