Data from orange_diffuse_book_FLMS001491_00010.txt Node
Date: Wed Feb 08 15:29:03 GMT 2017
User: dcchb
Spectrometer: FLMS00149
Trigger mode: 0
Integration Time (sec): 2.000000E-2
Scans to average: 10
Electric dark correction enabled: true
Nonlinearity correction enabled: false
Boxcar width: 0
XAxis mode: Wavelengths
Number of Pixels in Spectrum: 2048
>>>>>Begin Spectral Data<<<<<
341.393	-20.24
341.776	-20.24
342.16	-20.24
342.543	-53.46
342.927	-68.15
343.31	-44.42
343.693	-75.83
344.077	-74.25
344.46	-56.4
344.843	-57.75
345.226	-33.35
345.61	-37.41
345.993	-13.91
346.376	3.26
346.759	-0.13
347.142	13.88
347.525	48.69
347.908	59.76
348.291	74.22
348.674	89.81
349.057	103.82
349.44	128.23
349.823	152.19
350.206	159.87
350.588	204.61
350.971	207.78
351.354	232.64
351.737	245.06
352.119	249.81
352.502	271.05
352.884	268.79
353.267	299.3
353.65	285.06
354.032	325.06
354.414	324.61
354.797	325.06
355.179	309.92
355.562	309.92
355.944	335.23
356.326	337.49
356.709	344.72
357.091	349.92
357.473	345.17
357.855	345.17
358.238	335.01
358.62	344.95
359.002	347.66
359.384	370.71
359.766	366.19
360.148	351.95
360.53	348.11
360.912	355.8
361.294	355.57
361.676	331.62
362.057	348.11
362.439	358.28
362.821	320.09
363.203	341.56
363.584	346.98
363.966	339.3
364.348	326.19
364.729	336.81
365.111	331.39
365.493	323.03
365.874	338.17
366.256	336.81
366.637	325.97
367.019	333.42
367.4	336.59
367.781	339.52
368.163	322.8
368.544	327.55
368.925	341.33
369.306	323.25
369.688	327.77
370.069	322.12
370.45	311.96
370.831	321.9
371.212	314.89
371.593	321.67
371.974	304.27
372.355	333.88
372.736	343.59
373.117	332.07
373.498	315.34
373.879	326.87
374.26	337.27
374.641	338.17
375.021	318.06
375.402	333.88
375.783	348.79
376.163	347.66
376.544	351.5
376.925	348.56
377.305	324.61
377.686	331.39
378.066	340.2
378.447	340.2
378.827	343.59
379.208	318.28
379.588	349.02
379.968	353.31
380.349	338.62
380.729	337.72
381.109	353.76
381.489	351.95
381.87	344.5
382.25	352.63
382.63	340.2
383.01	355.57
383.39	376.81
383.77	334.33
384.15	351.5
384.53	365.06
384.91	357.15
385.29	356.47
385.67	353.08
386.049	374.1
386.429	363.25
386.809	367.32
387.189	375.23
387.568	375.91
387.948	359.19
388.328	346.08
388.707	356.25
389.087	373.87
389.466	371.61
389.846	376.36
390.225	376.13
390.605	374.55
390.984	389.69
391.363	393.08
391.743	391.28
392.122	363.48
392.501	400.99
392.881	418.17
393.26	406.19
393.639	391.05
394.018	405.29
394.397	381.33
394.776	415.91
395.155	399.86
395.534	407.09
395.913	403.25
396.292	379.3
396.671	415.68
397.05	408.45
397.429	410.71
397.808	404.38
398.186	417.49
398.565	400.99
398.944	418.39
399.323	407.09
399.701	420.65
400.08	425.85
400.458	416.36
400.837	422.91
401.215	409.81
401.594	421.56
401.972	416.36
402.351	431.95
402.729	430.82
403.107	429.92
403.486	417.72
403.864	428.56
404.242	445.28
404.62	427.88
404.999	415.46
405.377	446.41
405.755	436.02
406.133	440.31
406.511	465.62
406.889	445.51
407.267	457.49
407.645	473.76
408.023	469.47
408.401	472.63
408.779	467.66
409.156	465.17
409.534	478.5
409.912	463.14
410.29	471.72
410.667	476.47
411.045	491.61
411.422	495
411.8	496.13
412.178	483.7
412.555	493.19
412.933	473.98
413.31	504.49
413.687	504.27
414.065	505.85
414.442	513.53
414.819	508.33
415.197	518.05
415.574	530.71
415.951	528.45
416.328	527.54
416.705	547.2
417.082	543.59
417.46	520.99
417.837	564.15
418.214	548.33
418.591	533.64
418.967	539.97
419.344	542.46
419.721	560.76
420.098	565.28
420.475	591.95
420.852	584.04
421.228	576.81
421.605	570.03
421.982	585.17
422.358	597.82
422.735	586.75
423.111	588.56
423.488	597.15
423.864	598.95
424.241	634.88
424.617	617.48
424.994	606.41
425.37	592.4
425.746	638.95
426.123	645.73
426.499	627.65
426.875	632.85
427.251	670.14
427.627	643.7
428.003	644.15
428.379	636.92
428.756	643.47
429.132	663.36
429.507	662
429.883	670.59
430.259	695
430.635	696.35
431.011	695.67
431.387	692.28
431.763	721.66
432.138	722.34
432.514	718.95
432.89	712.85
433.265	744.26
433.641	741.77
434.016	749.23
434.392	750.36
434.767	755.79
435.143	776.35
435.518	758.05
435.894	767.31
436.269	783.81
436.644	783.58
437.02	789.91
437.395	790.81
437.77	780.42
438.145	828.1
438.52	833.98
438.895	830.81
439.271	829.68
439.646	829
440.021	839.4
440.395	840.75
440.77	852.96
441.145	850.47
441.52	871.26
441.895	850.02
442.27	864.93
442.645	878.49
443.019	877.36
443.394	882.34
443.769	886.4
444.143	897.02
444.518	926.4
444.892	907.87
445.267	891.37
445.641	899.74
446.016	922.11
446.39	886.63
446.764	915.56
447.139	927.76
447.513	913.3
447.887	955.1
448.262	945.16
448.636	940.87
449.01	972.28
449.384	962.11
449.758	964.82
450.132	965.72
450.506	992.62
450.88	979.51
451.254	967.53
451.628	1013.63
452.002	994.65
452.376	995.55
452.75	1022.22
453.123	996.91
453.497	1026.74
453.871	1032.84
454.244	1005.95
454.618	1053.4
454.992	1030.58
455.365	1041.65
455.739	1061.31
456.112	1100.41
456.486	1110.35
456.859	1078.04
457.232	1118.71
457.606	1081.88
457.979	1135.89
458.352	1123.91
458.725	1141.54
459.099	1167.3
459.472	1177.02
459.845	1182.67
460.218	1193.06
460.591	1177.02
460.964	1179.28
461.337	1214.53
461.71	1213.63
462.083	1245.94
462.456	1226.28
462.829	1246.62
463.201	1259.73
463.574	1252.95
463.947	1282.55
464.32	1301.08
464.692	1301.31
465.065	1310.35
465.438	1329.56
465.81	1323.45
466.183	1367.29
466.555	1385.15
466.928	1358.26
467.3	1394.64
467.672	1405.49
468.045	1442.77
468.417	1426.95
468.789	1461.76
469.161	1442.09
469.534	1457.46
469.906	1468.99
470.278	1476.9
470.65	1486.16
471.022	1537.69
471.394	1555.09
471.766	1584.69
472.138	1513.96
472.51	1599.38
472.882	1620.85
473.253	1637.8
473.625	1636.67
473.997	1680.96
474.369	1676.44
474.74	1685.03
475.112	1702.65
475.484	1725.03
475.855	1759.6
476.227	1791.69
476.598	1834.85
476.97	1840.28
477.341	1868.3
477.713	1907.62
478.084	1868.07
478.455	1957.56
478.827	1950.1
479.198	2015.87
479.569	1995.98
479.94	2064.68
480.311	2071.23
480.682	2102.19
481.053	2122.98
481.424	2147.39
481.795	2193.26
482.166	2241.85
482.537	2251.11
482.908	2295.63
483.279	2314.61
483.65	2386.7
484.021	2367.95
484.391	2441.16
484.762	2463.31
485.133	2464.44
485.503	2489.3
485.874	2535.63
486.244	2600.93
486.615	2621.72
486.985	2670.31
487.356	2707.37
487.726	2728.16
488.097	2758.67
488.467	2797.54
488.837	2852.45
489.207	2894.49
489.578	2948.5
489.948	2953.92
490.318	3007.48
490.688	3012.68
491.058	3068.27
491.428	3111.43
491.798	3153.01
492.168	3202.27
492.538	3243.4
492.908	3275.72
493.278	3308.71
493.648	3348.49
494.017	3370.41
494.387	3411.99
494.757	3485.66
495.126	3550.29
495.496	3527.92
495.866	3566.78
496.235	3574.92
496.605	3635.48
496.974	3648.36
497.344	3699.21
497.713	3707.12
498.082	3765.2
498.452	3769.49
498.821	3796.16
499.19	3840
499.559	3880.22
499.928	3900.34
500.298	3977.62
500.667	4010.39
501.036	3997.51
501.405	4080.67
501.774	4088.8
502.143	4139.43
502.512	4152.53
502.88	4193.21
503.249	4191.18
503.618	4234.34
503.987	4249.25
504.356	4342.36
504.724	4311.4
505.093	4339.65
505.462	4381
505.83	4393.88
506.199	4426.42
506.567	4451.28
506.936	4548.68
507.304	4525.4
507.672	4566.76
508.041	4699.86
508.409	4658.28
508.777	4713.2
509.145	4696.02
509.514	4745.28
509.882	4818.28
510.25	4810.37
510.618	4845.62
510.986	4880.42
511.354	4933.98
511.722	4937.82
512.09	5002.45
512.458	5006.29
512.826	5065.5
513.193	5108.67
513.561	5126.07
513.929	5112.51
514.297	5153.86
514.664	5250.81
515.032	5270.69
515.4	5277.7
515.767	5329.45
516.135	5385.04
516.502	5340.07
516.869	5433.18
517.237	5466.85
517.604	5518.37
517.972	5504.81
518.339	5562.44
518.706	5605.83
519.073	5609.67
519.44	5670.23
519.808	5713.85
520.175	5723.79
520.542	5775.31
520.909	5875.88
521.276	5807.86
521.643	5865.26
522.009	5955.65
522.376	5977.34
522.743	5978.7
523.11	6084.91
523.477	6097.11
523.843	6164.46
524.21	6272.02
524.577	6263.89
524.943	6246.94
525.31	6324.9
525.676	6322.87
526.043	6408.29
526.409	6450.78
526.776	6496.43
527.142	6465.47
527.508	6534.84
527.874	6627.27
528.241	6689.87
528.607	6631.56
528.973	6749.53
529.339	6730.77
529.705	6886.7
530.071	6870.2
530.437	6858.68
530.803	6926.92
531.169	6989.75
531.535	6958.56
531.901	7011.89
532.267	7018.22
532.632	7039.91
532.998	7121.49
533.364	7203.98
533.73	7163.53
534.095	7201.72
534.461	7217.31
534.826	7315.16
535.192	7353.8
535.557	7405.55
535.923	7408.04
536.288	7450.52
536.653	7454.82
537.019	7463.63
537.384	7478.09
537.749	7547.25
538.114	7578.2
538.479	7548.37
538.845	7662.27
539.21	7580.69
539.575	7641.93
539.94	7697.07
540.305	7762.15
540.67	7826.33
541.034	7791.76
541.399	7802.38
541.764	7849.61
542.129	7936.39
542.494	7913.79
542.858	7961.25
543.223	7992.43
543.587	8012.32
543.952	8024.07
544.316	8088.02
544.681	8094.8
545.045	8167.57
545.41	8182.03
545.774	8201.24
546.138	8257.28
546.503	8271.29
546.867	8332.76
547.231	8397.84
547.595	8473.1
547.959	8463.15
548.324	8517.16
548.688	8443.72
549.052	8539.76
549.416	8571.62
549.779	8626.54
550.143	8595.13
550.507	8784.73
550.871	8723.49
551.235	8763.71
551.599	8800.77
551.962	8897.94
552.326	8880.09
552.689	8964.16
553.053	8989.92
553.417	9018.62
553.78	9105.17
554.143	9113.31
554.507	9177.48
554.87	9233.75
555.234	9316.46
555.597	9281.44
555.96	9382.68
556.323	9413.64
556.686	9505.84
557.05	9625.83
557.413	9665.61
557.776	9654.31
558.139	9708.54
558.502	9748.32
558.865	9769.11
559.228	9979.95
559.59	9981.08
559.953	10004.81
560.316	10117.57
560.679	10162.32
561.041	10254.07
561.404	10361.63
561.767	10379.94
562.129	10386.27
562.492	10576.77
562.854	10700.61
563.217	10661.74
563.579	10784.9
563.941	10905.35
564.304	10931.34
564.666	11000.71
565.028	11141.95
565.39	11146.25
565.753	11365.9
566.115	11402.28
566.477	11513.92
566.839	11601.6
567.201	11743.74
567.563	11792.78
567.925	11992.33
568.287	12080.91
568.648	12233.45
569.01	12308.25
569.372	12435.03
569.734	12486.32
570.095	12678.41
570.457	12765.41
570.819	12925.63
571.18	12960.44
571.542	13185.06
571.903	13376.47
572.265	13440.88
572.626	13591.38
572.987	13721.55
573.349	13958.83
573.71	14105.49
574.071	14251.48
574.432	14487.18
574.794	14750.22
575.155	14808.98
575.516	14907.73
575.877	15242.41
576.238	15396.76
576.599	15613.25
576.96	15843.3
577.32	16040.13
577.681	16196.96
578.042	16423.62
578.403	16649.6
578.763	16913.55
579.124	17218.63
579.485	17513.99
579.845	17811.38
580.206	17953.07
580.566	18383.34
580.927	18505.15
581.287	18896.33
581.648	19080.05
582.008	19459.25
582.368	19699.92
582.728	20099.23
583.089	20353.24
583.449	20574.7
583.809	20950.51
584.169	21223.27
584.529	21519.08
584.889	22203.58
585.249	22238.84
585.609	22528.09
585.969	23039.04
586.329	23423.89
586.688	23730.32
587.048	24027.04
587.408	24480.13
587.768	24813.68
588.127	25177.74
588.487	25547.22
588.846	26205.06
589.206	26298.62
589.565	26764.82
589.925	27261.3
590.284	27598.02
590.643	28006.59
591.003	28530.42
591.362	28986.23
591.721	29285.88
592.08	29713.67
592.44	30247.21
592.799	30744.83
593.158	30972.39
593.517	31403.34
593.876	32008.97
594.235	32302.53
594.593	32768.95
594.952	33230.41
595.311	33599.67
595.67	34069.26
596.029	34770.71
596.387	35121.44
596.746	35590.8
597.104	35801.64
597.463	36372.93
597.822	36824.89
598.18	36988.5
598.538	37507.59
598.897	38004.98
599.255	38092.88
599.613	39091.73
599.972	39205.85
600.33	39714.31
600.688	39819.62
601.046	40482.2
601.404	40898.01
601.762	41199.02
602.12	41745.89
602.478	42132.1
602.836	42388.81
603.194	42550.39
603.552	43019.98
603.91	43329.58
604.268	43784.26
604.625	44008.21
604.983	44518.7
605.341	44580.17
605.698	45179.7
606.056	45360.71
606.413	45595.51
606.771	45946.46
607.128	46260.35
607.485	46373.12
607.843	46699.44
608.2	46987.11
608.557	47389.81
608.914	47432.52
609.272	47879.97
609.629	48121.32
609.986	48402.89
610.343	48385.95
610.7	48874.07
611.057	48930.34
611.414	49109.99
611.771	49297.11
612.127	49623.2
612.484	49539.36
612.841	49909.3
613.198	49972.12
613.554	50083.75
613.911	50318.32
614.267	50523.74
614.624	50519.22
614.98	50720.35
615.337	50987.01
615.693	51077.63
616.05	51061.81
616.406	51419.54
616.762	51434.68
617.118	51504.96
617.475	51514.45
617.831	51765.97
618.187	51859.3
618.543	51898.62
618.899	52264.04
619.255	52141.55
619.611	52142.91
619.967	52324.15
620.323	52495.89
620.678	52360.53
621.034	52391.49
621.39	52482.56
621.746	52504.03
622.101	52846.84
622.457	52713.52
622.812	52751.93
623.168	52871.93
623.523	52958.93
623.879	53027.63
624.234	52859.73
624.589	53130.91
624.945	53134.75
625.3	53216.78
625.655	53198.7
626.01	53230.79
626.365	53280.05
626.72	53289.09
627.075	53243.67
627.43	53233.73
627.785	53292.26
628.14	53348.3
628.495	53387.85
628.85	53390.79
629.205	53320.96
629.559	53538.8
629.914	53300.17
630.269	53397.56
630.623	53414.06
630.978	53282.99
631.332	53503.78
631.687	53532.25
632.041	53389.43
632.396	53532.48
632.75	53386.72
633.104	53476.66
633.459	53406.15
633.813	53340.39
634.167	53337.91
634.521	53328.41
634.875	53472.82
635.229	53327.74
635.583	53325.7
635.937	53297.45
636.291	53296.32
636.645	53241.18
636.999	53277.12
637.352	53257.46
637.706	53155.09
638.06	53270.34
638.413	53248.87
638.767	53114.18
639.121	53257.46
639.474	53080.96
639.828	53146.5
640.181	53164.58
640.534	53131.81
640.888	53050
641.241	53026.73
641.594	53010.46
641.947	53179.72
642.301	53083
642.654	53087.06
643.007	53062.88
643.36	53076.67
643.713	52941.08
644.066	53053.39
644.419	52841.2
644.771	52634.65
645.124	52490.47
645.477	52437.82
645.83	52285.73
646.182	52100.88
646.535	52051.84
646.888	52119.63
647.24	51958.28
647.593	52143.13
647.945	52069.46
648.298	51964.61
648.65	51928.9
649.002	51829.24
649.355	51880.54
649.707	51901.11
650.059	52047.32
650.411	52430.58
650.763	52429.68
651.115	52804.13
651.467	52600.75
651.819	52581.32
652.171	52582.67
652.523	52530.7
652.875	52614.08
653.227	52484.82
653.578	52665.83
653.93	52579.51
654.282	52439.4
654.633	52411.15
654.985	52416.12
655.337	52603.01
655.688	52444.37
656.039	52590.81
656.391	52341.77
656.742	52403.47
657.094	52359.85
657.445	52540.41
657.796	52445.95
658.147	52417.7
658.498	52409.34
658.849	52446.86
659.2	52502.45
659.551	52269.23
659.902	52459.74
660.253	52337.25
660.604	52403.01
660.955	52210.48
661.306	52314.2
661.656	52304.03
662.007	52292.28
662.358	52309.91
662.708	52378.61
663.059	52284.37
663.409	52129.12
663.76	52422.9
664.11	52258.16
664.461	52355.56
664.811	52288.89
665.161	52318.95
665.511	52090.48
665.862	52235.56
666.212	52434.88
666.562	52389.68
666.912	52261.55
667.262	52266.3
667.612	52195.56
667.962	52205.05
668.312	52096.36
668.662	52279.18
669.011	52175
669.361	52165.05
669.711	52071.5
670.06	52147.65
670.41	52046.64
670.76	51928
671.109	52095
671.459	52035.34
671.808	52027.66
672.157	52085.06
672.507	51862.01
672.856	51872.86
673.205	51823.59
673.554	52042.57
673.904	51928
674.253	52023.59
674.602	51909.92
674.951	51408.92
675.3	51181.35
675.649	51758.74
675.998	51732.52
676.346	51735.24
676.695	51877.38
677.044	51564.39
677.393	51570.49
677.741	51690.27
678.09	51506.09
678.438	51528.01
678.787	51635.13
679.135	51571.62
679.484	51340.9
679.832	51516.94
680.181	51336.83
680.529	51472.42
680.877	51255.93
681.225	51262.25
681.573	51441.91
681.922	51180
682.27	51180.45
682.618	51171.41
682.966	50988.81
683.314	51120.79
683.661	51009.83
684.009	50950.85
684.357	50751.98
684.705	50800.57
685.053	50776.84
685.4	50794.24
685.748	50564.65
686.095	50606.23
686.443	50436.74
686.79	50398.32
687.138	50410.98
687.485	50467.7
687.832	50417.98
688.18	50349.51
688.527	50204.65
688.874	50145.67
689.221	49952.01
689.568	49972.12
689.915	49879.01
690.262	49715.18
690.609	49679.24
690.956	49582.07
691.303	49545.24
691.65	49353.38
691.997	49377.78
692.344	49201.52
692.69	49112.48
693.037	49173.27
693.383	48869.32
693.73	49012.37
694.077	48755.88
694.423	48750
694.769	48643.79
695.116	48530.57
695.462	48505.26
695.808	48373.97
696.155	48391.14
696.501	48090.81
696.847	47995.9
697.193	47795.23
697.539	48065.73
697.885	47755.68
698.231	47612.86
698.577	47503.03
698.923	47585.29
699.269	47335.35
699.614	47218.74
699.96	47024.63
700.306	47037.96
700.651	46871.41
700.997	46651.53
701.342	46731.3
701.688	46632.32
702.033	46477.97
702.379	46423.96
702.724	46331.31
703.069	46413.12
703.415	45935.61
703.76	45917.31
704.105	45951.43
704.45	45837.31
704.795	45692.68
705.14	45569.75
705.485	45564.32
705.83	45181.51
706.175	45293.82
706.52	45225.58
706.865	45026.71
707.209	44885.25
707.554	44801.41
707.899	44859.48
708.243	44735.87
708.588	44633.73
708.932	44305.15
709.277	44178.37
709.621	44350.12
709.966	44029.22
710.31	44140.41
710.654	43756.01
710.998	43871.71
711.342	44036.91
711.687	43851.83
712.031	43673.3
712.375	43607.99
712.719	43529.58
713.063	43536.13
713.407	43547.43
713.75	43414.32
714.094	43319.41
714.438	43149.92
714.782	43294.78
715.125	42974.11
715.469	43085.97
715.812	42893.21
716.156	42780.44
716.499	42683.95
716.843	42820.89
717.186	42542.48
717.53	42678.52
717.873	42521.47
718.216	42543.39
718.559	42319.21
718.902	42125.54
719.246	42232.21
719.589	42055.94
719.932	41914.03
720.275	42005.32
720.617	41912.44
720.96	41762.62
721.303	41745.89
721.646	41848.26
721.989	41547.26
722.331	41799
722.674	41506.35
723.016	41573.47
723.359	41462.29
723.701	41536.86
724.044	41303.19
724.386	40980.26
724.729	41326.24
725.071	41188.62
725.413	41062.3
725.755	40982.52
726.097	41019.13
726.439	40639.48
726.782	40809.2
727.124	40942.53
727.465	40730.78
727.807	40624.57
728.149	40626.15
728.491	40577.11
728.833	40714.96
729.175	40556.77
729.516	40438.58
729.858	40453.95
730.199	40377.12
730.541	40166.27
730.882	40333.5
731.224	40414.18
731.565	40072.72
731.906	40225.26
732.248	40131.02
732.589	40026.39
732.93	39899.39
733.271	39993.4
733.612	39909.56
733.953	39861.42
734.294	39813.52
734.635	39721.77
734.976	39831.82
735.317	39603.8
735.658	39639.28
735.999	39546.63
736.339	39522.68
736.68	39610.58
737.021	39496.24
737.361	39291.04
737.702	39676.12
738.042	39235
738.383	39382.34
738.723	39459.4
739.063	39166.53
739.404	39346.18
739.744	39140.99
740.084	38991.39
740.424	39137.15
740.764	38941.67
741.104	39119.3
741.444	38840.21
741.784	38826.65
742.124	38910.49
742.464	38775.35
742.804	38755.69
743.143	38649.7
743.483	38724.05
743.823	38425.98
744.162	38404.29
744.502	38569.25
744.841	38440.44
745.181	38647.22
745.52	38262.6
745.86	38400.9
746.199	38262.37
746.538	38331.97
746.877	38383.72
747.216	38298.07
747.556	38128.59
747.895	38160.68
748.234	38095.37
748.573	37890.18
748.911	38019.44
749.25	37928.82
749.589	37783.06
749.928	37910.29
750.267	37889.27
750.605	37678.2
750.944	37716.85
751.283	37598.43
751.621	37572.44
751.96	37436.18
752.298	37256.52
752.636	37391.88
752.975	37289.74
753.313	37238.67
753.651	37215.62
753.989	37142.85
754.327	37076.19
754.666	36837.55
755.004	36854.27
755.342	36828.74
755.679	36846.36
756.017	36646.14
756.355	36736.99
756.693	36464.9
757.031	36676.65
757.368	36387.16
757.706	36225.36
758.044	36031.69
758.381	36282.99
758.719	36100.17
759.056	36092.71
759.394	35888.42
759.731	35776.11
760.068	35699.27
760.405	35532.72
760.743	35523.01
761.08	35468.09
761.417	35347.42
761.754	35345.38
762.091	35358.04
762.428	35146.97
762.765	34960.76
763.102	35153.75
763.438	34818.84
763.775	34682.12
764.112	34611.62
764.449	34680.54
764.785	34443.04
765.122	34368.01
765.458	34174.12
765.795	34161.69
766.131	34056.15
766.467	33928.7
766.804	33854.12
767.14	33480.8
767.476	33785.65
767.812	33571.19
768.148	33536.84
768.485	33408.71
768.821	33177.53
769.157	33107.93
769.492	33003.3
769.828	32976.63
770.164	32708.39
770.5	32813.7
770.836	32544.33
771.171	32484.44
771.507	32426.14
771.842	32081.06
772.178	32162.42
772.513	32210.78
772.849	32040.61
773.184	31891.46
773.519	31787.29
773.855	31777.34
774.19	31577.35
774.525	31551.36
774.86	31384.81
775.195	31333.06
775.53	31119.73
775.865	31005.84
776.2	30800.64
776.535	30532.63
776.87	30685.39
777.205	30440.65
777.539	30406.98
777.874	30488.11
778.209	30193.88
778.543	30108.01
778.878	29929.93
779.212	29935.58
779.547	29756.38
779.881	29803.83
780.215	29621.69
780.55	29623.5
780.884	29358.42
781.218	29341.93
781.552	29309.16
781.886	29065.55
782.22	28982.16
782.554	28921.6
782.888	28729.74
783.222	28531.1
783.556	28450.88
783.889	28400.26
784.223	28229.41
784.557	28121.17
784.89	28301.73
785.224	28060.15
785.557	27888.63
785.891	27843.21
786.224	27753.49
786.558	27732.48
786.891	27408.19
787.224	27340.4
787.557	27278.7
787.891	27256.33
788.224	27280.51
788.557	27328.65
788.89	27102.89
789.223	27042.1
789.556	26789.9
789.888	26793.74
790.221	26724.37
790.554	26520.53
790.887	26523.02
791.219	26463.58
791.552	26219.75
791.884	26208
792.217	26102.92
792.549	26022.69
792.882	25831.51
793.214	25790.38
793.546	25862.7
793.879	25660.67
794.211	25546.32
794.543	25650.05
794.875	25493.21
795.207	25537.51
795.539	25326.66
795.871	25285.08
796.203	25196.95
796.535	24928.03
796.867	24977.52
797.198	24867.24
797.53	24885.77
797.862	24652.11
798.193	24733.46
798.525	24519.23
798.856	24599.45
799.188	24325.33
799.519	24262.51
799.85	24165.34
800.182	24187.49
800.513	24134.38
800.844	23827.27
801.175	23971.45
801.506	23999.47
801.837	23869.98
802.168	23844.22
802.499	23657.56
802.83	23606.48
803.161	23449.2
803.491	23390.9
803.822	23467.5
804.153	23374.17
804.483	23206.49
804.814	23160.85
805.145	23034.97
805.475	23086.05
805.805	23004.24
806.136	23013.05
806.466	22939.16
806.796	22848.76
807.126	22672.27
807.457	22503.46
807.787	22636.57
808.117	22545.49
808.447	22511.15
808.777	22463.91
809.107	22423.69
809.436	22364.03
809.766	22332.84
810.096	22180.76
810.426	22050.59
810.755	22141.89
811.085	22016.47
811.414	22050.59
811.744	21809.24
812.073	21814.44
812.403	21839.75
812.732	21566.76
813.061	21728.57
813.39	21569.02
813.719	21464.39
814.049	21612.19
814.378	21494.67
814.707	21432.76
815.036	21414.9
815.365	21178.07
815.693	21106.89
816.022	21139.43
816.351	21010.39
816.68	20932.66
817.008	20977.17
817.337	20826.44
817.665	20807.01
817.994	20793
818.322	20837.29
818.651	20586.22
818.979	20528.82
819.307	20696.05
819.636	20631.19
819.964	20449.96
820.292	20510.75
820.62	20486.79
820.948	20412.9
821.276	20470.3
821.604	20348.72
821.932	20497.19
822.259	20488.37
822.587	20421.93
822.915	20341.71
823.243	20425.1
823.57	20297.87
823.898	20400.69
824.225	20290.64
824.553	20381.48
824.88	20301.49
825.207	20415.16
825.535	20352.11
825.862	20370.86
826.189	20213.13
826.516	20350.07
826.843	20364.99
827.17	20357.3
827.497	20472.33
827.824	20359.56
828.151	20393.69
828.478	20289.96
828.805	20396.62
829.131	20308.49
829.458	20277.08
829.785	20177.65
830.111	20123.86
830.438	20269.85
830.764	20351.43
831.09	20263.75
831.417	20171.09
831.743	20142.85
832.069	20332.9
832.395	20193.69
832.722	20236.85
833.048	20127.71
833.374	20150.53
833.7	20098.33
834.026	20155.05
834.351	20136.52
834.677	20143.98
835.003	20141.04
835.329	20120.93
835.654	19914.83
835.98	19895.17
836.306	20052.68
836.631	19798.67
836.956	19905.79
837.282	20018.78
837.607	19813.82
837.932	19760.71
838.258	19822.63
838.583	19669.41
838.908	19558.23
839.233	19670.54
839.558	19592.35
839.883	19598.68
840.208	19507.83
840.533	19572.24
840.858	19490.43
841.182	19546.03
841.507	19523.2
841.832	19332.02
842.156	19343.32
842.481	19273.04
842.805	19183.32
843.13	19155.75
843.454	19155.75
843.778	19075.3
844.103	19095.42
844.427	19055.42
844.751	19008.64
845.075	19018.81
845.399	18894.52
845.723	18890.22
846.047	18804.12
846.371	18672.38
846.695	18686.84
847.019	18533.62
847.343	18469.67
847.666	18381.76
847.99	18308.09
848.313	18371.37
848.637	18143.58
848.96	18198.26
849.284	18121.88
849.607	18009.34
849.931	17901.1
850.254	17823.81
850.577	17652.74
850.9	17568.45
851.223	17549.24
851.546	17538.62
851.869	17415.01
852.192	17507.66
852.515	17342.02
852.838	17265.63
853.161	17326.2
853.483	17182.25
853.806	17121
854.129	16978.86
854.451	17010.95
854.774	16810.5
855.096	16858.86
855.419	16822.03
855.741	16727.79
856.063	16646.89
856.385	16627.46
856.708	16542.04
857.03	16463.17
857.352	16530.06
857.674	16402.38
857.996	16379.78
858.318	16186.57
858.64	16182.05
858.961	16234.02
859.283	16222.95
859.605	16147.47
859.926	16153.12
860.248	16044.65
860.57	15987.25
860.891	16015.95
861.212	15938.89
861.534	15924.2
861.855	15847.82
862.176	15836.29
862.498	15906.12
862.819	15772.79
863.14	15631.78
863.461	15697.09
863.782	15641.72
864.103	15674.94
864.424	15634.72
864.745	15713.13
865.065	15517.2
865.386	15534.61
865.707	15448.05
866.027	15476.08
866.348	15396.98
866.668	15453.48
866.989	15346.14
867.309	15274.05
867.63	15406.02
867.95	15282.63
868.27	15262.52
868.59	15187.27
868.91	15124.67
869.23	15217.33
869.55	15037.9
869.87	15133.71
870.19	15179.13
870.51	15151.11
870.83	15126.93
871.15	15003.32
871.469	15106.59
871.789	15053.71
872.109	15044.22
872.428	14858.24
872.748	14965.81
873.067	14902.76
873.386	14959.03
873.706	14871.12
874.025	14834.29
874.344	14799.71
874.663	14762.65
874.982	14733.95
875.301	14685.59
875.62	14682.65
875.939	14611.01
876.258	14700.28
876.577	14601.97
876.896	14603.1
877.214	14566.72
877.533	14612.37
877.852	14446.72
878.17	14574.63
878.489	14507.97
878.807	14517.68
879.125	14460.51
879.444	14433.39
879.762	14339.38
880.08	14351.36
880.398	14351.81
880.716	14345.26
881.034	14256.67
881.352	14224.58
881.67	14246.05
881.988	14215.77
882.306	14107.98
882.624	14111.37
882.941	14091.93
883.259	13979.17
883.577	13985.04
883.894	13991.37
884.212	13923.12
884.529	13867.76
884.846	13926.51
885.164	13863.92
885.481	13841.54
885.798	13831.15
886.115	13687.2
886.432	13729.91
886.75	13690.36
887.067	13702.56
887.383	13587.31
887.7	13568.56
888.017	13512.74
888.334	13556.13
888.651	13496.47
888.967	13426.86
889.284	13449.69
889.6	13399.52
889.917	13269.35
890.233	13351.16
890.55	13301.67
890.866	13208.57
891.182	13186.64
891.498	13177.38
891.815	13148
892.131	13049.25
892.447	13031.62
892.763	13037.04
893.079	13051.96
893.395	12876.14
893.71	12824.39
894.026	12861.68
894.342	12828.91
894.657	12705.98
894.973	12731.06
895.289	12740.1
895.604	12758.41
895.92	12604.06
896.235	12561.8
896.55	12562.71
896.865	12534.23
897.181	12414.69
897.496	12395.48
897.811	12313.67
898.126	12270.06
898.441	12316.16
898.756	12192.77
899.071	12192.77
899.386	12150.06
899.7	12105.32
900.015	12024.19
900.33	12001.14
900.644	11932.67
900.959	11917.98
901.273	11841.37
901.588	11795.95
901.902	11679.34
902.216	11733.35
902.531	11753.91
902.845	11586.69
903.159	11520.47
903.473	11507.59
903.787	11442.28
904.101	11460.36
904.415	11468.72
904.729	11443.87
905.042	11309.63
905.356	11333.81
905.67	11289.07
905.984	11335.85
906.297	11216.75
906.611	11162.52
906.924	11110.77
907.237	11078.45
907.551	11019.92
907.864	10990.54
908.177	10939.25
908.491	10956.42
908.804	10942.18
909.117	10845.46
909.43	10671
909.743	10744.22
910.056	10623.1
910.368	10617.67
910.681	10582.19
910.994	10494.74
911.307	10479.82
911.619	10398.24
911.932	10447.06
912.244	10391.01
912.557	10326.38
912.869	10270.56
913.181	10220.4
913.494	10255.65
913.806	10169.32
914.118	10140.85
914.43	10088.65
914.742	10021.08
915.054	9995.32
915.366	9923.23
915.678	9944.24
915.99	9888.88
916.302	9768.66
916.613	9782.89
916.925	9750.35
917.236	9764.81
917.548	9611.37
917.859	9669
918.171	9550.58
918.482	9593.07
918.794	9527.76
919.105	9561.2
919.416	9410.47
919.727	9391.72
920.038	9357.82
920.349	9287.31
920.66	9265.39
920.971	9257.26
921.282	9270.59
921.593	9180.42
921.903	9138.84
922.214	9029.47
922.525	9046.19
922.835	8985.85
923.146	8890.71
923.456	8892.97
923.767	8890.03
924.077	8804.16
924.387	8796.93
924.697	8776.37
925.008	8733.43
925.318	8676.71
925.628	8582.25
925.938	8576.37
926.248	8493.43
926.558	8520.1
926.867	8479.42
927.177	8440.33
927.487	8461.12
927.796	8383.38
928.106	8334.34
928.416	8326.21
928.725	8168.02
929.034	8189.49
929.344	8186.1
929.653	8170.51
929.962	8095.71
930.271	8135.93
930.581	8078.98
930.89	8099.09
931.199	8021.81
931.508	7916.5
931.817	7906.56
932.125	7893.68
932.434	7870.85
932.743	7762.83
933.051	7774.13
933.36	7749.73
933.669	7651.2
933.977	7673.8
934.286	7680.12
934.594	7679.67
934.902	7565.32
935.21	7511.09
935.519	7565.78
935.827	7501.6
936.135	7456.63
936.443	7427.93
936.751	7361.04
937.059	7368.04
937.367	7274.26
937.674	7258.44
937.982	7213.69
938.29	7207.82
938.597	7196.29
938.905	7153.58
939.213	7103.64
939.52	7060.25
939.827	7116.97
940.135	7010.54
940.442	6955.4
940.749	6959.01
941.056	6986.13
941.363	6888.05
941.67	6873.14
941.977	6841.05
942.284	6813.48
942.591	6783.65
942.898	6737.32
943.205	6731.22
943.511	6620.04
943.818	6714.95
944.125	6637.66
944.431	6597.89
944.738	6605.8
945.044	6565.35
945.35	6519.93
945.657	6460.04
945.963	6489.65
946.269	6430.21
946.575	6385.02
946.881	6374.17
947.187	6348.86
947.493	6353.15
947.799	6354.28
948.105	6229.99
948.41	6272.02
948.716	6237.67
949.022	6230.9
949.327	6166.26
949.633	6076.1
949.938	6135.08
950.244	6111.58
950.549	6025.03
950.854	6043.78
951.16	5990.45
951.465	5998.36
951.77	5930.79
952.075	5900.73
952.38	5888.98
952.685	5898.47
952.99	5835.2
953.294	5832.71
953.599	5775.99
953.904	5768.53
954.209	5697.8
954.513	5756.78
954.818	5682.66
955.122	5716.33
955.426	5672.27
955.731	5651.48
956.035	5586.39
956.339	5576.22
956.643	5547.98
956.948	5495.1
957.252	5462.1
957.556	5445.38
957.86	5440.41
958.163	5438.15
958.467	5388.43
958.771	5355.66
959.075	5371.71
959.378	5352.95
959.682	5310.24
959.985	5295.1
960.289	5247.42
960.592	5186.18
960.896	5197.93
961.199	5201.54
961.502	5160.19
961.805	5102.79
962.108	5080.64
962.411	5124.03
962.714	5057.37
963.017	5045.62
963.32	5011.49
963.623	4998.39
963.926	4953.87
964.228	4942.79
964.531	4973.98
964.833	4915.22
965.136	4866.86
965.438	4828.67
965.741	4813.98
966.043	4859.86
966.345	4780.76
966.648	4788.45
966.95	4761.78
967.252	4726.98
967.554	4717.71
967.856	4702.12
968.158	4669.13
968.46	4615.8
968.761	4606.31
969.063	4593.42
969.365	4567.44
969.666	4579.19
969.968	4536.02
970.269	4524.95
970.571	4517.04
970.872	4501.22
971.174	4422.13
971.475	4472.52
971.776	4379.19
972.077	4399.31
972.378	4406.31
972.679	4420.55
972.98	4361.57
973.281	4317.05
973.582	4285.18
973.883	4332.19
974.183	4288.57
974.484	4286.54
974.785	4275.24
975.085	4203.15
975.386	4236.82
975.686	4160.67
975.986	4173.55
976.287	4150.95
976.587	4094
976.887	4108.92
977.187	4071.63
977.487	4079.09
977.787	4060.78
978.087	4052.2
978.387	4050.16
978.687	3990.73
978.987	3962.25
979.286	3988.02
979.586	3959.09
979.885	3930.17
980.185	3876.83
980.484	3931.75
980.784	3899.66
981.083	3879.32
981.382	3859.88
981.682	3825.99
981.981	3775.82
982.28	3785.08
982.579	3777.85
982.878	3719.32
983.177	3696.95
983.475	3721.13
983.774	3721.36
984.073	3689.04
984.372	3687.01
984.67	3623.05
984.969	3665.54
985.267	3576.05
985.566	3625.77
985.864	3583.06
986.162	3572.43
986.461	3583.73
986.759	3530.85
987.057	3504.87
987.355	3466.9
987.653	3493.57
987.951	3496.96
988.249	3486.56
988.547	3441.82
988.844	3440.23
989.142	3428.03
989.44	3431.42
989.737	3338.32
990.035	3380.12
990.332	3310.07
990.63	3308.71
990.927	3354.81
991.224	3306.9
991.521	3289.96
991.819	3227.36
992.116	3260.58
992.413	3235.04
992.71	3212.22
993.006	3215.38
993.303	3199.79
993.6	3168.6
993.897	3133.35
994.193	3149.17
994.49	3131.99
994.787	3148.72
995.083	3105.33
995.379	3092.67
995.676	3085.44
995.972	3020.58
996.268	3035.27
996.565	2994.37
996.861	2964.77
997.157	3019.91
997.453	2976.29
997.749	2978.55
998.044	2947.14
998.34	2946.46
998.636	2906.01
998.932	2914.15
999.227	2888.38
999.523	2848.39
999.818	2881.38
1000.114	2826.47
1000.409	2820.14
1000.704	2809.06
1001	2797.77
1001.295	2751.21
1001.59	2721.38
1001.885	2757.99
1002.18	2701.04
1002.475	2673.25
1002.77	2679.8
1003.065	2696.75
1003.359	2652.01
1003.654	2629.18
1003.949	2705.56
1004.243	2635.74
1004.538	2608.39
1004.832	2573.14
1005.127	2611.78
1005.421	2583.99
1005.715	2537.66
1006.009	2560.71
1006.304	2536.3
1006.598	2475.97
1006.892	2482.07
1007.186	2483.2
1007.48	2450.88
1007.773	2426.02
1008.067	2425.35
1008.361	2415.85
1008.655	2395.06
1008.948	2353.71
1009.242	2364.33
1009.535	2367.72
1009.829	2319.59
1010.122	2335.86
1010.415	2333.82
1010.708	2298.34
1011.001	2296.08
1011.295	2245.92
1011.588	2269.87
1011.881	2250.89
1012.173	2264.22
1012.466	2221.96
1012.759	2220.38
1013.052	2235.29
1013.344	2156.43
1013.637	2184.67
1013.93	2162.08
1014.222	2139.25
1014.514	2143.77
1014.807	2139.03
1015.099	2072.13
1015.391	2097.44
1015.683	2089.54
1015.976	2068.07
1016.268	2060.38
1016.56	2071.46
1016.851	2038.46
1017.143	1998.24
1017.435	2011.8
1017.727	1984.91
1018.018	1948.97
1018.31	1954.85
1018.602	1922.53
1018.893	1928.64
1019.185	1948.75
1019.476	1893.83
1019.767	1903.78
1020.058	1849.54
1020.35	1898.81
1020.641	1875.76
1020.932	1859.71
1021.223	1833.72
1021.514	1838.47
1021.804	1790.56
1022.095	1814.06
1022.386	1781.75
1022.677	1766.83
1022.967	1765.02
1023.258	1750.34
1023.548	1730
1023.839	1695.42
1024.129	1698.81
1024.419	1724.35
1024.709	1672.82
1025	1666.5
1025.29	1652.48
1025.58	1613.39
1025.87	1627.4
1026.16	1605.03
1026.449	1621.53
1026.739	1607.74
1027.029	1599.15
1027.319	1579.94
1027.608	1566.16
1027.898	1567.29
1028.187	1578.81
1028.477	1563.22
1028.766	1539.27
1029.055	1523
1029.344	1493.62
1029.634	1494.97
1029.923	1491.36
1030.212	1468.99
1030.501	1448.2
1030.79	1494.07
1031.078	1467.18
1031.367	1442.09
1031.656	1431.47
1031.945	1428.08
1032.233	1388.31
1032.522	1406.62
1032.81	1368.65
1033.099	1392.83
1033.387	1376.79
1033.675	1342.89
1033.963	1361.87
1034.251	1326.39
1034.54	1363.9
1034.828	1298.37
1035.116	1281.87
1035.403	1304.25
1035.691	1294.08
1035.979	1302.21
1036.267	1272.83
1036.554	1262.66
1036.842	1248.2
1037.129	1264.7
1037.417	1212.72
1037.704	1226.96
1037.992	1220.18
1038.279	1192.16
1038.566	1210.91
1038.853	1210.91
1039.14	1210.91
