Data from orange_diffuse_book_FLMS001491_00069.txt Node
Date: Wed Feb 08 15:29:54 GMT 2017
User: dcchb
Spectrometer: FLMS00149
Trigger mode: 0
Integration Time (sec): 2.000000E-2
Scans to average: 10
Electric dark correction enabled: true
Nonlinearity correction enabled: false
Boxcar width: 0
XAxis mode: Wavelengths
Number of Pixels in Spectrum: 2048
>>>>>Begin Spectral Data<<<<<
341.393	-7.95
341.776	-7.95
342.16	-7.95
342.543	-49.98
342.927	-62.64
343.31	-69.87
343.693	-81.17
344.077	-57.89
344.46	-46.14
344.843	-43.88
345.226	-47.72
345.61	-27.16
345.993	-19.93
346.376	0.41
346.759	9
347.142	29.11
347.525	54.65
347.908	36.79
348.291	72.05
348.674	82.67
349.057	109.11
349.44	161.31
349.823	139.16
350.206	180.29
350.588	221.65
350.971	241.53
351.354	241.99
351.737	260.52
352.119	263.23
352.502	280.63
352.884	288.31
353.267	304.58
353.65	309.1
354.032	314.75
354.414	352.26
354.797	356.11
355.179	325.6
355.562	345.71
355.944	346.39
356.326	361.98
356.709	355.43
357.091	351.81
357.473	344.13
357.855	376.9
358.238	363.11
358.62	358.82
359.002	345.71
359.384	380.06
359.766	369.67
360.148	364.02
360.53	366.73
360.912	360.63
361.294	366.05
361.676	361.98
362.057	354.98
362.439	359.72
362.821	340.74
363.203	372.15
363.584	342.77
363.966	366.95
364.348	353.85
364.729	348.88
365.111	324.47
365.493	351.36
365.874	343.9
366.256	339.84
366.637	340.97
367.019	337.58
367.4	336.9
367.781	346.16
368.163	340.06
368.544	337.12
368.925	321.76
369.306	345.03
369.688	328.08
370.069	323.56
370.45	309.1
370.831	347.75
371.212	321.08
371.593	326.05
371.974	325.82
372.355	340.97
372.736	329.44
373.117	343.45
373.498	326.05
373.879	356.11
374.26	338.25
374.641	347.29
375.021	331.93
375.402	341.42
375.783	340.74
376.163	337.12
376.544	352.04
376.925	334.86
377.305	346.84
377.686	350.91
378.066	355.43
378.447	326.5
378.827	337.58
379.208	347.97
379.588	337.12
379.968	347.97
380.349	337.12
380.729	343.68
381.109	363.34
381.489	358.59
381.87	383.9
382.25	379.38
382.63	365.6
383.01	368.08
383.39	353.39
383.77	368.54
384.15	366.5
384.53	366.5
384.91	353.85
385.29	370.34
385.67	367.41
386.049	372.83
386.429	371.47
386.809	362.21
387.189	363.34
387.568	378.7
387.948	374.19
388.328	377.12
388.707	364.92
389.087	394.07
389.466	390.68
389.846	366.05
390.225	367.63
390.605	387.29
390.984	381.87
391.363	390.23
391.743	405.37
392.122	402.21
392.501	383.68
392.881	410.57
393.26	395.88
393.639	383.68
394.018	415.99
394.397	376.22
394.776	390.46
395.155	392.72
395.534	397.91
395.913	410.12
396.292	408.53
396.671	409.44
397.05	411.25
397.429	406.05
397.808	411.02
398.186	405.37
398.565	432.49
398.944	414.86
399.323	430.91
399.701	405.6
400.08	397.46
400.458	422.77
400.837	436.1
401.215	431.58
401.594	420.06
401.972	434.52
402.351	443.11
402.729	427.07
403.107	438.59
403.486	430.68
403.864	414.64
404.242	430.68
404.62	435.88
404.999	445.14
405.377	438.82
405.755	439.27
406.133	442.88
406.511	462.54
406.889	449.66
407.267	459.61
407.645	470
408.023	460.96
408.401	454.18
408.779	457.12
409.156	479.49
409.534	465.03
409.912	483.33
410.29	491.24
410.667	503.9
411.045	480.4
411.422	477.01
411.8	477.23
412.178	484.01
412.555	485.37
412.933	493.96
413.31	496.22
413.687	523.11
414.065	527.4
414.442	521.75
414.819	518.81
415.197	533.5
415.574	531.24
415.951	520.62
416.328	554.29
416.705	560.17
417.082	509.32
417.46	537.57
417.837	547.06
418.214	531.7
418.591	553.39
418.967	581.86
419.344	561.75
419.721	560.85
420.098	562.43
420.475	558.81
420.852	574.86
421.228	584.12
421.605	577.34
421.982	552.26
422.358	570.11
422.735	597
423.111	589.32
423.488	596.1
423.864	599.04
424.241	617.57
424.617	613.5
424.994	610.79
425.37	596.33
425.746	623.9
426.123	589.55
426.499	624.12
426.875	629.32
427.251	620.28
427.627	626.38
428.003	650.34
428.379	652.82
428.756	647.17
429.132	651.47
429.507	658.7
429.883	668.64
430.259	680.84
430.635	677.23
431.011	675.65
431.387	680.84
431.763	708.64
432.138	705.48
432.514	691.46
432.89	722.2
433.265	729.66
433.641	709.77
434.016	709.32
434.392	723.33
434.767	746.15
435.143	739.15
435.518	755.42
435.894	769.43
436.269	762.88
436.644	775.3
437.02	762.2
437.395	742.99
437.77	795.19
438.145	785.47
438.52	811.01
438.895	806.04
439.271	804.46
439.646	817.79
440.021	801.74
440.395	822.31
440.77	827.05
441.145	833.61
441.52	814.4
441.895	839.26
442.27	826.15
442.645	837.22
443.019	855.08
443.394	847.17
443.769	857.56
444.143	849.65
444.518	888.52
444.892	868.86
445.267	850.33
445.641	876.09
446.016	867.51
446.39	897.11
446.764	858.24
447.139	900.95
447.513	904.57
447.887	911.8
448.262	879.48
448.636	895.3
449.01	926.94
449.384	901.63
449.758	917.45
450.132	923.55
450.506	956.77
450.88	922.87
451.254	917.67
451.628	919.71
452.002	945.24
452.376	959.25
452.75	931.46
453.123	951.57
453.497	973.94
453.871	992.02
454.244	1007.16
454.618	982.98
454.992	998.35
455.365	993.6
455.739	1036.31
456.112	1029.54
456.486	1033.6
456.859	1065.69
457.232	1046.71
457.606	1038.35
457.979	1062.3
458.352	1087.84
458.725	1079.48
459.099	1102.08
459.472	1094.39
459.845	1075.41
460.218	1111.34
460.591	1109.31
460.964	1117.44
461.337	1129.19
461.71	1160.15
462.083	1124.67
462.456	1145.01
462.829	1156.76
463.201	1192.02
463.574	1185.69
463.947	1177.55
464.32	1198.8
464.692	1221.62
465.065	1201.06
465.438	1221.39
465.81	1245.57
466.183	1246.93
466.555	1258
466.928	1267.95
467.3	1257.1
467.672	1292.58
468.045	1278.79
468.417	1319.24
468.789	1306.82
469.161	1317.66
469.534	1346.36
469.906	1359.47
470.278	1390.88
470.65	1382.75
471.022	1397.89
471.394	1436.53
471.766	1413.48
472.138	1416.19
472.51	1439.24
472.882	1437.66
473.253	1461.84
473.625	1504.32
473.997	1508.39
474.369	1548.84
474.74	1532.35
475.112	1563.31
475.484	1573.7
475.855	1609.86
476.227	1599.69
476.598	1627.03
476.97	1651.44
477.341	1672.46
477.713	1696.86
478.084	1676.3
478.455	1756.52
478.827	1783.87
479.198	1815.28
479.569	1789.97
479.94	1823.86
480.311	1843.07
480.682	1916.52
481.053	1923.97
481.424	1953.13
481.795	1978.44
482.166	1980.92
482.537	2024.76
482.908	2061.15
483.279	2084.42
483.65	2138.43
484.021	2144.99
484.391	2188.37
484.762	2202.16
485.133	2231.09
485.503	2263.17
485.874	2304.08
486.244	2287.58
486.615	2369.39
486.985	2410.74
487.356	2400.35
487.726	2446.22
488.097	2485.77
488.467	2507.91
488.837	2591.3
489.207	2568.93
489.578	2659.32
489.948	2627.01
490.318	2685.76
490.688	2704.97
491.058	2777.51
491.428	2791.97
491.798	2815.25
492.168	2848.24
492.538	2865.64
492.908	2954.68
493.278	2986.09
493.648	2991.52
494.017	3034
494.387	3051.4
494.757	3077.16
495.126	3129.59
495.496	3164.62
495.866	3189.7
496.235	3239.87
496.605	3271.96
496.974	3260.66
497.344	3347.89
497.713	3348.34
498.082	3389.92
498.452	3412.3
498.821	3431.96
499.19	3507.89
499.559	3496.14
499.928	3553.99
500.298	3551.95
500.667	3600.99
501.036	3638.28
501.405	3679.18
501.774	3687.54
502.143	3742.23
502.512	3753.53
502.88	3819.07
503.249	3789.24
503.618	3808.67
503.987	3845.05
504.356	3852.29
504.724	3929.35
505.093	3937.26
505.462	3968.89
505.83	4014.09
506.199	4008.21
506.567	4064.48
506.936	4063.81
507.304	4129.34
507.672	4169.34
508.041	4171.37
508.409	4237.59
508.777	4253.63
509.145	4261.54
509.514	4313.06
509.882	4320.75
510.25	4390.58
510.618	4395.77
510.986	4417.24
511.354	4458.37
511.722	4473.29
512.09	4516.9
512.458	4499.73
512.826	4583.57
513.193	4644.13
513.561	4599.84
513.929	4649.78
514.297	4685.71
514.664	4724.35
515.032	4763
515.4	4843.45
515.767	4809.1
516.135	4857.46
516.502	4890.68
516.869	4962.54
517.237	4959.38
517.604	4917.12
517.972	5000.96
518.339	5041.63
518.706	5081.18
519.073	5060.16
519.44	5112.37
519.808	5178.13
520.175	5198.01
520.542	5234.62
520.909	5244.79
521.276	5207.96
521.643	5324.56
522.009	5365.69
522.376	5362.3
522.743	5424.45
523.11	5437.55
523.477	5519.13
523.843	5584.44
524.21	5613.14
524.577	5655.85
524.943	5687.04
525.31	5720.49
525.676	5796.87
526.043	5789.41
526.409	5797.09
526.776	5852.23
527.142	5878
527.508	5929.29
527.874	5994.83
528.241	6013.13
528.607	6032.79
528.973	6071.66
529.339	6037.54
529.705	6089.06
530.071	6172.45
530.437	6256.52
530.803	6238.21
531.169	6334.93
531.535	6263.97
531.901	6324.54
532.267	6284.54
532.632	6397.08
532.998	6357.08
533.364	6440.92
533.73	6366.57
534.095	6490.18
534.461	6555.72
534.826	6571.99
535.192	6625.09
535.557	6609.05
535.923	6638.88
536.288	6627.35
536.653	6700.57
537.019	6637.75
537.384	6778.76
537.749	6762.72
538.114	6750.74
538.479	6745.54
538.845	6809.04
539.21	6864.86
539.575	6857.18
539.94	6913
540.305	6947.57
540.67	6963.84
541.034	7010.62
541.399	7039.09
541.764	7058.3
542.129	7077.29
542.494	7118.19
542.858	7125.19
543.223	7200.22
543.587	7301.69
543.952	7213.1
544.316	7268.24
544.681	7257.62
545.045	7333.55
545.41	7332.87
545.774	7413.55
546.138	7424.62
546.503	7494.45
546.867	7475.47
547.231	7588.91
547.595	7636.14
547.959	7586.88
548.324	7680.43
548.688	7669.13
549.052	7714.33
549.416	7724.95
549.779	7769.92
550.143	7782.35
550.507	7865.29
550.871	7895.57
551.235	7957.04
551.599	8022.12
551.962	8005.17
552.326	8090.59
552.689	8103.25
553.053	8108.22
553.417	8147.77
553.78	8281.1
554.143	8325.16
554.507	8314.77
554.87	8359.29
555.234	8462.56
555.597	8521.77
555.96	8530.35
556.323	8636.57
556.686	8660.29
557.05	8781.87
557.413	8723.34
557.776	8855.54
558.139	8885.6
558.502	8971.02
558.865	8954.07
559.228	9049.66
559.59	9090.11
559.953	9213.27
560.316	9296.44
560.679	9294.18
561.041	9518.58
561.404	9467.73
561.767	9615.98
562.129	9571.01
562.492	9795.86
562.854	9809.19
563.217	9854.84
563.579	9939.36
563.941	10081.05
564.304	10093.48
564.666	10279.91
565.028	10289.4
565.39	10388.61
565.753	10482.62
566.115	10595.39
566.477	10675.61
566.839	10865.89
567.201	10924.19
567.563	10969.61
567.925	11204.63
568.287	11197.18
568.648	11330.73
569.01	11473.1
569.372	11616.6
569.734	11680.78
570.095	11934.79
570.457	11984.5
570.819	12077.83
571.18	12243.93
571.542	12367.54
571.903	12564.6
572.265	12760.53
572.626	12889.11
572.987	13104.47
573.349	13255.43
573.71	13439.15
574.071	13668.07
574.432	13881.85
574.794	14083.88
575.155	14261.28
575.516	14411.33
575.877	14673.92
576.238	14853.13
576.599	15173.57
576.96	15187.13
577.32	15517.52
577.681	15772.65
578.042	16164.05
578.403	16331.05
578.763	16532.4
579.124	16840.87
579.485	17142.56
579.845	17596.56
580.206	17767.85
580.566	17951.8
580.927	18339.36
581.287	18665
581.648	18871.1
582.008	19267.93
582.368	19647.12
582.728	19977.29
583.089	20357.39
583.449	20650.26
583.809	20968.9
584.169	21335.44
584.529	21724.58
584.889	22254.74
585.249	22467.84
585.609	22826.48
585.969	23456.06
586.329	23552.56
586.688	24156.38
587.048	24659.65
587.408	24967.44
587.768	25396.8
588.127	25871.59
588.487	26175.54
588.846	26858.91
589.206	27076.08
589.565	27490.53
589.925	28131.2
590.284	28455.93
590.643	28914.45
591.003	29429.69
591.362	29854.09
591.721	30347.86
592.08	30777.23
592.44	31379.7
592.799	31828.95
593.158	32200.24
593.517	32811.98
593.876	33282.02
594.235	33709.58
594.593	34249.45
594.952	34566.96
595.311	35071.13
595.67	35639.7
596.029	36235.84
596.387	36603.51
596.746	37144.97
597.104	37341.57
597.463	37845.29
597.822	38606.17
598.18	38778.82
598.538	39154.63
598.897	40009.08
599.255	40092.01
599.613	40960.69
599.972	41142.38
600.33	41681.12
600.688	41801.12
601.046	42460.31
601.404	42954.53
601.762	43238.37
602.12	43768.75
602.478	44095.07
602.836	44603.76
603.194	44650.08
603.552	45242.84
603.91	45507.46
604.268	45729.83
604.625	46200.78
604.983	46535.68
605.341	46682.57
605.698	47179.96
606.056	47443
606.413	47744.01
606.771	48165.24
607.128	48298.35
607.485	48402.98
607.843	48680.71
608.2	49159.57
608.557	49344.2
608.914	49431.65
609.272	49943.5
609.629	50118.19
609.986	50355.47
610.343	50277.51
610.7	50921.33
611.057	50890.6
611.414	51017.83
611.771	51157.48
612.127	51495.33
612.484	51540.75
612.841	51742.1
613.198	51792.27
613.554	51911.81
613.911	52210.56
614.267	52296.44
614.624	52309.77
614.98	52557.67
615.337	52754.5
615.693	52834.27
616.05	52944.1
616.406	53181.38
616.762	53014.16
617.118	53187.71
617.475	53220.25
617.831	53435.61
618.187	53559.45
618.543	53592.9
618.899	53921.48
619.255	53865.43
619.611	53859.33
619.967	54041.25
620.323	54125.77
620.678	54050.06
621.034	54124.86
621.39	54098.2
621.746	54170.74
622.101	54458.64
622.457	54308.13
622.812	54424.06
623.168	54505.64
623.523	54526.89
623.879	54597.17
624.234	54531.41
624.589	54688.92
624.945	54727.33
625.3	54713.77
625.655	54685.53
626.01	54843.26
626.365	54833.32
626.72	54823.15
627.075	54808.23
627.43	54826.09
627.785	54865.63
628.14	54951.06
628.495	54978.63
628.85	54981.34
629.205	54869.7
629.559	55120.99
629.914	55006.42
630.269	55053.88
630.623	54977.5
630.978	54993.99
631.332	55168.45
631.687	55189.69
632.041	55078.51
632.396	55114.89
632.75	55017.95
633.104	55028.12
633.459	54880.32
633.813	54943.6
634.167	55001
634.521	54908.34
634.875	55030.83
635.229	54988.57
635.583	54925.75
635.937	54883.26
636.291	54874.45
636.645	54821.34
636.999	54842.13
637.352	54938.4
637.706	54734.79
638.06	54896.14
638.413	54830.15
638.767	54778.63
639.121	54808.01
639.474	54658.41
639.828	54689.37
640.181	54850.04
640.534	54742.25
640.888	54738.86
641.241	54648.69
641.594	54704.06
641.947	54709.25
642.301	54691.63
642.654	54742.7
643.007	54699.54
643.36	54745.64
643.713	54600.56
644.066	54726.65
644.419	54632.87
644.771	54400.11
645.124	54056.39
645.477	54065.88
645.83	53881.48
646.182	53891.87
646.535	53767.36
646.888	53883.06
647.24	53823.4
647.593	53905.43
647.945	53841.48
648.298	53598.1
648.65	53661.82
649.002	53589.06
649.355	53831.76
649.707	53556.06
650.059	53780.01
650.411	54105.2
650.763	54183.84
651.115	54412.99
651.467	54344.74
651.819	54288.02
652.171	54356.04
652.523	54278.76
652.875	54325.08
653.227	54227.68
653.578	54318.98
653.93	54298.42
654.282	54139.1
654.633	54155.37
654.985	54212.77
655.337	54199.66
655.688	54109.95
656.039	54290.96
656.391	53992.44
656.742	54131.42
657.094	54196.72
657.445	54271.75
657.796	54180.68
658.147	54146.56
658.498	54008.71
658.849	54155.37
659.2	54117.18
659.551	54038.76
659.902	54155.6
660.253	54040.8
660.604	54136.61
660.955	54045.32
661.306	54160.12
661.656	54029.05
662.007	54087.35
662.358	54121.25
662.708	54028.37
663.059	54031.76
663.409	53851.65
663.76	54112.66
664.11	54076.73
664.461	54099.78
664.811	54132.77
665.161	54086.9
665.511	53954.92
665.862	54018.65
666.212	54136.61
666.562	54097.74
666.912	54048.93
667.262	53961.48
667.612	54034.24
667.962	54024.98
668.312	53964.19
668.662	54085.09
669.011	54034.92
669.361	53886.22
669.711	53864.98
670.06	53792.22
670.41	53826.34
670.76	53815.72
671.109	53830.86
671.459	53797.87
671.808	53768.94
672.157	53792.67
672.507	53689.39
672.856	53696.62
673.205	53657.3
673.554	53701.14
673.904	53605.55
674.253	53748.83
674.602	53634.03
674.951	53296.64
675.3	53053.48
675.649	53531.43
675.998	53458.66
676.346	53529.4
676.695	53589.73
677.044	53361.27
677.393	53445.56
677.741	53436.52
678.09	53414.15
678.438	53342.96
678.787	53426.8
679.135	53371.89
679.484	53284.88
679.832	53226.58
680.181	53217.77
680.529	53240.37
680.877	53149.29
681.225	53087.6
681.573	53302.06
681.922	53067.04
682.27	53010.54
682.618	52965.8
682.966	52843.77
683.314	52966.47
683.661	52820.26
684.009	52688.97
684.357	52585.92
684.705	52537.33
685.053	52610.1
685.4	52649.19
685.748	52423.66
686.095	52512.7
686.443	52266.15
686.79	52318.13
687.138	52282.42
687.485	52340.05
687.832	52129.43
688.18	52206.49
688.527	52088.31
688.874	51983
689.221	52004.01
689.568	51841.08
689.915	51754.53
690.262	51842.44
690.609	51713.17
690.956	51604.93
691.303	51602.89
691.65	51399.28
691.997	51468.21
692.344	51245.84
692.69	51258.27
693.037	51168.1
693.383	50850.6
693.73	51004.27
694.077	50802.24
694.423	50789.58
694.769	50759.75
695.116	50608.8
695.462	50626.88
695.808	50444.05
696.155	50565.18
696.501	50194.57
696.847	50220.33
697.193	50011.52
697.539	50156.83
697.885	49916.84
698.231	49760.68
698.577	49717.75
698.923	49636.84
699.269	49523.63
699.614	49364.99
699.96	49438.88
700.306	49244.09
700.651	49056.52
700.997	48919.8
701.342	48957.09
701.688	48819.46
702.033	48672.35
702.379	48673.25
702.724	48533.6
703.069	48631.22
703.415	48304.22
703.76	48288.41
704.105	48209.31
704.45	48007.51
704.795	47801.86
705.14	47835.08
705.485	47853.16
705.83	47557.8
706.175	47587.41
706.52	47386.73
706.865	47343.35
707.209	47288.21
707.554	47012.73
707.899	47205.5
708.243	47041.43
708.588	46954.2
708.932	46596.02
709.277	46633.31
709.621	46689.8
709.966	46364.16
710.31	46325.52
710.654	46147.67
710.998	46241.45
711.342	46219.76
711.687	46104.96
712.031	45988.35
712.375	45707.23
712.719	45745.42
713.063	45868.13
713.407	46008.01
713.75	45589.95
714.094	45598.98
714.438	45353.79
714.782	45487.35
715.125	45361.02
715.469	45403.28
715.812	45129.84
716.156	44992.67
716.499	45035.61
716.843	45012.33
717.186	44821.15
717.53	45090.07
717.873	44992.45
718.216	44843.98
718.559	44627.48
718.902	44328.51
719.246	44538.9
719.589	44309.53
719.932	44145.01
720.275	44223.88
720.617	44300.04
720.96	44174.62
721.303	44187.95
721.646	44143.43
721.989	43793.61
722.331	43971.91
722.674	43973.94
723.016	43886.26
723.359	43768.07
723.701	43791.57
724.044	43462.32
724.386	43479.72
724.729	43551.35
725.071	43519.27
725.413	43483.33
725.755	43550
726.097	43202.44
726.439	42975.78
726.782	43060.75
727.124	43244.92
727.465	43024.14
727.807	43087.86
728.149	42994.76
728.491	42891.03
728.833	42972.84
729.175	42744.6
729.516	42776.01
729.858	42749.34
730.199	42767.42
730.541	42698.72
730.882	42655.33
731.224	42665.5
731.565	42461.89
731.906	42540.53
732.248	42516.35
732.589	42380.09
732.93	42240.88
733.271	42327.66
733.612	42185.74
733.953	42294.66
734.294	42025.52
734.635	41914.56
734.976	42154.1
735.317	41966.99
735.658	41825.75
735.999	41914.34
736.339	41880.89
736.68	41926.54
737.021	41818.52
737.361	41684.29
737.702	41830.27
738.042	41646.09
738.383	41631.18
738.723	41718.18
739.063	41421.02
739.404	41504.18
739.744	41431.41
740.084	41368.59
740.424	41447.68
740.764	41268.93
741.104	41478.87
741.444	41060.8
741.784	41137.86
742.124	41299.89
742.464	41084.3
742.804	41090.85
743.143	41015.83
743.483	41000.46
743.823	40821.48
744.162	40746.68
744.502	40912.55
744.841	40744.42
745.181	40861.03
745.52	40736.06
745.86	40759.56
746.199	40636.4
746.538	40410.87
746.877	40649.06
747.216	40558.44
747.556	40470.08
747.895	40635.05
748.234	40341.5
748.573	40225.11
748.911	40336.3
749.25	40223.31
749.589	40036.19
749.928	40082.29
750.267	40066.93
750.605	39894.95
750.944	39943.77
751.283	39875.29
751.621	39964.1
751.96	39593.94
752.298	39714.17
752.636	39711.68
752.975	39376.55
753.313	39406.83
753.651	39525.47
753.989	39303.78
754.327	39378.36
754.666	39118.03
755.004	39113.28
755.342	39003.45
755.679	39033.73
756.017	38812.72
756.355	39064.02
756.693	38812.04
757.031	38756.68
757.368	38499.96
757.706	38583.12
758.044	38385.84
758.381	38518.72
758.719	38371.6
759.056	38351.27
759.394	38119.41
759.731	37965.97
760.068	37981.33
760.405	37863.59
760.743	37623.6
761.08	37765.07
761.417	37405.75
761.754	37484.4
762.091	37411.4
762.428	37236.49
762.765	37067.46
763.102	37222.48
763.438	36935.71
763.775	36826.79
764.112	36909.72
764.449	36821.36
764.785	36621.14
765.122	36431.54
765.458	36228.61
765.795	36414.82
766.131	36304.31
766.467	36035.62
766.804	35910.43
767.14	35752.69
767.476	35766.7
767.812	35636.31
768.148	35671.34
768.485	35416.43
768.821	35309.54
769.157	35193.38
769.492	35059.83
769.828	34954.52
770.164	34813.96
770.5	34750.46
770.836	34653.96
771.171	34515.66
771.507	34567.41
771.842	34193.18
772.178	34215.78
772.513	34091.94
772.849	34074.54
773.184	33909.12
773.519	33814.21
773.855	33611.5
774.19	33521.56
774.525	33315.69
774.86	33418.51
775.195	33432.3
775.53	33277.5
775.865	32984.18
776.2	32737.85
776.535	32376.96
776.87	32627.12
777.205	32415.38
777.539	32498.09
777.874	32357.52
778.209	32030.08
778.543	32077.53
778.878	31794.6
779.212	31851.78
779.547	31717.54
779.881	31733.59
780.215	31454.05
780.55	31630.31
780.884	31327.04
781.218	31090.21
781.552	31214.5
781.886	30912.37
782.22	30831.46
782.554	30642.32
782.888	30473.73
783.222	30404.81
783.556	30278.03
783.889	30158.71
784.223	30037.81
784.557	29902.9
784.89	30034.2
785.224	29792.62
785.557	29739.74
785.891	29641.66
786.224	29538.16
786.558	29589.69
786.891	29187.44
787.224	29143.37
787.557	29165.52
787.891	29077.84
788.224	29078.97
788.557	28998.74
788.89	28820.67
789.223	28799.65
789.556	28584.97
789.888	28486.21
790.221	28488.7
790.554	28231.76
790.887	28259.33
791.219	28116.96
791.552	28060.46
791.884	27942.05
792.217	27870.86
792.549	27637.2
792.882	27624.32
793.214	27465.9
793.546	27384.32
793.879	27278.56
794.211	27192.69
794.543	27290.09
794.875	27053.71
795.207	27135.97
795.539	26977.78
795.871	27006.03
796.203	26702.31
796.535	26514.74
796.867	26517.23
797.198	26482.65
797.53	26530.11
797.862	26370.34
798.193	26297.35
798.525	26126.73
798.856	26104.36
799.188	25858.49
799.519	25889.45
799.85	25705.5
800.182	25638.83
800.513	25758.6
800.844	25404.94
801.175	25644.71
801.506	25475.45
801.837	25281.1
802.168	25350.7
802.499	25207.88
802.83	25049.92
803.161	24950.71
803.491	24960.21
803.822	24891.51
804.153	24835.91
804.483	24615.13
804.814	24653.55
805.145	24630.5
805.475	24577.62
805.805	24433.67
806.136	24487.9
806.466	24471.86
806.796	24417.62
807.126	24193.22
807.457	24014.47
807.787	24056.73
808.117	23997.29
808.447	23956.62
808.777	24060.79
809.107	23799.33
809.436	23858.77
809.766	23850.4
810.096	23658.54
810.426	23547.14
810.755	23637.53
811.085	23515.27
811.414	23546.68
811.744	23330.87
812.073	23380.13
812.403	23371.55
812.732	23168.39
813.061	23102.63
813.39	22961.61
813.719	22850.66
814.049	22981.5
814.378	22781.05
814.707	22823.09
815.036	22814.27
815.365	22679.59
815.693	22471.91
816.022	22463.77
816.351	22348.52
816.68	22288.64
817.008	22324.79
817.337	22093.84
817.665	22159.83
817.994	22226.94
818.322	22152.82
818.651	22028.53
818.979	21896.78
819.307	22115.31
819.636	21928.87
819.964	21795.99
820.292	21834.19
820.62	21748.31
820.948	21737.92
821.276	21858.59
821.604	21762.1
821.932	21859.95
822.259	21799.38
822.587	21748.09
822.915	21700.4
823.243	21691.59
823.57	21674.87
823.898	21654.98
824.225	21735.43
824.553	21650.46
824.88	21727.07
825.207	21759.84
825.535	21636
825.862	21802.77
826.189	21652.72
826.516	21760.52
826.843	21758.93
827.17	21831.47
827.497	21751.93
827.824	21772.94
828.151	21787.41
828.478	21775.88
828.805	21676.68
829.131	21631.25
829.458	21555.78
829.785	21473.97
830.111	21617.69
830.438	21727.3
830.764	21677.35
831.09	21731.82
831.417	21604.14
831.743	21639.39
832.069	21641.42
832.395	21504.25
832.722	21552.61
833.048	21492.73
833.374	21498.38
833.7	21370.7
834.026	21398.04
834.351	21361.2
834.677	21407.08
835.003	21550.35
835.329	21361.66
835.654	21297.7
835.98	21315.78
836.306	21297.93
836.631	21216.8
836.956	21292.51
837.282	21290.47
837.607	21113.98
837.932	21084.83
838.258	21061.1
838.583	21033.08
838.908	20981.78
839.233	21051.38
839.558	20923.02
839.883	20804.61
840.208	20768.9
840.533	20872.4
840.858	20757.83
841.182	20760.54
841.507	20855.91
841.832	20650.26
842.156	20672.18
842.481	20670.83
842.805	20504.96
843.13	20479.19
843.454	20521.23
843.778	20398.74
844.103	20364.62
844.427	20351.06
844.751	20322.59
845.075	20267
845.399	20236.71
845.723	20025.42
846.047	20043.05
846.371	19889.15
846.695	20013.89
847.019	19731.64
847.343	19703.62
847.666	19539.56
847.99	19611.65
848.313	19590.85
848.637	19438.09
848.96	19496.17
849.284	19248.27
849.607	19214.37
849.931	19111.32
850.254	19049.63
850.577	18882.85
850.9	18739.13
851.223	18799.46
851.546	18574.84
851.869	18518.79
852.192	18613.48
852.515	18534.39
852.838	18382.75
853.161	18379.59
853.483	18301.17
853.806	18184.79
854.129	18123.55
854.451	18098.01
854.774	18008.98
855.096	17929.88
855.419	17923.1
855.741	17864.35
856.063	17752.26
856.385	17799.94
856.708	17588.87
857.03	17579.16
857.352	17604.92
857.674	17505.03
857.996	17374.87
858.318	17415.09
858.64	17363.12
858.961	17338.26
859.283	17249.67
859.605	17138.94
859.926	17212.84
860.248	17052.62
860.57	17009.91
860.891	17168.09
861.212	17101.88
861.534	16964.94
861.855	16958.38
862.176	16907.08
862.498	16848.1
862.819	16872.96
863.14	16769.46
863.461	16649.92
863.782	16775.56
864.103	16754.55
864.424	16670.71
864.745	16750.25
865.065	16601.78
865.386	16562.91
865.707	16454.44
866.027	16517.72
866.348	16503.7
866.668	16398.85
866.989	16433.88
867.309	16377.61
867.63	16450.15
867.95	16403.82
868.27	16263.26
868.59	16337.61
868.91	16204.5
869.23	16134
869.55	16109.36
869.87	16164.73
870.19	16102.59
870.51	16154.56
870.83	16126.09
871.15	16048.12
871.469	15990.27
871.789	16060.33
872.109	15958.18
872.428	15873.89
872.748	15968.8
873.067	15927
873.386	15863.72
873.706	15912.53
874.025	15768.13
874.344	15763.38
874.663	15800.22
874.982	15586.44
875.301	15738.07
875.62	15650.85
875.939	15569.49
876.258	15665.76
876.577	15552.32
876.896	15599.77
877.214	15530.4
877.533	15456.05
877.852	15487.46
878.17	15472.09
878.489	15410.17
878.807	15445.43
879.125	15399.1
879.444	15373.56
879.762	15342.38
880.08	15313.68
880.398	15229.39
880.716	15194.13
881.034	15279.56
881.352	15196.62
881.67	15160.69
881.988	15149.16
882.306	15118.88
882.624	15045.44
882.941	15036.85
883.259	14941.26
883.577	14934.03
883.894	14847.25
884.212	14933.8
884.529	14950.3
884.846	14882.73
885.164	14887.02
885.481	14680.25
885.798	14770.42
886.115	14536.52
886.432	14628.05
886.75	14613.13
887.067	14655.62
887.383	14454.04
887.7	14627.6
888.017	14588.95
888.334	14489.52
888.651	14350.54
888.967	14411.78
889.284	14342.86
889.6	14305.8
889.917	14251.33
890.233	14166.14
890.55	14192.58
890.866	14139.7
891.182	14046.59
891.498	14058.57
891.815	14003.21
892.131	13953.04
892.447	13832.81
892.763	13917.78
893.079	13805.24
893.395	13812.48
893.71	13751.69
894.026	13630.33
894.342	13650.9
894.657	13598.92
894.973	13552.14
895.289	13596.89
895.604	13588.07
895.92	13414.07
896.235	13312.6
896.55	13362.09
896.865	13386.05
897.181	13255.43
897.496	13219.95
897.811	13191.25
898.126	13128.65
898.441	13018.37
898.756	13049.33
899.071	13040.29
899.386	12921.65
899.7	12834.2
900.015	12837.36
900.33	12651.6
900.644	12702.45
900.959	12722.56
901.273	12692.51
901.588	12583.36
901.902	12563.47
902.216	12466.52
902.531	12468.56
902.845	12425.85
903.159	12282.35
903.473	12282.35
903.787	12232.18
904.101	12198.51
904.415	12173.2
904.729	12168.9
905.042	12102.24
905.356	12045.06
905.67	11999.87
905.984	11990.15
906.297	11922.58
906.611	11882.36
906.924	11874.22
907.237	11763.26
907.551	11736.6
907.864	11702.93
908.177	11695.47
908.491	11591.07
908.804	11588.58
909.117	11564.63
909.43	11512.65
909.743	11452.31
910.056	11422.03
910.368	11353.11
910.681	11265.65
910.994	11188.82
911.307	11168.03
911.619	11143.39
911.932	11121.7
912.244	11029.27
912.557	10998.76
912.869	10880.8
913.181	10914.7
913.494	10891.2
913.806	10729.17
914.118	10741.37
914.43	10668.6
914.742	10657.98
915.054	10640.36
915.366	10547.25
915.678	10512
915.99	10486.01
916.302	10420.47
916.613	10428.61
916.925	10428.61
917.236	10391.32
917.548	10242.63
917.859	10237.2
918.171	10193.59
918.482	10184.55
918.794	10050.31
919.105	10084.44
919.416	9940.26
919.727	9956.08
920.038	9940.94
920.349	9836.31
920.66	9823.43
920.971	9830.66
921.282	9822.98
921.593	9731.68
921.903	9662.53
922.214	9615.07
922.525	9612.59
922.835	9522.42
923.146	9506.15
923.456	9477.22
923.767	9429.09
924.077	9451.01
924.387	9338.02
924.697	9304.12
925.008	9226.38
925.318	9222.77
925.628	9192.03
925.938	9154.52
926.248	9079.49
926.558	9022.09
926.867	9023.9
927.177	9077.01
927.487	9008.99
927.796	8895.32
928.106	8877.46
928.416	8783.68
928.725	8822.55
929.034	8727.19
929.344	8723.8
929.653	8674.31
929.962	8667.07
930.271	8594.99
930.581	8580.97
930.89	8563.57
931.199	8538.72
931.508	8458.49
931.817	8461.43
932.125	8423.01
932.434	8403.58
932.743	8301.89
933.051	8263.47
933.36	8247.65
933.669	8171.27
933.977	8141.66
934.286	8093.53
934.594	8084.26
934.902	8054.89
935.21	8030.93
935.519	7967.88
935.827	7988
936.135	7931.05
936.443	7851.73
936.751	7871.16
937.059	7810.15
937.367	7709.13
937.674	7736.48
937.982	7691.05
938.29	7649.7
938.597	7698.96
938.905	7568.8
939.213	7501.23
939.52	7472.53
939.827	7498.74
940.135	7441.34
940.442	7381.23
940.749	7414.45
941.056	7410.16
941.363	7333.1
941.67	7274.12
941.977	7230.5
942.284	7235.93
942.591	7156.15
942.898	7147.11
943.205	7152.09
943.511	7115.7
943.818	7128.81
944.125	7080
944.431	7025.99
944.738	6993.22
945.044	6971.07
945.35	6964.97
945.657	6872.55
945.963	6856.27
946.269	6833.9
946.575	6788.71
946.881	6778.08
947.187	6743.06
947.493	6655.6
947.799	6756.62
948.105	6632.1
948.41	6635.72
948.716	6607.69
949.022	6575.38
949.327	6582.61
949.633	6484.31
949.938	6476.17
950.244	6448.6
950.549	6393.01
950.854	6350.07
951.16	6357.76
951.465	6350.3
951.77	6288.38
952.075	6308.27
952.38	6282.05
952.685	6207.93
952.99	6170.42
953.294	6203.64
953.599	6160.93
953.904	6121.15
954.209	6052.23
954.513	6100.14
954.818	6014.26
955.122	5997.31
955.426	5974.49
955.731	5894.94
956.035	5910.31
956.339	5870.31
956.643	5917.99
956.948	5867.37
957.252	5853.59
957.556	5802.52
957.86	5786.7
958.163	5762.07
958.467	5725.91
958.771	5699.24
959.075	5711.67
959.378	5691.79
959.682	5614.05
959.985	5661.28
960.289	5559.81
960.592	5581.96
960.896	5509.64
961.199	5492.69
961.502	5471.45
961.805	5470.1
962.108	5424.67
962.411	5438.23
962.714	5363.88
963.017	5306.03
963.32	5353.26
963.623	5311.23
963.926	5298.12
964.228	5320.04
964.531	5256.77
964.833	5261.29
965.136	5115.76
965.438	5148.3
965.741	5104.91
966.043	5132.03
966.345	5085.02
966.648	5071.46
966.95	5074.85
967.252	5026.04
967.554	5030.79
967.856	4971.13
968.158	4945.82
968.46	4906.5
968.761	4864.91
969.063	4918.7
969.365	4897.23
969.666	4795.31
969.968	4778.36
970.269	4835.54
970.571	4819.27
970.872	4786.27
971.174	4756.89
971.475	4724.81
971.776	4719.61
972.077	4662.21
972.378	4692.94
972.679	4644.58
972.98	4626.95
973.281	4602.55
973.582	4581.53
973.883	4549.44
974.183	4530.69
974.484	4514.64
974.785	4515.09
975.085	4461.08
975.386	4469.22
975.686	4436.68
975.986	4453.63
976.287	4462.44
976.587	4362.33
976.887	4319.84
977.187	4342.22
977.487	4292.73
977.787	4292.5
978.087	4299.73
978.387	4262.9
978.687	4289.56
978.987	4251.15
979.286	4193.52
979.586	4162.33
979.885	4177.7
980.185	4120.08
980.484	4189.23
980.784	4080.98
981.083	4105.84
981.382	4084.6
981.682	4057.93
981.981	4011.6
982.28	4040.53
982.579	3999.4
982.878	3988.78
983.177	3934.77
983.475	3953.53
983.774	3903.36
984.073	3919.63
984.372	3833.53
984.67	3864.49
984.969	3877.14
985.267	3862
985.566	3788.33
985.864	3811.38
986.162	3777.94
986.461	3743.59
986.759	3761.21
987.057	3697.49
987.355	3655.23
987.653	3701.1
987.951	3671.27
988.249	3628.56
988.547	3634.66
988.844	3586.76
989.142	3634.66
989.44	3585.4
989.737	3550.37
990.035	3539.75
990.332	3562.12
990.63	3522.58
990.927	3513.54
991.224	3500.2
991.521	3469.02
991.819	3464.5
992.116	3419.98
992.413	3434.9
992.71	3388.57
993.006	3387.21
993.303	3331.62
993.6	3346.99
993.897	3321.9
994.193	3298.18
994.49	3284.17
994.787	3253.43
995.083	3250.27
995.379	3214.56
995.676	3242.36
995.972	3230.38
996.268	3218.86
996.565	3162.13
996.861	3182.25
997.157	3135.69
997.453	3149.93
997.749	3112.87
998.044	3102.7
998.34	3086.88
998.636	3101.35
998.932	3052.98
999.227	3023.38
999.523	3061.12
999.818	2963.04
1000.114	2991.29
1000.409	2958.98
1000.704	2987.22
1001	2929.82
1001.295	2943.16
1001.59	2915.36
1001.885	2914.91
1002.18	2899.32
1002.475	2861.13
1002.77	2822.03
1003.065	2856.38
1003.359	2810.73
1003.654	2810.51
1003.949	2789.71
1004.243	2770.96
1004.538	2726.44
1004.832	2740.68
1005.127	2721.69
1005.421	2718.3
1005.715	2704.07
1006.009	2698.42
1006.304	2654.58
1006.598	2644.18
1006.892	2618.87
1007.186	2606.44
1007.48	2641.02
1007.773	2564.18
1008.067	2592.66
1008.361	2528.48
1008.655	2530.74
1008.948	2511.3
1009.242	2519.21
1009.535	2516.73
1009.829	2497.07
1010.122	2461.81
1010.415	2438.31
1010.708	2450.74
1011.001	2444.87
1011.295	2425.2
1011.588	2411.87
1011.881	2380.69
1012.173	2338.65
1012.466	2318.54
1012.759	2328.71
1013.052	2316.28
1013.344	2320.57
1013.637	2306.79
1013.93	2268.15
1014.222	2285.77
1014.514	2246.68
1014.807	2259.11
1015.099	2211.2
1015.391	2176.85
1015.683	2190.18
1015.976	2199.45
1016.268	2162.16
1016.56	2158.32
1016.851	2136.4
1017.143	2110.64
1017.435	2109.28
1017.727	2061.6
1018.018	2093.69
1018.31	2067.47
1018.602	2050.98
1018.893	2064.99
1019.185	2026.35
1019.476	2031.99
1019.767	2004.42
1020.058	1990.41
1020.35	1963.3
1020.641	1957.19
1020.932	1936.4
1021.223	1920.13
1021.514	1887.59
1021.804	1911.77
1022.095	1853.92
1022.386	1876.29
1022.677	1841.27
1022.967	1863.41
1023.258	1832.68
1023.548	1841.49
1023.839	1792
1024.129	1818.67
1024.419	1773.47
1024.709	1773.02
1025	1760.36
1025.29	1739.12
1025.58	1728.05
1025.87	1718.56
1026.16	1713.13
1026.449	1713.81
1026.739	1683.76
1027.029	1662.74
1027.319	1670.87
1027.608	1655.96
1027.898	1640.37
1028.187	1631.55
1028.477	1627.03
1028.766	1606.02
1029.055	1594.27
1029.344	1599.69
1029.634	1590.42
1029.923	1567.83
1030.212	1557.66
1030.501	1556.75
1030.79	1511.33
1031.078	1537.77
1031.367	1520.6
1031.656	1502.97
1031.945	1505.91
1032.233	1487.83
1032.522	1478.34
1032.81	1454.38
1033.099	1454.16
1033.387	1448.51
1033.675	1441.95
1033.963	1425.91
1034.251	1379.81
1034.54	1405.34
1034.828	1394.5
1035.116	1387.27
1035.403	1348.17
1035.691	1328.28
1035.979	1356.31
1036.267	1327.38
1036.554	1342.07
1036.842	1315.63
1037.129	1319.02
1037.417	1295.06
1037.704	1263.43
1037.992	1248.74
1038.279	1275.86
1038.566	1269.08
1038.853	1269.08
1039.14	1269.08
