Data from orange_diffuse_book_FLMS001491_00009.txt Node
Date: Wed Feb 08 15:29:03 GMT 2017
User: dcchb
Spectrometer: FLMS00149
Trigger mode: 0
Integration Time (sec): 2.000000E-2
Scans to average: 10
Electric dark correction enabled: true
Nonlinearity correction enabled: false
Boxcar width: 0
XAxis mode: Wavelengths
Number of Pixels in Spectrum: 2048
>>>>>Begin Spectral Data<<<<<
341.393	-0.3
341.776	-0.3
342.16	-0.3
342.543	-66.28
342.927	-63.8
343.31	-62.89
343.693	-63.12
344.077	-49.33
344.46	-65.15
344.843	-51.82
345.226	-44.14
345.61	-34.87
345.993	-22.22
346.376	-8.66
346.759	45.8
347.142	21.85
347.525	40.15
347.908	47.84
348.291	85.12
348.674	81.06
349.057	80.38
349.44	129.42
349.823	160.38
350.206	155.18
350.588	192.24
350.971	227.27
351.354	231.79
351.737	258.45
352.119	280.6
352.502	274.72
352.884	287.38
353.267	291
353.65	323.76
354.032	303.2
354.414	317.89
354.797	310.2
355.179	327.38
355.562	334.61
355.944	332.58
356.326	341.84
356.709	365.12
357.091	340.03
357.473	353.82
357.855	344.33
358.238	349.98
358.62	340.49
359.002	347.94
359.384	348.85
359.766	341.39
360.148	358.56
360.53	340.26
360.912	340.26
361.294	354.27
361.676	323.08
362.057	354.5
362.439	361.5
362.821	326.93
363.203	334.84
363.584	343.2
363.966	325.8
364.348	336.42
364.729	333.03
365.111	338.23
365.493	346.81
365.874	320.6
366.256	335.29
366.637	321.73
367.019	320.15
367.4	315.85
367.781	311.56
368.163	311.33
368.544	333.25
368.925	333.48
369.306	356.76
369.688	336.87
370.069	310.88
370.45	322.41
370.831	320.37
371.212	327.83
371.593	310.66
371.974	331.9
372.355	330.99
372.736	334.61
373.117	312.01
373.498	340.49
373.879	334.38
374.26	317.89
374.641	321.95
375.021	326.47
375.402	351.11
375.783	361.05
376.163	337.77
376.544	330.09
376.925	324.67
377.305	330.99
377.686	334.16
378.066	328.51
378.447	347.49
378.827	348.39
379.208	344.1
379.588	336.42
379.968	346.59
380.349	324.21
380.729	332.12
381.109	356.98
381.489	338.9
381.87	340.26
382.25	348.17
382.63	359.69
383.01	347.94
383.39	359.47
383.77	345.01
384.15	363.08
384.53	370.99
384.91	358.11
385.29	379.81
385.67	368.73
386.049	375.51
386.429	378
386.809	371.67
387.189	371.67
387.568	381.16
387.948	382.97
388.328	371.45
388.707	389.07
389.087	384.33
389.466	380.03
389.846	373.48
390.225	374.61
390.605	393.37
390.984	390.88
391.363	373.7
391.743	382.74
392.122	401.05
392.501	388.39
392.881	398.34
393.26	385.91
393.639	380.48
394.018	410.31
394.397	405.12
394.776	396.76
395.155	409.18
395.534	411.9
395.913	410.31
396.292	420.71
396.671	405.12
397.05	412.8
397.429	413.93
397.808	408.96
398.186	420.03
398.565	407.83
398.944	423.2
399.323	418.22
399.701	418
400.08	421.84
400.458	389.3
400.837	396.53
401.215	403.31
401.594	442.18
401.972	428.62
402.351	440.82
402.729	434.95
403.107	432.01
403.486	437.21
403.864	444.21
404.242	440.14
404.62	447.15
404.999	452.35
405.377	447.6
405.755	447.38
406.133	447.15
406.511	472.23
406.889	446.25
407.267	444.44
407.645	455.51
408.023	467.94
408.401	473.14
408.779	449.18
409.156	465.23
409.534	474.95
409.912	469.52
410.29	493.48
410.667	486.24
411.045	495.28
411.422	491.89
411.8	493.02
412.178	480.14
412.555	480.37
412.933	492.12
413.31	494.83
413.687	513.59
414.065	507.26
414.442	519.92
414.819	528.5
415.197	518.56
415.574	549.97
415.951	526.47
416.328	530.08
416.705	528.96
417.082	537.32
417.46	537.32
417.837	549.52
418.214	532.8
418.591	580.93
418.967	569.41
419.344	563.08
419.721	594.04
420.098	560.82
420.475	569.18
420.852	580.93
421.228	588.39
421.605	597.65
421.982	588.61
422.358	594.49
422.735	604.43
423.111	625.45
423.488	621.83
423.864	602.17
424.241	603.98
424.617	635.62
424.994	600.82
425.37	640.82
425.746	634.94
426.123	614.83
426.499	620.03
426.875	642.4
427.251	647.14
427.627	668.84
428.003	660.7
428.379	661.61
428.756	683.98
429.132	674.71
429.507	690.53
429.883	677.88
430.259	696.41
430.635	696.63
431.011	712.68
431.387	712
431.763	703.41
432.138	729.85
432.514	731.89
432.89	747.71
433.265	740.25
433.641	752.68
434.016	754.03
434.392	757.42
434.767	766.01
435.143	773.92
435.518	792.45
435.894	782.28
436.269	781.6
436.644	772.34
437.02	787.48
437.395	814.82
437.77	824.77
438.145	812.79
438.52	813.02
438.895	830.42
439.271	818.89
439.646	816.86
440.021	851.88
440.395	836.52
440.77	868.61
441.145	866.35
441.52	840.59
441.895	856.4
442.27	854.6
442.645	846.46
443.019	883.3
443.394	866.35
443.769	920.36
444.143	891.21
444.518	873.13
444.892	889.62
445.267	909.51
445.641	885.56
446.016	917.42
446.39	924.65
446.764	926.91
447.139	942.96
447.513	948.83
447.887	934.82
448.262	933.01
448.636	941.37
449.01	937.53
449.384	942.28
449.758	968.94
450.132	958.1
450.506	984.76
450.88	966.23
451.254	995.84
451.628	989.28
452.002	1024.31
452.376	1001.26
452.75	977.08
453.123	1027.25
453.497	1010.3
453.871	1021.15
454.244	1068.15
454.618	1047.36
454.992	1067.7
455.365	1055.04
455.739	1090.75
456.112	1085.32
456.486	1104.99
456.859	1096.17
457.232	1101.82
457.606	1103.86
457.979	1146.57
458.352	1139.11
458.725	1142.5
459.099	1153.8
459.472	1168.49
459.845	1168.26
460.218	1184.31
460.591	1218.43
460.964	1203.06
461.337	1232.21
461.71	1237.41
462.083	1241.25
462.456	1262.95
462.829	1243.29
463.201	1250.97
463.574	1282.16
463.947	1254.59
464.32	1288.03
464.692	1323.51
465.065	1309.73
465.438	1300.46
465.81	1325.77
466.183	1349.27
466.555	1358.31
466.928	1354.24
467.3	1388.82
467.672	1368.48
468.045	1417.75
468.417	1417.97
468.789	1441.02
469.161	1448.03
469.534	1452.55
469.906	1476.95
470.278	1483.96
470.65	1510.85
471.022	1523.51
471.394	1570.74
471.766	1554.01
472.138	1552.43
472.51	1600.79
472.882	1592.88
473.253	1620.23
473.625	1647.12
473.997	1683.95
474.369	1669.72
474.74	1682.15
475.112	1714.69
475.484	1715.36
475.855	1780
476.227	1792.2
476.598	1804.85
476.97	1820.22
477.341	1876.04
477.713	1904.29
478.084	1900.22
478.455	1972.08
478.827	1932.99
479.198	1990.39
479.569	2025.19
479.94	2058.86
480.311	2056.37
480.682	2104.51
481.053	2144.96
481.424	2225.86
481.795	2208.01
482.166	2246.42
482.537	2236.03
482.908	2284.84
483.279	2347.89
483.65	2388.12
484.021	2414.56
484.391	2438.96
484.762	2426.53
485.133	2483.93
485.503	2505.4
485.874	2553.08
486.244	2617.71
486.615	2620.65
486.985	2676.7
487.356	2697.49
487.726	2713.3
488.097	2782.91
488.467	2849.12
488.837	2849.35
489.207	2920.76
489.578	2931.83
489.948	2971.6
490.318	3013.41
490.688	3014.31
491.058	3080.07
491.428	3112.84
491.798	3151.71
492.168	3210.24
492.538	3240.75
492.908	3264.02
493.278	3293.18
493.648	3323.23
494.017	3425.38
494.387	3434.87
494.757	3429.44
495.126	3458.6
495.496	3508.31
495.866	3569.55
496.235	3620.63
496.605	3649.32
496.974	3658.59
497.344	3664.92
497.713	3716.89
498.082	3782.65
498.452	3814.07
498.821	3779.94
499.19	3864.69
499.559	3917.11
499.928	3937.9
500.298	3993.04
500.667	4001.63
501.036	4020.39
501.405	4087.28
501.774	4080.5
502.143	4093.38
502.512	4179.48
502.88	4182.42
503.249	4207.95
503.618	4198.01
503.987	4246.6
504.356	4301.51
504.724	4299.03
505.093	4355.52
505.462	4318.01
505.83	4378.8
506.199	4466.48
506.567	4484.78
506.936	4480.49
507.304	4534.73
507.672	4600.03
508.041	4664.89
508.409	4680.03
508.777	4717.55
509.145	4701.5
509.514	4727.71
509.882	4783.76
510.25	4814.49
510.618	4798.9
510.986	4883.19
511.354	4909.86
511.722	4930.42
512.09	4974.26
512.458	5012.68
512.826	5045.45
513.193	5093.58
513.561	5112.79
513.929	5175.61
514.297	5201.83
514.664	5243.18
515.032	5248.6
515.4	5243.63
515.767	5321.37
516.135	5374.25
516.502	5370.86
516.869	5413.57
517.237	5444.76
517.604	5407.47
517.972	5547.13
518.339	5570.4
518.706	5636.17
519.073	5616.5
519.44	5674.81
519.808	5727.24
520.175	5705.32
520.542	5824.18
520.909	5804.3
521.276	5789.16
521.643	5898.76
522.009	5968.13
522.376	5993.22
522.743	6037.06
523.11	6071.86
523.477	6141.01
523.843	6175.13
524.21	6180.56
524.577	6238.18
524.943	6295.36
525.31	6369.48
525.676	6369.48
526.043	6422.59
526.409	6436.37
526.776	6569.7
527.142	6560.89
527.508	6519.08
527.874	6675.69
528.241	6633.65
528.607	6666.19
528.973	6766.53
529.339	6724.5
529.705	6774.89
530.071	6871.39
530.437	6937.83
530.803	6943.48
531.169	7025.96
531.535	6951.16
531.901	6983.02
532.267	7032.74
532.632	7099.86
532.998	7108.44
533.364	7165.39
533.73	7157.48
534.095	7234.77
534.461	7333.52
534.826	7317.25
535.192	7276.12
535.557	7380.53
535.923	7364.03
536.288	7410.81
536.653	7500.07
537.019	7489
537.384	7465.04
537.749	7466.17
538.114	7543.69
538.479	7583.46
538.845	7568.09
539.21	7628.2
539.575	7667.3
539.94	7680.41
540.305	7722.66
540.67	7771.93
541.034	7788.43
541.399	7822.77
541.764	7917.69
542.129	7891.93
542.494	7934.18
542.858	7965.14
543.223	7995.43
543.587	8001.53
543.952	8005.37
544.316	8092.82
544.681	8108.87
545.045	8200.17
545.41	8211.24
545.774	8273.61
546.138	8213.5
546.503	8287.62
546.867	8285.59
547.231	8406.04
547.595	8395.41
547.959	8414.4
548.324	8502.3
548.688	8537.78
549.052	8548.41
549.416	8571.68
549.779	8630.89
550.143	8648.74
550.507	8690.55
550.871	8796.99
551.235	8724.67
551.599	8785.24
551.962	8839.47
552.326	8933.71
552.689	8955.4
553.053	8940.71
553.417	8956.53
553.78	9147.94
554.143	9081.5
554.507	9253.47
554.87	9237.88
555.234	9380.93
555.597	9340.93
555.96	9415.73
556.323	9483.97
556.686	9486.23
557.05	9613.46
557.413	9596.29
557.776	9631.77
558.139	9772.33
558.502	9756.51
558.865	9836.73
559.228	9885.77
559.59	9910.4
559.953	9995.15
560.316	10144.97
560.679	10172.54
561.041	10250.06
561.404	10378.64
561.767	10438.07
562.129	10470.84
562.492	10614.79
562.854	10659.99
563.217	10702.7
563.579	10708.12
563.941	10806.65
564.304	11025.18
564.666	11106.3
565.028	11138.85
565.39	11244.15
565.753	11322.12
566.115	11415.9
566.477	11556.46
566.839	11591.71
567.201	11774.08
567.563	11778.83
567.925	11993.06
568.287	12037.8
568.648	12129.33
569.01	12293.84
569.372	12490.45
569.734	12520.5
570.095	12657.9
570.457	12746.49
570.819	12920.27
571.18	13036.87
571.542	13109.87
571.903	13260.82
572.265	13424.44
572.626	13593.7
572.987	13808.83
573.349	13994.36
573.71	14099.67
574.071	14281.14
574.432	14494.46
574.794	14736.49
575.155	14827.79
575.516	15004.28
575.877	15277.72
576.238	15383.25
576.599	15632.74
576.96	15820.3
577.32	16019.62
577.681	16266.39
578.042	16509.1
578.403	16649.21
578.763	16927.62
579.124	17256.2
579.485	17535.29
579.845	17859.12
580.206	17935.5
580.566	18344.98
580.927	18630.63
581.287	18814.8
581.648	19144.96
582.008	19466.54
582.368	19709.92
582.728	19971.38
583.089	20313.29
583.449	20506.51
583.809	20853.39
584.169	21229.2
584.529	21511.91
584.889	22097.2
585.249	22328.38
585.609	22555.27
585.969	23061.02
586.329	23348.47
586.688	23831.17
587.048	24068
587.408	24571.71
587.768	24799.28
588.127	25179.38
588.487	25525.81
588.846	26052.13
589.206	26351.55
589.565	26776.63
589.925	27366.22
590.284	27637.85
590.643	28132.3
591.003	28457.71
591.362	29014.08
591.721	29315.09
592.08	29745.36
592.44	30236.2
592.799	30700.59
593.158	31081.15
593.517	31437.97
593.876	32040.89
594.235	32316.37
594.593	32794.1
594.952	33363.12
595.311	33643.56
595.67	34012.14
596.029	34680.6
596.387	35134.37
596.746	35702.95
597.104	35914.24
597.463	36346.32
597.822	36813.65
598.18	37113.08
598.538	37530.92
598.897	38159.38
599.255	38299.49
599.613	39069.64
599.972	39140.14
600.33	39634.14
600.688	39999.1
601.046	40405.42
601.404	41002.24
601.762	41274.55
602.12	41762.45
602.478	42127.86
602.836	42539.15
603.194	42576.21
603.552	43044.22
603.91	43144.56
604.268	43848.04
604.625	44008.26
604.983	44398.99
605.341	44458.2
605.698	45102.7
606.056	45516.7
606.413	45587.88
606.771	46040.53
607.128	46287.98
607.485	46304.02
607.843	46665.82
608.2	47019.71
608.557	47373.37
608.914	47538.79
609.272	47829.63
609.629	48064.2
609.986	48438.66
610.343	48327.92
610.7	48920.23
611.057	48920
611.414	49074.12
611.771	49211.52
612.127	49542.58
612.484	49660.54
612.841	49950.93
613.198	49952.51
613.554	50150.7
613.911	50389.11
614.267	50480.64
614.624	50490.81
614.98	50735.09
615.337	50960.62
615.693	51065.03
616.05	51116.78
616.406	51401.52
616.762	51302.76
617.118	51444.45
617.475	51522.42
617.831	51802.86
618.187	51870.88
618.543	51959.69
618.899	52116.53
619.255	52194.26
619.611	52184.09
619.967	52387.48
620.323	52455.27
620.678	52354.71
621.034	52422.05
621.39	52541.15
621.746	52416.86
622.101	52890.97
622.457	52682.61
622.812	52777.98
623.168	52867.69
623.523	52970.97
623.879	53069.95
624.234	52818.2
624.589	53005.99
624.945	53078.31
625.3	53153.56
625.655	53211.41
626.01	53219.1
626.365	53286.89
626.72	53161.92
627.075	53253.9
627.43	53218.19
627.785	53236.72
628.14	53402.14
628.495	53459.54
628.85	53460.9
629.205	53344.97
629.559	53503.38
629.914	53399.43
630.269	53485.98
630.623	53329.15
630.978	53344.29
631.332	53417.73
631.687	53567.79
632.041	53316.27
632.396	53521.01
632.75	53451.86
633.104	53375.25
633.459	53324.4
633.813	53302.71
634.167	53295.25
634.521	53391.75
634.875	53516.26
635.229	53351.75
635.583	53311.75
635.937	53394.68
636.291	53231.52
636.645	53273.1
636.999	53239.89
637.352	53317.85
637.706	53243.28
638.06	53316.04
638.413	53204.18
638.767	53076.95
639.121	53221.13
639.474	53032.21
639.828	53081.47
640.181	53108.82
640.534	53178.42
640.888	53060.91
641.241	52893.45
641.594	52980.68
641.947	53064.3
642.301	52972.1
642.654	53032.89
643.007	53128.02
643.36	52974.36
643.713	52961.25
644.066	53101.36
644.419	52937.52
644.771	52690.3
645.124	52525.55
645.477	52402.62
645.83	52243.75
646.182	52140.25
646.535	52006.25
646.888	52128.28
647.24	51978.9
647.593	52120.14
647.945	52021.84
648.298	51895.29
648.65	51853.26
649.002	51841.5
649.355	51894.84
649.707	51910.2
650.059	52071.78
650.411	52443.97
650.763	52462.73
651.115	52737.53
651.467	52687.13
651.819	52612.78
652.171	52608.94
652.523	52588.15
652.875	52633.57
653.227	52444.43
653.578	52673.35
653.93	52601.26
654.282	52477.65
654.633	52347.71
654.985	52445.1
655.337	52531.88
655.688	52554.25
656.039	52585.21
656.391	52283.53
656.742	52360.13
657.094	52367.37
657.445	52585.67
657.796	52548.38
658.147	52355.61
658.498	52433.58
658.849	52453.24
659.2	52404.88
659.551	52298.22
659.902	52486.91
660.253	52352.9
660.604	52511.99
660.955	52264.77
661.306	52382.51
661.656	52184.55
662.007	52255.96
662.358	52376.63
662.708	52319.23
663.059	52309.97
663.409	52097.54
663.76	52365.56
664.11	52344.09
664.461	52367.14
664.811	52362.39
665.161	52275.39
665.511	52274.04
665.862	52261.61
666.212	52373.92
666.562	52360.36
666.912	52339.34
667.262	52224.77
667.612	52169.18
667.962	52242.62
668.312	52086.24
668.662	52326.46
669.011	52199.01
669.361	52154.72
669.711	52129.41
670.06	52102.51
670.41	52039.69
670.76	52108.16
671.109	52135.73
671.459	52068.84
671.808	52020.48
672.157	51982.52
672.507	51860.71
672.856	51836.76
673.205	51810.54
673.554	51955.63
673.904	51799.7
674.253	51980.94
674.602	51925.8
674.951	51359.03
675.3	51291.69
675.649	51783.43
675.998	51805.8
676.346	51751.34
676.695	51799.02
677.044	51576.65
677.393	51596.76
677.741	51668.85
678.09	51616.88
678.438	51547.05
678.787	51678.8
679.135	51487.62
679.484	51378.47
679.832	51467.05
680.181	51400.39
680.529	51375.98
680.877	51328.98
681.225	51172.37
681.573	51414.17
681.922	51175.08
682.27	51130.34
682.618	51253.72
682.966	51134.4
683.314	51055.76
683.661	51132.82
684.009	50882.21
684.357	50814.19
684.705	50855.99
685.053	50722.21
685.4	50696.45
685.748	50631.37
686.095	50588.88
686.443	50453.74
686.79	50309.57
687.138	50486.29
687.485	50390.24
687.832	50323.58
688.18	50311.6
688.527	50051.72
688.874	50115.45
689.221	49989.8
689.568	49762.46
689.915	49805.63
690.262	49823.7
690.609	49764.95
690.956	49626.65
691.303	49609.7
691.65	49345.52
691.997	49297.84
692.344	49108.47
692.69	49150.73
693.037	49154.12
693.383	48827.57
693.73	48922.03
694.077	48695.15
694.423	48716.39
694.769	48659.44
695.116	48540.35
695.462	48551.87
695.808	48363.63
696.155	48461.48
696.501	48114.14
696.847	48136.52
697.193	47889.74
697.539	47957.76
697.885	47627.38
698.231	47660.37
698.577	47622.63
698.923	47451.56
699.269	47139.93
699.614	47151.46
699.96	47134.96
700.306	47013.38
700.651	46842.99
700.997	46615.88
701.342	46603.9
701.688	46594.18
702.033	46461.98
702.379	46465.15
702.724	46389.44
703.069	46437.13
703.415	46014.31
703.76	45946.07
704.105	45876.46
704.45	45769.8
704.795	45603.7
705.14	45532.29
705.485	45453.88
705.83	45401.45
706.175	45361.22
706.52	45266.99
706.865	45033.1
707.209	44957.17
707.554	44807.11
707.899	44815.02
708.243	44685.99
708.588	44536.84
708.932	44509.04
709.277	44255.71
709.621	44285.09
709.966	44014.14
710.31	44100.01
710.654	43885.33
710.998	43918.55
711.342	43954.03
711.687	43777.08
712.031	43670.19
712.375	43439.92
712.719	43566.92
713.063	43449.18
713.407	43488.73
713.75	43449.41
714.094	43404.66
714.438	43071.79
714.782	43185.69
715.125	42893.94
715.469	43081.51
715.812	42938.46
716.156	42728.3
716.499	42604.46
716.843	42702.54
717.186	42406.05
717.53	42629.32
717.873	42678.81
718.216	42598.81
718.559	42356.56
718.902	42155.21
719.246	42248.99
719.589	42001.31
719.932	41920.86
720.275	41986.17
720.617	41915.21
720.96	41757.02
721.303	41846.06
721.646	41719.28
721.989	41550.7
722.331	41760.87
722.674	41583.92
723.016	41642
723.359	41419.41
723.701	41477.03
724.044	41161.56
724.386	41076.36
724.729	41360.65
725.071	41307.32
725.413	41149.36
725.755	41088.34
726.097	40856.48
726.439	40743.49
726.782	40678.18
727.124	40909.14
727.465	40835.24
727.807	40694.68
728.149	40636.83
728.491	40596.6
728.833	40745.07
729.175	40567.22
729.516	40497.17
729.858	40457.85
730.199	40408.58
730.541	40534
730.882	40270.28
731.224	40369.72
731.565	40066.22
731.906	40061.25
732.248	40219.66
732.589	40119.78
732.93	39977.41
733.271	39948.03
733.612	39968.82
733.953	39883.63
734.294	39914.13
734.635	39670.98
734.976	39911.2
735.317	39590.98
735.658	39593.24
735.999	39668.04
736.339	39578.32
736.68	39617.42
737.021	39372.91
737.361	39362.28
737.702	39478.21
738.042	39386.24
738.383	39195.28
738.723	39263.53
739.063	39125.68
739.404	39219.01
739.744	39115.74
740.084	39124.1
740.424	39081.61
740.764	39007.72
741.104	39095.85
741.444	38857.44
741.784	38861.28
742.124	38871.22
742.464	38821.96
742.804	38714.84
743.143	38686.82
743.483	38774.96
743.823	38375.42
744.162	38552.36
744.502	38616.32
744.841	38492.48
745.181	38591.01
745.52	38382.87
745.86	38432.59
746.199	38308.07
746.538	38358.02
746.877	38341.75
747.216	38318.02
747.556	38202.09
747.895	38139.04
748.234	38018.82
748.573	37987.41
748.911	37948.31
749.25	37962.77
749.589	37805.04
749.928	37869.89
750.267	37970.91
750.605	37771.14
750.944	37645.04
751.283	37460.19
751.621	37575.66
751.96	37333.64
752.298	37429
752.636	37511.49
752.975	37275.11
753.313	37094.77
753.651	37240.53
753.989	37196.69
754.327	37137.03
754.666	36787.66
755.004	36944.95
755.342	36895.46
755.679	36843.25
756.017	36660.21
756.355	36761
756.693	36521.91
757.031	36519.87
757.368	36423.6
757.706	36344.28
758.044	36299.99
758.381	36286.21
758.719	36094.8
759.056	36166.89
759.394	35968.7
759.731	35751.31
760.068	35665.43
760.405	35611.42
760.743	35512.44
761.08	35599.22
761.417	35406.23
761.754	35284.2
762.091	35233.35
762.428	35169.63
762.765	34839.92
763.102	35149.74
763.438	34785
763.775	34723.31
764.112	34686.93
764.449	34674.05
764.785	34564.22
765.122	34328.52
765.458	34235.64
765.795	34247.62
766.131	34064.12
766.467	34003.78
766.804	33788.19
767.14	33682.21
767.476	33722.21
767.812	33606.96
768.148	33564.92
768.485	33306.4
768.821	33159.74
769.157	33100.53
769.492	33095.33
769.828	32948.44
770.164	32746.19
770.5	32662.12
770.836	32671.61
771.171	32528.79
771.507	32286.09
771.842	32249.7
772.178	32122.02
772.513	32100.78
772.849	31959.77
773.184	31934.23
773.519	31775.37
773.855	31651.53
774.19	31507.12
774.525	31432.78
774.86	31336.05
775.195	31428.71
775.53	31226.9
775.865	30988.04
776.2	30781.27
776.535	30734.26
776.87	30681.61
777.205	30509.18
777.539	30407.72
777.874	30381.28
778.209	30055.86
778.543	30109.87
778.878	29855.87
779.212	29985.36
779.547	29756.89
779.881	29843.21
780.215	29518.93
780.55	29621.07
780.884	29414.75
781.218	29311.25
781.552	29283.23
781.886	29069.45
782.22	29109.67
782.554	28883.46
782.888	28561.66
783.222	28552.4
783.556	28472.63
783.889	28460.65
784.223	28239.64
784.557	28227.89
784.89	28241.67
785.224	28113.31
785.557	27993.32
785.891	27918.29
786.224	27817.28
786.558	27661.57
786.891	27409.38
787.224	27337.06
787.557	27285.99
787.891	27286.67
788.224	27375.93
788.557	27315.6
788.89	27081.03
789.223	26994.02
789.556	26829.96
789.888	26816.63
790.221	26639.45
790.554	26485.11
790.887	26515.84
791.219	26402.17
791.552	26318.33
791.884	26161.28
792.217	26067.72
792.549	25999.47
792.882	25817.56
793.214	25809.65
793.546	25753.38
793.879	25580.27
794.211	25475.42
794.543	25579.14
794.875	25489.88
795.207	25545.25
795.539	25277.46
795.871	25219.83
796.203	25055.09
796.535	25067.74
796.867	24997.46
797.198	24874.3
797.53	24891.25
797.862	24683.12
798.193	24730.8
798.525	24610.36
798.856	24600.86
799.188	24275.68
799.519	24279.97
799.85	24157.71
800.182	24018.05
800.513	24183.7
800.844	23985.06
801.175	24100.54
801.506	24015.8
801.837	23825.97
802.168	23786.42
802.499	23662.36
802.83	23577.39
803.161	23580.1
803.491	23414.23
803.822	23528.8
804.153	23343.5
804.483	23177.63
804.814	23107.34
805.145	23073
805.475	23153.44
805.805	22963.17
806.136	22988.7
806.466	22927.24
806.796	22823.28
807.126	22638.2
807.457	22565.21
807.787	22545.33
808.117	22524.08
808.447	22475.95
808.777	22498.09
809.107	22494.71
809.436	22274.6
809.766	22242.51
810.096	22155.28
810.426	22108.95
810.755	22110.53
811.085	22091.78
811.414	21984.66
811.744	21863.54
812.073	21832.8
812.403	21866.7
812.732	21711.22
813.061	21647.72
813.39	21464.45
813.719	21472.13
814.049	21511.45
814.378	21469.42
814.707	21385.13
815.036	21343.1
815.365	21247.05
815.693	21158.02
816.022	21102.88
816.351	21083.67
816.68	20942.88
817.008	20961.86
817.337	20826.5
817.665	20761.19
817.994	20751.93
818.322	20742.66
818.651	20587.41
818.979	20574.98
819.307	20673.28
819.636	20572.04
819.964	20520.07
820.292	20637.35
820.62	20514.64
820.948	20365.04
821.276	20443.91
821.604	20349.22
821.932	20410.92
822.259	20449.79
822.587	20337.02
822.915	20416.34
823.243	20427.19
823.57	20339.51
823.898	20377.7
824.225	20301.77
824.553	20293.63
824.88	20236.23
825.207	20374.31
825.535	20288.89
825.862	20423.57
826.189	20312.84
826.516	20395.55
826.843	20388.55
827.17	20348.09
827.497	20442.56
827.824	20355.55
828.151	20440.97
828.478	20304.93
828.805	20263.8
829.131	20280.75
829.458	20189.68
829.785	20116.91
830.111	20302.67
830.438	20436.45
830.764	20198.95
831.09	20280.75
831.417	20281.2
831.743	20276.68
832.069	20338.38
832.395	20132.06
832.722	20248.21
833.048	20135.67
833.374	20200.08
833.7	20089.8
834.026	20135.67
834.351	20115.11
834.677	20054.09
835.003	20117.37
835.329	20058.84
835.654	20015.9
835.98	19897.26
836.306	20003.7
836.631	19883.7
836.956	19952.85
837.282	19897.49
837.607	19770.26
837.932	19797.15
838.258	19817.49
838.583	19699.98
838.908	19674.89
839.233	19668.79
839.558	19711.95
839.883	19492.75
840.208	19502.02
840.533	19608.68
840.858	19479.42
841.182	19621.11
841.507	19383.37
841.832	19307.9
842.156	19286.88
842.481	19318.52
842.805	19194.23
843.13	19192.19
843.454	19137.05
843.778	19074.91
844.103	19074.68
844.427	19037.17
844.751	19041.69
845.075	18946.55
845.399	18884.4
845.723	18788.36
846.047	18934.35
846.371	18697.29
846.695	18688.93
847.019	18586.11
847.343	18450.97
847.666	18391.08
847.99	18283.52
848.313	18246
848.637	18208.04
848.96	18116.74
849.284	18140.24
849.607	18016.4
849.931	18006.46
850.254	17843.75
850.577	17648.96
850.9	17664.55
851.223	17532.12
851.546	17483.76
851.869	17416.19
852.192	17589.3
852.515	17213.49
852.838	17253.04
853.161	17337.78
853.483	17116.32
853.806	17152.02
854.129	16997.67
854.451	16918.35
854.774	16833.84
855.096	16834.51
855.419	16710.68
855.741	16719.94
856.063	16632.71
856.385	16573.96
856.708	16554.52
857.03	16516.56
857.352	16479.04
857.674	16419.38
857.996	16352.27
858.318	16309.33
858.64	16247.41
858.961	16251.48
859.283	16168.32
859.605	16174.87
859.926	16093.52
860.248	16022.33
860.57	15979.62
860.891	15990.7
861.212	15980.3
861.534	15872.05
861.855	15840.42
862.176	15826.41
862.498	15831.15
862.819	15829.12
863.14	15762.45
863.461	15674.77
863.782	15644.26
864.103	15720.65
864.424	15578.73
864.745	15690.36
865.065	15556.81
865.386	15528.79
865.707	15517.04
866.027	15458.96
866.348	15383.93
866.668	15408.56
866.989	15360.66
867.309	15270.49
867.63	15390.26
867.95	15387.32
868.27	15259.19
868.59	15211.28
868.91	15169.93
869.23	15126.54
869.55	15085.86
869.87	15159.76
870.19	15184.84
870.51	15140.77
870.83	15202.24
871.15	14992.3
871.469	15019.87
871.789	15091.51
872.109	14992.3
872.428	14887.9
872.748	15022.13
873.067	14931.74
873.386	14864.85
873.706	14936.49
874.025	14796.6
874.344	14828.47
874.663	14868.46
874.982	14751.18
875.301	14760.67
875.62	14681.13
875.939	14586.66
876.258	14712.08
876.577	14651.52
876.896	14664.18
877.214	14578.08
877.533	14590.51
877.852	14625.99
878.17	14489.04
878.489	14519.1
878.807	14489.94
879.125	14503.95
879.444	14425.76
879.762	14370.4
880.08	14346.67
880.398	14232.32
880.716	14309.84
881.034	14294.69
881.352	14302.6
881.67	14298.99
881.988	14245.66
882.306	14178.54
882.624	14146.68
882.941	13953.46
883.259	13973.57
883.577	13962.73
883.894	13962.73
884.212	13870.07
884.529	13973.8
884.846	13907.13
885.164	13808.38
885.481	13829.17
885.798	13841.37
886.115	13697.2
886.432	13685.67
886.75	13701.94
887.067	13798.89
887.383	13575.62
887.7	13558.89
888.017	13634.83
888.334	13533.36
888.651	13441.84
888.967	13497.65
889.284	13437.54
889.6	13429.63
889.917	13271.67
890.233	13371.1
890.55	13320.71
890.866	13279.81
891.182	13207.72
891.498	13160.94
891.815	13094.27
892.131	13025.8
892.447	13061.73
892.763	13017.67
893.079	13016.08
893.395	12993.26
893.71	12913.26
894.026	12922.53
894.342	12754.17
894.657	12763.66
894.973	12761.63
895.289	12835.07
895.604	12745.81
895.92	12577
896.235	12533.84
896.55	12635.08
896.865	12479.15
897.181	12436.21
897.496	12460.62
897.811	12340.4
898.126	12323.45
898.441	12226.27
898.756	12288.65
899.071	12213.62
899.386	12191.93
899.7	12081.19
900.015	11958.26
900.33	11923.01
900.644	11916
900.959	11948.09
901.273	11867.19
901.588	11748.77
901.902	11774.99
902.216	11729.79
902.531	11682.11
902.845	11659.96
903.159	11587.65
903.473	11564.82
903.787	11444.37
904.101	11408.89
904.415	11516.01
904.729	11422.45
905.042	11306.07
905.356	11352.17
905.67	11330.03
905.984	11271.95
906.297	11286.41
906.611	11126.87
906.924	11088.9
907.237	11144.5
907.551	11015.46
907.864	11014.56
908.177	10916.48
908.491	10909.02
908.804	10843.49
909.117	10802.81
909.43	10780.89
909.743	10674.22
910.056	10741.12
910.368	10687.78
910.681	10561.46
910.994	10573.89
911.307	10489.6
911.619	10422.93
911.932	10417.51
912.244	10446.89
912.557	10367.34
912.869	10301.81
913.181	10263.39
913.494	10212.32
913.806	10051.64
914.118	10102.71
914.43	10088.93
914.742	10067.24
915.054	9979.1
915.366	9915.83
915.678	9902.72
915.99	9790.18
916.302	9829.95
916.613	9739.56
916.925	9757.19
917.236	9701.37
917.548	9689.39
917.859	9655.27
918.171	9592.67
918.482	9529.85
918.794	9498.44
919.105	9513.58
919.416	9404.88
919.727	9379.12
920.038	9353.36
920.349	9279.69
920.66	9255.51
920.971	9256.86
921.282	9186.13
921.593	9160.59
921.903	9114.94
922.214	9108.84
922.525	8980.94
922.835	8983.65
923.146	8867.04
923.456	8951.56
923.767	8842.18
924.077	8859.58
924.387	8843.54
924.697	8800.83
925.008	8750.66
925.318	8659.59
925.628	8646.48
925.938	8669.53
926.248	8555.41
926.558	8536.2
926.867	8450.1
927.177	8492.36
927.487	8440.61
927.796	8360.16
928.106	8312.48
928.416	8279.49
928.725	8277.23
929.034	8240.62
929.344	8235.87
929.653	8218.7
929.962	8159.71
930.271	8072.03
930.581	8030.45
930.89	8032.94
931.199	7950
931.508	7943.9
931.817	7926.95
932.125	7932.83
932.434	7895.09
932.743	7839.05
933.051	7798.82
933.36	7745.26
933.669	7676.34
933.977	7642.44
934.286	7678.6
934.594	7611.03
934.902	7583.91
935.21	7580.97
935.519	7527.19
935.827	7482.67
936.135	7460.75
936.443	7402.9
936.751	7376.46
937.059	7378.49
937.367	7308.89
937.674	7250.59
937.982	7290.13
938.29	7242
938.597	7237.48
938.905	7159.97
939.213	7119.74
939.52	7095.56
939.827	7051.27
940.135	7042.23
940.442	7005.39
940.749	7013.53
941.056	6990.25
941.363	6849.24
941.67	6893.99
941.977	6862.12
942.284	6766.98
942.591	6785.29
942.898	6729.24
943.205	6684.5
943.511	6677.27
943.818	6717.94
944.125	6665.06
944.431	6576.25
944.738	6654.44
945.044	6539.87
945.35	6521.34
945.657	6470.27
945.963	6488.57
946.269	6447.22
946.575	6428.01
946.881	6351.63
947.187	6355.69
947.493	6328.58
947.799	6322.02
948.105	6348.46
948.41	6285.64
948.716	6224.62
949.022	6158.41
949.327	6167.22
949.633	6081.13
949.938	6091.29
950.244	6071.18
950.549	6036.83
950.854	6035.02
951.16	6016.72
951.465	5929.49
951.77	5910.28
952.075	5915.93
952.38	5872.09
952.685	5877.97
952.99	5848.36
953.294	5863.96
953.599	5784.18
953.904	5739.67
954.209	5760.23
954.513	5731.98
954.818	5757.97
955.122	5697.41
955.426	5682.27
955.731	5630.74
956.035	5538.77
956.339	5571.08
956.643	5551.2
956.948	5540.8
957.252	5508.49
957.556	5483.4
957.86	5391.2
958.163	5466.23
958.467	5422.61
958.771	5390.52
959.075	5390.07
959.378	5362.27
959.682	5306.23
959.985	5287.93
960.289	5239.79
960.592	5254.25
960.896	5214.03
961.199	5166.57
961.502	5160.25
961.805	5138.33
962.108	5080.47
962.411	5081.15
962.714	5066.01
963.017	5046.58
963.32	5086.8
963.623	5016.52
963.926	5049.97
964.228	4971.55
964.531	4964.77
964.833	4954.15
965.136	4885.9
965.438	4843.42
965.741	4845.68
966.043	4824.89
966.345	4802.74
966.648	4794.83
966.95	4781.27
967.252	4736.98
967.554	4679.81
967.856	4691.33
968.158	4674.61
968.46	4652.69
968.761	4630.09
969.063	4598.23
969.365	4563.88
969.666	4552.13
969.968	4548.74
970.269	4540.15
970.571	4521.62
970.872	4482.98
971.174	4463.77
971.475	4462.64
971.776	4427.16
972.077	4403.66
972.378	4390.77
972.679	4373.15
972.98	4438.23
973.281	4314.62
973.582	4308.29
973.883	4285.24
974.183	4262.19
974.484	4292.7
974.785	4261.51
975.085	4263.77
975.386	4246.82
975.686	4225.36
975.986	4188.07
976.287	4177.22
976.587	4117.56
976.887	4081.4
977.187	4146.04
977.487	4066.94
977.787	4012.03
978.087	4042.53
978.387	4055.19
978.687	4028.75
978.987	4005.7
979.286	3920.96
979.586	3908.75
979.885	3911.92
980.185	3907.4
980.484	3923.22
980.784	3846.61
981.083	3862.65
981.382	3869.43
981.682	3813.84
981.981	3812.03
982.28	3807.29
982.579	3775.88
982.878	3794.63
983.177	3740.17
983.475	3762.09
983.774	3690.68
984.073	3710.11
984.372	3622.21
984.67	3664.92
984.969	3640.06
985.267	3648.65
985.566	3603.22
985.864	3578.14
986.162	3558.93
986.461	3548.08
986.759	3511.25
987.057	3509.89
987.355	3499.72
987.653	3501.31
987.951	3443.45
988.249	3407.98
988.547	3447.52
988.844	3434.19
989.142	3416.79
989.44	3368.65
989.737	3343.8
990.035	3365.94
990.332	3342.67
990.63	3351.03
990.927	3326.17
991.224	3277.58
991.521	3314.19
991.819	3282.33
992.116	3265.61
992.413	3256.34
992.71	3234.42
993.006	3237.36
993.303	3212.5
993.6	3219.05
993.897	3155.1
994.193	3131.6
994.49	3133.41
994.787	3110.81
995.083	3090.02
995.379	3040.08
995.676	3056.8
995.972	3035.56
996.268	3018.16
996.565	3014.77
996.861	3018.38
997.157	2989.68
997.453	2942.68
997.749	2913.75
998.044	2969.12
998.34	2906.07
998.636	2890.47
998.932	2873.98
999.227	2849.57
999.523	2921.66
999.818	2855
1000.114	2830.14
1000.409	2779.52
1000.704	2770.48
1001	2796.92
1001.295	2753.76
1001.59	2732.96
1001.885	2747.2
1002.18	2686.19
1002.475	2707.88
1002.77	2713.3
1003.065	2695.9
1003.359	2676.47
1003.654	2657.03
1003.949	2651.39
1004.243	2608.9
1004.538	2586.75
1004.832	2585.62
1005.127	2593.53
1005.421	2567.32
1005.715	2569.81
1006.009	2532.74
1006.304	2543.14
1006.598	2502.46
1006.892	2471.5
1007.186	2505.17
1007.48	2460.2
1007.773	2447.32
1008.067	2438.74
1008.361	2415.23
1008.655	2428.11
1008.948	2388.34
1009.242	2361.45
1009.535	2369.36
1009.829	2365.74
1010.122	2340.88
1010.415	2319.19
1010.708	2306.99
1011.001	2283.94
1011.295	2274.9
1011.588	2266.08
1011.881	2237.16
1012.173	2217.27
1012.466	2228.8
1012.759	2242.81
1013.052	2187.89
1013.344	2193.09
1013.637	2180.66
1013.93	2160.1
1014.222	2149.25
1014.514	2157.16
1014.807	2132.08
1015.099	2096.82
1015.391	2093.21
1015.683	2080.78
1015.976	2070.84
1016.268	2041.46
1016.56	2033.1
1016.851	2031.51
1017.143	2045.07
1017.435	2017.96
1017.727	2012.53
1018.018	1967.11
1018.31	1973.44
1018.602	1966.66
1018.893	1946.77
1019.185	1918.3
1019.476	1926.66
1019.767	1925.3
1020.058	1921.46
1020.35	1863.16
1020.641	1862.93
1020.932	1830.84
1021.223	1833.55
1021.514	1808.7
1021.804	1798.53
1022.095	1791.29
1022.386	1762.37
1022.677	1751.07
1022.967	1784.97
1023.258	1777.51
1023.548	1722.37
1023.839	1747.91
1024.129	1707.91
1024.419	1682.82
1024.709	1684.18
1025	1673.78
1025.29	1687.12
1025.58	1652.77
1025.87	1663.84
1026.16	1620.45
1026.449	1614.8
1026.739	1623.62
1027.029	1605.76
1027.319	1568.48
1027.608	1572.54
1027.898	1582.26
1028.187	1563.96
1028.477	1541.81
1028.766	1507.46
1029.055	1510.4
1029.344	1517.63
1029.634	1500.68
1029.923	1496.61
1030.212	1461.13
1030.501	1457.52
1030.79	1469.5
1031.078	1418.65
1031.367	1451.87
1031.656	1418.42
1031.945	1419.33
1032.233	1404.64
1032.522	1403.51
1032.81	1376.16
1033.099	1397.86
1033.387	1385.88
1033.675	1363.28
1033.963	1335.49
1034.251	1338.65
1034.54	1314.7
1034.828	1307.92
1035.116	1300.01
1035.403	1303.62
1035.691	1277.86
1035.979	1317.41
1036.267	1281.48
1036.554	1276.73
1036.842	1267.01
1037.129	1259.11
1037.417	1213
1037.704	1237.18
1037.992	1240.12
1038.279	1215.04
1038.566	1199.67
1038.853	1199.67
1039.14	1199.67
