Data from orange_diffuse_book_FLMS001491_00025.txt Node
Date: Wed Feb 08 15:29:20 GMT 2017
User: dcchb
Spectrometer: FLMS00149
Trigger mode: 0
Integration Time (sec): 2.000000E-2
Scans to average: 10
Electric dark correction enabled: true
Nonlinearity correction enabled: false
Boxcar width: 0
XAxis mode: Wavelengths
Number of Pixels in Spectrum: 2048
>>>>>Begin Spectral Data<<<<<
341.393	0.27
341.776	0.27
342.16	0.27
342.543	-62.78
342.927	-88.77
343.31	-84.7
343.693	-69.56
344.077	-69.33
344.46	-66.17
344.843	-55.55
345.226	-45.83
345.61	-23.69
345.993	-27.3
346.376	2.3
346.759	2.75
347.142	13.6
347.525	55.86
347.908	54.28
348.291	83.88
348.674	108.97
349.057	120.49
349.44	107.84
349.823	136.54
350.206	158.91
350.588	193.26
350.971	204.78
351.354	232.35
351.737	277.32
352.119	261.05
352.502	268.74
352.884	273.26
353.267	286.81
353.65	305.35
354.032	305.8
354.414	320.94
354.797	296.98
355.179	331.33
355.562	338.11
355.944	334.5
356.326	331.56
356.709	352.12
357.091	340.37
357.473	364.33
357.855	353.71
358.238	360.03
358.62	347.83
359.002	334.27
359.384	352.8
359.766	349.41
360.148	363.2
360.53	354.84
360.912	343.99
361.294	342.86
361.676	332.46
362.057	328.4
362.439	350.54
362.821	339.47
363.203	362.97
363.584	348.06
363.966	334.72
364.348	353.71
364.729	327.27
365.111	358.23
365.493	334.72
365.874	343.99
366.256	328.62
366.637	305.57
367.019	320.03
367.4	332.91
367.781	304.89
368.163	303.76
368.544	327.04
368.925	337.21
369.306	338.34
369.688	336.53
370.069	326.81
370.45	323.65
370.831	310.77
371.212	327.72
371.593	344.44
371.974	327.72
372.355	308.28
372.736	316.87
373.117	327.49
373.498	315.74
373.879	324.78
374.26	336.98
374.641	360.26
375.021	333.59
375.402	327.04
375.783	344.44
376.163	331.33
376.544	352.35
376.925	338.79
377.305	345.34
377.686	330.88
378.066	348.73
378.447	348.28
378.827	353.03
379.208	337.43
379.588	349.19
379.968	343.31
380.349	352.12
380.729	355.97
381.109	354.61
381.489	368.39
381.87	343.54
382.25	364.78
382.63	349.19
383.01	347.15
383.39	359.81
383.77	346.02
384.15	345.57
384.53	361.84
384.91	351.45
385.29	355.74
385.67	357.77
386.049	367.04
386.429	370.43
386.809	359.81
387.189	367.26
387.568	378.11
387.948	367.26
388.328	380.15
388.707	370.2
389.087	367.26
389.466	368.62
389.846	344.67
390.225	382.86
390.605	385.57
390.984	389.18
391.363	377.21
391.743	377.66
392.122	385.34
392.501	366.13
392.881	395.06
393.26	377.21
393.639	387.83
394.018	385.34
394.397	395.06
394.776	387.83
395.155	386.02
395.534	399.58
395.913	379.92
396.292	405.46
396.671	387.83
397.05	399.58
397.429	420.14
397.808	412.69
398.186	396.42
398.565	396.87
398.944	419.47
399.323	408.62
399.701	415.4
400.08	411.33
400.458	417.21
400.837	420.82
401.215	414.04
401.594	448.17
401.972	443.19
402.351	414.95
402.729	401.84
403.107	419.24
403.486	416.3
403.864	443.19
404.242	446.13
404.62	443.65
404.999	426.92
405.377	435.29
405.755	459.24
406.133	449.07
406.511	450.88
406.889	453.82
407.267	457.66
407.645	440.03
408.023	436.42
408.401	454.49
408.779	459.92
409.156	469.41
409.534	479.8
409.912	472.8
410.29	468.28
410.667	484.32
411.045	487.71
411.422	482.52
411.8	492.01
412.178	492.23
412.555	490.42
412.933	509.41
413.31	501.95
413.687	509.63
414.065	484.55
414.442	492.91
414.819	512.57
415.197	538.11
415.574	516.41
415.951	525
416.328	544.21
416.705	512.35
417.082	527.26
417.46	515.51
417.837	566.58
418.214	519.8
418.591	548.73
418.967	536.3
419.344	548.05
419.721	562.29
420.098	545.79
420.475	553.02
420.852	564.1
421.228	575.39
421.605	568.61
421.982	555.51
422.358	571.55
422.735	586.47
423.111	591.21
423.488	610.65
423.864	593.7
424.241	621.04
424.617	616.07
424.994	610.87
425.37	590.54
425.746	629.63
426.123	619.46
426.499	612.46
426.875	614.26
427.251	654.26
427.627	637.77
428.003	670.08
428.379	666.01
428.756	638.9
429.132	647.03
429.507	630.08
429.883	649.52
430.259	658.33
430.635	673.92
431.011	690.65
431.387	666.01
431.763	698.33
432.138	715.28
432.514	703.53
432.89	713.92
433.265	699.91
433.641	719.57
434.016	736.52
434.392	733.81
434.767	732.23
435.143	729.74
435.518	769.51
435.894	747.82
436.269	775.62
436.644	768.16
437.02	781.94
437.395	787.59
437.77	803.19
438.145	788.27
438.52	801.6
438.895	820.13
439.271	801.15
439.646	829.63
440.021	819.68
440.395	809.96
440.77	803.86
441.145	837.08
441.52	848.16
441.895	827.14
442.27	855.39
442.645	832.79
443.019	852.22
443.394	828.27
443.769	857.65
444.143	840.25
444.518	863.75
444.892	860.36
445.267	869.17
445.641	867.82
446.016	862.84
446.39	865.78
446.764	896.97
447.139	873.24
447.513	892.22
447.887	875.27
448.262	921.83
448.636	885.89
449.01	893.8
449.384	915.27
449.758	915.27
450.132	951.43
450.506	942.39
450.88	932.67
451.254	932.9
451.628	928.15
452.002	921.37
452.376	951.43
452.75	942.84
453.123	985.1
453.497	968.38
453.871	989.62
454.244	996.17
454.618	1013.8
454.992	1015.61
455.365	1012.67
455.739	1018.77
456.112	1017.64
456.486	1030.07
456.859	1019.45
457.232	1063.74
457.606	1065.33
457.979	1079.56
458.352	1090.64
458.725	1067.81
459.099	1085.66
459.472	1138.32
459.845	1143.52
460.218	1102.16
460.591	1120.24
460.964	1120.92
461.337	1134.7
461.71	1145.32
462.083	1214.93
462.456	1181.93
462.829	1182.84
463.201	1213.12
463.574	1210.41
463.947	1220.58
464.32	1210.86
464.692	1233.46
465.065	1217.64
465.438	1258.99
465.81	1235.04
466.183	1265.77
466.555	1295.38
466.928	1277.75
467.3	1285.43
467.672	1309.39
468.045	1335.15
468.417	1335.6
468.789	1327.69
469.161	1369.72
469.534	1382.83
469.906	1385.32
470.278	1414.02
470.65	1411.98
471.022	1446.56
471.394	1449.72
471.766	1445.2
472.138	1442.72
472.51	1475.94
472.882	1486.33
473.253	1501.02
473.625	1545.76
473.997	1531.3
474.369	1548.48
474.74	1590.06
475.112	1616.72
475.484	1619.43
475.855	1647.68
476.227	1678.42
476.598	1686.55
476.97	1694.46
477.341	1741.01
477.713	1745.08
478.084	1777.62
478.455	1814.46
478.827	1801.58
479.198	1855.81
479.569	1856.94
479.94	1905.53
480.311	1924.51
480.682	1964.06
481.053	1983.95
481.424	1990.72
481.795	2032.08
482.166	2040.21
482.537	2089.7
482.908	2080.21
483.279	2115.92
483.65	2160.66
484.021	2232.3
484.391	2254.45
484.762	2257.61
485.133	2295.58
485.503	2328.57
485.874	2363.37
486.244	2362.69
486.615	2458.28
486.985	2460.32
487.356	2502.8
487.726	2507.32
488.097	2572.4
488.467	2613.98
488.837	2629.35
489.207	2656.24
489.578	2725.85
489.948	2741.67
490.318	2785.05
490.688	2809.69
491.058	2808.1
491.428	2839.29
491.798	2931.26
492.168	2921.1
492.538	2981.21
492.908	3002
493.278	3055.56
493.648	3123.35
494.017	3131.94
494.387	3187.76
494.757	3187.98
495.126	3234.76
495.496	3226.4
495.866	3307.07
496.235	3332.16
496.605	3321.76
496.974	3365.15
497.344	3421.42
497.713	3481.08
498.082	3444.92
498.452	3516.56
498.821	3527.18
499.19	3554.07
499.559	3584.35
499.928	3640.4
500.298	3693.28
500.667	3696.44
501.036	3730.57
501.405	3764.46
501.774	3797.91
502.143	3809.66
502.512	3865.25
502.88	3914.29
503.249	3877.45
503.618	3952.93
503.987	3918.58
504.356	4013.04
504.724	4032.25
505.093	4051.46
505.462	4098.01
505.83	4085.81
506.199	4131.46
506.567	4203.77
506.936	4219.82
507.304	4229.08
507.672	4225.24
508.041	4281.06
508.409	4290.78
508.777	4378.91
509.145	4402.64
509.514	4411.23
509.882	4482.64
510.25	4488.29
510.618	4507.72
510.986	4509.75
511.354	4590.43
511.722	4632.01
512.09	4648.06
512.458	4657.32
512.826	4672.91
513.193	4716.53
513.561	4762.18
513.929	4774.15
514.297	4818.22
514.664	4872
515.032	4896.18
515.4	4932.12
515.767	4964.43
516.135	4999.68
516.502	4973.47
516.869	5040.14
517.237	5124.2
517.604	5091.43
517.972	5133.47
518.339	5197.19
518.706	5179.57
519.073	5222.73
519.44	5239.9
519.808	5323.97
520.175	5336.17
520.542	5357.42
520.909	5388.83
521.276	5429.5
521.643	5507.92
522.009	5499.33
522.376	5548.15
522.743	5608.71
523.11	5590.18
523.477	5709.04
523.843	5749.04
524.21	5757.86
524.577	5843.05
524.943	5818.65
525.31	5819.1
525.676	5920.11
526.043	5955.59
526.409	5985.87
526.776	6030.84
527.142	6053.22
527.508	6095.25
527.874	6112.42
528.241	6164.17
528.607	6199.88
528.973	6258.86
529.339	6277.84
529.705	6316.94
530.071	6353.32
530.437	6401.68
530.803	6425.86
531.169	6452.08
531.535	6454.79
531.901	6467.67
532.267	6545.63
532.632	6560.32
532.998	6589.02
533.364	6633.09
533.73	6582.02
534.095	6686.65
534.461	6662.69
534.826	6747.21
535.192	6750.83
535.557	6805.97
535.923	6831.95
536.288	6834.66
536.653	6877.15
537.019	6838.51
537.384	6880.77
537.749	6948.33
538.114	6901.33
538.479	6947.88
538.845	7047.77
539.21	7022.23
539.575	7079.18
539.94	7064.26
540.305	7193.75
540.67	7137.93
541.034	7223.81
541.399	7193.07
541.764	7242.11
542.129	7297.25
542.494	7291.6
542.858	7352.17
543.223	7379.96
543.587	7395.78
543.952	7437.13
544.316	7490.92
544.681	7504.03
545.045	7511.71
545.41	7571.59
545.774	7560.52
546.138	7589.22
546.503	7706.05
546.867	7688.65
547.231	7769.33
547.595	7770.23
547.959	7798.71
548.324	7919.38
548.688	7900.63
549.052	7931.36
549.416	7939.27
549.779	7998.93
550.143	8011.13
550.507	8083.67
550.871	8069.43
551.235	8173.16
551.599	8200.5
551.962	8217.45
552.326	8357.34
552.689	8360.95
553.053	8333.16
553.417	8352.37
553.78	8544.68
554.143	8435.07
554.507	8526.37
554.87	8651.57
555.234	8690.44
555.597	8651.79
555.96	8823.77
556.323	8767.5
556.686	8829.19
557.05	8896.08
557.413	9041.39
557.776	8990.09
558.139	9118.45
558.502	9209.74
558.865	9249.29
559.228	9291.55
559.59	9357.54
559.953	9342.62
560.316	9486.35
560.679	9539
561.041	9689.05
561.404	9736.51
561.767	9865.55
562.129	9846.11
562.492	10018.08
562.854	9984.86
563.217	10036.16
563.579	10229.83
563.941	10228.25
564.304	10373.55
564.666	10406.1
565.028	10531.52
565.39	10545.98
565.753	10757.05
566.115	10852.86
566.477	10981
566.839	11023.48
567.201	11146.19
567.563	11278.62
567.925	11440.65
568.287	11524.94
568.648	11593.41
569.01	11749.34
569.372	11908.43
569.734	12017.81
570.095	12180.06
570.457	12334.41
570.819	12417.57
571.18	12605.36
571.542	12736.43
571.903	12844
572.265	13079.02
572.626	13209.86
572.987	13340.93
573.349	13554.04
573.71	13712.22
574.071	13958.77
574.432	14208.93
574.794	14395.6
575.155	14555.37
575.516	14824.06
575.877	14962.13
576.238	15133.88
576.599	15318.51
576.96	15653.19
577.32	15809.34
577.681	16091.14
578.042	16388.09
578.403	16641.86
578.763	16866.04
579.124	17165.01
579.485	17545.8
579.845	17858.56
580.206	18052.68
580.566	18373.34
580.927	18697.86
581.287	19136.04
581.648	19265.98
582.008	19712.29
582.368	19945.05
582.728	20336
583.089	20676.79
583.449	21003.11
583.809	21349.54
584.169	21883.08
584.529	22050.31
584.889	22713.8
585.249	22779.56
585.609	23286.21
585.969	23712.19
586.329	24058.84
586.688	24559.85
587.048	25012.49
587.408	25275.54
587.768	25749.65
588.127	26096.76
588.487	26627.36
588.846	27210.4
589.206	27473.9
589.565	27933.09
589.925	28533.98
590.284	28796.8
590.643	29424.35
591.003	29784.34
591.362	30377.32
591.721	30806.01
592.08	31165.55
592.44	31791.97
592.799	32242.81
593.158	32602.12
593.517	33036.46
593.876	33714.18
594.235	34052.48
594.593	34608.62
594.952	35175.84
595.311	35468.71
595.67	36046.1
596.029	36783.93
596.387	37086.3
596.746	37500.3
597.104	37849.22
597.463	38488.75
597.822	38926.93
598.18	39291.89
598.538	39695.72
598.897	40353.78
599.255	40366.66
599.613	41318.5
599.972	41583.81
600.33	42039.84
600.688	42255.43
601.046	42757.34
601.404	43410.88
601.762	43654.04
602.12	44227.81
602.478	44666.89
602.836	45010.61
603.194	45176.71
603.552	45561.78
603.91	45688.56
604.268	46295.1
604.625	46566.05
604.983	46982.99
605.341	47095.53
605.698	47593.82
606.056	47999.01
606.413	48251.88
606.771	48473.12
607.128	48776.39
607.485	48889.6
607.843	49135.02
608.2	49495.46
608.557	49835.34
608.914	49897.04
609.272	50301.09
609.629	50351.26
609.986	50881.87
610.343	50830.57
610.7	51204.12
611.057	51345.58
611.414	51475.07
611.771	51601.62
612.127	51944.89
612.484	51921.16
612.841	52102.85
613.198	52174.72
613.554	52308.05
613.911	52622.61
614.267	52734.93
614.624	52739.45
614.98	52829.16
615.337	53123.39
615.693	53178.31
616.05	53197.97
616.406	53651.96
616.762	53531.52
617.118	53548.92
617.475	53669.59
617.831	53811.28
618.187	53911.85
618.543	53937.38
618.899	54135.79
619.255	54255.56
619.611	54233.19
619.967	54467.54
620.323	54575.1
620.678	54480.64
621.034	54431.15
621.39	54439.97
621.746	54581.88
622.101	54818.04
622.457	54587.08
622.812	54723.35
623.168	54932.84
623.523	54893.74
623.879	55038.82
624.234	54924.7
624.589	55036.34
624.945	55060.29
625.3	55100.29
625.655	55073.62
626.01	55124.24
626.365	55196.33
626.72	55184.81
627.075	55229.78
627.43	55265.48
627.785	55217.35
628.14	55290.57
628.495	55317.46
628.85	55373.5
629.205	55254.86
629.559	55492.14
629.914	55394.97
630.269	55387.06
630.623	55330.79
630.978	55408.53
631.332	55430.9
631.687	55499.37
632.041	55401.3
632.396	55465.7
632.75	55397.91
633.104	55477.45
633.459	55313.84
633.813	55312.49
634.167	55315.65
634.521	55379.6
634.875	55376.67
635.229	55384.12
635.583	55241.75
635.937	55265.48
636.291	55264.8
636.645	55248.31
636.999	55214.64
637.352	55303.45
637.706	55100.51
638.06	55250.12
638.413	55271.13
638.767	55202.43
639.121	55208.31
639.474	55034.75
639.828	55157.69
640.181	55113.4
640.534	55131.25
640.888	55178.7
641.241	54981.42
641.594	55044.24
641.947	55208.31
642.301	55074.3
642.654	55033.4
643.007	55069.33
643.36	55001.76
643.713	54999.05
644.066	55101.19
644.419	54919.73
644.771	54681.99
645.124	54521.09
645.477	54447.2
645.83	54346.64
646.182	54291.5
646.535	54197.94
646.888	54261.67
647.24	54125.85
647.593	54312.51
647.945	54103.25
648.298	54099.41
648.65	54085.85
649.002	54056.7
649.355	54146.42
649.707	54049.24
650.059	54146.87
650.411	54501.43
650.763	54522
651.115	54866.85
651.467	54813.74
651.819	54696.46
652.171	54698.72
652.523	54660.75
652.875	54644.93
653.227	54531.04
653.578	54772.61
653.93	54656.91
654.282	54528.33
654.633	54531.72
654.985	54602.45
655.337	54591.15
655.688	54554.09
656.039	54673.41
656.391	54478.61
656.742	54528.55
657.094	54566.97
657.445	54646.06
657.796	54548.66
658.147	54552.28
658.498	54506.41
658.849	54506.41
659.2	54497.82
659.551	54437.26
659.902	54580.98
660.253	54478.61
660.604	54540.76
660.955	54392.51
661.306	54521.55
661.656	54454.2
662.007	54430.93
662.358	54424.6
662.708	54433.87
663.059	54436.35
663.409	54224.61
663.76	54448.55
664.11	54398.84
664.461	54471.83
664.811	54426.18
665.161	54397.26
665.511	54337.14
665.862	54419.4
666.212	54437.71
666.562	54509.8
666.912	54365.62
667.262	54354.55
667.612	54316.13
667.962	54355.22
668.312	54354.55
668.662	54511.83
669.011	54309.8
669.361	54284.26
669.711	54327.43
670.06	54188.9
670.41	54193.65
670.76	54176.47
671.109	54246.3
671.459	54155.45
671.808	54097.38
672.157	54230.25
672.507	54027.55
672.856	53956.14
673.205	54049.02
673.554	54103.7
673.904	54022.58
674.253	54184.15
674.602	54038.17
674.951	53618.75
675.3	53440.45
675.649	53911.17
675.998	53896.25
676.346	53853.32
676.695	54041.11
677.044	53800.21
677.393	53761.11
677.741	53806.99
678.09	53730.16
678.438	53815.8
678.787	53762.02
679.135	53826.42
679.484	53595.7
679.832	53682.25
680.181	53513.89
680.529	53670.95
680.877	53519.31
681.225	53557.96
681.573	53770.61
681.922	53395.47
682.27	53365.64
682.618	53398.41
682.966	53312.09
683.314	53441.12
683.661	53248.13
684.009	53051.75
684.357	53012.43
684.705	53040.46
685.053	53132.88
685.4	53015.37
685.748	52871.19
686.095	52817.41
686.443	52764.3
686.79	52808.82
687.138	52852.21
687.485	52724.08
687.832	52597.98
688.18	52644.99
688.527	52401.38
688.874	52417.65
689.221	52410.87
689.568	52341.04
689.915	52114.83
690.262	52174.04
690.609	52109.86
690.956	51977.21
691.303	51953.03
691.65	51836.65
691.997	51790.77
692.344	51546.26
692.69	51578.8
693.037	51531.34
693.383	51353.27
693.73	51534.73
694.077	51134.07
694.423	51308.3
694.769	51076.44
695.116	51057.91
695.462	51096.1
695.808	50827.63
696.155	50954.41
696.501	50630.8
696.847	50608.2
697.193	50479.17
697.539	50517.81
697.885	50151.27
698.231	50230.59
698.577	50073.75
698.923	50108.33
699.269	49898.84
699.614	49751.5
699.96	49803.25
700.306	49677.83
700.651	49595.35
700.997	49383.38
701.342	49452.75
701.688	49222.02
702.033	49163.5
702.379	49187.68
702.724	48987.23
703.069	49132.76
703.415	48652.32
703.76	48689.16
704.105	48597.18
704.45	48585.43
704.795	48302.5
705.14	48195.16
705.485	48210.07
705.83	48073.58
706.175	48076.52
706.52	47961.04
706.865	47811.89
707.209	47597.66
707.554	47670.88
707.899	47681.27
708.243	47455.52
708.588	47482.86
708.932	47206.26
709.277	47230.66
709.621	47168.97
709.966	46990.9
710.31	46952.93
710.654	46598.82
710.998	46791.13
711.342	46720.62
711.687	46579.83
712.031	46396.79
712.375	46331.93
712.719	46392.49
713.063	46256.91
713.407	46443.11
713.75	46023.24
714.094	46003.58
714.438	45880.19
714.782	45933.3
715.125	45712.51
715.469	45955.67
715.812	45659.86
716.156	45505.51
716.499	45606.3
716.843	45537.83
717.186	45217.38
717.53	45480.88
717.873	45324.95
718.216	45263.03
718.559	45185.07
718.902	44832.54
719.246	45001.57
719.589	44878.86
719.932	44760.67
720.275	44690.39
720.617	44795.25
720.96	44622.82
721.303	44561.36
721.646	44639.32
721.989	44325.66
722.331	44405.43
722.674	44391.42
723.016	44312.78
723.359	44153.68
723.701	44244.08
724.044	44101.26
724.386	43816.97
724.729	44041.37
725.071	43974.93
725.413	44037.98
725.755	43762.73
726.097	43877.31
726.439	43418.11
726.782	43507.15
727.124	43735.39
727.465	43486.58
727.807	43486.81
728.149	43383.08
728.491	43391.67
728.833	43406.36
729.175	43247.04
729.516	43294.72
729.858	43257.89
730.199	43293.37
730.541	43102.64
730.882	43054.96
731.224	43098.8
731.565	42919.37
731.906	43062.64
732.248	43031.68
732.589	42776.32
732.93	42670.78
733.271	42632.14
733.612	42806.83
733.953	42785.36
734.294	42548.98
734.635	42413.62
734.976	42469.43
735.317	42378.36
735.658	42363.22
735.999	42341.3
736.339	42316.9
736.68	42381.98
737.021	42284.13
737.361	42075.77
737.702	42332.04
738.042	42168.65
738.383	42102.21
738.723	42195.09
739.063	41978.6
739.404	42035.32
739.744	42023.34
740.084	41927.08
740.424	41820.19
740.764	41796.68
741.104	41935.66
741.444	41623.35
741.784	41662.45
742.124	41607.31
742.464	41529.57
742.804	41492.74
743.143	41593.52
743.483	41550.59
743.823	41388.56
744.162	41377.94
744.502	41221.56
744.841	41279.86
745.181	41441.66
745.52	41149.69
745.86	41259.97
746.199	41113.76
746.538	41225.17
746.877	41091.17
747.216	41186.53
747.556	40946.08
747.895	40970.49
748.234	40770.04
748.573	40741.34
748.911	40694.57
749.25	40837.61
749.589	40514.68
749.928	40657.05
750.267	40636.71
750.605	40537.28
750.944	40410.73
751.283	40352.43
751.621	40336.38
751.96	40167.35
752.298	40123.73
752.636	40076.05
752.975	39985.66
753.313	39839.67
753.651	40023.85
753.989	39806.68
754.327	39692.11
754.666	39592
755.004	39699.79
755.342	39566.69
755.679	39574.14
756.017	39394.94
756.355	39507.25
756.693	39150.2
757.031	39228.39
757.368	39081.73
757.706	39045.8
758.044	38948.85
758.381	38936.19
758.719	38800.15
759.056	38806.25
759.394	38704.11
759.731	38421.86
760.068	38436.77
760.405	38226.61
760.743	38102.54
761.08	38279.71
761.417	37981.64
761.754	37925.37
762.091	37862.1
762.428	37710.24
762.765	37534.42
763.102	37612.16
763.438	37406.52
763.775	37215.34
764.112	37250.36
764.449	37350.92
764.785	37135.79
765.122	37006.3
765.458	36822.13
765.795	36642.02
766.131	36720.88
766.467	36584.39
766.804	36363.38
767.14	36337.39
767.476	36313.21
767.812	36060.11
768.148	36201.12
768.485	35827.8
768.821	35612.44
769.157	35560.01
769.492	35601.14
769.828	35491.99
770.164	35182.62
770.5	35148.27
770.836	35150.08
771.171	34971.1
771.507	34829.86
771.842	34556.2
772.178	34680.94
772.513	34608.62
772.849	34503.77
773.184	34278.01
773.519	34244.57
773.855	34176.09
774.19	33953.05
774.525	33944.01
774.86	33836.21
775.195	33727.29
775.53	33672.38
775.865	33451.14
776.2	33119.62
776.535	33025.61
776.87	32962.79
777.205	32880.99
777.539	32738.84
777.874	32652.97
778.209	32392.41
778.543	32423.37
778.878	32103.15
779.212	32225.86
779.547	31983.61
779.881	32122.14
780.215	31907.68
780.55	31827
780.884	31745.65
781.218	31561.02
781.552	31613
781.886	31431.76
782.22	31264.53
782.554	31063.18
782.888	30929.17
783.222	30802.17
783.556	30597.66
783.889	30629.52
784.223	30406.02
784.557	30353.37
784.89	30346.82
785.224	30319.7
785.557	30107.95
785.891	30074.96
786.224	29953.15
786.558	29889.88
786.891	29538.02
787.224	29531.7
787.557	29474.3
787.891	29435.2
788.224	29346.84
788.557	29390.23
788.89	29323.57
789.223	29178.94
789.556	28961.31
789.888	28933.07
790.221	28776.91
790.554	28668.89
790.887	28632.28
791.219	28490.82
791.552	28402.46
791.884	28313.42
792.217	28175.57
792.549	28101.22
792.882	27878.41
793.214	27860.55
793.546	27731.97
793.879	27689.26
794.211	27435.48
794.543	27643.16
794.875	27523.84
795.207	27631.86
795.539	27214.02
795.871	27273.22
796.203	27069.39
796.535	26836.85
796.867	26883.63
797.198	26887.25
797.53	26836.4
797.862	26629.17
798.193	26649.29
798.525	26500.36
798.856	26539.91
799.188	26142.18
799.519	26178.34
799.85	26041.84
800.182	26136.76
800.513	26124.33
800.844	25755.07
801.175	25858.35
801.506	25844.33
801.837	25687.5
802.168	25689.08
802.499	25473.72
802.83	25494.06
803.161	25229.21
803.491	25328.64
803.822	25323.22
804.153	25053.17
804.483	24951.93
804.814	24957.35
805.145	24890.91
805.475	25000.51
805.805	24771.37
806.136	24737.47
806.466	24711.93
806.796	24626.74
807.126	24489.12
807.457	24499.51
807.787	24398.95
808.117	24326.63
808.447	24252.29
808.777	24335.67
809.107	24211.84
809.436	24059.97
809.766	24113.53
810.096	24015
810.426	23784.73
810.755	23812.07
811.085	23757.38
811.414	23772.98
811.744	23565.07
812.073	23509.48
812.403	23612.75
812.732	23385.64
813.061	23393.78
813.39	23274.46
813.719	23186.33
814.049	23358.3
814.378	23191.3
814.707	23098.87
815.036	23103.84
815.365	22961.25
815.693	22688.94
816.022	22774.81
816.351	22661.37
816.68	22613.23
817.008	22695.04
817.337	22529.62
817.665	22508.6
817.994	22497.3
818.322	22382.05
818.651	22313.35
818.979	22150.42
819.307	22325.78
819.636	22272.9
819.964	22056.64
820.292	22106.35
820.62	22083.98
820.948	21975.28
821.276	22019.8
821.604	22064.77
821.932	22075.39
822.259	22053.47
822.587	22023.19
822.915	21914.27
823.243	22090.53
823.57	21931.22
823.898	21980.03
824.225	21872.46
824.553	21930.31
824.88	21871.11
825.207	22017.09
825.535	21944.32
825.862	22031.78
826.189	21963.76
826.516	21955.62
826.843	21956.08
827.17	22077.2
827.497	21976.87
827.824	22022.29
828.151	22088.73
828.478	21914.49
828.805	21990.42
829.131	21924.44
829.458	21788.85
829.785	21725.8
830.111	21831.33
830.438	21913.36
830.764	21942.52
831.09	21878.79
831.417	21794.72
831.743	21918.79
832.069	21944.1
832.395	21771
832.722	21822.52
833.048	21779.81
833.374	21805.8
833.7	21723.54
834.026	21682.64
834.351	21661.62
834.677	21660.26
835.003	21642.86
835.329	21748.62
835.654	21644.45
835.98	21545.24
836.306	21576.42
836.631	21390.44
836.956	21466.14
837.282	21535.97
837.607	21384.79
837.932	21388.41
838.258	21397.22
838.583	21264.12
838.908	21128.53
839.233	21196.77
839.558	21142.54
839.883	21152.25
840.208	20980.28
840.533	21048.3
840.858	21084.91
841.182	20971.92
841.507	20963.78
841.832	20881.98
842.156	20919.49
842.481	20833.39
842.805	20851.25
843.13	20691.7
843.454	20729.21
843.778	20684.02
844.103	20547.52
844.427	20594.76
844.751	20455.1
845.075	20515.44
845.399	20404.25
845.723	20363.57
846.047	20420.97
846.371	20183.01
846.695	20210.36
847.019	19986.86
847.343	19900.31
847.666	19863.02
847.99	19825.74
848.313	19756.81
848.637	19555.46
848.96	19549.58
849.284	19566.31
849.607	19439.53
849.931	19364.73
850.254	19312.3
850.577	19132.65
850.9	19054.23
851.223	19044.29
851.546	19000.22
851.869	18746.67
852.192	18907.79
852.515	18766.55
852.838	18619.67
853.161	18647.91
853.483	18567.69
853.806	18371.76
854.129	18421.25
854.451	18315.49
854.774	18219.68
855.096	18146.91
855.419	18050.64
855.741	18058.78
856.063	17913.47
856.385	17923.19
856.708	17844.54
857.03	17774.26
857.352	17703.31
857.674	17747.15
857.996	17646.36
858.318	17585.79
858.64	17586.25
858.961	17438.68
859.283	17505.34
859.605	17443.43
859.926	17419.02
860.248	17425.8
860.57	17294.28
860.891	17293.15
861.212	17256.09
861.534	17138.8
861.855	17153.94
862.176	17104
862.498	17160.95
862.819	17066.03
863.14	16976.32
863.461	16899.71
863.782	16913.27
864.103	16943.55
864.424	16914.4
864.745	16918.47
865.065	16910.11
865.386	16816.55
865.707	16746.95
866.027	16747.62
866.348	16645.71
866.668	16687.29
866.989	16602.09
867.309	16491.59
867.63	16602.77
867.95	16685.71
868.27	16539.72
868.59	16427.41
868.91	16436.9
869.23	16386.05
869.55	16275.55
869.87	16366.62
870.19	16304.7
870.51	16331.14
870.83	16369.1
871.15	16258.15
871.469	16277.13
871.789	16250.01
872.109	16144.48
872.428	16110.81
872.748	16212.95
873.067	16134.31
873.386	16072.61
873.706	16169.79
874.025	16001.2
874.344	15970.47
874.663	16033.29
874.982	15913.52
875.301	15944.93
875.62	15861.09
875.939	15879.85
876.258	15747.2
876.577	15913.97
876.896	15816.12
877.214	15690.7
877.533	15687.54
877.852	15620.42
878.17	15581.33
878.489	15685.51
878.807	15657.94
879.125	15659.29
879.444	15585.85
879.762	15476.47
880.08	15497.49
880.398	15375.91
880.716	15430.6
881.034	15419.75
881.352	15408.68
881.67	15344.05
881.988	15387.43
882.306	15281.45
882.624	15316.48
882.941	15194.22
883.259	15054.56
883.577	15057.95
883.894	15025.86
884.212	15064.73
884.529	15048.91
884.846	15057.5
885.164	14995.58
885.481	14957.39
885.798	14979.76
886.115	14806.88
886.432	14819.99
886.75	14812.31
887.067	14736.15
887.383	14691.18
887.7	14765.3
888.017	14685.08
888.334	14636.04
888.651	14622.03
888.967	14448.02
889.284	14565.54
889.6	14455.93
889.917	14377.97
890.233	14386.78
890.55	14280.57
890.866	14311.53
891.182	14203.96
891.498	14186.11
891.815	14106.11
892.131	14099.78
892.447	14100.01
892.763	14084.87
893.079	13990.63
893.395	13994.93
893.71	13894.37
894.026	13841.49
894.342	13851.66
894.657	13760.81
894.973	13732.34
895.289	13717.87
895.604	13822.28
895.92	13615.05
896.235	13539.8
896.55	13610.08
896.865	13528.95
897.181	13406.24
897.496	13316.53
897.811	13283.53
898.126	13361.5
898.441	13223.88
898.756	13205.12
899.071	13183.42
899.386	13173.93
899.7	13048.06
900.015	13014.39
900.33	12890.55
900.644	12916.76
900.959	12836.09
901.273	12759.25
901.588	12833.15
901.902	12700.27
902.216	12648.52
902.531	12584.8
902.845	12600.39
903.159	12481.3
903.473	12414.63
903.787	12421.86
904.101	12343.22
904.415	12357.23
904.729	12390.45
905.042	12278.36
905.356	12118.82
905.67	12165.15
905.984	12143.23
906.297	12051.25
906.611	12069.78
906.924	12038.82
907.237	11932.16
907.551	11939.16
907.864	11823.01
908.177	11787.3
908.491	11824.59
908.804	11709.11
909.117	11640.19
909.43	11575.33
909.743	11577.37
910.056	11547.99
910.368	11438.84
910.681	11416.92
910.994	11402.68
911.307	11291.27
911.619	11239.07
911.932	11299.63
912.244	11168.56
912.557	11179.41
912.869	11091.95
913.181	11054.21
913.494	10965.4
913.806	10953.65
914.118	10908.68
914.43	10889.47
914.742	10860.77
915.054	10728.35
915.366	10778.52
915.678	10661.23
915.99	10671.85
916.302	10586.43
916.613	10444.51
916.925	10509.82
917.236	10443.84
917.548	10372.88
917.859	10387.11
918.171	10284.97
918.482	10241.58
918.794	10268.92
919.105	10176.95
919.416	10104.41
919.727	10095.14
920.038	10093.11
920.349	9966.33
920.66	9975.15
920.971	9988.71
921.282	9906
921.593	9918.88
921.903	9766.34
922.214	9867.81
922.525	9751.65
922.835	9690.86
923.146	9629.39
923.456	9546.91
923.767	9541.03
924.077	9521.6
924.387	9501.71
924.697	9422.62
925.008	9370.19
925.318	9362.96
925.628	9262.62
925.938	9263.3
926.248	9158.67
926.558	9191.67
926.867	9147.37
927.177	9166.36
927.487	9036.64
927.796	8997.09
928.106	8977.43
928.416	8920.94
928.725	8809.98
929.034	8785.35
929.344	8849.3
929.653	8831.67
929.962	8740.6
930.271	8696.99
930.581	8698.12
930.89	8654.28
931.199	8612.02
931.508	8539.25
931.817	8541.96
932.125	8517.11
932.434	8482.31
932.743	8405.25
933.051	8370.67
933.36	8276.21
933.669	8265.59
933.977	8254.51
934.286	8269.88
934.594	8213.61
934.902	8139.72
935.21	8097.68
935.519	8153.73
935.827	8087.29
936.135	8007.52
936.443	7936.33
936.751	7886.61
937.059	7879.84
937.367	7825.37
937.674	7829.67
937.982	7831.93
938.29	7826.28
938.597	7803.68
938.905	7681.42
939.213	7672.83
939.52	7598.49
939.827	7626.28
940.135	7565.72
940.442	7476.68
940.749	7519.17
941.056	7530.47
941.363	7442.33
941.67	7449.56
941.977	7329.34
942.284	7275.78
942.591	7244.37
942.898	7231.94
943.205	7255.67
943.511	7168.89
943.818	7151.04
944.125	7155.56
944.431	7186.97
944.738	7142.23
945.044	7057.71
945.35	7028.11
945.657	6983.59
945.963	6976.58
946.269	6892.74
946.575	6928.45
946.881	6824.04
947.187	6801.67
947.493	6785.63
947.799	6779.75
948.105	6781.56
948.41	6676.7
948.716	6716.93
949.022	6659.3
949.327	6612.98
949.633	6514.22
949.938	6574.78
950.244	6507.67
950.549	6496.82
950.854	6433.32
951.16	6385.64
951.465	6438.29
951.77	6433.32
952.075	6351.51
952.38	6387.9
952.685	6368.69
952.99	6257.5
953.294	6219.77
953.599	6172.54
953.904	6255.25
954.209	6143.38
954.513	6154.68
954.818	6128.69
955.122	6084.18
955.426	6059.77
955.731	6008.92
956.035	6011.41
956.339	6018.42
956.643	5964.86
956.948	5882.6
957.252	5932.99
957.556	5867.68
957.86	5852.77
958.163	5813.67
958.467	5784.98
958.771	5808.25
959.075	5733.22
959.378	5707.24
959.682	5700.91
959.985	5689.16
960.289	5650.74
960.592	5560.8
960.896	5558.09
961.199	5531.2
961.502	5544.98
961.805	5480.8
962.108	5479.45
962.411	5489.84
962.714	5436.06
963.017	5453.91
963.32	5410.97
963.623	5379.11
963.926	5341.6
964.228	5331.2
964.531	5248.04
964.833	5282.84
965.136	5239
965.438	5235.61
965.741	5197.42
966.043	5196.97
966.345	5137.53
966.648	5114.03
966.95	5105.67
967.252	5082.17
967.554	5056.86
967.856	5066.12
968.158	4983.19
968.46	4945.68
968.761	4984.32
969.063	4952.45
969.365	4925.79
969.666	4874.94
969.968	4851.44
970.269	4888.28
970.571	4883.53
970.872	4836.07
971.174	4766.24
971.475	4772.12
971.776	4749.07
972.077	4723.08
972.378	4735.06
972.679	4712.46
972.98	4655.97
973.281	4641.73
973.582	4589.98
973.883	4581.16
974.183	4589.3
974.484	4558.57
974.785	4521.73
975.085	4547.49
975.386	4527.15
975.686	4497.33
975.986	4501.84
976.287	4495.52
976.587	4418.91
976.887	4359.02
977.187	4363.54
977.487	4355.41
977.787	4374.39
978.087	4332.58
978.387	4306.82
978.687	4251.23
978.987	4236.09
979.286	4241.06
979.586	4281.96
979.885	4221.4
980.185	4173.27
980.484	4133.27
980.784	4158.8
981.083	4161.74
981.382	4088.97
981.682	4098.01
981.981	4102.53
982.28	4038.13
982.579	4027.28
982.878	4008.75
983.177	4004
983.475	4007.85
983.774	3936.44
984.073	3922.2
984.372	3913.39
984.67	3933.95
984.969	3876.55
985.267	3902.31
985.566	3862.99
985.864	3856.21
986.162	3806.72
986.461	3787.06
986.759	3793.16
987.057	3728.98
987.355	3711.13
987.653	3746.38
987.951	3721.3
988.249	3724.24
988.547	3669.32
988.844	3653.28
989.142	3627.97
989.44	3624.35
989.737	3595.43
990.035	3573.51
990.332	3557.69
990.63	3522.44
990.927	3565.82
991.224	3507.29
991.521	3488.54
991.819	3509.1
992.116	3459.61
992.413	3476.34
992.71	3411.03
993.006	3432.04
993.303	3432.72
993.6	3403.12
993.897	3340.75
994.193	3337.81
994.49	3323.12
994.787	3333.97
995.083	3323.8
995.379	3304.36
995.676	3259.84
995.972	3246.96
996.268	3201.54
996.565	3200.41
996.861	3220.75
997.157	3178.72
997.453	3173.52
997.749	3148.89
998.044	3141.88
998.34	3087.42
998.636	3097.81
998.932	3093.07
999.227	3056.01
999.523	3043.8
999.818	3068.44
1000.114	2991.15
1000.409	3002.68
1000.704	3019.4
1001	2976.46
1001.295	2967.87
1001.59	2944.82
1001.885	2921.1
1002.18	2905.5
1002.475	2903.69
1002.77	2886.29
1003.065	2872.74
1003.359	2851.72
1003.654	2845.62
1003.949	2779.63
1004.243	2813.75
1004.538	2791.83
1004.832	2758.39
1005.127	2750.48
1005.421	2753.19
1005.715	2704.15
1006.009	2678.84
1006.304	2708.22
1006.598	2684.27
1006.892	2628
1007.186	2636.36
1007.48	2642.23
1007.773	2581.9
1008.067	2583.7
1008.361	2550.48
1008.655	2536.7
1008.948	2522.24
1009.242	2526.76
1009.535	2501.22
1009.829	2508.68
1010.122	2475.68
1010.415	2493.76
1010.708	2465.74
1011.001	2468.45
1011.295	2423.26
1011.588	2371.73
1011.881	2376.93
1012.173	2369.47
1012.466	2357.04
1012.759	2341.68
1013.052	2332.41
1013.344	2331.73
1013.637	2289.47
1013.93	2310.72
1014.222	2306.65
1014.514	2289.7
1014.807	2249.25
1015.099	2245.63
1015.391	2217.61
1015.683	2226.42
1015.976	2187.1
1016.268	2181.45
1016.56	2161.57
1016.851	2162.25
1017.143	2130.38
1017.435	2113.21
1017.727	2112.3
1018.018	2093.32
1018.31	2062.36
1018.602	2053.55
1018.893	2049.25
1019.185	2051.74
1019.476	2008.35
1019.767	2011.06
1020.058	2007.22
1020.35	1987.11
1020.641	1976.94
1020.932	1942.14
1021.223	1959.54
1021.514	1897.17
1021.804	1893.78
1022.095	1896.04
1022.386	1895.59
1022.677	1870.95
1022.967	1883.38
1023.258	1847.45
1023.548	1827.11
1023.839	1823.5
1024.129	1814.68
1024.419	1781.01
1024.709	1768.58
1025	1760.67
1025.29	1755.93
1025.58	1740.11
1025.87	1736.72
1026.16	1728.81
1026.449	1714.35
1026.739	1722.26
1027.029	1700.34
1027.319	1691.52
1027.608	1647.23
1027.898	1680.45
1028.187	1639.1
1028.477	1614.46
1028.766	1599.55
1029.055	1607.68
1029.344	1573.56
1029.634	1581.02
1029.923	1575.37
1030.212	1552.54
1030.501	1554.35
1030.79	1539.21
1031.078	1505.54
1031.367	1512.32
1031.656	1505.99
1031.945	1484.98
1032.233	1475.03
1032.522	1464.64
1032.81	1479.1
1033.099	1448.82
1033.387	1424.41
1033.675	1441.81
1033.963	1398.65
1034.251	1404.53
1034.54	1389.61
1034.828	1379.89
1035.116	1400.91
1035.403	1373.57
1035.691	1365.43
1035.979	1345.77
1036.267	1338.31
1036.554	1357.75
1036.842	1315.94
1037.129	1316.39
1037.417	1294.25
1037.704	1295.6
1037.992	1284.08
1038.279	1289.95
1038.566	1250.18
1038.853	1250.18
1039.14	1250.18
