Data from orange_diffuse_book_FLMS001491_00038.txt Node
Date: Wed Feb 08 15:29:28 GMT 2017
User: dcchb
Spectrometer: FLMS00149
Trigger mode: 0
Integration Time (sec): 2.000000E-2
Scans to average: 10
Electric dark correction enabled: true
Nonlinearity correction enabled: false
Boxcar width: 0
XAxis mode: Wavelengths
Number of Pixels in Spectrum: 2048
>>>>>Begin Spectral Data<<<<<
341.393	-17.4
341.776	-17.4
342.16	-17.4
342.543	-57.17
342.927	-67.79
343.31	-57.63
343.693	-69.83
344.077	-56.5
344.46	-68.25
344.843	-69.38
345.226	-54.91
345.61	-1.36
345.993	-12.66
346.376	-3.16
346.759	-7.46
347.142	38.87
347.525	35.25
347.908	68.25
348.291	76.61
348.674	82.94
349.057	99.21
349.44	119.77
349.823	142.37
350.206	176.49
350.588	193.89
350.971	225.53
351.354	258.52
351.737	246.1
352.119	248.58
352.502	267.56
352.884	281.8
353.267	305.53
353.65	298.98
354.032	331.74
354.414	339.2
354.797	320.22
355.179	329.71
355.562	328.58
355.944	353.44
356.326	346.43
356.709	357.73
357.091	345.08
357.473	349.6
357.855	359.09
358.238	367.22
358.62	346.66
359.002	383.27
359.384	363.38
359.766	359.99
360.148	348.24
360.53	366.54
360.912	366.09
361.294	346.66
361.676	381.46
362.057	351.4
362.439	342.82
362.821	356.83
363.203	345.3
363.584	351.86
363.966	327.9
364.348	341.91
364.729	362.02
365.111	340.56
365.493	343.72
365.874	341.23
366.256	356.15
366.637	337.62
367.019	338.3
367.4	351.86
367.781	351.4
368.163	318.41
368.544	344.62
368.925	355.24
369.306	331.06
369.688	323.83
370.069	353.89
370.45	337.39
370.831	329.26
371.212	334.23
371.593	344.62
371.974	324.96
372.355	345.3
372.736	323.38
373.117	319.77
373.498	350.27
373.879	343.49
374.26	343.04
374.641	334.68
375.021	338.75
375.402	332.87
375.783	347.79
376.163	343.27
376.544	374.23
376.925	362.48
377.305	362.25
377.686	323.61
378.066	334.91
378.447	360.22
378.827	380.55
379.208	356.15
379.588	356.83
379.968	345.75
380.349	379.88
380.729	381.68
381.109	360.22
381.489	352.31
381.87	367.9
382.25	344.62
382.63	363.15
383.01	371.29
383.39	372.65
383.77	366.77
384.15	355.24
384.53	349.82
384.91	361.8
385.29	352.76
385.67	362.93
386.049	404.51
386.429	395.02
386.809	396.15
387.189	407.67
387.568	389.14
387.948	392.98
388.328	386.88
388.707	393.44
389.087	389.14
389.466	391.85
389.846	365.19
390.225	388.92
390.605	409.25
390.984	413.1
391.363	404.28
391.743	402.25
392.122	402.7
392.501	385.75
392.881	397.5
393.26	414.45
393.639	409.25
394.018	407.67
394.397	416.49
394.776	401.57
395.155	410.16
395.534	408.12
395.913	401.8
396.292	428.01
396.671	434.79
397.05	431.4
397.429	426.43
397.808	434.79
398.186	421.46
398.565	427.79
398.944	434.56
399.323	447.45
399.701	453.77
400.08	441.8
400.458	442.47
400.837	452.87
401.215	424.62
401.594	457.84
401.972	450.61
402.351	442.25
402.729	455.81
403.107	443.38
403.486	463.04
403.864	456.71
404.242	438.18
404.62	458.97
404.999	457.84
405.377	480.67
405.755	472.08
406.133	463.72
406.511	451.97
406.889	463.72
407.267	484.73
407.645	484.28
408.023	482.47
408.401	493.55
408.779	486.31
409.156	505.75
409.534	490.38
409.912	495.81
410.29	504.39
410.667	514.79
411.045	513.21
411.422	522.92
411.8	489.48
412.178	533.32
412.555	534.9
412.933	536.03
413.31	538.06
413.687	532.42
414.065	555.47
414.442	557.27
414.819	556.6
415.197	572.41
415.574	561.12
415.951	581.91
416.328	585.52
416.705	576.03
417.082	563.38
417.46	560.21
417.837	565.86
418.214	575.8
418.591	577.16
418.967	615.13
419.344	601.34
419.721	606.54
420.098	613.77
420.475	618.51
420.852	589.59
421.228	619.64
421.605	635.69
421.982	616.71
422.358	639.53
422.735	629.36
423.111	635.69
423.488	646.54
423.864	639.76
424.241	667.1
424.617	671.62
424.994	639.08
425.37	682.47
425.746	666.65
426.123	661
426.499	696.25
426.875	703.03
427.251	688.8
427.627	694.45
428.003	715.01
428.379	710.94
428.756	725.4
429.132	730.15
429.507	730.38
429.883	731.28
430.259	747.1
430.635	744.84
431.011	741.22
431.387	734.9
431.763	771.28
432.138	773.76
432.514	800.66
432.89	791.62
433.265	797.04
433.641	790.94
434.016	809.47
434.392	811.96
434.767	841.79
435.143	832.29
435.518	828.68
435.894	853.76
436.269	847.21
436.644	867.77
437.02	876.59
437.395	877.94
437.77	884.95
438.145	879.07
438.52	890.6
438.895	910.71
439.271	895.34
439.646	936.02
440.021	917.72
440.395	945.06
440.77	939.86
441.145	891.73
441.52	924.5
441.895	957.04
442.27	956.59
442.645	989.35
443.019	966.08
443.394	954.33
443.769	950.03
444.143	964.27
444.518	973.99
444.892	991.84
445.267	1002.23
445.641	985.74
446.016	1013.31
446.39	989.13
446.764	1029.13
447.139	989.8
447.513	1010.59
447.887	1013.53
448.262	1004.95
448.636	1026.87
449.01	1032.97
449.384	1034.32
449.758	1043.81
450.132	1060.31
450.506	1056.92
450.88	1062.8
451.254	1081.1
451.628	1059.86
452.002	1080.2
452.376	1093.3
452.75	1106.64
453.123	1127.43
453.497	1123.13
453.871	1078.84
454.244	1126.07
454.618	1164.26
454.992	1148.44
455.365	1148.9
455.739	1177.14
456.112	1223.7
456.486	1184.83
456.859	1210.82
457.232	1206.3
457.606	1207.65
457.979	1250.81
458.352	1247.2
458.725	1270.48
459.099	1240.65
459.472	1293.53
459.845	1286.97
460.218	1310.02
460.591	1314.32
460.964	1324.03
461.337	1348.89
461.71	1344.15
462.083	1391.83
462.456	1398.38
462.829	1389.79
463.201	1412.39
463.574	1407.65
463.947	1427.53
464.32	1436.57
464.692	1430.7
465.065	1478.15
465.438	1474.54
465.81	1502.11
466.183	1487.64
466.555	1531.03
466.928	1538.04
467.3	1526.51
467.672	1547.3
468.045	1581.65
468.417	1578.94
468.789	1602.67
469.161	1620.75
469.534	1629.34
469.906	1629.34
470.278	1647.87
470.65	1677.02
471.022	1715.66
471.394	1733.51
471.766	1751.59
472.138	1744.81
472.51	1755.66
472.882	1804.25
473.253	1849.44
473.625	1853.51
473.997	1877.46
474.369	1889.22
474.74	1908.65
475.112	1943.23
475.484	1952.04
475.855	2006.27
476.227	2012.83
476.598	2022.55
476.97	2073.84
477.341	2091.92
477.713	2114.97
478.084	2144.12
478.455	2194.29
478.827	2222.54
479.198	2273.39
479.569	2245.14
479.94	2339.83
480.311	2312.93
480.682	2372.82
481.053	2419.15
481.424	2451.69
481.795	2455.75
482.166	2505.7
482.537	2540.5
482.908	2597.45
483.279	2615.3
483.65	2635.41
484.021	2706.82
484.391	2733.04
484.762	2772.81
485.133	2840.38
485.503	2818.91
485.874	2905.46
486.244	2929.41
486.615	2973.71
486.985	3022.75
487.356	3029.52
487.726	3044.21
488.097	3140.93
488.467	3176.64
488.837	3194.72
489.207	3290.99
489.578	3250.08
489.948	3366.47
490.318	3442.85
490.688	3382.28
491.058	3487.59
491.428	3549.51
491.798	3546.12
492.168	3636.97
492.538	3640.36
492.908	3716.51
493.278	3747.47
493.648	3717.87
494.017	3798.54
494.387	3873.8
494.757	3916.51
495.126	3970.29
495.496	4024.98
495.866	4009.84
496.235	4084.64
496.605	4080.12
496.974	4147.24
497.344	4178.87
497.713	4257.29
498.082	4280.57
498.452	4251.64
498.821	4368.02
499.19	4355.59
499.559	4389.04
499.928	4419.09
500.298	4503.61
500.667	4524.63
501.036	4517.4
501.405	4570.5
501.774	4579.99
502.143	4676.26
502.512	4642.36
502.88	4778.86
503.249	4782.7
503.618	4829.48
503.987	4803.72
504.356	4893.43
504.724	4924.16
505.093	4930.04
505.462	4962.36
505.83	4981.11
506.199	5053.88
506.567	5111.28
506.936	5087.32
507.304	5156.47
507.672	5188.11
508.041	5277.15
508.409	5311.72
508.777	5339.52
509.145	5354.66
509.514	5411.84
509.882	5409.35
510.25	5463.59
510.618	5495.45
510.986	5536.58
511.354	5624.94
511.722	5614.32
512.09	5647.76
512.458	5721.43
512.826	5719.85
513.193	5754.2
513.561	5820.64
513.929	5862.9
514.297	5887.75
514.664	5933.63
515.032	5969.11
515.4	6033.29
515.767	6028.77
516.135	6046.85
516.502	6095.43
516.869	6204.58
517.237	6217.92
517.604	6203.45
517.972	6246.84
518.339	6318.93
518.706	6360.06
519.073	6368.87
519.44	6402.54
519.808	6442.32
520.175	6517.34
520.542	6577.23
520.909	6662.2
521.276	6673.5
521.643	6680.73
522.009	6729.99
522.376	6804.57
522.743	6814.28
523.11	6934.05
523.477	6925.02
523.843	7015.63
524.21	7039.36
524.577	7169.75
524.943	7145.57
525.31	7149.87
525.676	7275.29
526.043	7291.33
526.409	7309.86
526.776	7424.21
527.142	7440.26
527.508	7466.02
527.874	7525.68
528.241	7606.35
528.607	7616.3
528.973	7691.78
529.339	7736.97
529.705	7752.11
530.071	7814.03
530.437	7855.61
530.803	7934.48
531.169	7919.57
531.535	7973.8
531.901	7987.81
532.267	8043.18
532.632	8122.5
532.998	8193.46
533.364	8232.33
533.73	8235.49
534.095	8240.01
534.461	8350.06
534.826	8261.25
535.192	8398.65
535.557	8381.47
535.923	8403.17
536.288	8435.71
536.653	8479.1
537.019	8485.43
537.384	8543.96
537.749	8602.49
538.114	8634.58
538.479	8645.87
538.845	8720
539.21	8759.32
539.575	8782.37
539.94	8785.76
540.305	8884.06
540.67	8813.33
541.034	8965.19
541.399	9011.06
541.764	9005.41
542.129	8984.17
542.494	9125.41
542.858	9095.35
543.223	9107.11
543.587	9136.71
543.952	9157.73
544.316	9227.78
544.681	9245.41
545.045	9285.63
545.41	9375.8
545.774	9453.76
546.138	9420.32
546.503	9495.12
546.867	9472.75
547.231	9529.69
547.595	9586.64
547.959	9659.63
548.324	9635.45
548.688	9739.63
549.052	9706.86
549.416	9813.98
549.779	9770.59
550.143	9908.44
550.507	9923.35
550.871	9993.41
551.235	9989.34
551.599	10071.15
551.962	10102.79
552.326	10175.1
552.689	10262.56
553.053	10243.35
553.417	10263.46
553.78	10467.97
554.143	10430.01
554.507	10460.29
554.87	10563.79
555.234	10677.23
555.597	10639.04
555.96	10709.1
556.323	10787.06
556.686	10803.11
557.05	10916.1
557.413	10910.45
557.776	11053.95
558.139	11137.33
558.502	11145.92
558.865	11130.1
559.228	11297.78
559.59	11342.98
559.953	11436.99
560.316	11545.46
560.679	11606.25
561.041	11750.2
561.404	11813.25
561.767	11875.62
562.129	11892.12
562.492	12093.02
562.854	12106.35
563.217	12191.32
563.579	12257.98
563.941	12392.22
564.304	12502.27
564.666	12646
565.028	12740
565.39	12830.4
565.753	12957.85
566.115	13038.53
566.477	13081.69
566.839	13250.05
567.201	13437.84
567.563	13419.31
567.925	13563.49
568.287	13763.25
568.648	13761.22
569.01	14066.07
569.372	14144.03
569.734	14298.38
570.095	14413.18
570.457	14515.78
570.819	14730.23
571.18	14784.24
571.542	15006.16
571.903	15154.63
572.265	15354.62
572.626	15438.46
572.987	15654.5
573.349	15880.71
573.71	15942.18
574.071	16261.95
574.432	16370.19
574.794	16639.79
575.155	16798.88
575.516	16903.96
575.877	17225.08
576.238	17520.44
576.599	17705.52
576.96	17837.27
577.32	18041.33
577.681	18298.95
578.042	18580.75
578.403	18872.05
578.763	19107.52
579.124	19372.6
579.485	19682.65
579.845	19978.68
580.206	20253.93
580.566	20501.38
580.927	20793.58
581.287	21167.81
581.648	21318.08
582.008	21800.1
582.368	22094.79
582.728	22319.64
583.089	22658.39
583.449	22969.34
583.809	23358.03
584.169	23687.29
584.529	23965.25
584.889	24649.07
585.249	24662.18
585.609	25112.11
585.969	25684.3
586.329	25901.69
586.688	26300.78
587.048	26800.2
587.408	27088.78
587.768	27511.82
588.127	28013.73
588.487	28297.79
588.846	28888.28
589.206	29113.36
589.565	29460.92
589.925	30112.65
590.284	30362.59
590.643	30830.38
591.003	31376.35
591.362	31840.97
591.721	32211.81
592.08	32735.18
592.44	33320.48
592.799	33713.24
593.158	33957.98
593.517	34664.63
593.876	35013.09
594.235	35414.44
594.593	35894.65
594.952	36474.07
595.311	36863.44
595.67	37258
596.029	37889.63
596.387	38340.69
596.746	38798.75
597.104	39142.93
597.463	39565.29
597.822	40136.35
598.18	40410.69
598.538	40733.84
598.897	41390.1
599.255	41391.91
599.613	42409.96
599.972	42455.61
600.33	42975.82
600.688	43158.64
601.046	43793.88
601.404	44263.24
601.762	44455.78
602.12	45118.14
602.478	45337.34
602.836	45730.1
603.194	45887.16
603.552	46323.08
603.91	46320.14
604.268	46870.41
604.625	47201.92
604.983	47588.35
605.341	47717.84
605.698	48175.23
606.056	48464.26
606.413	48639.4
606.771	48937.47
607.128	49233.96
607.485	49401.41
607.843	49485.48
608.2	49816.77
608.557	50320.71
608.914	50297.43
609.272	50693.13
609.629	50934.71
609.986	51226.22
610.343	51131.54
610.7	51493.11
611.057	51629.15
611.414	51751.86
611.771	51925.64
612.127	52122.25
612.484	52167.44
612.841	52569.47
613.198	52388.68
613.554	52515
613.911	52871.38
614.267	52867.76
614.624	52942.11
614.98	53057.59
615.337	53334.64
615.693	53423.91
616.05	53495.77
616.406	53761.75
616.762	53679.27
617.118	53721.53
617.475	53798.59
617.831	54008.98
618.187	54113.38
618.543	54171.01
618.899	54391.56
619.255	54365.35
619.611	54431.56
619.967	54571.22
620.323	54681.73
620.678	54660.03
621.034	54555.63
621.39	54696.41
621.746	54704.1
622.101	54934.6
622.457	54799.92
622.812	54881.27
623.168	54995.62
623.523	55019.57
623.879	55178.89
624.234	54997.42
624.589	55114.93
624.945	55203.75
625.3	55240.36
625.655	55244.88
626.01	55236.97
626.365	55346.79
626.72	55270.19
627.075	55299.11
627.43	55366.91
627.785	55309.05
628.14	55437.19
628.495	55500.24
628.85	55421.59
629.205	55380.92
629.559	55608.71
629.914	55433.34
630.269	55459.33
630.623	55476.06
630.978	55445.77
631.332	55580.91
631.687	55521.93
632.041	55540.69
632.396	55501.37
632.75	55442.16
633.104	55532.33
633.459	55349.28
633.813	55461.37
634.167	55429.73
634.521	55421.37
634.875	55521.03
635.229	55427.92
635.583	55351.31
635.937	55357.87
636.291	55359.45
636.645	55353.57
636.999	55271.54
637.352	55397.87
637.706	55325.55
638.06	55345.21
638.413	55343.86
638.767	55270.19
639.121	55382.05
639.474	55148.15
639.828	55126.69
640.181	55231.99
640.534	55280.13
640.888	55203.29
641.241	55085.33
641.594	55058.21
641.947	55287.13
642.301	55154.03
642.654	55172.33
643.007	55124.88
643.36	55174.59
643.713	55147.48
644.066	55289.62
644.419	54969.4
644.771	54813.02
645.124	54504.78
645.477	54573.93
645.83	54345.69
646.182	54375.29
646.535	54256.88
646.888	54280.83
647.24	54128.29
647.593	54375.29
647.945	54305.92
648.298	54184.34
648.65	54120.84
649.002	54052.14
649.355	54229.53
649.707	54074.74
650.059	54171.23
650.411	54617.09
650.763	54654.83
651.115	54883.3
651.467	54844.66
651.819	54775.73
652.171	54700.93
652.523	54784.55
652.875	54727.37
653.227	54615.06
653.578	54807.15
653.93	54763.53
654.282	54601.28
654.633	54619.35
654.985	54645.12
655.337	54615.51
655.688	54587.72
656.039	54725.34
656.391	54522.86
656.742	54555.63
657.094	54583.88
657.445	54679.69
657.796	54640.15
658.147	54546.59
658.498	54579.58
658.849	54652.35
659.2	54606.25
659.551	54568.28
659.902	54591.33
660.253	54567.6
660.604	54655.29
660.955	54531.45
661.306	54545.46
661.656	54469.98
662.007	54505.46
662.358	54497.32
662.708	54528.74
663.059	54438.57
663.409	54268.4
663.76	54558.34
664.11	54541.39
664.461	54547.27
664.811	54510.21
665.161	54435.18
665.511	54325.8
665.862	54477.44
666.212	54505.91
666.562	54465.91
666.912	54446.03
667.262	54361.51
667.612	54310.44
667.962	54357.21
668.312	54349.53
668.662	54485.57
669.011	54333.49
669.361	54271.57
669.711	54344.11
670.06	54262.75
670.41	54133.27
670.76	54160.38
671.109	54298.91
671.459	54192.25
671.808	54168.75
672.157	54254.39
672.507	54058.01
672.856	54094.85
673.205	54099.82
673.554	54144.34
673.904	54058.01
674.253	54246.71
674.602	54031.35
674.951	53705.93
675.3	53482.44
675.649	53955.87
675.998	53941.41
676.346	53966.26
676.695	53979.37
677.044	53797.68
677.393	53851.69
677.741	53866.83
678.09	53823.67
678.438	53790.45
678.787	53830.45
679.135	53805.82
679.484	53580.74
679.832	53749.32
680.181	53532.15
680.529	53645.82
680.877	53594.52
681.225	53579.61
681.573	53695.09
681.922	53509.1
682.27	53401.08
682.618	53388.88
682.966	53400.63
683.314	53411.02
683.661	53321.54
684.009	53164.48
684.357	53105.5
684.705	53001.54
685.053	53082.22
685.4	53034.99
685.748	52925.39
686.095	52874.32
686.443	52838.16
686.79	52755
687.138	52780.53
687.485	52822.79
687.832	52722.46
688.18	52650.82
688.527	52554.32
688.874	52537.38
689.221	52342.58
689.568	52371.96
689.915	52257.16
690.262	52253.32
690.609	52107.56
690.956	52028.01
691.303	52035.69
691.65	51837.06
691.997	51841.35
692.344	51658.75
692.69	51612.65
693.037	51603.16
693.383	51390.06
693.73	51552.99
694.077	51344.86
694.423	51356.39
694.769	51077.75
695.116	51164.3
695.462	51030.97
695.808	50942.39
696.155	51099.22
696.501	50702.62
696.847	50801.83
697.193	50462.18
697.539	50729.97
697.885	50383.53
698.231	50264.89
698.577	50169.08
698.923	50169.75
699.269	50024.67
699.614	49898.35
699.96	49802.98
700.306	49753.04
700.651	49630.33
700.997	49521.18
701.342	49560.28
701.688	49442.54
702.033	49231.47
702.379	49234.19
702.724	49125.71
703.069	49101.53
703.415	48787.19
703.76	48906.28
704.105	48751.94
704.45	48655.9
704.795	48464.94
705.14	48299.52
705.485	48375.45
705.83	48218.62
706.175	48225.62
706.52	48089.13
706.865	47864.73
707.209	47939.08
707.554	47671.74
707.899	47729.82
708.243	47634.91
708.588	47436.72
708.932	47315.14
709.277	47285.76
709.621	47238.53
709.966	46978.43
710.31	47119.67
710.654	46796.28
710.998	46796.96
711.342	46961.25
711.687	46775.04
712.031	46573.01
712.375	46421.6
712.719	46489.17
713.063	46477.2
713.407	46497.31
713.75	46235.85
714.094	46180.25
714.438	46135.28
714.782	46153.81
715.125	45827.27
715.469	45932.58
715.812	45617.78
716.156	45658.91
716.499	45617.11
716.843	45718.8
717.186	45350.9
717.53	45629.99
717.873	45457.56
718.216	45440.84
718.559	45260.5
718.902	45037.69
719.246	45192.48
719.589	45031.36
719.932	44878.37
720.275	44822.55
720.617	44907.29
720.96	44748.43
721.303	44736.68
721.646	44778.94
721.989	44420.07
722.331	44705.94
722.674	44543.46
723.016	44531.03
723.359	44545.72
723.701	44489.9
724.044	44183.7
724.386	44032.97
724.729	44309.57
725.071	44143.7
725.413	44141.21
725.755	43963.14
726.097	43731.05
726.439	43703.71
726.782	43695.35
727.124	43873.2
727.465	43653.32
727.807	43763.14
728.149	43587.33
728.491	43590.94
728.833	43593.43
729.175	43457.39
729.516	43393.44
729.858	43400.89
730.199	43405.41
730.541	43188.69
730.882	43105.99
731.224	43333.78
731.565	43017.4
731.906	43115.93
732.248	43201.12
732.589	42854.69
732.93	42729.5
733.271	42830.74
733.612	42916.39
733.953	42929.94
734.294	42644.53
734.635	42556.85
734.976	42655.83
735.317	42394.82
735.658	42548.26
735.999	42466.68
736.339	42405.44
736.68	42550.07
737.021	42322.05
737.361	42148.95
737.702	42461.26
738.042	42276.85
738.383	42231.88
738.723	42261.71
739.063	42069.85
739.404	42206.8
739.744	41967.48
740.084	41931.55
740.424	42003.42
740.764	41943.53
741.104	41950.76
741.444	41826.02
741.784	41685.68
742.124	41734.72
742.464	41735.17
742.804	41608.62
743.143	41497.67
743.483	41454.5
743.823	41376.31
744.162	41300.16
744.502	41502.19
744.841	41188.3
745.181	41357.33
745.52	41194.4
745.86	41321.17
746.199	41137.68
746.538	41099.03
746.877	41183.32
747.216	41073.27
747.556	41024.46
747.895	41008.64
748.234	40692.26
748.573	40771.58
748.911	40811.36
749.25	40714.64
749.589	40541.31
749.928	40634.86
750.267	40648.65
750.605	40576.33
750.944	40471.7
751.283	40346.51
751.621	40361.42
751.96	40171.37
752.298	40257.92
752.636	40094.99
752.975	40045.5
753.313	39885.96
753.651	40134.54
753.989	39812.29
754.327	39670.82
754.666	39616.81
755.004	39748.11
755.342	39714.44
755.679	39493.2
756.017	39333.43
756.355	39541.79
756.693	39256.59
757.031	39250.72
757.368	39091.18
757.706	39172.3
758.044	38905.42
758.381	38962.59
758.719	38871.07
759.056	38774.35
759.394	38708.36
759.731	38364.64
760.068	38357.64
760.405	38264.08
760.743	38214.59
761.08	38179.11
761.417	37960.13
761.754	37943.41
762.091	37904.77
762.428	37713.81
762.765	37562.63
763.102	37668.84
763.438	37392.24
763.775	37255.97
764.112	37312.69
764.449	37269.98
764.785	37208.97
765.122	36872.93
765.458	36737.57
765.795	36643.78
766.131	36710.67
766.467	36499.38
766.804	36341.87
767.14	36302.1
767.476	36280.63
767.812	36027.98
768.148	36134.64
768.485	35946.17
768.821	35702.79
769.157	35721.09
769.492	35463.02
769.828	35555.68
770.164	35089.02
770.5	35191.39
770.836	35264.38
771.171	34974.67
771.507	34796.37
771.842	34661.46
772.178	34491.3
772.513	34574.01
772.849	34481.35
773.184	34351.87
773.519	34256.73
773.855	34002.72
774.19	33959.79
774.525	33895.15
774.86	33804.76
775.195	33825.33
775.53	33592.11
775.865	33399.8
776.2	33171.33
776.535	33015.18
776.87	32944.67
777.205	32830.1
777.539	32808.85
777.874	32833.03
778.209	32437.34
778.543	32353.05
778.878	32157.35
779.212	32171.36
779.547	32083.9
779.881	32071.93
780.215	31897.24
780.55	31978.14
780.884	31624.03
781.218	31470.36
781.552	31509.45
781.886	31395.33
782.22	31295.45
782.554	31276.69
782.888	30853.65
783.222	30858.85
783.556	30606.2
783.889	30555.35
784.223	30433.1
784.557	30361.69
784.89	30473.1
785.224	30290.28
785.557	30143.84
785.891	30087.12
786.224	29952.21
786.558	29957.86
786.891	29709.28
787.224	29527.81
787.557	29537.53
787.891	29506.57
788.224	29494.82
788.557	29352.67
788.89	29325.33
789.223	29148.61
789.556	29054.6
789.888	28825
790.221	28847.38
790.554	28585.46
790.887	28605.58
791.219	28561.51
791.552	28369.88
791.884	28277.67
792.217	28267.28
792.549	27996.55
792.882	27883.11
793.214	27766.95
793.546	27890.79
793.879	27591.82
794.211	27544.13
794.543	27624.58
794.875	27473.18
795.207	27444.02
795.539	27267.08
795.871	27284.25
796.203	27134.65
796.535	26918.61
796.867	26964.49
797.198	26910.93
797.53	26837.03
797.862	26605.4
798.193	26686.53
798.525	26353.43
798.856	26444.5
799.188	26225.98
799.519	26074.79
799.85	25968.58
800.182	26138.52
800.513	26078.41
800.844	25802.26
801.175	25876.16
801.506	25783.73
801.837	25673.45
802.168	25606.78
802.499	25538.54
802.83	25430.74
803.161	25378.32
803.491	25428.26
803.822	25357.07
804.153	25190.07
804.483	25007.7
804.814	24980.81
805.145	24923.41
805.475	24879.12
805.805	24683.64
806.136	24778.11
806.466	24785.79
806.796	24692.01
807.126	24392.13
807.457	24367.95
807.787	24460.37
808.117	24349.64
808.447	24285.69
808.777	24409.3
809.107	24201.85
809.436	24120.95
809.766	24085.02
810.096	24011.57
810.426	23797.57
810.755	23907.17
811.085	23838.92
811.414	23827.85
811.744	23598.25
812.073	23677.8
812.403	23589.44
812.732	23450
813.061	23363.23
813.39	23334.75
813.719	23175.66
814.049	23296.34
814.378	23250.46
814.707	23003.01
815.036	23029.68
815.365	22861.77
815.693	22695
816.022	22690.02
816.351	22755.11
816.68	22533.42
817.008	22605.73
817.337	22407.55
817.665	22472.4
817.994	22434.44
818.322	22424.72
818.651	22372.75
818.979	22159.19
819.307	22340.43
819.636	22220.66
819.964	22113.32
820.292	22212.75
820.62	22207.55
820.948	22106.54
821.276	22191.51
821.604	22047.56
821.932	22091.62
822.259	22073.54
822.587	22111.51
822.915	22098.18
823.243	22089.14
823.57	21988.57
823.898	22022.7
824.225	21939.54
824.553	21962.81
824.88	21957.84
825.207	21965.07
825.535	21993.09
825.862	22104.05
826.189	21933.43
826.516	21969.37
826.843	22022.7
827.17	22029.48
827.497	22008.23
827.824	21979.54
828.151	22045.07
828.478	22060.89
828.805	22040.1
829.131	21893.66
829.458	21851.63
829.785	21798.97
830.111	21886.66
830.438	21961.68
830.764	21933.89
831.09	21835.81
831.417	21790.61
831.743	21829.48
832.069	21892.98
832.395	21720.33
832.722	21873.32
833.048	21812.08
833.374	21822.25
833.7	21718.07
834.026	21724.63
834.351	21794
834.677	21628.81
835.003	21607.34
835.329	21664.29
835.654	21648.92
835.98	21547
836.306	21676.27
836.631	21425.88
836.956	21566.66
837.282	21436.05
837.607	21423.39
837.932	21307.24
838.258	21452.77
838.583	21372.32
838.908	21196.73
839.233	21257.52
839.558	21150.86
839.883	21236.96
840.208	21168.71
840.533	21177.07
840.858	21171.19
841.182	21085.32
841.507	21092.1
841.832	21045.55
842.156	20859.79
842.481	20923.74
842.805	20782.96
843.13	20839.45
843.454	20774.37
843.778	20601.72
844.103	20586.35
844.427	20596.29
844.751	20587.26
845.075	20447.37
845.399	20513.81
845.723	20268.39
846.047	20312.01
846.371	20119.24
846.695	20209.19
847.019	20086.25
847.343	19908.86
847.666	19858.46
847.99	19756.99
848.313	19760.61
848.637	19658.69
848.96	19640.16
849.284	19636.55
849.607	19471.35
849.931	19378.93
850.254	19213.05
850.577	19116.11
850.9	19042.21
851.223	19034.53
851.546	18907.98
851.869	18777.81
852.192	18882.44
852.515	18711.6
852.838	18623.01
853.161	18638.83
853.483	18442
853.806	18391.38
854.129	18396.13
854.451	18343.25
854.774	18193.42
855.096	18198.17
855.419	18194.78
855.741	18075.91
856.063	18063.48
856.385	17943.26
856.708	17941.9
857.03	17810.15
857.352	17776.71
857.674	17767.22
857.996	17650.61
858.318	17637.05
858.64	17625.07
858.961	17535.36
859.283	17520.67
859.605	17405.42
859.926	17402.71
860.248	17333.78
860.57	17258.08
860.891	17387.34
861.212	17215.37
861.534	17207.01
861.855	17106.44
862.176	17163.84
862.498	17162.71
862.819	17167.91
863.14	17058.99
863.461	16948.48
863.782	16949.84
864.103	16978.31
864.424	16898.76
864.745	16971.53
865.065	16851.08
865.386	16800.46
865.707	16772.21
866.027	16833.91
866.348	16661.48
866.668	16686.57
866.989	16623.52
867.309	16516.85
867.63	16594.82
867.95	16627.36
868.27	16532.9
868.59	16483.18
868.91	16433.24
869.23	16350.76
869.55	16323.64
869.87	16357.54
870.19	16285.22
870.51	16357.54
870.83	16269.18
871.15	16253.36
871.469	16294.26
871.789	16333.58
872.109	16215.39
872.428	16054.95
872.748	16172.68
873.067	16148.73
873.386	16142.63
873.706	16093.81
874.025	15981.73
874.344	16017.66
874.663	15992.35
874.982	15965.46
875.301	15939.69
875.62	15788.96
875.939	15919.81
876.258	15845.91
876.577	15844.56
876.896	15798.68
877.214	15815.18
877.533	15739.25
877.852	15745.35
878.17	15722.75
878.489	15619.02
878.807	15638.23
879.125	15617.22
879.444	15509.87
879.762	15542.64
880.08	15522.53
880.398	15420.61
880.716	15555.52
881.034	15472.81
881.352	15406.83
881.67	15359.82
881.988	15340.61
882.306	15343.55
882.624	15243.44
882.941	15233.95
883.259	15146.95
883.577	15177.91
883.894	15141.75
884.212	15106.04
884.529	15089.77
884.846	15040.96
885.164	15066.04
885.481	14970.91
885.798	14987.63
886.115	14821.53
886.432	14799.38
886.75	14764.58
887.067	14781.31
887.383	14675.09
887.7	14754.64
888.017	14696.11
888.334	14773.62
888.651	14600.75
888.967	14605.49
889.284	14517.13
889.6	14537.7
889.917	14408.21
890.233	14427.64
890.55	14332.28
890.866	14348.1
891.182	14227.2
891.498	14118.05
891.815	14192.62
892.131	14120.08
892.447	14145.62
892.763	14078.27
893.079	13997.82
893.395	14021.55
893.71	13917.6
894.026	14003.25
894.342	13941.33
894.657	13749.24
894.973	13699.3
895.289	13810.71
895.604	13700.66
895.92	13659.08
896.235	13552.86
896.55	13580.43
896.865	13481.91
897.181	13488.46
897.496	13449.36
897.811	13365.98
898.126	13385.64
898.441	13226.77
898.756	13286.43
899.071	13184.74
899.386	13197.85
899.7	13107.9
900.015	13045.76
900.33	12889.38
900.644	12914.24
900.959	12938.42
901.273	12878.53
901.588	12757.4
901.902	12709.95
902.216	12653.68
902.531	12648.48
902.845	12578.2
903.159	12577.97
903.473	12435.83
903.787	12401.93
904.101	12413.91
904.415	12415.04
904.729	12253.46
905.042	12215.95
905.356	12224.99
905.67	12238.77
905.984	12204.65
906.297	12137.53
906.611	12054.37
906.924	12096.18
907.237	12047.82
907.551	11915.39
907.864	11785.68
908.177	11833.81
908.491	11797.66
908.804	11789.75
909.117	11683.99
909.43	11689.18
909.743	11654.61
910.056	11539.81
910.368	11498.23
910.681	11399.02
910.994	11403.09
911.307	11395.86
911.619	11301.17
911.932	11230.44
912.244	11175.98
912.557	11138.92
912.869	11088.52
913.181	11041.29
913.494	11032.93
913.806	10978.24
914.118	10920.62
914.43	10870
914.742	10862.54
915.054	10738.02
915.366	10846.95
915.678	10733.28
915.99	10655.31
916.302	10570.12
916.613	10545.71
916.925	10490.57
917.236	10496.67
917.548	10399.05
917.859	10420.29
918.171	10414.87
918.482	10363.34
918.794	10236.57
919.105	10234.08
919.416	10170.13
919.727	10160.64
920.038	10160.64
920.349	10065.5
920.66	10024.14
920.971	9985.73
921.282	9885.62
921.593	9873.19
921.903	9796.35
922.214	9838.84
922.525	9763.36
922.835	9664.83
923.146	9621.67
923.456	9686.07
923.767	9554.78
924.077	9526.3
924.387	9514.55
924.697	9457.15
925.008	9366.53
925.318	9352.07
925.628	9356.36
925.938	9268
926.248	9223.49
926.558	9290.15
926.867	9160.66
927.177	9158.4
927.487	9108.01
927.796	9028.01
928.106	9018.52
928.416	8980.1
928.725	8948.92
929.034	8905.75
929.344	8879.77
929.653	8850.84
929.962	8780.56
930.271	8721.58
930.581	8718.19
930.89	8698.98
931.199	8681.13
931.508	8539.44
931.817	8541.92
932.125	8519.78
932.434	8548.93
932.743	8450.4
933.051	8383.73
933.36	8430.74
933.669	8355.26
933.977	8207.24
934.286	8267.35
934.594	8255.38
934.902	8142.84
935.21	8130.86
935.519	8150.75
935.827	8104.87
936.135	8007.47
936.443	8032.78
936.751	7969.06
937.059	7927.02
937.367	7872.11
937.674	7855.84
937.982	7836.86
938.29	7829.62
938.597	7737.88
938.905	7671.66
939.213	7652.68
939.52	7610.87
939.827	7591.66
940.135	7541.72
940.442	7618.1
940.749	7516.86
941.056	7515.06
941.363	7459.24
941.67	7395.74
941.977	7376.98
942.284	7348.28
942.591	7314.16
942.898	7271.22
943.205	7249.07
943.511	7183.31
943.818	7170.88
944.125	7180.15
944.431	7158.46
944.738	7115.97
945.044	7081.4
945.35	7014.5
945.657	6958.69
945.963	6968.18
946.269	6958.01
946.575	7001.85
946.881	6874.17
947.187	6828.3
947.493	6830.33
947.799	6792.59
948.105	6775.64
948.41	6696.32
948.716	6752.14
949.022	6677.56
949.327	6625.59
949.633	6587.4
949.938	6609.32
950.244	6507.63
950.549	6555.31
950.854	6525.25
951.16	6520.51
951.465	6408.19
951.77	6442.54
952.075	6446.61
952.38	6398.02
952.685	6350.34
952.99	6309.44
953.294	6331.81
953.599	6215.43
953.904	6219.5
954.209	6198.93
954.513	6139.27
954.818	6151.93
955.122	6123
955.426	6076
955.731	6049.11
956.035	6016.34
956.339	6007.3
956.643	5941.99
956.948	5933.4
957.252	5941.09
957.556	5924.82
957.86	5851.37
958.163	5836.46
958.467	5818.6
958.771	5804.37
959.075	5716.69
959.378	5693.86
959.682	5736.57
959.985	5676.91
960.289	5636.69
960.592	5603.47
960.896	5624.26
961.199	5502.45
961.502	5507.43
961.805	5516.69
962.108	5487.31
962.411	5475.34
962.714	5446.64
963.017	5402.34
963.32	5409.58
963.623	5403.93
963.926	5378.62
964.228	5342.68
964.531	5306.75
964.833	5293.19
965.136	5242.35
965.438	5242.35
965.741	5189.92
966.043	5179.07
966.345	5172.29
966.648	5167.32
966.95	5129.58
967.252	5139.07
967.554	5083.48
967.856	5051.62
968.158	5003.94
968.46	5014.11
968.761	4985.41
969.063	4977.5
969.365	4973.88
969.666	4939.08
969.968	4877.84
970.269	4905.41
970.571	4852.98
970.872	4832.87
971.174	4830.16
971.475	4798.07
971.776	4755.13
972.077	4778.41
972.378	4752.64
972.679	4705.41
972.98	4703.15
973.281	4656.15
973.582	4664.06
973.883	4662.25
974.183	4582.7
974.484	4617.05
974.785	4552.2
975.085	4516.27
975.386	4570.5
975.686	4532.99
975.986	4492.09
976.287	4526.21
976.587	4406.44
976.887	4423.61
977.187	4424.97
977.487	4371.64
977.787	4371.18
978.087	4330.96
978.387	4333.9
978.687	4333.67
978.987	4320.11
979.286	4298.64
979.586	4278.98
979.885	4231.53
980.185	4189.95
980.484	4184.97
980.784	4161.47
981.083	4158.53
981.382	4109.95
981.682	4111.98
981.981	4125.99
982.28	4041.7
982.579	4013.68
982.878	4070.4
983.177	4018.43
983.475	4018.65
983.774	3985.88
984.073	3961.03
984.372	3932.55
984.67	3922.16
984.969	3935.49
985.267	3930.29
985.566	3885.1
985.864	3875.6
986.162	3832.22
986.461	3791.99
986.759	3823.4
987.057	3779.79
987.355	3751.77
987.653	3788.15
987.951	3744.08
988.249	3717.64
988.547	3698.43
988.844	3690.3
989.142	3674.71
989.44	3638.32
989.737	3626.8
990.035	3625.22
990.332	3615.72
990.63	3556.06
990.927	3531.43
991.224	3537.08
991.521	3511.09
991.819	3508.61
992.116	3479.23
992.413	3504.77
992.71	3461.6
993.006	3402.85
993.303	3407.14
993.6	3391.1
993.897	3357.65
994.193	3323.75
994.49	3343.64
994.787	3336.64
995.083	3300.03
995.379	3307.48
995.676	3291.21
995.972	3291.21
996.268	3252.57
996.565	3234.49
996.861	3231.55
997.157	3211.44
997.453	3191.55
997.749	3198.11
998.044	3150.88
998.34	3182.97
998.636	3143.42
998.932	3101.84
999.227	3099.58
999.523	3071.11
999.818	3047.15
1000.114	3023.65
1000.409	3019.58
1000.704	2984.55
1001	3010.09
1001.295	2951.56
1001.59	2959.24
1001.885	2971.22
1002.18	2957.44
1002.475	2909.98
1002.77	2894.61
1003.065	2867.95
1003.359	2872.69
1003.654	2822.52
1003.949	2854.16
1004.243	2831.11
1004.538	2812.13
1004.832	2789.53
1005.127	2775.97
1005.421	2773.03
1005.715	2688.52
1006.009	2692.36
1006.304	2691.45
1006.598	2694.17
1006.892	2639.48
1007.186	2652.81
1007.48	2662.53
1007.773	2599.93
1008.067	2631.8
1008.361	2592.02
1008.655	2598.35
1008.948	2560.38
1009.242	2548.86
1009.535	2531.46
1009.829	2503.66
1010.122	2466.15
1010.415	2492.82
1010.708	2479.03
1011.001	2475.42
1011.295	2425.25
1011.588	2432.93
1011.881	2387.51
1012.173	2408.3
1012.466	2372.37
1012.759	2354.97
1013.052	2357.23
1013.344	2308.64
1013.637	2345.02
1013.93	2320.84
1014.222	2299.37
1014.514	2249.21
1014.807	2265.25
1015.099	2240.62
1015.391	2228.64
1015.683	2232.94
1015.976	2227.29
1016.268	2213.05
1016.56	2203.78
1016.851	2170.11
1017.143	2158.81
1017.435	2135.76
1017.727	2112.71
1018.018	2139.6
1018.31	2095.54
1018.602	2093.28
1018.893	2059.61
1019.185	2036.1
1019.476	2038.36
1019.767	2041.53
1020.058	2021.19
1020.35	1995.65
1020.641	1975.32
1020.932	1953.39
1021.223	1970.57
1021.514	1933.06
1021.804	1913.85
1022.095	1926.5
1022.386	1889.44
1022.677	1881.76
1022.967	1874.08
1023.258	1857.35
1023.548	1861.19
1023.839	1814.87
1024.129	1814.19
1024.419	1810.8
1024.709	1778.48
1025	1778.48
1025.29	1770.8
1025.58	1743.91
1025.87	1750.69
1026.16	1715.66
1026.449	1712.05
1026.739	1718.15
1027.029	1684.25
1027.319	1685.83
1027.608	1684.7
1027.898	1660.3
1028.187	1660.3
1028.477	1649.9
1028.766	1629.56
1029.055	1609
1029.344	1599.51
1029.634	1590.92
1029.923	1571.26
1030.212	1580.98
1030.501	1584.37
1030.79	1557.7
1031.078	1529.23
1031.367	1521.77
1031.656	1540.52
1031.945	1488.1
1032.233	1498.49
1032.522	1492.84
1032.81	1488.55
1033.099	1478.38
1033.387	1455.1
1033.675	1451.71
1033.963	1430.47
1034.251	1441.77
1034.54	1408.55
1034.828	1415.1
1035.116	1381.21
1035.403	1379.17
1035.691	1345.28
1035.979	1373.3
1036.267	1335.78
1036.554	1354.54
1036.842	1304.6
1037.129	1321.1
1037.417	1296.01
1037.704	1295.56
1037.992	1308.89
1038.279	1302.56
1038.566	1251.27
1038.853	1251.27
1039.14	1251.27
