Data from orange_diffuse_book_FLMS001491_00053.txt Node
Date: Wed Feb 08 15:29:45 GMT 2017
User: dcchb
Spectrometer: FLMS00149
Trigger mode: 0
Integration Time (sec): 2.000000E-2
Scans to average: 10
Electric dark correction enabled: true
Nonlinearity correction enabled: false
Boxcar width: 0
XAxis mode: Wavelengths
Number of Pixels in Spectrum: 2048
>>>>>Begin Spectral Data<<<<<
341.393	-19.83
341.776	-19.83
342.16	-19.83
342.543	-53.28
342.927	-72.71
343.31	-59.6
343.693	-66.83
344.077	-86.49
344.46	-59.38
344.843	-49.89
345.226	-68.42
345.61	-30
345.993	-35.42
346.376	3.67
346.759	1.86
347.142	33.05
347.525	40.28
347.908	67.85
348.291	79.6
348.674	103.56
349.057	126.15
349.44	129.32
349.823	136.1
350.206	170.9
350.588	199.15
350.971	204.12
351.354	250.45
351.737	242.99
352.119	282.76
352.502	265.36
352.884	295.64
353.267	307.85
353.65	301.74
354.032	293.61
354.414	339.71
354.797	320.95
355.179	335.41
355.562	339.93
355.944	320.73
356.326	333.83
356.709	351.46
357.091	361.4
357.473	365.02
357.855	366.37
358.238	364.11
358.62	361.4
359.002	358.01
359.384	353.95
359.766	337.45
360.148	346.49
360.53	362.76
360.912	362.31
361.294	339.48
361.676	359.37
362.057	335.87
362.439	339.03
362.821	341.74
363.203	358.47
363.584	324.12
363.966	343.55
364.348	332.25
364.729	349.88
365.111	323.66
365.493	325.7
365.874	351.91
366.256	344.68
366.637	346.49
367.019	327.96
367.4	339.93
367.781	331.35
368.163	348.3
368.544	312.36
368.925	348.97
369.306	345.13
369.688	329.09
370.069	322.31
370.45	304.23
370.831	310.78
371.212	321.18
371.593	336.54
371.974	313.04
372.355	336.54
372.736	346.04
373.117	338.35
373.498	324.34
373.879	329.99
374.26	314.62
374.641	327.28
375.021	318.01
375.402	345.58
375.783	331.8
376.163	337.67
376.544	336.09
376.925	345.58
377.305	342.42
377.686	344.23
378.066	327.05
378.447	345.13
378.827	344.91
379.208	339.48
379.588	338.58
379.968	348.07
380.349	344.68
380.729	335.64
381.109	355.08
381.489	343.32
381.87	338.8
382.25	344.91
382.63	347.62
383.01	358.92
383.39	351.69
383.77	355.3
384.15	347.39
384.53	365.7
384.91	360.5
385.29	357.56
385.67	369.76
386.049	368.63
386.429	376.32
386.809	348.75
387.189	371.12
387.568	378.8
387.948	366.15
388.328	369.99
388.707	345.81
389.087	366.15
389.466	381.52
389.846	405.24
390.225	366.83
390.605	370.22
390.984	383.32
391.363	381.52
391.743	383.55
392.122	410.22
392.501	391.91
392.881	425.13
393.26	385.13
393.639	401.4
394.018	399.82
394.397	414.28
394.776	416.77
395.155	419.03
395.534	390.55
395.913	377.9
396.292	422.64
396.671	392.36
397.05	395.75
397.429	402.98
397.808	403.66
398.186	415.86
398.565	420.84
398.944	405.7
399.323	406.83
399.701	407.73
400.08	420.38
400.458	419.48
400.837	426.94
401.215	423.32
401.594	414.06
401.972	418.8
402.351	426.94
402.729	443.89
403.107	433.72
403.486	434.4
403.864	428.07
404.242	431.91
404.62	422.42
404.999	439.59
405.377	445.69
405.755	433.49
406.133	430.1
406.511	428.97
406.889	453.83
407.267	436.2
407.645	433.72
408.023	463.1
408.401	441.63
408.779	476.65
409.156	453.83
409.534	447.95
409.912	453.15
410.29	469.87
410.667	474.39
411.045	482.08
411.422	471.23
411.8	490.89
412.178	492.02
412.555	488.41
412.933	499.48
413.31	501.74
413.687	487.73
414.065	501.74
414.442	486.6
414.819	499.7
415.197	527.27
415.574	517.11
415.951	511.23
416.328	534.73
416.705	501.06
417.082	511.91
417.46	523.43
417.837	525.01
418.214	526.82
418.591	521.17
418.967	536.99
419.344	533.15
419.721	542.19
420.098	554.17
420.475	537.67
420.852	561.17
421.228	551.23
421.605	552.81
421.982	554.17
422.358	584.67
422.735	573.15
423.111	567.27
423.488	584
423.864	552.36
424.241	606.14
424.617	585.8
424.994	578.57
425.37	589.87
425.746	573.83
426.123	605.01
426.499	583.32
426.875	614.05
427.251	625.58
427.627	630.32
428.003	648.63
428.379	628.51
428.756	634.39
429.132	649.3
429.507	642.75
429.883	644.11
430.259	642.3
430.635	661.51
431.011	678.68
431.387	662.86
431.763	665.35
432.138	669.19
432.514	671
432.89	695.86
433.265	699.02
433.641	714.39
434.016	721.39
434.392	711.9
434.767	732.24
435.143	723.88
435.518	749.87
435.894	756.42
436.269	737.66
436.644	755.29
437.02	748.74
437.395	734.95
437.77	760.71
438.145	771.56
438.52	752.13
438.895	785.57
439.271	778.34
439.646	773.37
440.021	797.78
440.395	792.58
440.77	768.17
441.145	776.53
441.52	807.04
441.895	818.34
442.27	823.09
442.645	819.92
443.019	833.93
443.394	801.84
443.769	832.8
444.143	832.58
444.518	844.78
444.892	844.55
445.267	836.87
445.641	852.24
446.016	852.69
446.39	826.25
446.764	863.08
447.139	878
447.513	865.34
447.887	865.34
448.262	849.98
448.636	889.98
449.01	852.92
449.384	884.33
449.758	911.44
450.132	902.86
450.506	894.72
450.88	903.54
451.254	918.9
451.628	904.67
452.002	931.11
452.376	923.65
452.75	934.5
453.123	945.79
453.497	948.73
453.871	951.44
454.244	968.39
454.618	959.13
454.992	968.84
455.365	960.26
455.739	977.66
456.112	1007.26
456.486	990.99
456.859	1008.39
457.232	1036.41
457.606	1017.2
457.979	1001.61
458.352	1019.24
458.725	1047.03
459.099	1078.45
459.472	1056.3
459.845	1098.11
460.218	1076.41
460.591	1086.13
460.964	1088.62
461.337	1082.97
461.71	1118.67
462.083	1153.02
462.456	1124.77
462.829	1133.36
463.201	1186.92
463.574	1174.94
463.947	1166.35
464.32	1174.04
464.692	1175.84
465.065	1188.5
465.438	1182.85
465.81	1215.62
466.183	1215.62
466.555	1216.97
466.928	1240.02
467.3	1214.26
467.672	1242.74
468.045	1276.63
468.417	1275.5
468.789	1289.74
469.161	1273.92
469.534	1349.63
469.906	1349.4
470.278	1319.8
470.65	1369.51
471.022	1364.99
471.394	1399.57
471.766	1402.28
472.138	1382.39
472.51	1429.17
472.882	1465.1
473.253	1447.48
473.625	1455.39
473.997	1503.52
474.369	1492.22
474.74	1512.79
475.112	1514.82
475.484	1591.65
475.855	1567.25
476.227	1583.97
476.598	1622.16
476.97	1602.5
477.341	1644.98
477.713	1678.43
478.084	1696.96
478.455	1703.97
478.827	1746.68
479.198	1768.15
479.569	1776.73
479.94	1837.3
480.311	1841.36
480.682	1870.29
481.053	1899.44
481.424	1927.46
481.795	1969.95
482.166	2018.31
482.537	2002.49
482.908	2044.52
483.279	2079.78
483.65	2091.53
484.021	2078.65
484.391	2155.71
484.762	2138.76
485.133	2197.74
485.503	2211.3
485.874	2225.99
486.244	2266.89
486.615	2328.58
486.985	2344.63
487.356	2371.07
487.726	2389.82
488.097	2409.48
488.467	2479.77
488.837	2480.22
489.207	2569.03
489.578	2596.15
489.948	2593.43
490.318	2660.1
490.688	2657.39
491.058	2691.74
491.428	2748.23
491.798	2745.97
492.168	2810.38
492.538	2837.27
492.908	2826.2
493.278	2895.35
493.648	2885.63
494.017	2970.6
494.387	2980.54
494.757	3006.53
495.126	3079.3
495.496	3077.49
495.866	3091.5
496.235	3158.39
496.605	3182.35
496.974	3215.11
497.344	3221.44
497.713	3270.03
498.082	3307.09
498.452	3306.64
498.821	3377.14
499.19	3358.16
499.559	3407.2
499.928	3415.33
500.298	3472.51
500.667	3527.42
501.036	3501.43
501.405	3566.74
501.774	3560.87
502.143	3578.27
502.512	3643.35
502.88	3621.66
503.249	3686.74
503.618	3733.29
503.987	3738.04
504.356	3770.58
504.724	3806.74
505.093	3820.07
505.462	3888.77
505.83	3877.69
506.199	3900.52
506.567	3947.98
506.936	3933.29
507.304	3921.99
507.672	3969.22
508.041	4038.37
508.409	4064.81
508.777	4073.85
509.145	4130.12
509.514	4142.32
509.882	4161.53
510.25	4208.53
510.618	4253.96
510.986	4239.95
511.354	4281.3
511.722	4325.59
512.09	4378.7
512.458	4390.9
512.826	4398.13
513.193	4452.37
513.561	4412.6
513.929	4464.8
514.297	4530.33
514.664	4569.65
515.032	4580.05
515.4	4605.59
515.767	4616.21
516.135	4620.95
516.502	4648.3
516.869	4742.98
517.237	4763.1
517.604	4773.72
517.972	4765.81
518.339	4869.08
518.706	4887.39
519.073	4835.18
519.44	4939.81
519.808	4978.91
520.175	4929.87
520.542	5062.07
520.909	5043.54
521.276	5111.56
521.643	5102.07
522.009	5175.97
522.376	5199.47
522.743	5226.59
523.11	5273.82
523.477	5298
523.843	5370.54
524.21	5414.15
524.577	5434.49
524.943	5459.35
525.31	5504.09
525.676	5507.71
526.043	5601.27
526.409	5609.4
526.776	5691.21
527.142	5716.06
527.508	5707.03
527.874	5707.48
528.241	5798.77
528.607	5816.85
528.973	5869.05
529.339	5844.65
529.705	5893.23
530.071	5911.54
530.437	5993.12
530.803	5977.75
531.169	6036.96
531.535	6053
531.901	6027.02
532.267	6054.13
532.632	6128.93
532.998	6142.72
533.364	6227.46
533.73	6139.78
534.095	6255.49
534.461	6240.57
534.826	6296.16
535.192	6310.17
535.557	6426.78
535.923	6390.62
536.288	6397.4
536.653	6391.53
537.019	6415.71
537.384	6463.16
537.749	6514.46
538.114	6529.83
538.479	6552.65
538.845	6593.1
539.21	6632.65
539.575	6649.83
539.94	6608.92
540.305	6720.56
540.67	6672.2
541.034	6737.28
541.399	6744.29
541.764	6773.44
542.129	6835.13
542.494	6853.89
542.858	6917.16
543.223	6883.72
543.587	6994
543.952	6975.92
544.316	7022.92
544.681	7000.78
545.045	7005.07
545.41	7071.51
545.774	7102.47
546.138	7095.46
546.503	7125.52
546.867	7205.06
547.231	7251.39
547.595	7236.7
547.959	7266.53
548.324	7352.18
548.688	7353.54
549.052	7407.55
549.416	7446.19
549.779	7411.16
550.143	7489.58
550.507	7557.37
550.871	7582.46
551.235	7582.23
551.599	7721.66
551.962	7731.15
552.326	7735.22
552.689	7824.26
553.053	7769.8
553.417	7839.85
553.78	7919.62
554.143	7878.49
554.507	8047.75
554.87	8083.23
555.234	8123.91
555.597	8130.69
555.96	8150.58
556.323	8270.8
556.686	8228.09
557.05	8394.64
557.413	8454.75
557.776	8434.19
558.139	8485.26
558.502	8498.14
558.865	8629.21
559.228	8687.51
559.59	8707.62
559.953	8809.09
560.316	8924.12
560.679	8969.09
561.041	9032.59
561.404	9142.87
561.767	9191
562.129	9205.69
562.492	9412.01
562.854	9475.29
563.217	9393.03
563.579	9593.93
563.941	9569.3
564.304	9684.1
564.666	9815.84
565.028	9899.23
565.39	9992.34
565.753	10032.11
566.115	10118.21
566.477	10246.34
566.839	10390.29
567.201	10483.85
567.563	10604.98
567.925	10700.57
568.287	10834.12
568.648	10912.76
569.01	11045.19
569.372	11240.66
569.734	11217.61
570.095	11486.99
570.457	11639.07
570.819	11723.82
571.18	11832.97
571.542	11982.11
571.903	12097.59
572.265	12252.16
572.626	12413.52
572.987	12613.28
573.349	12826.16
573.71	12943.9
574.071	13116.1
574.432	13328.29
574.794	13584.33
575.155	13773.48
575.516	13924.66
575.877	14156.52
576.238	14384.09
576.599	14629.05
576.96	14745.43
577.32	14969.15
577.681	15288.24
578.042	15538.18
578.403	15751.96
578.763	16039.63
579.124	16352.17
579.485	16671.48
579.845	17014.52
580.206	17194.63
580.566	17420.62
580.927	17837.55
581.287	18148.51
581.648	18357.09
582.008	18844.31
582.368	19051.53
582.728	19438.87
583.089	19797.05
583.449	20057.38
583.809	20463.93
584.169	20830.02
584.529	21115.43
584.889	21704.12
585.249	21882.87
585.609	22259.36
585.969	22749.06
586.329	23120.58
586.688	23687.12
587.048	23944.06
587.408	24338.85
587.768	24833.08
588.127	25135.89
588.487	25549.67
588.846	26255.41
589.206	26397.55
589.565	26878.22
589.925	27448.37
590.284	27871.64
590.643	28304.85
591.003	28685.18
591.362	29365.61
591.721	29759.05
592.08	30175.99
592.44	30763.32
592.799	31027.26
593.158	31675.16
593.517	32053.68
593.876	32549.94
594.235	32961.45
594.593	33519.85
594.952	34022.44
595.311	34419.94
595.67	34885.01
596.029	35709.17
596.387	36054.02
596.746	36441.36
597.104	36793.21
597.463	37293.99
597.822	37796.58
598.18	38030.69
598.538	38616.44
598.897	39249.19
599.255	39411.45
599.613	40279.68
599.972	40368.71
600.33	40888.47
600.688	41303.6
601.046	41735.23
601.404	42234.2
601.762	42528.43
602.12	43144.91
602.478	43401.63
602.836	43884.33
603.194	44059.24
603.552	44548.04
603.91	44629.17
604.268	45188.47
604.625	45409.03
604.983	45888.57
605.341	46023.71
605.698	46652.84
606.056	46780.07
606.413	47162.88
606.771	47580.95
607.128	47834.96
607.485	47926.25
607.843	48162.63
608.2	48599.68
608.557	48971.88
608.914	49103.4
609.272	49407.57
609.629	49660.45
609.986	49890.04
610.343	49868.35
610.7	50319.86
611.057	50445.96
611.414	50586.3
611.771	50670.14
612.127	50929.79
612.484	51174.53
612.841	51299.5
613.198	51345.37
613.554	51503.56
613.911	51796.21
614.267	51889.77
614.624	51975.64
614.98	52114.62
615.337	52351
615.693	52448.17
616.05	52470.77
616.406	52703.76
616.762	52762.06
617.118	52809.06
617.475	52859.23
617.831	53057.64
618.187	53166.57
618.543	53299.67
618.899	53483.17
619.255	53505.99
619.611	53512.1
619.967	53667.35
620.323	53737.4
620.678	53697.18
621.034	53753.67
621.39	53830.28
621.746	53770.62
622.101	54161.34
622.457	53949.37
622.812	54037.05
623.168	54158.63
623.523	54159.99
623.879	54317.05
624.234	54179.42
624.589	54276.6
624.945	54332.19
625.3	54399.76
625.655	54418.29
626.01	54448.57
626.365	54464.61
626.72	54501.67
627.075	54576.93
627.43	54481.56
627.785	54542.35
628.14	54567.89
628.495	54740.31
628.85	54640.65
629.205	54526.98
629.559	54852.85
629.914	54724.72
630.269	54724.49
630.623	54669.81
630.978	54584.61
631.332	54705.28
631.687	54858.73
632.041	54643.37
632.396	54755.9
632.75	54624.16
633.104	54692.86
633.459	54649.02
633.813	54608.34
634.167	54741.67
634.521	54606.53
634.875	54691.73
635.229	54667.55
635.583	54618.51
635.937	54583.25
636.291	54594.33
636.645	54630.03
636.999	54518.4
637.352	54670.48
637.706	54420.09
638.06	54626.64
638.413	54464.84
638.767	54468.45
639.121	54461.9
639.474	54353.2
639.828	54333.77
640.181	54411.06
640.534	54425.07
640.888	54359.76
641.241	54273.43
641.594	54336.03
641.947	54494.22
642.301	54397.04
642.654	54386.42
643.007	54375.8
643.36	54403.15
643.713	54294
644.066	54436.37
644.419	54221.46
644.771	54070.05
645.124	53683.16
645.477	53748.25
645.83	53615.82
646.182	53461.02
646.535	53345.77
646.888	53449.05
647.24	53453.79
647.593	53501.25
647.945	53442.27
648.298	53305.1
648.65	53307.13
649.002	53329.73
649.355	53384.64
649.707	53164.76
650.059	53476.16
650.411	53768.13
650.763	53908.47
651.115	54070.95
651.467	53909.15
651.819	54013.78
652.171	53896.27
652.523	53840.45
652.875	53972.42
653.227	53804.97
653.578	53976.26
653.93	53877.96
654.282	53826.89
654.633	53756.61
654.985	53919.77
655.337	53817.62
655.688	53816.27
656.039	53983.95
656.391	53695.82
656.742	53732.2
657.094	53746.67
657.445	53918.86
657.796	53804.07
658.147	53802.94
658.498	53740.56
658.849	53776.95
659.2	53771.52
659.551	53672.54
659.902	53803.39
660.253	53758.87
660.604	53808.81
660.955	53691.07
661.306	53754.12
661.656	53752.09
662.007	53733.33
662.358	53682.49
662.708	53705.76
663.059	53701.24
663.409	53528.82
663.76	53715.03
664.11	53717.51
664.461	53750.73
664.811	53763.39
665.161	53677.74
665.511	53631.87
665.862	53699.44
666.212	53765.87
666.562	53720.9
666.912	53614.47
667.262	53568.37
667.612	53594.58
667.962	53622.38
668.312	53498.76
668.662	53600.91
669.011	53607.23
669.361	53474.36
669.711	53568.82
670.06	53483.85
670.41	53458.54
670.76	53298.32
671.109	53476.84
671.459	53441.36
671.808	53358.43
672.157	53401.36
672.507	53261.71
672.856	53322.72
673.205	53281.59
673.554	53343.29
673.904	53270.75
674.253	53483.17
674.602	53236.4
674.951	52825.56
675.3	52682.51
675.649	53182.39
675.998	53103.07
676.346	53136.96
676.695	53173.35
677.044	52927.7
677.393	53014.48
677.741	53119.34
678.09	52952.11
678.438	53004.31
678.787	53067.14
679.135	53014.48
679.484	52788.95
679.832	52983.3
680.181	52748.05
680.529	52869.4
680.877	52773.58
681.225	52688.39
681.573	52852.68
681.922	52572.01
682.27	52495.4
682.618	52614.94
682.966	52535.17
683.314	52580.82
683.661	52467.6
684.009	52338.12
684.357	52202.3
684.705	52205.01
685.053	52224.9
685.4	52212.47
685.748	52076.2
686.095	51964.34
686.443	51877.11
686.79	51901.29
687.138	51958.92
687.485	51901.52
687.832	51798.92
688.18	51821.29
688.527	51702.43
688.874	51633.28
689.221	51426.73
689.568	51403.22
689.915	51346.73
690.262	51348.54
690.609	51219.05
690.956	51148.32
691.303	51211.14
691.65	50977.93
691.997	50924.82
692.344	50668.78
692.69	50724.6
693.037	50743.13
693.383	50439.63
693.73	50489.58
694.077	50326.64
694.423	50360.54
694.769	50282.35
695.116	50142.24
695.462	50151.96
695.808	49990.61
696.155	50075.12
696.501	49718.98
696.847	49819.99
697.193	49556.49
697.539	49614.8
697.885	49432.66
698.231	49324.86
698.577	49217.52
698.923	49155.6
699.269	48954.7
699.614	48826.8
699.96	48752.9
700.306	48757.64
700.651	48557.2
700.997	48461.38
701.342	48271.1
701.688	48382.51
702.033	48205.12
702.379	48208.05
702.724	48019.36
703.069	48121.73
703.415	47588.41
703.76	47603.78
704.105	47684.45
704.45	47521.52
704.795	47411.24
705.14	47341.64
705.485	47282.2
705.83	47104.35
706.175	47006.96
706.52	46929.22
706.865	46856.9
707.209	46757.25
707.554	46555.44
707.899	46641.32
708.243	46411.94
708.588	46350.7
708.932	46248.33
709.277	46102.35
709.621	46164.49
709.966	45904.39
710.31	46086.53
710.654	45525.64
710.998	45726.09
711.342	45597.5
711.687	45639.53
712.031	45526.32
712.375	45288.58
712.719	45363.38
713.063	45201.58
713.407	45329.71
713.75	45161.35
714.094	45088.36
714.438	44884.75
714.782	45064.63
715.125	44894.92
715.469	44771.99
715.812	44728.6
716.156	44419
716.499	44412.45
716.843	44549.17
717.186	44234.6
717.53	44428.94
717.873	44454.25
718.216	44256.07
718.559	44125.9
718.902	43867.6
719.246	44036.64
719.589	43878.9
719.932	43705.57
720.275	43721.17
720.617	43692.02
720.96	43576.09
721.303	43565.24
721.646	43558.69
721.989	43363.89
722.331	43486.14
722.674	43341.06
723.016	43471
723.359	43232.82
723.701	43263.78
724.044	43033.95
724.386	42906.27
724.729	42945.14
725.071	42900.62
725.413	42950.57
725.755	42904.24
726.097	42632.61
726.439	42452.05
726.782	42661.99
727.124	42785.37
727.465	42589.22
727.807	42468.32
728.149	42358.26
728.491	42328.44
728.833	42384.7
729.175	42146.52
729.516	42280.98
729.858	42235.1
730.199	42228.1
730.541	42052.51
730.882	42087.09
731.224	42106.29
731.565	41938.61
731.906	41905.85
732.248	41957.6
732.589	41678.73
732.93	41611.39
733.271	41722.8
733.612	41702.69
733.953	41722.12
734.294	41431.06
734.635	41514.22
734.976	41535.69
735.317	41353.55
735.658	41261.57
735.999	41331.17
736.339	41348.8
736.68	41390.61
737.021	41233.1
737.361	40991.75
737.702	41177.28
738.042	41185.87
738.383	41047.11
738.723	41195.81
739.063	40911.75
739.404	40981.8
739.744	40862.48
740.084	40791.07
740.424	40814.8
740.764	40669.72
741.104	40777.52
741.444	40675.37
741.784	40485.32
742.124	40609.38
742.464	40542.72
742.804	40404.42
743.143	40461.14
743.483	40399.9
743.823	40159.9
744.162	40157.19
744.502	40302.95
744.841	40165.1
745.181	40213.46
745.52	40117.42
745.86	40077.65
746.199	40014.6
746.538	39955.16
746.877	40059.57
747.216	39942.51
747.556	39874.49
747.895	39872.45
748.234	39769.41
748.573	39710.88
748.911	39645.57
749.25	39635.4
749.589	39541.84
749.928	39463.88
750.267	39522.86
750.605	39319.93
750.944	39565.34
751.283	39272.02
751.621	39361.28
751.96	38977.56
752.298	39175.52
752.636	39171.91
752.975	38816.66
753.313	38734.41
753.651	38820.05
753.989	38715.65
754.327	38613.96
754.666	38555.88
755.004	38571.25
755.342	38605.37
755.679	38521.3
756.017	38311.14
756.355	38481.53
756.693	38223.23
757.031	38235.21
757.368	37950.92
757.706	37941.88
758.044	37840.64
758.381	37947.08
758.719	37787.31
759.056	37907.76
759.394	37675.45
759.731	37277.27
760.068	37269.81
760.405	37188.46
760.743	37119.76
761.08	37081.12
761.417	36972.64
761.754	36951.85
762.091	36864.62
762.428	36638.64
762.765	36364.07
763.102	36492.66
763.438	36341.7
763.775	36241.14
764.112	36377.86
764.449	36252.89
764.785	36062.61
765.122	35826.91
765.458	35701.49
765.795	35727.48
766.131	35728.16
766.467	35517.77
766.804	35254.5
767.14	35275.51
767.476	35194.16
767.812	35130.43
768.148	35299.02
768.485	34748.07
768.821	34703.78
769.157	34703.32
769.492	34644.8
769.828	34378.14
770.164	34080.52
770.5	34144.02
770.836	34182.43
771.171	34014.76
771.507	33796.91
771.842	33688.21
772.178	33737.25
772.513	33510.81
772.849	33499.97
773.184	33222.23
773.519	33320.31
773.855	33073.54
774.19	32938.4
774.525	32935.69
774.86	32920.09
775.195	32819.98
775.53	32731.17
775.865	32358.3
776.2	32338.42
776.535	32050.51
776.87	32151.98
777.205	31942.72
777.539	31815.94
777.874	31912.66
778.209	31533.46
778.543	31582.5
778.878	31368.5
779.212	31306.35
779.547	31140.71
779.881	31227.94
780.215	31068.62
780.55	31065.45
780.884	30901.84
781.218	30723.32
781.552	30666.14
781.886	30475.41
782.22	30308.41
782.554	30279.26
782.888	29992.94
783.222	30034.3
783.556	29805.83
783.889	29705.26
784.223	29501.2
784.557	29558.6
784.89	29698.03
785.224	29382.33
785.557	29324.94
785.891	29276.12
786.224	29129.46
786.558	29052.85
786.891	28808.79
787.224	28715.01
787.557	28685.18
787.891	28621.68
788.224	28666.87
788.557	28597.04
788.89	28344.17
789.223	28276.83
789.556	28136.49
789.888	28045.65
790.221	27862.83
790.554	27722.27
790.887	27814.01
791.219	27591.65
791.552	27630.06
791.884	27509.62
792.217	27332.45
792.549	27305.33
792.882	27070.76
793.214	26996.41
793.546	26989.63
793.879	26849.29
794.211	26664.89
794.543	26873.25
794.875	26723.87
795.207	26728.17
795.539	26628.06
795.871	26550.09
796.203	26295.64
796.535	26228.29
796.867	26237.33
797.198	26092.48
797.53	26067.39
797.862	25952.82
798.193	25845.7
798.525	25801.19
798.856	25789.43
799.188	25527.07
799.519	25377.92
799.85	25301.54
800.182	25456.34
800.513	25337.7
800.844	25085.5
801.175	25161.2
801.506	25196.68
801.837	24957.59
802.168	24886.18
802.499	24747.2
802.83	24738.84
803.161	24705.85
803.491	24706.98
803.822	24552.63
804.153	24455.68
804.483	24305.41
804.814	24210.27
805.145	24136.37
805.475	24237.39
805.805	23980.67
806.136	24031.52
806.466	24067.9
806.796	23971.86
807.126	23895.02
807.457	23649.6
807.787	23776.83
808.117	23595.59
808.447	23553.11
808.777	23614.12
809.107	23513.34
809.436	23457.97
809.766	23395.6
810.096	23303.17
810.426	23189.73
810.755	23187.92
811.085	23154.02
811.414	23091.88
811.744	22952.22
812.073	22948.15
812.403	22903.86
812.732	22784.09
813.061	22717.88
813.39	22529.41
813.719	22520.82
814.049	22619.57
814.378	22470.65
814.707	22490.31
815.036	22398.56
815.365	22271.56
815.693	22008.07
816.022	22115.86
816.351	21950.44
816.68	22002.64
817.008	21964.68
817.337	21822.53
817.665	21851.69
817.994	21893.27
818.322	21684.23
818.651	21702.54
818.979	21579.15
819.307	21585.48
819.636	21557.23
819.964	21491.24
820.292	21648.3
820.62	21564.24
820.948	21431.36
821.276	21423.22
821.604	21410.79
821.932	21396.1
822.259	21347.07
822.587	21405.14
822.915	21357.01
823.243	21380.74
823.57	21406.05
823.898	21409.44
824.225	21331.47
824.553	21284.24
824.88	21267.07
825.207	21287.41
825.535	21305.03
825.862	21342.55
826.189	21198.82
826.516	21488.76
826.843	21362.21
827.17	21377.57
827.497	21408.53
827.824	21339.16
828.151	21316.11
828.478	21250.35
828.805	21387.97
829.131	21221.87
829.458	21227.07
829.785	21117.24
830.111	21140.74
830.438	21323.79
830.764	21237.24
831.09	21251.25
831.417	21226.39
831.743	21337.35
832.069	21301.87
832.395	21048.99
832.722	21297.35
833.048	21133.74
833.374	21199.73
833.7	20981.65
834.026	21113.63
834.351	21194.08
834.677	21079.28
835.003	21131.48
835.329	21100.29
835.654	20920.41
835.98	20944.36
836.306	20966.28
836.631	20895.33
836.956	20852.62
837.282	20894.42
837.607	20746.4
837.932	20756.12
838.258	20779.62
838.583	20694.65
838.908	20597.03
839.233	20606.29
839.558	20486.3
839.883	20437.03
840.208	20478.39
840.533	20435.23
840.858	20438.39
841.182	20487.2
841.507	20447.43
841.832	20203.14
842.156	20240.88
842.481	20176.7
842.805	20244.5
843.13	20086.08
843.454	20057.83
843.778	20048.34
844.103	20034.56
844.427	19956.37
844.751	20058.74
845.075	19868.91
845.399	19795.02
845.723	19715.24
846.047	19857.84
846.371	19552.99
846.695	19530.62
847.019	19402.71
847.343	19430.28
847.666	19231.87
847.99	19217.4
848.313	19192.32
848.637	19075.04
848.96	19078.88
849.284	19038.43
849.607	18772.67
849.931	18823.06
850.254	18642.73
850.577	18534.03
850.9	18534.48
851.223	18442.28
851.546	18324.55
851.869	18260.14
852.192	18435.73
852.515	18178.34
852.838	18182.86
853.161	18016.76
853.483	18051.56
853.806	17816.99
854.129	17849.76
854.451	17801.17
854.774	17714.62
855.096	17599.82
855.419	17662.42
855.741	17565.02
856.063	17501.52
856.385	17394.4
856.708	17361.18
857.03	17283.44
857.352	17260.62
857.674	17201.64
857.996	17168.42
858.318	17095.2
858.64	17093.39
858.961	17026.28
859.283	16971.81
859.605	16831.25
859.926	16924.58
860.248	16848.65
860.57	16759.39
860.891	16766.17
861.212	16718.71
861.534	16688.66
861.855	16643.23
862.176	16612.28
862.498	16650.69
862.819	16481.21
863.14	16501.77
863.461	16426.97
863.782	16415.67
864.103	16434.43
864.424	16421.09
864.745	16349.68
865.065	16282.11
865.386	16251.15
865.707	16242.34
866.027	16165.96
866.348	16128.22
866.668	16192.4
866.989	16083.93
867.309	16114.44
867.63	16097.03
867.95	16137.49
868.27	15955.34
868.59	15960.77
868.91	15950.15
869.23	15906.53
869.55	15777.95
869.87	15905.63
870.19	15865.4
870.51	15866.08
870.83	15875.57
871.15	15824.5
871.469	15868.34
871.789	15758.96
872.109	15702.47
872.428	15633.77
872.748	15699.08
873.067	15653.2
873.386	15618.85
873.706	15581.12
874.025	15615.92
874.344	15477.62
874.663	15465.19
874.982	15405.3
875.301	15407.33
875.62	15437.39
875.939	15448.24
876.258	15403.72
876.577	15369.14
876.896	15366.43
877.214	15255.47
877.533	15253.67
877.852	15227.68
878.17	15193.33
878.489	15224.29
878.807	15278.52
879.125	15181.8
879.444	15087.34
879.762	15092.99
880.08	15035.82
880.398	15063.39
880.716	14959.44
881.034	15004.41
881.352	14987.23
881.67	14953.79
881.988	14900.68
882.306	14819.1
882.624	14829.95
882.941	14751.98
883.259	14723.06
883.577	14667.02
883.894	14576.62
884.212	14657.98
884.529	14606.23
884.846	14525.1
885.164	14583.63
885.481	14484.87
885.798	14521.26
886.115	14389.28
886.432	14427.47
886.75	14338.66
887.067	14362.84
887.383	14281.94
887.7	14294.82
888.017	14267.25
888.334	14247.82
888.651	14137.09
888.967	14089.18
889.284	14103.87
889.6	14057.31
889.917	13891.89
890.233	13977.09
890.55	13917.43
890.866	13890.54
891.182	13778.9
891.498	13800.82
891.815	13691.22
892.131	13719.02
892.447	13701.84
892.763	13639.47
893.079	13586.37
893.395	13583.2
893.71	13605.8
894.026	13462.75
894.342	13406.48
894.657	13322.87
894.973	13377.78
895.289	13365.58
895.604	13345.02
895.92	13183.21
896.235	13200.61
896.55	13215.08
896.865	13113.38
897.181	13068.64
897.496	13092.14
897.811	12971.24
898.126	12841.3
898.441	12886.27
898.756	12791.81
899.071	12712.04
899.386	12788.65
899.7	12690.8
900.015	12718.82
900.33	12532.61
900.644	12487.86
900.959	12501.42
901.273	12533.29
901.588	12325.83
901.902	12354.31
902.216	12322.9
902.531	12246.74
902.845	12249.23
903.159	12174.88
903.473	12066.18
903.787	12060.3
904.101	11990.02
904.415	12029.34
904.729	11938.73
905.042	11834.1
905.356	11807.2
905.67	11794.77
905.984	11832.74
906.297	11784.83
906.611	11721.78
906.924	11739.18
907.237	11589.81
907.551	11566.98
907.864	11510.49
908.177	11456.03
908.491	11425.74
908.804	11368.35
909.117	11274.79
909.43	11255.58
909.743	11288.35
910.056	11223.26
910.368	11113.44
910.681	11106.88
910.994	11021.46
911.307	10925.87
911.619	10905.31
911.932	10958.64
912.244	10858.53
912.557	10792.99
912.869	10796.83
913.181	10731.07
913.494	10758.64
913.806	10571.3
914.118	10568.82
914.43	10482.04
914.742	10564.52
915.054	10463.28
915.366	10435.49
915.678	10377.64
915.99	10296.96
916.302	10243.4
916.613	10218.32
916.925	10239.56
917.236	10157.98
917.548	10121.37
917.859	10090.64
918.171	10024.43
918.482	9975.16
918.794	9927.25
919.105	10022.17
919.416	9914.82
919.727	9834.15
920.038	9816.97
920.349	9733.36
920.66	9689.07
920.971	9656.53
921.282	9659.69
921.593	9535.4
921.903	9530.65
922.214	9460.37
922.525	9453.37
922.835	9356.42
923.146	9324.78
923.456	9315.07
923.767	9228.06
924.077	9272.36
924.387	9286.59
924.697	9098.57
925.008	9075.52
925.318	9069.2
925.628	9033.04
925.938	9022.42
926.248	8988.75
926.558	8854.29
926.867	8940.16
927.177	8838.24
927.487	8819.49
927.796	8758.92
928.106	8748.08
928.416	8697
928.725	8608.64
929.034	8565.03
929.344	8561.19
929.653	8586.5
929.962	8460.17
930.271	8437.57
930.581	8424.92
930.89	8406.84
931.199	8353.06
931.508	8335.66
931.817	8304.02
932.125	8284.81
932.434	8277.58
932.743	8160.29
933.051	8071.48
933.36	8137.7
933.669	8057.47
933.977	8013.63
934.286	7969.79
934.594	7936.8
934.902	7843.92
935.21	7872.17
935.519	7919.85
935.827	7812.51
936.135	7799.17
936.443	7798.04
936.751	7678.27
937.059	7650.48
937.367	7640.99
937.674	7611.83
937.982	7505.62
938.29	7528.45
938.597	7556.47
938.905	7504.72
939.213	7382.91
939.52	7368.22
939.827	7417.94
940.135	7321.9
940.442	7249.58
940.749	7331.62
941.056	7271.28
941.363	7202.8
941.67	7172.3
941.977	7144.5
942.284	7070.61
942.591	7071.06
942.898	7008.23
943.205	7065.18
943.511	7001.23
943.818	6993.54
944.125	6962.59
944.431	6903.15
944.738	6899.76
945.044	6827.22
945.35	6883.94
945.657	6792.42
945.963	6820.89
946.269	6715.81
946.575	6714.23
946.881	6671.75
947.187	6676.04
947.493	6587.68
947.799	6554.69
948.105	6526.89
948.41	6513.33
948.716	6529.6
949.022	6438.76
949.327	6434.92
949.633	6372.77
949.938	6452.09
950.244	6329.83
950.549	6314.01
950.854	6265.43
951.16	6277.18
951.465	6226.79
951.77	6205.54
952.075	6213.68
952.38	6140.01
952.685	6168.26
952.99	6031.31
953.294	6045.32
953.599	6044.42
953.904	5968.49
954.209	5995.15
954.513	5992.44
954.818	5918.32
955.122	5898.21
955.426	5907.7
955.731	5877.64
956.035	5815.04
956.339	5801.26
956.643	5748.61
956.948	5734.14
957.252	5728.95
957.556	5709.51
957.86	5614.37
958.163	5697.31
958.467	5630.64
958.771	5603.98
959.075	5575.73
959.378	5576.41
959.682	5597.65
959.985	5547.93
960.289	5525.11
960.592	5410.31
960.896	5467.26
961.199	5394.04
961.502	5398.56
961.805	5318.79
962.108	5332.35
962.411	5336.19
962.714	5295.96
963.017	5298.9
963.32	5270.43
963.623	5215.06
963.926	5273.82
964.228	5142.07
964.531	5110.2
964.833	5189.75
965.136	5110.43
965.438	5051.45
965.741	5073.14
966.043	5049.64
966.345	5007.16
966.648	4996.54
966.95	4985.24
967.252	4963.99
967.554	4913.37
967.856	4953.82
968.158	4880.61
968.46	4884.9
968.761	4854.62
969.063	4827.27
969.365	4761.51
969.666	4786.15
969.968	4731.68
970.269	4771.23
970.571	4728.97
970.872	4733.72
971.174	4683.55
971.475	4653.27
971.776	4627.51
972.077	4594.06
972.378	4577.34
972.679	4619.14
972.98	4515.42
973.281	4554.96
973.582	4496.21
973.883	4439.71
974.183	4500.05
974.484	4450.11
974.785	4387.29
975.085	4408.75
975.386	4436.1
975.686	4420.05
975.986	4317.46
976.287	4298.7
976.587	4255.76
976.887	4251.7
977.187	4285.14
977.487	4223.22
977.787	4227.97
978.087	4207.86
978.387	4145.26
978.687	4173.73
978.987	4170.12
979.286	4111.59
979.586	4116.78
979.885	4094.41
980.185	4067.52
980.484	4031.14
980.784	4023.91
981.083	3998.82
981.382	3994.3
981.682	3993.4
981.981	3933.74
982.28	3933.96
982.579	3890.35
982.878	3930.57
983.177	3886.96
983.475	3879.73
983.774	3843.35
984.073	3814.87
984.372	3818.71
984.67	3793.18
984.969	3814.65
985.267	3797.24
985.566	3783.91
985.864	3712.05
986.162	3728.55
986.461	3703.91
986.759	3737.81
987.057	3632.96
987.355	3647.19
987.653	3602.45
987.951	3609.45
988.249	3596.8
988.547	3597.48
988.844	3604.03
989.142	3562.22
989.44	3506.18
989.737	3536.91
990.035	3491.49
990.332	3474.09
990.63	3454.88
990.927	3452.85
991.224	3392.74
991.521	3417.37
991.819	3396.13
992.116	3382.57
992.413	3390.93
992.71	3384.15
993.006	3330.36
993.303	3357.93
993.6	3308.9
993.897	3275.9
994.193	3275.45
994.49	3253.53
994.787	3237.49
995.083	3216.47
995.379	3219.63
995.676	3162.46
995.972	3149.58
996.268	3136.25
996.565	3132.63
996.861	3141.89
997.157	3085.63
997.453	3133.53
997.749	3070.48
998.044	3069.58
998.34	3055.34
998.636	3049.02
998.932	3009.24
999.227	2962.69
999.523	2970.37
999.818	2957.04
1000.114	2937.38
1000.409	2920.66
1000.704	2902.13
1001	2906.19
1001.295	2865.74
1001.59	2819.42
1001.885	2814.22
1002.18	2793.43
1002.475	2819.64
1002.77	2818.06
1003.065	2779.87
1003.359	2780.77
1003.654	2761.79
1003.949	2711.17
1004.243	2708.91
1004.538	2729.02
1004.832	2689.48
1005.127	2661.68
1005.421	2655.81
1005.715	2642.02
1006.009	2630.72
1006.304	2647.67
1006.598	2599.08
1006.892	2596.37
1007.186	2532.42
1007.48	2562.47
1007.773	2526.54
1008.067	2543.49
1008.361	2499.88
1008.655	2482.48
1008.948	2503.04
1009.242	2479.09
1009.535	2433.66
1009.829	2410.16
1010.122	2444.29
1010.415	2399.32
1010.708	2396.6
1011.001	2355.7
1011.295	2377.62
1011.588	2366.1
1011.881	2325.65
1012.173	2300.79
1012.466	2318.19
1012.759	2305.76
1013.052	2306.21
1013.344	2284.06
1013.637	2247.91
1013.93	2235.25
1014.222	2211.52
1014.514	2158.64
1014.807	2200.22
1015.099	2170.39
1015.391	2174.91
1015.683	2150.28
1015.976	2150.73
1016.268	2127.91
1016.56	2134.01
1016.851	2100.57
1017.143	2082.94
1017.435	2057.63
1017.727	2068.93
1018.018	2065.09
1018.31	2051.53
1018.602	1972.66
1018.893	1991.19
1019.185	1984.86
1019.476	1969.5
1019.767	1998.65
1020.058	1946.9
1020.35	1942.83
1020.641	1905.09
1020.932	1912.77
1021.223	1893.34
1021.514	1893.11
1021.804	1876.39
1022.095	1860.8
1022.386	1840.46
1022.677	1831.19
1022.967	1814.02
1023.258	1802.72
1023.548	1825.09
1023.839	1790.07
1024.129	1776.96
1024.419	1739.22
1024.709	1740.58
1025	1734.93
1025.29	1705.32
1025.58	1703.06
1025.87	1683.4
1026.16	1689.5
1026.449	1724.53
1026.739	1665.78
1027.029	1639.11
1027.319	1638.88
1027.608	1636.17
1027.898	1634.82
1028.187	1614.48
1028.477	1593.01
1028.766	1603.18
1029.055	1570.86
1029.344	1539.45
1029.634	1549.39
1029.923	1543.52
1030.212	1495.84
1030.501	1486.8
1030.79	1503.97
1031.078	1536.29
1031.367	1506.68
1031.656	1470.07
1031.945	1479.57
1032.233	1467.81
1032.522	1444.76
1032.81	1439.57
1033.099	1413.58
1033.387	1407.48
1033.675	1424.65
1033.963	1394.82
1034.251	1404.31
1034.54	1386.91
1034.828	1364.09
1035.116	1374.26
1035.403	1327.48
1035.691	1320.25
1035.979	1324.09
1036.267	1324.32
1036.554	1282.28
1036.842	1268.27
1037.129	1295.84
1037.417	1279.57
1037.704	1301.04
1037.992	1271.66
1038.279	1221.72
1038.566	1231.44
1038.853	1231.44
1039.14	1231.44
