Data from orange_diffuse_book_FLMS001491_00066.txt Node
Date: Wed Feb 08 15:29:54 GMT 2017
User: dcchb
Spectrometer: FLMS00149
Trigger mode: 0
Integration Time (sec): 2.000000E-2
Scans to average: 10
Electric dark correction enabled: true
Nonlinearity correction enabled: false
Boxcar width: 0
XAxis mode: Wavelengths
Number of Pixels in Spectrum: 2048
>>>>>Begin Spectral Data<<<<<
341.393	-19.19
341.776	-19.19
342.16	-19.19
342.543	-54.9
342.927	-63.49
343.31	-75.01
343.693	-57.61
344.077	-52.19
344.46	-69.14
344.843	-69.59
345.226	-36.6
345.61	-28.69
345.993	-20.55
346.376	-14.67
346.759	3.18
347.142	17.64
347.525	43.85
347.908	45.21
348.291	75.27
348.674	122.95
349.057	115.94
349.44	134.02
349.823	140.12
350.206	170.18
350.588	206.11
350.971	218.54
351.354	220.8
351.737	254.02
352.119	273.23
352.502	280.01
352.884	303.96
353.267	296.96
353.65	314.58
354.032	326.79
354.414	323.17
354.797	324.07
355.179	351.64
355.562	327.69
355.944	336.28
356.326	354.58
356.709	347.12
357.091	357.29
357.473	359.33
357.855	367.24
358.238	352.32
358.62	351.87
359.002	371.08
359.384	355.26
359.766	338.76
360.148	380.8
360.53	346.45
360.912	340.12
361.294	348.93
361.676	367.91
362.057	348.03
362.439	344.86
362.821	339.67
363.203	325.66
363.584	351.42
363.966	344.19
364.348	330.63
364.729	351.64
365.111	341.02
365.493	334.47
365.874	332.66
366.256	343.51
366.637	322.04
367.019	351.19
367.4	337.63
367.781	332.66
368.163	329.72
368.544	339.44
368.925	331.76
369.306	326.11
369.688	330.85
370.069	335.37
370.45	342.6
370.831	338.31
371.212	322.72
371.593	321.81
371.974	328.59
372.355	335.6
372.736	333.79
373.117	316.39
373.498	345.54
373.879	319.1
374.26	327.46
374.641	324.07
375.021	316.84
375.402	336.05
375.783	353.23
376.163	359.78
376.544	356.61
376.925	339.21
377.305	356.39
377.686	352.77
378.066	335.6
378.447	341.93
378.827	329.95
379.208	372.43
379.588	354.13
379.968	345.09
380.349	354.81
380.729	358.42
381.109	344.41
381.489	345.99
381.87	351.87
382.25	348.48
382.63	349.84
383.01	374.24
383.39	350.97
383.77	360.91
384.15	357.07
384.53	360.46
384.91	360.23
385.29	375.82
385.67	369.72
386.049	364.3
386.429	386.22
386.809	370.85
387.189	362.04
387.568	363.39
387.948	370.85
388.328	387.35
388.707	374.92
389.087	391.42
389.466	367.01
389.846	378.31
390.225	370.17
390.605	403.85
390.984	366.56
391.363	390.51
391.743	376.95
392.122	399.55
392.501	386.22
392.881	371.76
393.26	387.35
393.639	399.55
394.018	393.68
394.397	405.65
394.776	403.39
395.155	414.01
395.534	395.26
395.913	396.39
396.292	387.57
396.671	393
397.05	405.88
397.429	426.67
397.808	394.35
398.186	422.15
398.565	411.98
398.944	400
399.323	406.56
399.701	421.02
400.08	428.48
400.458	416.95
400.837	426.67
401.215	417.18
401.594	395.26
401.972	411.3
402.351	423.05
402.729	436.16
403.107	431.19
403.486	433.22
403.864	441.36
404.242	435.26
404.62	434.35
404.999	431.42
405.377	442.26
405.755	438.87
406.133	454.92
406.511	460.34
406.889	444.75
407.267	449.72
407.645	460.57
408.023	454.92
408.401	463.05
408.779	487.46
409.156	430.74
409.534	475.26
409.912	463.5
410.29	464.41
410.667	443.17
411.045	498.98
411.422	458.53
411.8	484.97
412.178	503.96
412.555	476.61
412.933	505.76
413.31	490.62
413.687	484.07
414.065	498.76
414.442	528.14
414.819	540.34
415.197	528.14
415.574	529.27
415.951	538.76
416.328	517.06
416.705	527.46
417.082	513.45
417.46	546.44
417.837	548.93
418.214	536.72
418.591	548.7
418.967	557.97
419.344	557.74
419.721	543.95
420.098	561.36
420.475	550.28
420.852	562.49
421.228	585.08
421.605	564.52
421.982	572.65
422.358	600.22
422.735	589.15
423.111	609.26
423.488	584.18
423.864	585.31
424.241	578.08
424.617	627.79
424.994	614.46
425.37	613.56
425.746	613.11
426.123	620.11
426.499	625.99
426.875	621.24
427.251	616.27
427.627	640
428.003	622.37
428.379	642.71
428.756	664.86
429.132	658.75
429.507	653.56
429.883	659.88
430.259	649.04
430.635	659.43
431.011	670.73
431.387	683.61
431.763	691.97
432.138	728.58
432.514	710.28
432.89	715.93
433.265	708.7
433.641	717.28
434.016	717.28
434.392	748.92
434.767	721.8
435.143	766.77
435.518	725.42
435.894	741.92
436.269	776.49
436.644	769.71
437.02	740.11
437.395	774.68
437.77	755.93
438.145	790.73
438.52	776.49
438.895	790.28
439.271	819.65
439.646	813.55
440.021	791.18
440.395	824.63
440.77	824.63
441.145	839.54
441.52	816.49
441.895	842.48
442.27	837.73
442.645	837.73
443.019	865.75
443.394	836.6
443.769	854.45
444.143	866.88
444.518	863.27
444.892	842.7
445.267	895.58
445.641	881.57
446.016	884.06
446.39	871.18
446.764	871.63
447.139	891.52
447.513	901.01
447.887	902.82
448.262	889.26
448.636	905.08
449.01	913.89
449.384	922.25
449.758	891.06
450.132	918.86
450.506	912.31
450.88	925.41
451.254	952.31
451.628	935.13
452.002	956.15
452.376	958.18
452.75	954.34
453.123	977.84
453.497	948.69
453.871	967.22
454.244	1001.12
454.618	952.53
454.992	994.56
455.365	991.17
455.739	1042.92
456.112	1024.85
456.486	1007.22
456.859	1054.22
457.232	1047.67
457.606	1033.89
457.979	1047.9
458.352	1084.05
458.725	1090.83
459.099	1082.25
459.472	1101.68
459.845	1102.36
460.218	1114.34
460.591	1112.53
460.964	1118.18
461.337	1133.32
461.71	1157.27
462.083	1154.79
462.456	1166.09
462.829	1162.47
463.201	1147.1
463.574	1144.16
463.947	1184.84
464.32	1205.63
464.692	1208.57
465.065	1230.49
465.438	1260.55
465.81	1230.04
466.183	1219.19
466.555	1257.38
466.928	1268.91
467.3	1260.32
467.672	1283.37
468.045	1283.6
468.417	1309.13
468.789	1307.78
469.161	1308.23
469.534	1349.36
469.906	1366.08
470.278	1368.34
470.65	1351.39
471.022	1376.7
471.394	1404.95
471.766	1418.28
472.138	1439.52
472.51	1480.65
472.882	1467.09
473.253	1451.5
473.625	1496.02
473.997	1499.64
474.369	1532.4
474.74	1542.8
475.112	1572.63
475.484	1601.1
475.855	1605.85
476.227	1594.55
476.598	1657.15
476.97	1660.76
477.341	1689.91
477.713	1719.52
478.084	1670.25
478.455	1768.78
478.827	1764.49
479.198	1802
479.569	1828.44
479.94	1839.74
480.311	1852.39
480.682	1919.96
481.053	1923.35
481.424	1946.63
481.795	1961.32
482.166	1982.56
482.537	2033.18
482.908	2084.93
483.279	2103.46
483.65	2124.03
484.021	2123.35
484.391	2163.12
484.762	2162.44
485.133	2234.98
485.503	2223.46
485.874	2248.32
486.244	2331.93
486.615	2360.18
486.985	2396.79
487.356	2453.28
487.726	2411.02
488.097	2475.43
488.467	2538.25
488.837	2540.51
489.207	2613.96
489.578	2618.25
489.948	2655.76
490.318	2701.19
490.688	2690.56
491.058	2764.69
491.428	2789.09
491.798	2829.09
492.168	2914.51
492.538	2874.29
492.908	2931.69
493.278	2961.52
493.648	3010.56
494.017	3041.52
494.387	3042.65
494.757	3069.76
495.126	3143.43
495.496	3175.52
495.866	3149.76
496.235	3199.7
496.605	3257.56
496.974	3293.49
497.344	3286.26
497.713	3334.39
498.082	3359.25
498.452	3474.05
498.821	3483.99
499.19	3480.83
499.559	3502.75
499.928	3570.99
500.298	3584.1
500.667	3612.12
501.036	3596.98
501.405	3610.54
501.774	3659.13
502.143	3689.63
502.512	3742.29
502.88	3790.87
503.249	3789.74
503.618	3827.94
503.987	3843.75
504.356	3913.13
504.724	3897.76
505.093	3906.13
505.462	3920.36
505.83	3996.07
506.199	4028.83
506.567	4055.05
506.936	4077.87
507.304	4187.7
507.672	4125.1
508.041	4173.01
508.409	4243.07
508.777	4224.76
509.145	4255.72
509.514	4270.18
509.882	4376.62
510.25	4360.8
510.618	4377.3
510.986	4410.29
511.354	4434.7
511.722	4460.46
512.09	4517.18
512.458	4525.32
512.826	4569.84
513.193	4591.31
513.561	4608.48
513.929	4662.94
514.297	4723.96
514.664	4776.16
515.032	4750.4
515.4	4717.63
515.767	4810.51
516.135	4871.3
516.502	4819.32
516.869	4916.95
517.237	4914.46
517.604	4951.97
517.972	4981.8
518.339	5035.36
518.706	5027.9
519.073	5069.26
519.44	5095.02
519.808	5164.85
520.175	5127.11
520.542	5234.23
520.909	5278.75
521.276	5228.13
521.643	5299.08
522.009	5347.9
522.376	5383.83
522.743	5415.24
523.11	5445.75
523.477	5544.95
523.843	5561.68
524.21	5641
524.577	5665.63
524.943	5682.12
525.31	5646.42
525.676	5742.69
526.043	5797.83
526.409	5791.95
526.776	5825.62
527.142	5880.09
527.508	5962.12
527.874	5999.18
528.241	5983.36
528.607	6025.39
528.973	6070.14
529.339	6078.5
529.705	6079.4
530.071	6161.89
530.437	6203.69
530.803	6267.65
531.169	6205.95
531.535	6231.71
531.901	6279.4
532.267	6318.27
532.632	6379.28
532.998	6365.5
533.364	6445.72
533.73	6413.86
534.095	6477.36
534.461	6512.16
534.826	6577.47
535.192	6585.38
535.557	6617.24
535.923	6591.71
536.288	6637.13
536.653	6672.16
537.019	6732.27
537.384	6742.44
537.749	6774.98
538.114	6769.33
538.479	6763.45
538.845	6852.72
539.21	6794.41
539.575	6898.14
539.94	6897.69
540.305	6945.82
540.67	6949.44
541.034	7028.08
541.399	7044.57
541.764	7095.42
542.129	7063.78
542.494	7139.94
542.858	7130
543.223	7197.34
543.587	7160.5
543.952	7215.64
544.316	7252.25
544.681	7353.04
545.045	7277.79
545.41	7381.74
545.774	7407.28
546.138	7354.17
546.503	7487.73
546.867	7472.59
547.231	7530.66
547.595	7541.74
547.959	7553.26
548.324	7654.28
548.688	7673.48
549.052	7664.9
549.416	7811.79
549.779	7771.34
550.143	7825.12
550.507	7900.6
550.871	7908.96
551.235	7925.23
551.599	8030.09
551.962	8102.85
552.326	8076.19
552.689	8162.29
553.053	8093.36
553.417	8189.18
553.78	8343.52
554.143	8258.55
554.507	8334.26
554.87	8342.85
555.234	8487.02
555.597	8495.16
555.96	8524.54
556.323	8611.77
556.686	8658.32
557.05	8749.84
557.413	8755.04
557.776	8825.09
558.139	8904.19
558.502	8945.32
558.865	8981.02
559.228	9092.66
559.59	9076.84
559.953	9195.93
560.316	9299.88
560.679	9310.5
561.041	9423.72
561.404	9509.14
561.767	9602.7
562.129	9620.55
562.492	9706.65
562.854	9804.05
563.217	9796.37
563.579	9943.03
563.941	10056.47
564.304	10076.81
564.666	10249.46
565.028	10317.48
565.39	10427.08
565.753	10456.91
566.115	10604.93
566.477	10641.32
566.839	10732.61
567.201	10935.09
567.563	11028.65
567.925	11104.35
568.287	11251.24
568.648	11302.09
569.01	11465.7
569.372	11632.02
569.734	11626.83
570.095	11883.54
570.457	12026.59
570.819	12087.38
571.18	12294.15
571.542	12446.47
571.903	12589.06
572.265	12707.48
572.626	12895.72
572.987	13064.08
573.349	13256.84
573.71	13477.4
574.071	13598.07
574.432	13821.35
574.794	14051.4
575.155	14227.44
575.516	14346.53
575.877	14594.43
576.238	14835.33
576.599	15018.6
576.96	15280.97
577.32	15619.04
577.681	15786.27
578.042	16047.5
578.403	16275.07
578.763	16449.53
579.124	16856.52
579.485	17230.07
579.845	17489.95
580.206	17699.89
580.566	17992.99
580.927	18294.9
581.287	18653.53
581.648	18891.04
582.008	19282.67
582.368	19506.62
582.728	19982.54
583.089	20218.24
583.449	20617.1
583.809	20979.8
584.169	21496.17
584.529	21707.69
584.889	22326.88
585.249	22531.17
585.609	23011.39
585.969	23365.95
586.329	23674.42
586.688	24200.06
587.048	24508.97
587.408	24900.38
587.768	25334.72
588.127	25762.27
588.487	26143.73
588.846	26874.56
589.206	27085.18
589.565	27622.11
589.925	27973.52
590.284	28381.19
590.643	28906.15
591.003	29423.65
591.362	30042.84
591.721	30350.4
592.08	30789.71
592.44	31414.1
592.799	31728.45
593.158	32304.93
593.517	32842.09
593.876	33237.78
594.235	33703.08
594.593	34199.57
594.952	34670.97
595.311	35084.74
595.67	35741.9
596.029	36319.29
596.387	36656.9
596.746	37129.66
597.104	37449.65
597.463	38050.31
597.822	38490.3
598.18	38831.54
598.538	39145.88
598.897	39781.57
599.255	39932.98
599.613	40934.53
599.972	41083.68
600.33	41515.08
600.688	41872.13
601.046	42482.96
601.404	43023.06
601.762	43259.89
602.12	43853.78
602.478	44171.06
602.836	44458.73
603.194	44724.94
603.552	45050.58
603.91	45339.16
604.268	45964.46
604.625	46109.08
604.983	46502.97
605.341	46659.35
605.698	47128.72
606.056	47471.76
606.413	47750.4
606.771	48196.04
607.128	48319.87
607.485	48408.68
607.843	48649.81
608.2	49117.37
608.557	49392.16
608.914	49557.36
609.272	49885.26
609.629	50183.55
609.986	50325.7
610.343	50392.59
610.7	50809.07
611.057	50864.21
611.414	50916.87
611.771	51322.73
612.127	51514.14
612.484	51596.62
612.841	51703.74
613.198	51852.21
613.554	51930.17
613.911	52199.32
614.267	52332.42
614.624	52396.38
614.98	52520.22
615.337	52784.61
615.693	52849.47
616.05	52926.53
616.406	53216.02
616.762	53042.46
617.118	53181.21
617.475	53216.47
617.831	53459.63
618.187	53476.57
618.543	53618.72
618.899	53801.09
619.255	53788.66
619.611	53939.39
619.967	54042.66
620.323	54131.7
620.678	54031.81
621.034	54102.32
621.39	54101.42
621.746	54151.36
622.101	54532.82
622.457	54293.28
622.812	54417.79
623.168	54538.24
623.523	54475.42
623.879	54602.65
624.234	54510.67
624.589	54651.91
624.945	54717.22
625.3	54794.73
625.655	54753.6
626.01	54783.66
626.365	54793.38
626.72	54826.14
627.075	54873.6
627.43	54859.14
627.785	54879.48
628.14	54948.85
628.495	55040.37
628.85	55016.65
629.205	54980.04
629.559	55053.48
629.914	55014.16
630.269	55030.43
630.623	55011
630.978	54938.91
631.332	55126.47
631.687	55221.84
632.041	55027.95
632.396	55171.44
632.75	54950.43
633.104	55130.32
633.459	54958.8
633.813	54952.92
634.167	54984.11
634.521	54961.28
634.875	55014.84
635.229	55040.37
635.583	54913.6
635.937	54948.17
636.291	54901.4
636.645	54888.51
636.999	54860.72
637.352	54904.11
637.706	54778.23
638.06	54925.12
638.413	54833.6
638.767	54744.79
639.121	54720.84
639.474	54690.1
639.828	54616.21
640.181	54669.76
640.534	54700.04
640.888	54700.04
641.241	54652.59
641.594	54727.16
641.947	54776.43
642.301	54657.11
642.654	54670.89
643.007	54711.8
643.36	54670.67
643.713	54669.76
644.066	54744.34
644.419	54562.2
644.771	54446.94
645.124	54095.09
645.477	54103.68
645.83	53933.96
646.182	53869.11
646.535	53747.98
646.888	53849.22
647.24	53696.68
647.593	53959.73
647.945	53806.28
648.298	53609.68
648.65	53651.48
649.002	53608.32
649.355	53644.93
649.707	53626.4
650.059	53705.95
650.411	54084.47
650.763	54191.36
651.115	54441.75
651.467	54316.33
651.819	54377.57
652.171	54240.62
652.523	54247.4
652.875	54207.4
653.227	54278.36
653.578	54397.91
653.93	54282.2
654.282	54160.17
654.633	54043.34
654.985	54202.88
655.337	54229.1
655.688	54263.22
656.039	54334.86
656.391	54018.71
656.742	54098.25
657.094	54190.45
657.445	54271.13
657.796	54206.27
658.147	54097.12
658.498	54088.76
658.849	54213.5
659.2	54090.12
659.551	54020.06
659.902	54185.93
660.253	54150.45
660.604	54146.84
660.955	53950.69
661.306	54050.8
661.656	53996.79
662.007	54112.94
662.358	54075.43
662.708	54119.27
663.059	54050.57
663.409	53854.87
663.76	54044.02
664.11	54139.61
664.461	54175.99
664.811	54045.15
665.161	54065.03
665.511	53994.75
665.862	53994.98
666.212	54116.56
666.562	54090.12
666.912	54056.9
667.262	54013.74
667.612	53985.71
667.962	54068.65
668.312	53962.44
668.662	53980.06
669.011	53960.63
669.361	53827.07
669.711	53966.28
670.06	53941.65
670.41	53871.82
670.76	53700.07
671.109	53851.93
671.459	53739.62
671.808	53685.16
672.157	53758.15
672.507	53596.34
672.856	53675.66
673.205	53636.8
673.554	53746.62
673.904	53599.28
674.253	53756.57
674.602	53710.92
674.951	53160.65
675.3	53102.57
675.649	53511.15
675.998	53492.39
676.346	53476.12
676.695	53607.87
677.044	53331.04
677.393	53433.19
677.741	53432.06
678.09	53400.87
678.438	53315.45
678.787	53392.96
679.135	53339.18
679.484	53132.4
679.832	53315.67
680.181	53096.7
680.529	53262.12
680.877	53127.2
681.225	53052.18
681.573	53284.71
681.922	53079.52
682.27	52962.46
682.618	53008.34
682.966	53001.78
683.314	53013.08
683.661	52861.22
684.009	52701.91
684.357	52654.67
684.705	52609.03
685.053	52700.78
685.4	52609.93
685.748	52423.49
686.095	52461.91
686.443	52329.49
686.79	52384.63
687.138	52398.41
687.485	52276.83
687.832	52152.77
688.18	52209.49
688.527	51968.59
688.874	52018.99
689.221	51886.33
689.568	51906.45
689.915	51806.56
690.262	51818.31
690.609	51567.7
690.956	51594.36
691.303	51570.64
691.65	51379.45
691.997	51432.11
692.344	51165.9
692.69	51188.27
693.037	51296.52
693.383	50870.99
693.73	50977.2
694.077	50831.67
694.423	50939.01
694.769	50769.3
695.116	50584.45
695.462	50567.95
695.808	50462.19
696.155	50437.33
696.501	50101.97
696.847	50215.87
697.193	49941.3
697.539	50188.3
697.885	49780.85
698.231	49767.29
698.577	49723
698.923	49703.79
699.269	49510.12
699.614	49316.46
699.96	49339.73
700.306	49274.42
700.651	49099.51
700.997	48843.93
701.342	48929.12
701.688	48782.46
702.033	48787.43
702.379	48641.67
702.724	48587.44
703.069	48647.1
703.415	48260.89
703.76	48264.96
704.105	48229.48
704.45	48029.71
704.795	47871.3
705.14	47696.16
705.485	47836.04
705.83	47570.51
706.175	47599.21
706.52	47404.87
706.865	47319.67
707.209	47253.91
707.554	47152.67
707.899	47188.38
708.243	46940.47
708.588	46823.87
708.932	46583.42
709.277	46657.32
709.621	46730.31
709.966	46324.45
710.31	46483.76
710.654	46167.84
710.998	46192.25
711.342	46208.52
711.687	46169.87
712.031	45800.84
712.375	45731.02
712.719	45997.22
713.063	45788.19
713.407	45940.5
713.75	45672.49
714.094	45565.6
714.438	45410.12
714.782	45400.18
715.125	45321.08
715.469	45369.22
715.812	45228.66
716.156	44950.24
716.499	45085.83
716.843	45087.64
717.186	44734.88
717.53	44970.81
717.873	44950.92
718.216	44755.9
718.559	44622.12
718.902	44329.02
719.246	44452.18
719.589	44377.38
719.932	44206.76
720.275	44185.74
720.617	44273.43
720.96	44222.13
721.303	44179.64
721.646	44068.91
721.989	43806.32
722.331	43945.98
722.674	43865.3
723.016	43866.43
723.359	43832.53
723.701	43686.55
724.044	43498.31
724.386	43435.93
724.729	43522.49
725.071	43458.31
725.413	43290.18
725.755	43361.59
726.097	43229.16
726.439	43040.01
726.782	43091.08
727.124	43287.92
727.465	43079.56
727.807	43049.73
728.149	43069.84
728.491	42998.43
728.833	43088.15
729.175	42844.54
729.516	42727.7
729.858	42724.09
730.199	42856.74
730.541	42787.82
730.882	42524.77
731.224	42751.43
731.565	42349.18
731.906	42425.57
732.248	42436.64
732.589	42131.79
732.93	42207.72
733.271	42227.38
733.612	42253.14
733.953	42132.24
734.294	41977.67
734.635	41929.53
734.976	42117.78
735.317	41869.2
735.658	41922.08
735.999	41962.75
736.339	41705.36
736.68	41959.59
737.021	41697.22
737.361	41612.48
737.702	41807.95
738.042	41596.89
738.383	41612.71
738.723	41635.3
739.063	41464.23
739.404	41488.64
739.744	41440.73
740.084	41278.25
740.424	41251.58
740.764	41302.2
741.104	41267.18
741.444	41213.62
741.784	41201.19
742.124	41247.97
742.464	41192.83
742.804	41108.76
743.143	40979.28
743.483	40975.89
743.823	40733.86
744.162	40872.39
744.502	40790.81
744.841	40736.12
745.181	40873.52
745.52	40677.59
745.86	40713.52
746.199	40592.62
746.538	40577.03
746.877	40674.2
747.216	40471.27
747.556	40556.24
747.895	40422.45
748.234	40283.25
748.573	40263.36
748.911	40143.37
749.25	40207.32
749.589	40138.62
749.928	40156.47
750.267	40182.46
750.605	39912.64
750.944	39798.06
751.283	39694.34
751.621	39981.79
751.96	39457.51
752.298	39577.5
752.636	39617.96
752.975	39522.59
753.313	39397.17
753.651	39546.54
753.989	39353.1
754.327	39243.5
754.666	39225.65
755.004	39167.57
755.342	39198.31
755.679	39095.71
756.017	38883.74
756.355	38922.38
756.693	38789.73
757.031	38706.57
757.368	38468.83
757.706	38525.33
758.044	38363.07
758.381	38401.04
758.719	38139.35
759.056	38222.51
759.394	38129.63
759.731	37979.13
760.068	37888.96
760.405	37691
760.743	37704.56
761.08	37778.23
761.417	37467.73
761.754	37456.43
762.091	37314.97
762.428	37249.66
762.765	37045.59
763.102	37205.36
763.438	36961.98
763.775	36804.02
764.112	36830.91
764.449	36748.2
764.785	36554.08
765.122	36411.49
765.458	36367.65
765.795	36281.32
766.131	36167.88
766.467	36170.59
766.804	36018.05
767.14	35722.46
767.476	35699.64
767.812	35604.05
768.148	35729.24
768.485	35401.8
768.821	35137.85
769.157	35120.67
769.492	35055.14
769.828	35170.61
770.164	34750.06
770.5	34749.38
770.836	34796.84
771.171	34495.38
771.507	34399.56
771.842	34181.94
772.178	34236.63
772.513	34187.82
772.849	34028.72
773.184	33922.29
773.519	33745.79
773.855	33617.89
774.19	33509.19
774.525	33340.61
774.86	33530.21
775.195	33303.32
775.53	33232.81
775.865	32989.66
776.2	32767.06
776.535	32646.39
776.87	32493.85
777.205	32398.26
777.539	32301.76
777.874	32313.29
778.209	32122.33
778.543	31859.06
778.878	31880.08
779.212	31862.23
779.547	31613.19
779.881	31776.81
780.215	31523.93
780.55	31519.19
780.884	31212.07
781.218	31120.78
781.552	31198.06
781.886	31022.48
782.22	30990.61
782.554	30654.12
782.888	30520.79
783.222	30297.75
783.556	30290.29
783.889	30364.87
784.223	29981.37
784.557	29835.84
784.89	30127.13
785.224	29900.7
785.557	29761.04
785.891	29679.23
786.224	29634.94
786.558	29516.53
786.891	29230.66
787.224	29140.49
787.557	29111.57
787.891	29132.13
788.224	29029.76
788.557	28921.97
788.89	28917.22
789.223	28914.06
789.556	28588.41
789.888	28599.49
790.221	28454.63
790.554	28192.49
790.887	28179.84
791.219	28151.82
791.552	28153.17
791.884	27877.7
792.217	27869.79
792.549	27771.04
792.882	27625.5
793.214	27474.32
793.546	27458.95
793.879	27314.78
794.211	27348
794.543	27232.07
794.875	27111.39
795.207	27173.76
795.539	26903.04
795.871	26861.23
796.203	26873.88
796.535	26568.13
796.867	26671.63
797.198	26557.73
797.53	26490.17
797.862	26279.78
798.193	26315.71
798.525	26118.42
798.856	26152.77
799.188	25839.79
799.519	25772.67
799.85	25726.8
800.182	25741.48
800.513	25710.75
800.844	25459.68
801.175	25625.56
801.506	25478.21
801.837	25327.03
802.168	25279.12
802.499	25322.74
802.83	25151.22
803.161	25065.12
803.491	25024.44
803.822	24892.69
804.153	24819.25
804.483	24710.78
804.814	24624.9
805.145	24617.9
805.475	24508.3
805.805	24375.42
806.136	24519.82
806.466	24430.33
806.796	24339.04
807.126	24194.18
807.457	24168.42
807.787	24195.76
808.117	24014.52
808.447	24008.42
808.777	23992.15
809.107	23929.78
809.436	23813.63
809.766	23851.36
810.096	23664.25
810.426	23651.82
810.755	23595.55
811.085	23448.21
811.414	23469.45
811.744	23301.77
812.073	23246.86
812.403	23178.16
812.732	23181.1
813.061	23102.91
813.39	22955.12
813.719	22971.61
814.049	23041.22
814.378	22917.38
814.707	22743.82
815.036	22886.42
815.365	22596.03
815.693	22431.29
816.022	22577.5
816.351	22336.6
816.68	22370.27
817.008	22332.53
817.337	22125.53
817.665	22227.9
817.994	22204.85
818.322	22073.33
818.651	21961.02
818.979	21986.1
819.307	22095.7
819.636	22000.34
819.964	21811.19
820.292	21881.92
820.62	21801.47
820.948	21837.63
821.276	21858.87
821.604	21707.92
821.932	21786.33
822.259	21779.78
822.587	21699.1
822.915	21712.44
823.243	21739.56
823.57	21730.74
823.898	21675.15
824.225	21728.93
824.553	21671.08
824.88	21697.75
825.207	21728.26
825.535	21651.87
825.862	21720.57
826.189	21617.3
826.516	21709.73
826.843	21757.86
827.17	21723.06
827.497	21686.45
827.824	21762.83
828.151	21741.82
828.478	21674.25
828.805	21781.81
829.131	21638.77
829.458	21666.56
829.785	21522.16
830.111	21522.61
830.438	21655.26
830.764	21629.95
831.09	21673.57
831.417	21543.4
831.743	21646.68
832.069	21609.62
832.395	21406
832.722	21671.31
833.048	21414.59
833.374	21509.96
833.7	21323.52
834.026	21462.95
834.351	21459.56
834.677	21402.39
835.003	21474.03
835.329	21399.23
835.654	21342.5
835.98	21184.32
836.306	21313.13
836.631	21196.97
836.956	21290.3
837.282	21291.88
837.607	21032.46
837.932	21120.36
838.258	21007.6
838.583	21114.04
838.908	20895.96
839.233	21043.98
839.558	20932.57
839.883	20808.51
840.208	20819.81
840.533	20838.11
840.858	20836.53
841.182	20914.94
841.507	20761.5
841.832	20774.61
842.156	20632.24
842.481	20592.92
842.805	20528.29
843.13	20529.42
843.454	20497.55
843.778	20458.46
844.103	20326.26
844.427	20274.06
844.751	20255.07
845.075	20226.15
845.399	20223.44
845.723	20055.08
846.047	20114.29
846.371	19944.8
846.695	19921.75
847.019	19737.8
847.343	19694.64
847.666	19480.86
847.99	19529.67
848.313	19534.42
848.637	19368.54
848.96	19460.52
849.284	19353.18
849.607	19160.41
849.931	19093.98
850.254	19026.86
850.577	18880.65
850.9	18709.58
851.223	18698.28
851.546	18710.03
851.869	18576.93
852.192	18640.43
852.515	18417.38
852.838	18388.68
853.161	18425.29
853.483	18344.39
853.806	18190.95
854.129	18249.25
854.451	17971.97
854.774	17996.83
855.096	17978.3
855.419	17945.76
855.741	17796.16
856.063	17695.14
856.385	17730.4
856.708	17656.5
857.03	17555.94
857.352	17570.85
857.674	17484.53
857.996	17496.5
858.318	17374.25
858.64	17397.52
858.961	17298.99
859.283	17215.61
859.605	17103.29
859.926	17209.96
860.248	17117.08
860.57	17014.71
860.891	17034.14
861.212	16983.97
861.534	16977.87
861.855	16888.16
862.176	16990.3
862.498	16914.6
862.819	16910.53
863.14	16729.52
863.461	16792.34
863.782	16733.36
864.103	16775.39
864.424	16703.53
864.745	16799.12
865.065	16604.32
865.386	16619.46
865.707	16525.23
866.027	16477.1
866.348	16414.72
866.668	16447.27
866.989	16475.29
867.309	16324.33
867.63	16430.99
867.95	16360.49
868.27	16258.57
868.59	16379.24
868.91	16148.06
869.23	16237.1
869.55	16080.27
869.87	16133.38
870.19	16101.96
870.51	16108.52
870.83	16135.41
871.15	16001.4
871.469	16040.27
871.789	16033.49
872.109	16014.96
872.428	15877.79
872.748	15866.94
873.067	15918.24
873.386	15963.66
873.706	15811.58
874.025	15841.63
874.344	15825.36
874.663	15761.63
874.982	15790.56
875.301	15692.71
875.62	15632.15
875.939	15571.81
876.258	15593.73
876.577	15536.78
876.896	15621.3
877.214	15425.37
877.533	15547.63
877.852	15527.29
878.17	15462.66
878.489	15397.8
878.807	15444.58
879.125	15390.12
879.444	15356.45
879.762	15223.57
880.08	15339.5
880.398	15188.09
880.716	15286.39
881.034	15286.84
881.352	15280.29
881.67	15150.35
881.988	15284.81
882.306	15084.36
882.624	14960.98
882.941	14977.02
883.259	14960.75
883.577	14858.61
883.894	14772.51
884.212	14856.57
884.529	14782.68
884.846	14809.79
885.164	14800.98
885.481	14735.9
885.798	14788.1
886.115	14680.31
886.432	14629.69
886.75	14579.29
887.067	14679.18
887.383	14546.98
887.7	14600.53
888.017	14464.27
888.334	14514.21
888.651	14368.22
888.967	14336.81
889.284	14260.43
889.6	14342.46
889.917	14166.2
890.233	14297.94
890.55	14170.04
890.866	14232.86
891.182	14017.72
891.498	14065.86
891.815	13970.72
892.131	13972.75
892.447	13939.99
892.763	13852.53
893.079	13846.2
893.395	13779.31
893.71	13726.88
894.026	13716.72
894.342	13658.64
894.657	13561.47
894.973	13536.83
895.289	13529.6
895.604	13547.45
895.92	13478.76
896.235	13363.73
896.55	13393.79
896.865	13274.69
897.181	13240.12
897.496	13197.86
897.811	13147.69
898.126	13102.27
898.441	13007.58
898.756	13049.84
899.071	12934.82
899.386	13039.67
899.7	12913.57
900.015	12827.47
900.33	12704.76
900.644	12650.75
900.959	12734.14
901.273	12607.82
901.588	12565.33
901.902	12531.89
902.216	12515.39
902.531	12484.88
902.845	12412.34
903.159	12301.39
903.473	12282.4
903.787	12309.29
904.101	12128.96
904.415	12159.24
904.729	12184.33
905.042	12041.05
905.356	12020.72
905.67	12002.41
905.984	12044.9
906.297	12007.16
906.611	11870.89
906.924	11833.38
907.237	11759.48
907.551	11767.39
907.864	11698.69
908.177	11652.59
908.491	11605.36
908.804	11526.49
909.117	11508.86
909.43	11550.22
909.743	11493.05
910.056	11375.99
910.368	11298.47
910.681	11292.6
910.994	11153.17
911.307	11143.68
911.619	11082.66
911.932	11099.38
912.244	11001.76
912.557	11037.01
912.869	10878.82
913.181	10957.69
913.494	10863.23
913.806	10718.15
914.118	10755.21
914.43	10692.84
914.742	10665.72
915.054	10616.68
915.366	10588.21
915.678	10510.25
915.99	10474.09
916.302	10386.41
916.613	10320.42
916.925	10427.99
917.236	10338.95
917.548	10304.38
917.859	10220.08
918.171	10100.99
918.482	10130.37
918.794	10169.92
919.105	10069.13
919.416	10001.79
919.727	9955.68
920.038	9900.77
920.349	9834.33
920.66	9812.64
920.971	9827.78
921.282	9761.79
921.593	9703.49
921.903	9746.65
922.214	9623.72
922.525	9651.51
922.835	9513.44
923.146	9449.71
923.456	9472.99
923.767	9389.37
924.077	9365.42
924.387	9386.43
924.697	9244.29
925.008	9230.51
925.318	9239.77
925.628	9190.51
925.938	9127.46
926.248	9044.75
926.558	9048.59
926.867	8999.55
927.177	8998.2
927.487	8949.84
927.796	8963.85
928.106	8868.93
928.416	8838.2
928.725	8798.43
929.034	8736.06
929.344	8720.01
929.653	8760.24
929.962	8612.44
930.271	8608.83
930.581	8606.34
930.89	8558.89
931.199	8445.89
931.508	8473.24
931.817	8436.4
932.125	8376.74
932.434	8401.38
932.743	8265.79
933.051	8250.19
933.36	8235.5
933.669	8247.25
933.977	8099.01
934.286	8134.04
934.594	8071.44
934.902	7986.02
935.21	7959.35
935.519	8085
935.827	7973.36
936.135	7921.16
936.443	7832.58
936.751	7861.95
937.059	7757.32
937.367	7728.62
937.674	7792.35
937.982	7694.28
938.29	7668.06
938.597	7639.81
938.905	7605.46
939.213	7568.85
939.52	7495.41
939.827	7470.33
940.135	7436.88
940.442	7425.13
940.749	7437.11
941.056	7448.41
941.363	7333.38
941.67	7293.16
941.977	7249.99
942.284	7212.71
942.591	7156.66
942.898	7125.7
943.205	7134.29
943.511	7089.55
943.818	7112.6
944.125	6997.12
944.431	7062.65
944.738	7003.22
945.044	6963.22
945.35	6927.74
945.657	6902.43
945.963	6860.4
946.269	6808.87
946.575	6871.47
946.881	6765.71
947.187	6796.22
947.493	6661.53
947.799	6680.97
948.105	6660.4
948.41	6627.18
948.716	6653.62
949.022	6602.1
949.327	6524.36
949.633	6443.46
949.938	6447.3
950.244	6445.04
950.549	6408.21
950.854	6410.69
951.16	6394.87
951.465	6297.02
951.77	6322.79
952.075	6297.7
952.38	6269.91
952.685	6253.41
952.99	6198.04
953.294	6194.2
953.599	6091.15
953.904	6082.34
954.209	6069.01
954.513	6111.04
954.818	6036.92
955.122	6008.22
955.426	5985.85
955.731	5946.3
956.035	5935.23
956.339	5854.1
956.643	5876.47
956.948	5855.68
957.252	5834.66
957.556	5800.31
957.86	5787.66
958.163	5755.12
958.467	5726.42
958.771	5691.84
959.075	5653.88
959.378	5619.75
959.682	5595.35
959.985	5637.83
960.289	5574.78
960.592	5511.51
960.896	5556.7
961.199	5522.35
961.502	5490.49
961.805	5409.14
962.108	5386.77
962.411	5393.32
962.714	5323.72
963.017	5336.82
963.32	5349.93
963.623	5340.66
963.926	5318.97
964.228	5262.25
964.531	5203.04
964.833	5196.94
965.136	5157.39
965.438	5178.41
965.741	5171.18
966.043	5099.32
966.345	5097.28
966.648	5022.25
966.95	4993.78
967.252	5021.8
967.554	4971.18
967.856	4995.81
968.158	4931.41
968.46	4935.03
968.761	4918.53
969.063	4900
969.365	4799.66
969.666	4872.65
969.968	4843.5
970.269	4836.95
970.571	4760.11
970.872	4758.99
971.174	4724.41
971.475	4721.92
971.776	4700.23
972.077	4695.03
972.378	4696.16
972.679	4674.24
972.98	4640.34
973.281	4629.5
973.582	4603.28
973.883	4533.45
974.183	4508.14
974.484	4475.38
974.785	4474.25
975.085	4481.48
975.386	4463.85
975.686	4489.39
975.986	4466.34
976.287	4466.34
976.587	4334.59
976.887	4328.04
977.187	4330.97
977.487	4321.03
977.787	4293.01
978.087	4295.49
978.387	4285.33
978.687	4279
978.987	4264.53
979.286	4177.98
979.586	4197.19
979.885	4160.36
980.185	4148.83
980.484	4142.28
980.784	4097.99
981.083	4102.73
981.382	4051.66
981.682	4043.07
981.981	4038.78
982.28	4012.56
982.579	4011.66
982.878	3991.77
983.177	3966.01
983.475	3993.81
983.774	3939.8
984.073	3889.4
984.372	3876.07
984.67	3896.41
984.969	3874.49
985.267	3879.01
985.566	3827.26
985.864	3784.77
986.162	3763.31
986.461	3733.7
986.759	3750.42
987.057	3730.09
987.355	3692.35
987.653	3677.43
987.951	3638.34
988.249	3643.31
988.547	3684.44
988.844	3639.24
989.142	3602.18
989.44	3595.17
989.737	3583.87
990.035	3536.19
990.332	3538.68
990.63	3494.61
990.927	3472.47
991.224	3455.97
991.521	3431.56
991.819	3446.25
992.116	3444.22
992.413	3435.4
992.71	3415.29
993.006	3406.25
993.303	3339.81
993.6	3364.45
993.897	3317.44
994.193	3293.03
994.49	3266.59
994.787	3262.75
995.083	3298.01
995.379	3259.82
995.676	3215.52
995.972	3243.77
996.268	3201.74
996.565	3188.86
996.861	3194.28
997.157	3118.58
997.453	3139.59
997.749	3119.71
998.044	3105.47
998.34	3147.28
998.636	3055.98
998.932	3014.62
999.227	3021.4
999.523	2988.18
999.818	3014.17
1000.114	3007.39
1000.409	2960.39
1000.704	2950.45
1001	2947.28
1001.295	2892.37
1001.59	2896.44
1001.885	2884.23
1002.18	2906.15
1002.475	2869.77
1002.77	2856.89
1003.065	2823.22
1003.359	2812.14
1003.654	2791.13
1003.949	2794.74
1004.243	2705.25
1004.538	2748.19
1004.832	2734.63
1005.127	2703.9
1005.421	2686.72
1005.715	2677.91
1006.009	2670.9
1006.304	2632.04
1006.598	2607.18
1006.892	2632.26
1007.186	2596.78
1007.48	2592.26
1007.773	2575.77
1008.067	2562.66
1008.361	2545.48
1008.655	2524.69
1008.948	2528.99
1009.242	2504.81
1009.535	2530.57
1009.829	2488.99
1010.122	2449.22
1010.415	2427.29
1010.708	2454.64
1011.001	2430.46
1011.295	2380.74
1011.588	2383.45
1011.881	2381.65
1012.173	2347.52
1012.466	2373.06
1012.759	2303.46
1013.052	2320.86
1013.344	2350.23
1013.637	2315.21
1013.93	2270.01
1014.222	2257.36
1014.514	2269.78
1014.807	2228.66
1015.099	2195.89
1015.391	2184.82
1015.683	2207.64
1015.976	2177.36
1016.268	2169.45
1016.56	2119.96
1016.851	2138.71
1017.143	2142.1
1017.435	2088.09
1017.727	2088.77
1018.018	2081.77
1018.31	2083.8
1018.602	2058.27
1018.893	2036.34
1019.185	2010.13
1019.476	2001.09
1019.767	1995.44
1020.058	1996.12
1020.35	1932.62
1020.641	1966.06
1020.932	1950.7
1021.223	1916.35
1021.514	1920.19
1021.804	1880.42
1022.095	1915.44
1022.386	1862.79
1022.677	1831.6
1022.967	1837.93
1023.258	1859.85
1023.548	1838.61
1023.839	1815.56
1024.129	1800.19
1024.419	1764.49
1024.709	1731.04
1025	1744.6
1025.29	1734.21
1025.58	1731.72
1025.87	1712.96
1026.16	1703.47
1026.449	1696.92
1026.739	1697.14
1027.029	1671.61
1027.319	1644.72
1027.608	1705.05
1027.898	1650.14
1028.187	1648.33
1028.477	1622.8
1028.766	1621.44
1029.055	1591.61
1029.344	1578.28
1029.634	1571.5
1029.923	1579.63
1030.212	1550.26
1030.501	1518.39
1030.79	1550.48
1031.078	1526.53
1031.367	1508.45
1031.656	1471.84
1031.945	1461.67
1032.233	1475.46
1032.522	1451.05
1032.81	1445.17
1033.099	1435.68
1033.387	1441.78
1033.675	1422.35
1033.963	1416.02
1034.251	1405.17
1034.54	1390.49
1034.828	1388.23
1035.116	1381.22
1035.403	1368.57
1035.691	1351.39
1035.979	1334.22
1036.267	1336.48
1036.554	1302.35
1036.842	1297.61
1037.129	1298.51
1037.417	1295.35
1037.704	1288.34
1037.992	1266.2
1038.279	1250.15
1038.566	1251.73
1038.853	1251.73
1039.14	1251.73
