Data from orange_diffuse_book_FLMS001491_00074.txt Node
Date: Wed Feb 08 15:30:01 GMT 2017
User: dcchb
Spectrometer: FLMS00149
Trigger mode: 0
Integration Time (sec): 2.000000E-2
Scans to average: 10
Electric dark correction enabled: true
Nonlinearity correction enabled: false
Boxcar width: 0
XAxis mode: Wavelengths
Number of Pixels in Spectrum: 2048
>>>>>Begin Spectral Data<<<<<
341.393	-17.56
341.776	-17.56
342.16	-17.56
342.543	-71.34
342.927	-78.12
343.31	-73.83
343.693	-74.05
344.077	-48.97
344.46	-66.59
344.843	-38.8
345.226	-50.55
345.61	-42.64
345.993	-19.36
346.376	-5.8
346.759	-2.64
347.142	9.79
347.525	42.78
347.908	60.86
348.291	91.82
348.674	112.16
349.057	105.83
349.44	111.48
349.823	131.59
350.206	156.45
350.588	201.65
350.971	224.25
351.354	233.06
351.737	245.71
352.119	251.82
352.502	280.06
352.884	293.85
353.267	276.67
353.65	313.96
354.032	319.16
354.414	297.01
354.797	317.35
355.179	317.58
355.562	324.36
355.944	319.38
356.326	355.54
356.709	355.99
357.091	364.58
357.473	343.79
357.855	344.69
358.238	349.89
358.62	363.45
359.002	346.05
359.384	342.21
359.766	375.88
360.148	318.03
360.53	349.44
360.912	339.04
361.294	359.16
361.676	334.53
362.057	339.04
362.439	335.43
362.821	334.53
363.203	308.99
363.584	336.11
363.966	335.66
364.348	316.67
364.729	341.76
365.111	334.53
365.493	319.61
365.874	319.61
366.256	315.54
366.637	340.63
367.019	351.02
367.4	326.84
367.781	329.1
368.163	320.74
368.544	325.03
368.925	322.32
369.306	326.62
369.688	346.28
370.069	317.8
370.45	346.28
370.831	329.33
371.212	340.4
371.593	336.11
371.974	315.77
372.355	318.03
372.736	333.17
373.117	351.02
373.498	326.62
373.879	324.36
374.26	340.4
374.641	322.32
375.021	330.23
375.402	332.04
375.783	341.3
376.163	339.27
376.544	337.24
376.925	339.5
377.305	347.18
377.686	324.13
378.066	340.85
378.447	356.22
378.827	357.35
379.208	338.37
379.588	333.62
379.968	341.98
380.349	333.17
380.729	347.41
381.109	348.31
381.489	341.76
381.87	348.54
382.25	346.05
382.63	346.05
383.01	349.67
383.39	361.19
383.77	347.41
384.15	350.34
384.53	368.87
384.91	348.76
385.29	352.15
385.67	369.1
386.049	375.2
386.429	362.55
386.809	360.29
387.189	363.68
387.568	370
387.948	351.25
388.328	365.26
388.707	355.99
389.087	370
389.466	377.01
389.846	390.12
390.225	382.21
390.605	384.69
390.984	391.25
391.363	370.46
391.743	363.68
392.122	389.21
392.501	380.4
392.881	391.92
393.26	398.7
393.639	384.24
394.018	412.04
394.397	379.5
394.776	392.83
395.155	407.52
395.534	398.03
395.913	398.48
396.292	394.18
396.671	398.03
397.05	409.1
397.429	386.73
397.808	376.56
398.186	384.02
398.565	373.85
398.944	410
399.323	400.29
399.701	401.87
400.08	419.72
400.458	415.65
400.837	416.78
401.215	419.72
401.594	411.81
401.972	414.75
402.351	418.82
402.729	417.91
403.107	407.29
403.486	428.53
403.864	433.96
404.242	411.59
404.62	432.83
404.999	444.35
405.377	435.09
405.755	443.67
406.133	437.8
406.511	428.76
406.889	445.03
407.267	461.53
407.645	470.11
408.023	457.46
408.401	445.48
408.779	436.67
409.156	477.35
409.534	444.8
409.912	454.07
410.29	472.6
410.667	466.95
411.045	465.37
411.422	468.53
411.8	483.45
412.178	494.75
412.555	483.9
412.933	492.94
413.31	504.92
413.687	501.75
414.065	502.2
414.442	540.4
414.819	507.63
415.197	495.88
415.574	517.35
415.951	518.25
416.328	529.1
416.705	511.92
417.082	520.73
417.46	532.49
417.837	544.46
418.214	542.66
418.591	541.3
418.967	538.81
419.344	563.67
419.721	549.21
420.098	550.79
420.475	546.95
420.852	559.6
421.228	563.67
421.605	558.47
421.982	576.1
422.358	581.98
422.735	591.92
423.111	593.95
423.488	562.32
423.864	580.39
424.241	592.82
424.617	589.21
424.994	609.32
425.37	600.51
425.746	624.01
426.123	615.65
426.499	600.96
426.875	630.34
427.251	614.52
427.627	635.76
428.003	627.17
428.379	623.56
428.756	632.82
429.132	649.55
429.507	660.17
429.883	654.29
430.259	657.45
430.635	663.33
431.011	661.75
431.387	673.73
431.763	712.14
432.138	704.46
432.514	695.87
432.89	708.98
433.265	727.74
433.641	716.44
434.016	737.23
434.392	733.16
434.767	748.07
435.143	737.68
435.518	718.92
435.894	761.63
436.269	774.29
436.644	764.8
437.02	764.12
437.395	770.9
437.77	772.03
438.145	795.76
438.52	774.51
438.895	790.11
439.271	791.24
439.646	789.2
440.021	818.58
440.395	820.61
440.77	812.7
441.145	835.75
441.52	835.08
441.895	839.14
442.27	840.95
442.645	848.41
443.019	859.71
443.394	833.5
443.769	872.59
444.143	875.98
444.518	864.68
444.892	861.74
445.267	875.75
445.641	867.17
446.016	856.55
446.39	854.29
446.764	861.06
447.139	858.35
447.513	886.37
447.887	898.8
448.262	875.98
448.636	905.36
449.01	902.19
449.384	884.57
449.758	896.77
450.132	924.11
450.506	902.42
450.88	949.42
451.254	930.89
451.628	926.37
452.002	951.68
452.376	953.72
452.75	924.34
453.123	946.03
453.497	928.63
453.871	973.38
454.244	984.68
454.618	977.9
454.992	1015.86
455.365	997.11
455.739	1025.13
456.112	1044.34
456.486	1008.86
456.859	1045.47
457.232	1049.76
457.606	1043.21
457.979	1040.95
458.352	1059.7
458.725	1094.51
459.099	1076.88
459.472	1114.62
459.845	1096.54
460.218	1112.36
460.591	1115.3
460.964	1103.54
461.337	1120.27
461.71	1138.35
462.083	1173.6
462.456	1165.01
462.829	1130.89
463.201	1175.18
463.574	1172.24
463.947	1186.71
464.32	1203.2
464.692	1196.88
465.065	1212.24
465.438	1218.57
465.81	1220.38
466.183	1245.69
466.555	1283.65
466.928	1233.71
467.3	1262.18
467.672	1287.04
468.045	1289.75
468.417	1316.42
468.789	1270.77
469.161	1311.9
469.534	1335.4
469.906	1340.15
470.278	1363.65
470.65	1359.13
471.022	1370.66
471.394	1386.93
471.766	1430.99
472.138	1421.73
472.51	1449.98
472.882	1474.16
473.253	1456.53
473.625	1456.76
473.997	1463.08
474.369	1499.24
474.74	1508.28
475.112	1522.52
475.484	1581.72
475.855	1579.46
476.227	1607.26
476.598	1643.87
476.97	1656.07
477.341	1658.33
477.713	1703.08
478.084	1685.68
478.455	1727.71
478.827	1721.83
479.198	1786.92
479.569	1766.13
479.94	1816.07
480.311	1805.22
480.682	1880.47
481.053	1903.52
481.424	1942.17
481.795	1942.62
482.166	1973.58
482.537	2007.48
482.908	2039.34
483.279	2023.29
483.65	2077.98
484.021	2108.26
484.391	2132.67
484.762	2163.86
485.133	2209.5
485.503	2251.31
485.874	2261.71
486.244	2289.5
486.615	2338.77
486.985	2355.04
487.356	2378.77
487.726	2407.69
488.097	2446.79
488.467	2471.64
488.837	2517.07
489.207	2569.27
489.578	2600.68
489.948	2669.6
490.318	2734.01
490.688	2675.93
491.058	2758.87
491.428	2745.76
491.798	2798.64
492.168	2874.35
492.538	2866.89
492.908	2903.95
493.278	2936.94
493.648	2979.65
494.017	3013.1
494.387	3034.57
494.757	3081.8
495.126	3132.42
495.496	3121.12
495.866	3169.03
496.235	3218.97
496.605	3263.04
496.974	3271.4
497.344	3316.59
497.713	3348.01
498.082	3362.92
498.452	3406.31
498.821	3464.16
499.19	3441.56
499.559	3477.04
499.928	3497.61
500.298	3556.36
500.667	3602.69
501.036	3611.28
501.405	3696.92
501.774	3662.12
502.143	3754.32
502.512	3738.73
502.88	3815.56
503.249	3787.54
503.618	3823.92
503.987	3847.2
504.356	3908.44
504.724	3922.68
505.093	3925.62
505.462	3983.69
505.83	3997.71
506.199	4034.99
506.567	4111.37
506.936	4074.09
507.304	4119.28
507.672	4153.41
508.041	4177.59
508.409	4215.1
508.777	4286.96
509.145	4296.23
509.514	4311.37
509.882	4336
510.25	4340.97
510.618	4452.16
510.986	4428.2
511.354	4526.28
511.722	4543.91
512.09	4575.77
512.458	4575.54
512.826	4603.11
513.193	4635.2
513.561	4603.11
513.929	4704.13
514.297	4713.17
514.664	4733.73
515.032	4792.26
515.4	4804.69
515.767	4838.81
516.135	4864.12
516.502	4872.71
516.869	5001.3
517.237	4993.61
517.604	5005.59
517.972	5060.95
518.339	5060.28
518.706	5097.56
519.073	5148.41
519.44	5186.83
519.808	5237
520.175	5217.79
520.542	5298.91
520.909	5294.85
521.276	5308.18
521.643	5383.43
522.009	5429.31
522.376	5452.36
522.743	5492.36
523.11	5563.31
523.477	5634.95
523.843	5669.75
524.21	5685.34
524.577	5724.44
524.943	5726.25
525.31	5757.43
525.676	5862.06
526.043	5835.85
526.409	5883.08
526.776	5957.65
527.142	5928.73
527.508	5993.13
527.874	6013.7
528.241	6119.91
528.607	6124.66
528.973	6167.59
529.339	6120.59
529.705	6174.37
530.071	6272.67
530.437	6237.65
530.803	6315.84
531.169	6317.42
531.535	6321.26
531.901	6406
532.267	6379.11
532.632	6465.44
532.998	6509.28
533.364	6505.89
533.73	6484.65
534.095	6554.25
534.461	6583.85
534.826	6643.29
535.192	6604.42
535.557	6721.93
535.923	6739.78
536.288	6747.46
536.653	6742.04
537.019	6713.34
537.384	6808.25
537.749	6818.87
538.114	6893.22
538.479	6867.23
538.845	6889.38
539.21	6908.36
539.575	6967.12
539.94	6990.4
540.305	7034.69
540.67	7071.98
541.034	7172.54
541.399	7048.25
541.764	7185.64
542.129	7155.36
542.494	7128.7
542.858	7168.24
543.223	7252.31
543.587	7289.6
543.952	7320.78
544.316	7364.17
544.681	7335.7
545.045	7392.64
545.41	7444.62
545.774	7471.96
546.138	7463.38
546.503	7573.43
546.867	7551.06
547.231	7651.62
547.595	7675.8
547.959	7690.04
548.324	7671.51
548.688	7708.79
549.052	7805.06
549.416	7802.35
549.779	7897.49
550.143	7816.81
550.507	7914.89
550.871	7955.34
551.235	8029.46
551.599	8102.91
551.962	8103.13
552.326	8146.52
552.689	8168.44
553.053	8221.32
553.417	8250.7
553.78	8331.38
554.143	8344.48
554.507	8370.02
554.87	8450.02
555.234	8537.02
555.597	8527.53
555.96	8553.74
556.323	8633.97
556.686	8705.83
557.05	8772.04
557.413	8782.89
557.776	8843
558.139	9009.1
558.502	9016.78
558.865	9098.59
559.228	9135.88
559.59	9164.12
559.953	9193.5
560.316	9308.3
560.679	9314.63
561.041	9443.21
561.404	9524.57
561.767	9620.38
562.129	9652.92
562.492	9813.6
562.854	9786.71
563.217	9923.88
563.579	9939.47
563.941	10104.44
564.304	10134.72
564.666	10301.95
565.028	10317.09
565.39	10437.54
565.753	10584.88
566.115	10562.28
566.477	10721.82
566.839	10818.09
567.201	10991.65
567.563	11062.38
567.925	11167.23
568.287	11244.75
568.648	11371.07
569.01	11458.53
569.372	11668.69
569.734	11664.62
570.095	11940.55
570.457	12051.51
570.819	12139.41
571.18	12225.51
571.542	12411.27
571.903	12590.93
572.265	12863.69
572.626	12907.3
572.987	13068.43
573.349	13268.42
573.71	13482.2
574.071	13628.86
574.432	13792.7
574.794	14015.97
575.155	14248.74
575.516	14305.46
575.877	14552.23
576.238	14848.49
576.599	15125.1
576.96	15290.74
577.32	15433.79
577.681	15725.98
578.042	16004.4
578.403	16282.58
578.763	16535.91
579.124	16822
579.485	17096.12
579.845	17449.56
580.206	17683.22
580.566	18012.03
580.927	18289.99
581.287	18641.61
581.648	18866.47
582.008	19340.13
582.368	19569.73
582.728	19895.14
583.089	20234.34
583.449	20531.28
583.809	20806.53
584.169	21267.76
584.529	21607.41
584.889	22169.88
585.249	22412.14
585.609	22708.4
585.969	23283.07
586.329	23643.29
586.688	24061.81
587.048	24442.82
587.408	24776.82
587.768	25219.07
588.127	25640.75
588.487	26000.52
588.846	26539.71
589.206	26835.3
589.565	27419.69
589.925	27951.65
590.284	28280.68
590.643	28757.73
591.003	29214.9
591.362	29730.14
591.721	30069.56
592.08	30581.19
592.44	31089.87
592.799	31646.02
593.158	32027.7
593.517	32413.68
593.876	33004.85
594.235	33351.96
594.593	33913.08
594.952	34459.28
595.311	34847.06
595.67	35197.56
596.029	35958.67
596.387	36359.57
596.746	36911.64
597.104	37197.74
597.463	37585.97
597.822	38158.16
598.18	38398.16
598.538	38791.14
598.897	39455.76
599.255	39603.55
599.613	40588.16
599.972	40662.96
600.33	41247.12
600.688	41439.88
601.046	42098.62
601.404	42555.79
601.762	42837.59
602.12	43322.77
602.478	43639.38
602.836	44078.91
603.194	44101.06
603.552	44664.66
603.91	44881.83
604.268	45492.43
604.625	45545.77
604.983	46249.48
605.341	46303.71
605.698	46853.53
606.056	47076.35
606.413	47264.14
606.771	47669.78
607.128	47973.5
607.485	48062.54
607.843	48208.07
608.2	48659.81
608.557	49011.89
608.914	49039.91
609.272	49487.36
609.629	49765.77
609.986	49925.76
610.343	49989.04
610.7	50402.14
611.057	50485.52
611.414	50619.53
611.771	50828.34
612.127	51116.69
612.484	51160.53
612.841	51366.86
613.198	51425.61
613.554	51618.37
613.911	51822.66
614.267	51954.86
614.624	51937.69
614.98	52213.84
615.337	52375.42
615.693	52385.59
616.05	52515.98
616.406	52836.87
616.762	52768.17
617.118	52876.87
617.475	52929.75
617.831	53092.01
618.187	53168.84
618.543	53289.06
618.899	53465.56
619.255	53509.62
619.611	53560.7
619.967	53698.32
620.323	53827.81
620.678	53676.63
621.034	53679.34
621.39	53768.15
621.746	53813.57
622.101	54176.27
622.457	53935.15
622.812	54056.73
623.168	54242.49
623.523	54172.66
623.879	54309.83
624.234	54136.95
624.589	54378.53
624.945	54414.69
625.3	54413.78
625.655	54411.97
626.01	54472.31
626.365	54496.72
626.72	54521.35
627.075	54487.23
627.43	54567.22
627.785	54520.67
628.14	54619.2
628.495	54655.13
628.85	54600.22
629.205	54575.81
629.559	54743.49
629.914	54589.14
630.269	54675.02
630.623	54655.81
630.978	54639.31
631.332	54794.34
631.687	54844.28
632.041	54666.88
632.396	54758.18
632.75	54706.88
633.104	54745.07
633.459	54602.93
633.813	54679.54
634.167	54716.6
634.521	54561.8
634.875	54736.26
635.229	54735.81
635.583	54566.09
635.937	54618.75
636.291	54581.46
636.645	54591.18
636.999	54512.99
637.352	54599.09
637.706	54432.31
638.06	54586.88
638.413	54533.33
638.767	54470.05
639.121	54475.47
639.474	54406.78
639.828	54407.23
640.181	54405.87
640.534	54440.67
640.888	54486.32
641.241	54269.6
641.594	54310.73
641.947	54461.46
642.301	54286.55
642.654	54360.9
643.007	54414.69
643.36	54300.34
643.713	54430.28
644.066	54382.6
644.419	54145.31
644.771	54015.83
645.124	53772.22
645.477	53622.84
645.83	53548.27
646.182	53529.74
646.535	53375.16
646.888	53579
647.24	53377.2
647.593	53568.83
647.945	53464.43
648.298	53308.5
648.65	53325.22
649.002	53292
649.355	53319.57
649.707	53308.95
650.059	53423.98
650.411	53757.75
650.763	53776.06
651.115	54071.19
651.467	53898.09
651.819	53987.35
652.171	54001.81
652.523	53914.13
652.875	53887.69
653.227	53823.74
653.578	54047.69
653.93	53967.69
654.282	53804.76
654.633	53742.39
654.985	53821.25
655.337	53833.46
655.688	53849.28
656.039	53927.69
656.391	53646.12
656.742	53739.9
657.094	53788.26
657.445	53904.19
657.796	53799.33
658.147	53840.69
658.498	53689.73
658.849	53797.53
659.2	53748.04
659.551	53649.06
659.902	53811.31
660.253	53767.47
660.604	53798.2
660.955	53635.72
661.306	53760.24
661.656	53614.48
662.007	53709.84
662.358	53673.01
662.708	53671.88
663.059	53701.48
663.409	53517.53
663.76	53727.25
664.11	53697.42
664.461	53685.89
664.811	53699.68
665.161	53712.56
665.511	53605.67
665.862	53619
666.212	53645.89
666.562	53750.07
666.912	53568.38
667.262	53470.76
667.612	53596.63
667.962	53653.35
668.312	53463.52
668.662	53576.74
669.011	53514.14
669.361	53548.72
669.711	53571.54
670.06	53470.76
670.41	53308.5
670.76	53363.41
671.109	53426.46
671.459	53435.73
671.808	53269.63
672.157	53413.13
672.507	53196.86
672.856	53194.38
673.205	53236.41
673.554	53326.8
673.904	53288.39
674.253	53292.45
674.602	53184.21
674.951	52749.64
675.3	52615.41
675.649	53079.8
675.998	53159.8
676.346	53110.54
676.695	53223.08
677.044	52995.51
677.393	52927.27
677.741	53162.51
678.09	52927.27
678.438	52972.92
678.787	53013.82
679.135	52954.84
679.484	52730.21
679.832	52851.34
680.181	52661.96
680.529	52831.9
680.877	52670.32
681.225	52614.96
681.573	52815.86
681.922	52558.69
682.27	52455.87
682.618	52550.1
682.966	52590.78
683.314	52579.03
683.661	52445.02
684.009	52352.82
684.357	52272.59
684.705	52296.32
685.053	52257.45
685.4	52180.39
685.748	51975.2
686.095	51923.23
686.443	51917.35
686.79	51789.44
687.138	51877.12
687.485	51893.62
687.832	51725.72
688.18	51748.31
688.527	51643.68
688.874	51588.77
689.221	51565.04
689.568	51370.47
689.915	51304.48
690.262	51302.22
690.609	51197.37
690.956	51140.65
691.303	51034.89
691.65	50914.66
691.997	50935.68
692.344	50749.47
692.69	50662.24
693.037	50779.75
693.383	50412.53
693.73	50557.61
694.077	50243.27
694.423	50441.23
694.769	50279.88
695.116	50134.57
695.462	50149.26
695.808	49996.5
696.155	50076.49
696.501	49769.16
696.847	49825.88
697.193	49526.68
697.539	49644.41
697.885	49443.06
698.231	49328.94
698.577	49244.2
698.923	49089.18
699.269	48912
699.614	48726.25
699.96	48807.15
700.306	48816.19
700.651	48646.02
700.997	48392.24
701.342	48331.23
701.688	48378.46
702.033	48305.47
702.379	48173.95
702.724	48037
703.069	48094.17
703.415	47568.99
703.76	47575.09
704.105	47702.77
704.45	47617.58
704.795	47426.39
705.14	47376.9
705.485	47213.74
705.83	47176.91
706.175	47106.85
706.52	46923.58
706.865	46770.14
707.209	46832.74
707.554	46601.78
707.899	46727.43
708.243	46430.71
708.588	46498.73
708.932	46118.63
709.277	45992.08
709.621	46152.98
709.966	45795.93
710.31	45973.33
710.654	45568.82
710.998	45811.52
711.342	45800.9
711.687	45516.16
712.031	45435.03
712.375	45198.43
712.719	45329.05
713.063	45355.94
713.407	45358.88
713.75	45068.04
714.094	45101.26
714.438	44931.77
714.782	44840.7
715.125	44779.01
715.469	44856.52
715.812	44655.85
716.156	44551.22
716.499	44479.81
716.843	44496.75
717.186	44336.08
717.53	44384.44
717.873	44333.59
718.216	44270.32
718.559	44093.6
718.902	43855.41
719.246	44018.57
719.589	43868.75
719.932	43659.49
720.275	43635.53
720.617	43788.75
720.96	43507.18
721.303	43493.84
721.646	43480.74
721.989	43330.91
722.331	43410
722.674	43326.39
723.016	43353.28
723.359	43225.15
723.701	43260.4
724.044	43061.31
724.386	42782.22
724.729	43045.72
725.071	42898.38
725.413	42844.14
725.755	42811.37
726.097	42626.97
726.439	42610.93
726.782	42494.32
727.124	42609.8
727.465	42494.55
727.807	42429.01
728.149	42342.46
728.491	42271.95
728.833	42358.05
729.175	42246.42
729.516	42268.34
729.858	42089.13
730.199	42067.44
730.541	42035.8
730.882	41939.31
731.224	42010.72
731.565	41846.65
731.906	41938.4
732.248	41884.62
732.589	41680.56
732.93	41749.48
733.271	41705.87
733.612	41676.94
733.953	41724.17
734.294	41621.35
734.635	41393.33
734.976	41553.55
735.317	41341.13
735.658	41427
735.999	41341.13
736.339	41276.73
736.68	41542.71
737.021	41213.45
737.361	41073.79
737.702	41108.59
738.042	41119.67
738.383	41010.29
738.723	41116.5
739.063	40927.13
739.404	41012.33
739.744	40846.45
740.084	40842.61
740.424	40814.36
740.764	40634.71
741.104	40945.43
741.444	40685.55
741.784	40436.07
742.124	40701.15
742.464	40572.34
742.804	40418.89
743.143	40295.28
743.483	40416.64
743.823	40184.55
744.162	40178.9
744.502	40349.07
744.841	40158.11
745.181	40104.55
745.52	40023.2
745.86	40028.17
746.199	39907.5
746.538	40011.22
746.877	40039.02
747.216	40008.74
747.556	39890.55
747.895	39884.22
748.234	39740.27
748.573	39665.24
748.911	39826.82
749.25	39654.85
749.589	39531.46
749.928	39635.86
750.267	39499.15
750.605	39439.03
750.944	39373.27
751.283	39266.61
751.621	39408.98
751.96	39022.55
752.298	39043.79
752.636	39071.36
752.975	38911.59
753.313	38730.13
753.651	38969.89
753.989	38749.56
754.327	38751.14
754.666	38531.94
755.004	38512.5
755.342	38621.65
755.679	38572.62
756.017	38360.87
756.355	38493.97
756.693	38133.31
757.031	38259.86
757.368	38011.05
757.706	37838.4
758.044	37876.81
758.381	37778.06
758.719	37782.35
759.056	37723.6
759.394	37634.79
759.731	37380.78
760.068	37366.32
760.405	37199.77
760.743	37147.57
761.08	37130.62
761.417	37005.88
761.754	36923.62
762.091	36851.53
762.428	36674.13
762.765	36612.22
763.102	36715.94
763.438	36433.24
763.775	36266.01
764.112	36327.7
764.449	36241.15
764.785	36147.59
765.122	35788.28
765.458	35788.73
765.795	35740.83
766.131	35740.15
766.467	35568.85
766.804	35358.24
767.14	35386.03
767.476	35149.2
767.812	35195.76
768.148	35032.82
768.485	34954.86
768.821	34701.98
769.157	34660.63
769.492	34596.9
769.828	34526.17
770.164	34227.42
770.5	34293.41
770.836	34198.95
771.171	34000.53
771.507	33870.37
771.842	33766.87
772.178	33709.92
772.513	33621.56
772.849	33490.72
773.184	33248.46
773.519	33343.6
773.855	33163.72
774.19	33039.43
774.525	32871.75
774.86	32889.38
775.195	32846.44
775.53	32653
775.865	32319.67
776.2	32197.42
776.535	31986.35
776.87	32063.86
777.205	31955.39
777.539	31866.13
777.874	31863.87
778.209	31512.01
778.543	31563.08
778.878	31432.92
779.212	31341.17
779.547	31136.88
779.881	31202.19
780.215	31079.03
780.55	31134.17
780.884	30827.73
781.218	30758.36
781.552	30765.59
781.886	30607.18
782.22	30370.8
782.554	30377.12
782.888	30193.63
783.222	29888.78
783.556	29766.52
783.889	29780.53
784.223	29568.11
784.557	29626.64
784.89	29590.7
785.224	29447.21
785.557	29282.46
785.891	29219.87
786.224	29049.48
786.558	29027.1
786.891	28791.18
787.224	28725.87
787.557	28620.34
787.891	28529.94
788.224	28615.14
788.557	28541.02
788.89	28340.34
789.223	28411.98
789.556	28112.55
789.888	28109.84
790.221	27948.71
790.554	27799.34
790.887	27727.25
791.219	27776.06
791.552	27586.92
791.884	27497.43
792.217	27412.23
792.549	27355.51
792.882	27142.18
793.214	26983.99
793.546	27048.4
793.879	26851.34
794.211	26774.73
794.543	26813.38
794.875	26769.54
795.207	26791.68
795.539	26693.15
795.871	26680.73
796.203	26433.95
796.535	26126.62
796.867	26184.69
797.198	26202.32
797.53	25983.57
797.862	25890.01
798.193	25991.48
798.525	25817.24
798.856	25829
799.188	25558.49
799.519	25496.8
799.85	25335
800.182	25457.03
800.513	25420.65
800.844	25052.75
801.175	25199.63
801.506	25155.12
801.837	24988.34
802.168	24905.18
802.499	24853.43
802.83	24707.67
803.161	24749.48
803.491	24643.26
803.822	24627.45
804.153	24537.05
804.483	24339.54
804.814	24240.56
805.145	24204.18
805.475	24267.68
805.805	24051.42
806.136	24084.86
806.466	23994.47
806.796	23997.18
807.126	23856.17
807.457	23854.13
807.787	23775.04
808.117	23610.07
808.447	23538.66
808.777	23606
809.107	23366.46
809.436	23368.27
809.766	23398.55
810.096	23287.59
810.426	23189.29
810.755	23162.85
811.085	23153.59
811.414	23113.59
811.744	22927.38
812.073	22956.76
812.403	22872.01
812.732	22783.65
813.061	22737.33
813.39	22610.1
813.719	22541.62
814.049	22675.63
814.378	22531.46
814.707	22475.64
815.036	22324.23
815.365	22318.35
815.693	22149.09
816.022	22123.78
816.351	22018.93
816.68	22042.88
817.008	22013.96
817.337	21827.52
817.665	21944.35
817.994	21914.75
818.322	21889.44
818.651	21702.32
818.979	21622.55
819.307	21669.78
819.636	21522.89
819.964	21563.35
820.292	21574.87
820.62	21511.14
820.948	21512.5
821.276	21456.91
821.604	21419.17
821.932	21431.82
822.259	21476.79
822.587	21397.7
822.915	21459.62
823.243	21500.75
823.57	21280.64
823.898	21419.17
824.225	21368.1
824.553	21308.21
824.88	21346.85
825.207	21305.05
825.535	21270.02
825.862	21373.29
826.189	21361.09
826.516	21328.32
826.843	21316.57
827.17	21397.02
827.497	21361.32
827.824	21384.82
828.151	21329.45
828.478	21312.96
828.805	21377.81
829.131	21224.6
829.458	21216.69
829.785	21137.82
830.111	21241.32
830.438	21298.95
830.764	21297.14
831.09	21313.18
831.417	21116.58
831.743	21270.47
832.069	21212.17
832.395	21110.7
832.722	21224.6
833.048	21093.53
833.374	21107.76
833.7	21144.83
834.026	21158.61
834.351	21007.65
834.677	21147.09
835.003	21183.69
835.329	21034.32
835.654	21107.76
835.98	21032.51
836.306	20868.22
836.631	20870.03
836.956	20966.75
837.282	20845.62
837.607	20736.25
837.932	20719.75
838.258	20781.45
838.583	20613.54
838.908	20626.42
839.233	20682.69
839.558	20663.03
839.883	20592.75
840.208	20496.93
840.533	20520.89
840.858	20444.96
841.182	20506.65
841.507	20402.02
841.832	20277.05
842.156	20254.23
842.481	20170.84
842.805	20201.57
843.13	20051.75
843.454	20127.23
843.778	20105.3
844.103	20080.22
844.427	19935.37
844.751	19936.27
845.075	19883.16
845.399	19834.58
845.723	19713.22
846.047	19682.49
846.371	19542.38
846.695	19576.28
847.019	19418.54
847.343	19335.16
847.666	19285.67
847.99	19270.98
848.313	19189.85
848.637	19055.39
848.96	19000.02
849.284	19093.13
849.607	18810.65
849.931	18805.45
850.254	18790.09
850.577	18659.69
850.9	18423.54
851.223	18494.5
851.546	18386.71
851.869	18245.01
852.192	18374.73
852.515	18157.33
852.838	18113.72
853.161	18169.54
853.483	18051.8
853.806	17995.98
854.129	17848.19
854.451	17839.38
854.774	17740.62
855.096	17664.92
855.419	17695.65
855.741	17668.53
856.063	17539.72
856.385	17461.76
856.708	17301.99
857.03	17294.76
857.352	17366.17
857.674	17251.59
857.996	17200.07
858.318	17096.57
858.64	17086.63
858.961	17035.1
859.283	17022.9
859.605	16949.46
859.926	16929.12
860.248	16862
860.57	16743.36
860.891	16784.04
861.212	16693.42
861.534	16716.47
861.855	16631.05
862.176	16699.52
862.498	16687.99
862.819	16544.49
863.14	16406.87
863.461	16464.04
863.782	16471.05
864.103	16433.99
864.424	16436.47
864.745	16450.94
865.065	16299.53
865.386	16268.34
865.707	16282.58
866.027	16175.01
866.348	16227.44
866.668	16177.05
866.989	16080.78
867.309	16001.91
867.63	16164.62
867.95	16010.05
868.27	16032.19
868.59	16034.23
868.91	15956.94
869.23	15835.81
869.55	15789.49
869.87	15903.61
870.19	15811.86
870.51	15910.84
870.83	15877.39
871.15	15831.52
871.469	15709.04
871.789	15766.21
872.109	15744.97
872.428	15610.96
872.748	15730.5
873.067	15660.9
873.386	15667.23
873.706	15609.38
874.025	15464.3
874.344	15497.52
874.663	15504.52
874.982	15414.58
875.301	15411.19
875.62	15417.74
875.939	15455.26
876.258	15382.04
876.577	15359.89
876.896	15394.47
877.214	15299.1
877.533	15240.12
877.852	15177.52
878.17	15321.48
878.489	15182.27
878.807	15142.27
879.125	15210.29
879.444	15246.68
879.762	15087.58
880.08	15120.58
880.398	15036.74
880.716	15040.58
881.034	14921.71
881.352	14956.29
881.67	14875.16
881.988	14936.18
882.306	14928.49
882.624	14746.35
882.941	14731.89
883.259	14661.61
883.577	14619.35
883.894	14613.7
884.212	14648.05
884.529	14658.67
884.846	14605.79
885.164	14555.85
885.481	14461.61
885.798	14521.27
886.115	14490.09
886.432	14386.36
886.75	14332.35
887.067	14356.53
887.383	14257.55
887.7	14263.2
888.017	14209.41
888.334	14198.12
888.651	14168.74
888.967	14140.72
889.284	14028.85
889.6	14119.02
889.917	13972.13
890.233	14035.18
890.55	13877.22
890.866	13915.41
891.182	13840.61
891.498	13780.95
891.815	13716.09
892.131	13751.12
892.447	13629.54
892.763	13632.71
893.079	13606.72
893.395	13542.99
893.71	13541.41
894.026	13474.29
894.342	13428.87
894.657	13341.64
894.973	13397.91
895.289	13286.73
895.604	13386.84
895.92	13245.37
896.235	13238.82
896.55	13133.74
896.865	13136.9
897.181	13086.28
897.496	13101.65
897.811	12971.71
898.126	12955.44
898.441	12886.06
898.756	12849.9
899.071	12804.71
899.386	12770.81
899.7	12690.58
900.015	12664.82
900.33	12530.59
900.644	12519.97
900.959	12543.02
901.273	12429.35
901.588	12441.78
901.902	12382.12
902.216	12273.42
902.531	12270.03
902.845	12248.56
903.159	12242.01
903.473	12123.14
903.787	12083.37
904.101	12041.56
904.415	12001.56
904.729	11933.99
905.042	11895.13
905.356	11829.82
905.67	11788.01
905.984	11770.83
906.297	11768.8
906.611	11680.44
906.924	11699.42
907.237	11585.53
907.551	11510.5
907.864	11440.45
908.177	11423.05
908.491	11392.31
908.804	11340.79
909.117	11283.84
909.43	11207.46
909.743	11208.14
910.056	11170.17
910.368	11142.38
910.681	11088.37
910.994	10961.82
911.307	10952.55
911.619	10969.5
911.932	10956.62
912.244	10826.9
912.557	10885.66
912.869	10769.05
913.181	10694.48
913.494	10695.38
913.806	10632.56
914.118	10599.79
914.43	10520.47
914.742	10541.71
915.054	10477.31
915.366	10438.89
915.678	10390.98
915.99	10325.67
916.302	10252.91
916.613	10222.4
916.925	10216.98
917.236	10175.62
917.548	10074.83
917.859	10085.68
918.171	10050.43
918.482	9988.96
918.794	9951.67
919.105	9945.12
919.416	9817.89
919.727	9828.06
920.038	9834.84
920.349	9737.22
920.66	9677.1
920.971	9676.88
921.282	9623.32
921.593	9571.34
921.903	9569.99
922.214	9507.84
922.525	9466.71
922.835	9420.61
923.146	9316.21
923.456	9309.66
923.767	9280.96
924.077	9265.82
924.387	9212.26
924.697	9166.61
925.008	9105.82
925.318	9072.83
925.628	9068.53
925.938	8941.76
926.248	8916.67
926.558	8899.95
926.867	8820.18
927.177	8814.53
927.487	8828.31
927.796	8709.67
928.106	8736.11
928.416	8729.33
928.725	8698.82
929.034	8592.16
929.344	8638.71
929.653	8508.55
929.962	8448.66
930.271	8391.04
930.581	8422
930.89	8414.99
931.199	8329.12
931.508	8281.43
931.817	8267.88
932.125	8254.99
932.434	8249.8
932.743	8170.25
933.051	8107.65
933.36	8071.72
933.669	7999.86
933.977	7982.23
934.286	7980.65
934.594	7965.28
934.902	7904.27
935.21	7871.05
935.519	7842.58
935.827	7823.37
936.135	7786.76
936.443	7668.57
936.751	7683.71
937.059	7650.94
937.367	7608.68
937.674	7613.2
937.982	7586.76
938.29	7558.74
938.597	7533.66
938.905	7470.61
939.213	7430.84
939.52	7361.23
939.827	7437.62
940.135	7296.15
940.442	7288.92
940.749	7253.89
941.056	7297.28
941.363	7227.23
941.67	7172.09
941.977	7148.58
942.284	7099.77
942.591	7059.32
942.898	7053.22
943.205	7062.94
943.511	7015.93
943.818	7018.87
944.125	6934.8
944.431	6895.71
944.738	6910.62
945.044	6898.19
945.35	6829.72
945.657	6751.08
945.963	6830.17
946.269	6740.01
946.575	6711.76
946.881	6701.36
947.187	6641.25
947.493	6585.89
947.799	6584.53
948.105	6545.21
948.41	6474.48
948.716	6510.18
949.022	6532.78
949.327	6462.95
949.633	6346.57
949.938	6336.4
950.244	6338.89
950.549	6313.58
950.854	6283.07
951.16	6258.44
951.465	6293.46
951.77	6205.56
952.075	6177.99
952.38	6145.45
952.685	6085.56
952.99	6013.25
953.294	6061.83
953.599	6015.28
953.904	5952.68
954.209	5996.52
954.513	5893.02
954.818	5936.41
955.122	5974.83
955.426	5917.88
955.731	5892.57
956.035	5846.47
956.339	5774.83
956.643	5762.86
956.948	5714.5
957.252	5758.11
957.556	5772.57
957.86	5677.66
958.163	5644.89
958.467	5607.38
958.771	5613.03
959.075	5600.6
959.378	5553.14
959.682	5544.11
959.985	5555.63
960.289	5469.53
960.592	5434.5
960.896	5444.22
961.199	5440.61
961.502	5400.15
961.805	5401.51
962.108	5332.81
962.411	5266.37
962.714	5277.67
963.017	5231.8
963.32	5248.29
963.623	5254.17
963.926	5214.4
964.228	5165.81
964.531	5094.85
964.833	5138.24
965.136	5149.54
965.438	5054.4
965.741	5066.6
966.043	5021.41
966.345	5024.35
966.648	4975.08
966.95	5007.85
967.252	4942.09
967.554	5005.81
967.856	4897.57
968.158	4918.36
968.46	4855.76
968.761	4829.1
969.063	4823.9
969.365	4799.04
969.666	4768.08
969.968	4704.58
970.269	4778.25
970.571	4703.9
970.872	4687.18
971.174	4685.37
971.475	4658.71
971.776	4654.41
972.077	4603.11
972.378	4594.98
972.679	4569.67
972.98	4569.67
973.281	4519.05
973.582	4522.89
973.883	4463.23
974.183	4437.47
974.484	4437.47
974.785	4401.54
975.085	4442.44
975.386	4389.79
975.686	4366.06
975.986	4393.85
976.287	4333.97
976.587	4280.64
976.887	4294.65
977.187	4266.63
977.487	4220.75
977.787	4227.98
978.087	4174.88
978.387	4170.58
978.687	4195.21
978.987	4183.01
979.286	4146.63
979.586	4094.88
979.885	4093.52
980.185	4063.47
980.484	4071.6
980.784	4074.31
981.083	4011.26
981.382	3991.15
981.682	3994.99
981.981	3958.16
982.28	3923.81
982.579	3918.84
982.878	3901.66
983.177	3879.29
983.475	3875.45
983.774	3854.43
984.073	3825.28
984.372	3788.67
984.67	3777.6
984.969	3788.45
985.267	3743.93
985.566	3754.1
985.864	3749.58
986.162	3745.96
986.461	3717.94
986.759	3702.57
987.057	3635.91
987.355	3642.69
987.653	3640.88
987.951	3577.83
988.249	3610.15
988.547	3608.79
988.844	3607.66
989.142	3564.04
989.44	3483.37
989.737	3524.72
990.035	3473.43
990.332	3470.49
990.63	3500.32
990.927	3438.17
991.224	3428.23
991.521	3406.31
991.819	3397.95
992.116	3405.63
992.413	3388
992.71	3314.56
993.006	3346.88
993.303	3311.17
993.6	3301
993.897	3306.42
994.193	3316.37
994.49	3237.73
994.787	3219.87
995.083	3270.95
995.379	3229.82
995.676	3174.68
995.972	3177.16
996.268	3184.85
996.565	3151.4
996.861	3139.2
997.157	3083.83
997.453	3087
997.749	3073.66
998.044	3068.01
998.34	3030.95
998.636	3039.99
998.932	3030.73
999.227	3002.25
999.523	2956.83
999.818	2944.63
1000.114	2941.46
1000.409	2931.74
1000.704	2921.35
1001	2907.11
1001.295	2863.5
1001.59	2915.47
1001.885	2868.47
1002.18	2823.95
1002.475	2814.23
1002.77	2778.08
1003.065	2758.19
1003.359	2742.6
1003.654	2778.53
1003.949	2703.5
1004.243	2698.76
1004.538	2692.88
1004.832	2662.6
1005.127	2685.42
1005.421	2636.16
1005.715	2659.66
1006.009	2594.35
1006.304	2626.22
1006.598	2607.69
1006.892	2615.82
1007.186	2505.54
1007.48	2559.55
1007.773	2514.35
1008.067	2501.25
1008.361	2469.84
1008.655	2484.75
1008.948	2482.72
1009.242	2443.85
1009.535	2459.89
1009.829	2417.86
1010.122	2409.5
1010.415	2428.48
1010.708	2392.78
1011.001	2363.62
1011.295	2350.07
1011.588	2349.16
1011.881	2325.66
1012.173	2293.12
1012.466	2331.08
1012.759	2309.16
1013.052	2258.54
1013.344	2247.02
1013.637	2234.59
1013.93	2235.27
1014.222	2206.79
1014.514	2199.11
1014.807	2225.32
1015.099	2183.29
1015.391	2184.87
1015.683	2160.24
1015.976	2146
1016.268	2110.52
1016.56	2144.65
1016.851	2105.1
1017.143	2097.87
1017.435	2094.25
1017.727	2053.12
1018.018	2035.95
1018.31	2023.97
1018.602	2033.92
1018.893	2021.26
1019.185	1979
1019.476	1975.39
1019.767	1966.57
1020.058	1933.13
1020.35	1945.1
1020.641	1921.38
1020.932	1920.25
1021.223	1884.77
1021.514	1874.37
1021.804	1861.94
1022.095	1818.78
1022.386	1870.08
1022.677	1863.3
1022.967	1817.65
1023.258	1826.24
1023.548	1766.35
1023.839	1821.72
1024.129	1755.96
1024.419	1741.49
1024.709	1700.14
1025	1738.56
1025.29	1708.73
1025.58	1673.47
1025.87	1654.49
1026.16	1696.3
1026.449	1671.21
1026.739	1676.86
1027.029	1651.55
1027.319	1629.18
1027.608	1646.36
1027.898	1619.46
1028.187	1600.03
1028.477	1598.67
1028.766	1600.71
1029.055	1549.86
1029.344	1566.81
1029.634	1496.53
1029.923	1550.54
1030.212	1536.75
1030.501	1493.59
1030.79	1483.87
1031.078	1496.53
1031.367	1493.59
1031.656	1451.56
1031.945	1454.95
1032.233	1443.2
1032.522	1430.77
1032.81	1440.94
1033.099	1405.46
1033.387	1426.93
1033.675	1398
1033.963	1410.43
1034.251	1378.57
1034.54	1370.66
1034.828	1343.54
1035.116	1357.1
1035.403	1360.03
1035.691	1349.87
1035.979	1325.91
1036.267	1275.29
1036.554	1313.26
1036.842	1289.3
1037.129	1273.48
1037.417	1240.26
1037.704	1266.03
1037.992	1258.12
1038.279	1229.42
1038.566	1237.33
1038.853	1237.33
1039.14	1237.33
