Data from orange_diffuse_book_FLMS001491_00013.txt Node
Date: Wed Feb 08 15:29:11 GMT 2017
User: dcchb
Spectrometer: FLMS00149
Trigger mode: 0
Integration Time (sec): 2.000000E-2
Scans to average: 10
Electric dark correction enabled: true
Nonlinearity correction enabled: false
Boxcar width: 0
XAxis mode: Wavelengths
Number of Pixels in Spectrum: 2048
>>>>>Begin Spectral Data<<<<<
341.393	-14.28
341.776	-14.28
342.16	-14.28
342.543	-58.35
342.927	-77.78
343.31	-70.1
343.693	-82.75
344.077	-61.51
344.46	-44.11
344.843	-57.67
345.226	-31
345.61	-35.52
345.993	-20.38
346.376	-11.34
346.759	-8.63
347.142	13.06
347.525	61.42
347.908	60.3
348.291	74.76
348.674	101.65
349.057	111.82
349.44	128.54
349.823	154.98
350.206	195.88
350.588	192.27
350.971	210.8
351.354	240.4
351.737	254.64
352.119	262.1
352.502	278.37
352.884	298.48
353.267	298.48
353.65	321.98
354.032	305.49
354.414	330.12
354.797	327.41
355.179	331.47
355.562	342.55
355.944	345.71
356.326	354.98
356.709	347.75
357.091	348.42
357.473	352.49
357.855	345.26
358.238	384.58
358.62	355.2
359.002	365.6
359.384	349.1
359.766	342.77
360.148	361.53
360.53	345.03
360.912	336.67
361.294	347.07
361.676	342.32
362.057	344.58
362.439	351.36
362.821	354.75
363.203	338.48
363.584	335.09
363.966	327.86
364.348	337.35
364.729	356.11
365.111	308.42
365.493	334.86
365.874	326.05
366.256	325.15
366.637	329.89
367.019	341.64
367.4	346.62
367.781	331.47
368.163	314.3
368.544	336.67
368.925	348.88
369.306	333.28
369.688	337.12
370.069	331.25
370.45	340.51
370.831	315.2
371.212	313.85
371.593	333.73
371.974	324.02
372.355	323.79
372.736	327.86
373.117	330.57
373.498	325.82
373.879	348.65
374.26	324.69
374.641	297.35
375.021	319.05
375.402	344.58
375.783	351.36
376.163	322.44
376.544	325.6
376.925	348.42
377.305	338.71
377.686	341.64
378.066	333.06
378.447	348.42
378.827	361.08
379.208	342.77
379.588	351.81
379.968	358.82
380.349	334.19
380.729	325.37
381.109	349.78
381.489	368.08
381.87	359.04
382.25	361.53
382.63	338.48
383.01	358.37
383.39	355.43
383.77	358.82
384.15	330.12
384.53	351.36
384.91	352.94
385.29	354.52
385.67	362.89
386.049	364.47
386.429	353.39
386.809	372.15
387.189	373.73
387.568	335.99
387.948	366.73
388.328	392.26
388.707	399.95
389.087	388.42
389.466	381.87
389.846	366.5
390.225	378.48
390.605	387.29
390.984	379.38
391.363	383
391.743	394.3
392.122	371.47
392.501	369.44
392.881	386.84
393.26	363.79
393.639	384.58
394.018	391.59
394.397	383
394.776	397.46
395.155	402.43
395.534	394.3
395.913	394.3
396.292	390
396.671	404.92
397.05	397.01
397.429	410.79
397.808	396.33
398.186	401.75
398.565	407.63
398.944	397.24
399.323	424.58
399.701	399.95
400.08	406.95
400.458	419.16
400.837	405.82
401.215	427.74
401.594	421.64
401.972	434.52
402.351	431.81
402.729	414.18
403.107	401.53
403.486	430.23
403.864	421.19
404.242	440.62
404.62	435.88
404.999	411.47
405.377	433.39
405.755	445.6
406.133	452.83
406.511	447.63
406.889	453.28
407.267	462.77
407.645	433.17
408.023	452.38
408.401	457.12
408.779	431.58
409.156	470.91
409.534	474.52
409.912	448.99
410.29	466.61
410.667	481.3
411.045	472.04
411.422	479.49
411.8	482.43
412.178	466.16
412.555	494.63
412.933	489.66
413.31	498.25
413.687	514.29
414.065	490.57
414.442	521.75
414.819	510.45
415.197	498.93
415.574	525.14
415.951	512.03
416.328	533.73
416.705	518.59
417.082	528.08
417.46	534.18
417.837	547.97
418.214	512.71
418.591	552.49
418.967	542.32
419.344	550
419.721	551.13
420.098	541.64
420.475	555.42
420.852	556.1
421.228	572.6
421.605	554.07
421.982	561.07
422.358	558.14
422.735	573.95
423.111	568.3
423.488	573.73
423.864	598.13
424.241	589.55
424.617	585.7
424.994	604.46
425.37	608.53
425.746	587.06
426.123	604.69
426.499	583.9
426.875	613.95
427.251	637
427.627	633.84
428.003	640.84
428.379	624.8
428.756	641.75
429.132	641.3
429.507	645.14
429.883	649.43
430.259	648.53
430.635	674.29
431.011	671.58
431.387	691.46
431.763	687.62
432.138	664.12
432.514	690.11
432.89	672.26
433.265	708.64
433.641	710
434.016	686.04
434.392	720.16
434.767	732.37
435.143	720.62
435.518	743.21
435.894	750.45
436.269	741.86
436.644	789.54
437.02	754.06
437.395	778.69
437.77	774.17
438.145	764.68
438.52	756.55
438.895	795.19
439.271	763.78
439.646	793.61
440.021	781.63
440.395	815.98
440.77	809.43
441.145	803.55
441.52	820.5
441.895	822.99
442.27	815.53
442.645	825.47
443.019	819.15
443.394	821.86
443.769	840.16
444.143	819.82
444.518	841.97
444.892	815.98
445.267	865.47
445.641	885.13
446.016	879.03
446.39	853.04
446.764	865.02
447.139	843.55
447.513	852.82
447.887	870.44
448.262	875.41
448.636	890.56
449.01	907.5
449.384	908.63
449.758	888.97
450.132	907.05
450.506	895.98
450.88	912.48
451.254	914.51
451.628	934.62
452.002	922.19
452.376	937.11
452.75	950.22
453.123	928.97
453.497	985.69
453.871	972.36
454.244	969.65
454.618	966.03
454.992	969.2
455.365	995.86
455.739	1017.11
456.112	1015.52
456.486	1004
456.859	1016.2
457.232	1035.41
457.606	1019.82
457.979	1041.06
458.352	1049.42
458.725	1077.44
459.099	1072.02
459.472	1095.3
459.845	1084
460.218	1112.92
460.591	1088.74
460.964	1117.89
461.337	1120.83
461.71	1160.83
462.083	1156.99
462.456	1164.22
462.829	1127.39
463.201	1149.31
463.574	1180.49
463.947	1178.23
464.32	1209.64
464.692	1198.12
465.065	1205.35
465.438	1211.68
465.81	1231.11
466.183	1229.3
466.555	1227.95
466.928	1266.59
467.3	1276.53
467.672	1270.21
468.045	1312.24
468.417	1317.66
468.789	1291.45
469.161	1330.09
469.534	1356.53
469.906	1369.64
470.278	1343.88
470.65	1361.73
471.022	1362.18
471.394	1395.18
471.766	1409.19
472.138	1413.93
472.51	1447.83
472.882	1446.7
473.253	1450.31
473.625	1530.09
473.997	1559.24
474.369	1531.67
474.74	1521.27
475.112	1538.67
475.484	1596.98
475.855	1585.68
476.227	1617.99
476.598	1642.85
476.97	1626.13
477.341	1684.66
477.713	1702.06
478.084	1702.06
478.455	1727.6
478.827	1741.61
479.198	1786.8
479.569	1794.03
479.94	1857.99
480.311	1856.41
480.682	1909.29
481.053	1953.35
481.424	1957.19
481.795	1967.36
482.166	2013.46
482.537	2002.16
482.908	2075.16
483.279	2075.16
483.65	2104.54
484.021	2143.4
484.391	2171.43
484.762	2215.72
485.133	2211.2
485.503	2244.64
485.874	2316.73
486.244	2299.11
486.615	2377.3
486.985	2430.4
487.356	2418.2
487.726	2470.4
488.097	2519.44
488.467	2497.97
488.837	2565.77
489.207	2610.06
489.578	2645.76
489.948	2667.68
490.318	2708.59
490.688	2755.37
491.058	2787.91
491.428	2810.51
491.798	2833.1
492.168	2890.28
492.538	2916.49
492.908	2967.56
493.278	2967.56
493.648	3018.18
494.017	3090.72
494.387	3090.27
494.757	3107.9
495.126	3155.81
495.496	3172.53
495.866	3238.74
496.235	3257.27
496.605	3270.61
496.974	3302.47
497.344	3336.59
497.713	3357.61
498.082	3387.21
498.452	3434.9
498.821	3468.57
499.19	3455.69
499.559	3478.06
499.928	3528.45
500.298	3575.23
500.667	3581.11
501.036	3620.88
501.405	3684.38
501.774	3645.51
502.143	3675.57
502.512	3763.7
502.88	3736.58
503.249	3808.22
503.618	3826.3
503.987	3864.04
504.356	3890.25
504.724	3874.21
505.093	3944.26
505.462	3923.7
505.83	3989.23
506.199	4033.07
506.567	4051.15
506.936	4096.8
507.304	4099.96
507.672	4143.35
508.041	4165.05
508.409	4227.87
508.777	4247.53
509.145	4272.61
509.514	4255.89
509.882	4281.2
510.25	4366.85
510.618	4362.1
510.986	4419.95
511.354	4410.46
511.722	4446.62
512.09	4517.35
512.458	4497.69
512.826	4545.83
513.193	4565.49
513.561	4582.44
513.929	4622.89
514.297	4664.02
514.664	4727.06
515.032	4719.38
515.4	4756.44
515.767	4765.93
516.135	4844.12
516.502	4806.61
516.869	4917.12
517.237	4931.35
517.604	4892.03
517.972	5034.63
518.339	5009.32
518.706	5073.72
519.073	5075.53
519.44	5132.25
519.808	5147.84
520.175	5145.36
520.542	5185.36
520.909	5201.4
521.276	5236.2
521.643	5270.1
522.009	5329.76
522.376	5335.41
522.743	5376.99
523.11	5453.15
523.477	5502.86
523.843	5481.85
524.21	5600.26
524.577	5642.75
524.943	5649.75
525.31	5676.19
525.676	5777.43
526.043	5740.37
526.409	5813.36
526.776	5877.77
527.142	5882.06
527.508	5896.3
527.874	5989.86
528.241	5992.79
528.607	6033.47
528.973	6029.86
529.339	5987.6
529.705	6103.98
530.071	6155.73
530.437	6175.39
530.803	6190.76
531.169	6258.78
531.535	6240.02
531.901	6256.06
532.267	6287.93
532.632	6347.14
532.998	6319.57
533.364	6400.24
533.73	6374.93
534.095	6451.09
534.461	6476.85
534.826	6491.09
535.192	6535.6
535.557	6588.03
535.923	6583.74
536.288	6637.52
536.653	6636.39
537.019	6640.91
537.384	6705.54
537.749	6764.07
538.114	6767.46
538.479	6767.46
538.845	6811.53
539.21	6811.08
539.575	6868.03
539.94	6871.42
540.305	6904.86
540.67	6905.99
541.034	6959.55
541.399	7044.07
541.764	7025.99
542.129	7111.64
542.494	7079.32
542.858	7068.7
543.223	7095.36
543.587	7172.65
543.952	7196.15
544.316	7259.2
544.681	7240.45
545.045	7321.12
545.41	7301.69
545.774	7360.44
546.138	7343.04
546.503	7420.78
546.867	7382.81
547.231	7485.18
547.595	7476.15
547.959	7567.89
548.324	7582.81
548.688	7600.21
549.052	7656.25
549.416	7672.52
549.779	7697.61
550.143	7754.56
550.507	7864.16
550.871	7869.81
551.235	7832.97
551.599	7992.29
551.962	7970.37
552.326	8025.74
552.689	8118.16
553.053	8098.05
553.417	8153.42
553.78	8249.01
554.143	8219.18
554.507	8289.23
554.87	8316.35
555.234	8472.28
555.597	8320.42
555.96	8440.19
556.323	8555.21
556.686	8524.71
557.05	8651.71
557.413	8724.93
557.776	8693.29
558.139	8822.1
558.502	8903.68
558.865	8875.2
559.228	8991.59
559.59	9028.65
559.953	9086.95
560.316	9226.61
560.679	9269.09
561.041	9366.72
561.404	9391.58
561.767	9494.17
562.129	9577.56
562.492	9651
562.854	9713.6
563.217	9790.43
563.579	9818
563.941	9921.5
564.304	10064.1
564.666	10151.56
565.028	10189.97
565.39	10304.09
565.753	10405.11
566.115	10484.65
566.477	10588.38
566.839	10714.93
567.201	10774.36
567.563	10885.77
567.925	11060.23
568.287	11063.62
568.648	11226.33
569.01	11380
569.372	11558.07
569.734	11595.13
570.095	11686.66
570.457	11939.08
570.819	12116.93
571.18	12134.78
571.542	12383.59
571.903	12514.43
572.265	12630.81
572.626	12808.66
572.987	12920.3
573.349	13055.89
573.71	13270.57
574.071	13486.61
574.432	13714.4
574.794	14033.26
575.155	14086.37
575.516	14227.38
575.877	14532.91
576.238	14680.7
576.599	14939.9
576.96	15171.31
577.32	15379.44
577.681	15540.34
578.042	15838.86
578.403	16084.96
578.763	16345.06
579.124	16656.02
579.485	16933.52
579.845	17255.78
580.206	17475.88
580.566	17800.85
580.927	18089.88
581.287	18344.11
581.648	18717.21
582.008	19077.87
582.368	19264.08
582.728	19732.09
583.089	19848.93
583.449	20237.17
583.809	20593.09
584.169	21057.48
584.529	21328.44
584.889	21888.42
585.249	22136.32
585.609	22429.42
585.969	22952.57
586.329	23268.5
586.688	23758.65
587.048	24066.67
587.408	24362.48
587.768	24865.74
588.127	25249.46
588.487	25592.96
588.846	26237.23
589.206	26456.21
589.565	26975.29
589.925	27529.63
590.284	27846.68
590.643	28337.97
591.003	28778.41
591.362	29294.1
591.721	29751.49
592.08	30130.24
592.44	30838.69
592.799	31236.65
593.158	31744.66
593.517	32074.14
593.876	32530.4
594.235	33056.72
594.593	33422.36
594.952	33980.08
595.311	34260.98
595.67	34817.8
596.029	35451.23
596.387	35857.32
596.746	36397.87
597.104	36647.13
597.463	37136.38
597.822	37855.01
598.18	38098.16
598.538	38344.26
598.897	39032.6
599.255	39224.46
599.613	40165.91
599.972	40313.93
600.33	40809.96
600.688	41023.51
601.046	41470.96
601.404	42220.09
601.762	42290.15
602.12	43013.97
602.478	43249.89
602.836	43580.51
603.194	43735.98
603.552	44438.34
603.91	44475.17
604.268	45165.78
604.625	45318.54
604.983	45784.06
605.341	45785.87
605.698	46458.4
606.056	46620.88
606.413	46804.38
606.771	47305.61
607.128	47610.46
607.485	47747.63
607.843	47959.83
608.2	48448.85
608.557	48737.43
608.914	48795.96
609.272	49134.94
609.629	49347.13
609.986	49696.28
610.343	49656.28
610.7	50062.37
611.057	50119.54
611.414	50312.98
611.771	50565.18
612.127	50841.33
612.484	50888.79
612.841	51149.35
613.198	51142.57
613.554	51257.37
613.911	51553.63
614.267	51723.57
614.624	51693.74
614.98	51903.9
615.337	52228.64
615.693	52166.04
616.05	52348.86
616.406	52519.25
616.762	52523.32
617.118	52621.85
617.475	52810.32
617.831	52819.36
618.187	53078.11
618.543	53080.82
618.899	53278.33
619.255	53249.63
619.611	53315.84
619.967	53469.74
620.323	53617.98
620.678	53527.82
621.034	53489.85
621.39	53550.41
621.746	53540.02
622.101	53966.67
622.457	53703.63
622.812	53802.38
623.168	53953.57
623.523	53961.48
623.879	54158.76
624.234	53933.91
624.589	54093.22
624.945	54182.94
625.3	54149.49
625.655	54228.59
626.01	54322.82
626.365	54283.5
626.72	54286.67
627.075	54362.14
627.43	54347
627.785	54410.05
628.14	54412.09
628.495	54513.33
628.85	54349.49
629.205	54416.83
629.559	54558.52
629.914	54477.62
630.269	54498.41
630.623	54412.31
630.978	54360.11
631.332	54551.52
631.687	54701.57
632.041	54529.82
632.396	54580.9
632.75	54446.21
633.104	54612.31
633.459	54369.38
633.813	54415.48
634.167	54427.23
634.521	54455.25
634.875	54463.61
635.229	54430.39
635.583	54364.63
635.937	54456.15
636.291	54432.88
636.645	54385.87
636.999	54319.21
637.352	54410.28
637.706	54281.24
638.06	54380.67
638.413	54274.91
638.767	54264.75
639.121	54373.44
639.474	54096.61
639.828	54203.05
640.181	54225.88
640.534	54245.76
640.888	54151.08
641.241	54051.42
641.594	54188.36
641.947	54246.44
642.301	54184.3
642.654	54198.98
643.007	54216.84
643.36	54203.05
643.713	54118.99
644.066	54139.33
644.419	53927.58
644.771	53822.72
645.124	53621.6
645.477	53525.56
645.83	53415.95
646.182	53273.36
646.535	53207.82
646.888	53278.56
647.24	53183.42
647.593	53381.38
647.945	53264.77
648.298	53164.66
648.65	53150.2
649.002	53014.16
649.355	53145.23
649.707	53137.09
650.059	53269.97
650.411	53591.54
650.763	53610.98
651.115	53900.24
651.467	53836.28
651.819	53878.99
652.171	53783.63
652.523	53721.71
652.875	53668.83
653.227	53623.18
653.578	53745.44
653.93	53784.98
654.282	53619.34
654.633	53618.43
654.985	53701.14
655.337	53679.45
655.688	53659.79
656.039	53777.75
656.391	53427.93
656.742	53559
657.094	53581.83
657.445	53664.08
657.796	53678.09
658.147	53586.12
658.498	53527.36
658.849	53687.81
659.2	53524.65
659.551	53585.44
659.902	53681.71
660.253	53553.13
660.604	53664.54
660.955	53480.59
661.306	53624.54
661.656	53565.1
662.007	53550.87
662.358	53468.38
662.708	53512.9
663.059	53525.78
663.409	53352
663.76	53539.57
664.11	53540.92
664.461	53564.65
664.811	53597.42
665.161	53469.06
665.511	53360.59
665.862	53460.02
666.212	53525.56
666.562	53510.64
666.912	53455.73
667.262	53423.41
667.612	53368.72
667.962	53438.55
668.312	53371.21
668.662	53467.93
669.011	53347.26
669.361	53391.1
669.711	53335.73
670.06	53334.37
670.41	53212.8
670.76	53204.21
671.109	53239.46
671.459	53324.21
671.808	53212.8
672.157	53254.83
672.507	53024.1
672.856	53027.26
673.205	53121.95
673.554	53211.21
673.904	53091.44
674.253	53191.33
674.602	53119.24
674.951	52629.08
675.3	52529.2
675.649	52985.23
675.998	52971.9
676.346	52942.97
676.695	53077.43
677.044	52726.25
677.393	52896.87
677.741	52908.62
678.09	52864.33
678.438	52705.92
678.787	52822.07
679.135	52770.77
679.484	52624.11
679.832	52794.5
680.181	52439.26
680.529	52660.95
680.877	52635.86
681.225	52596.54
681.573	52682.41
681.922	52569.2
682.27	52340.5
682.618	52347.51
682.966	52330.79
683.314	52412.82
683.661	52260.96
684.009	52265.48
684.357	52018.48
684.705	52059.38
685.053	51975.54
685.4	52095.99
685.748	51920.63
686.095	51829.33
686.443	51767.86
686.79	51688.99
687.138	51782.55
687.485	51693.06
687.832	51601.54
688.18	51575.78
688.527	51367.65
688.874	51477.02
689.221	51394.99
689.568	51229.57
689.915	51230.47
690.262	51164.71
690.609	51075.9
690.956	50970.82
691.303	50963.36
691.65	50818.73
691.997	50730.6
692.344	50494.45
692.69	50537.16
693.037	50653.32
693.383	50216.49
693.73	50396.6
694.077	50265.3
694.423	50143.5
694.769	50016.04
695.116	50001.58
695.462	49873.22
695.808	49813.56
696.155	49847.69
696.501	49481.37
696.847	49558.43
697.193	49290.19
697.539	49456.96
697.885	49059.23
698.231	49043.64
698.577	49091.77
698.923	48920.93
699.269	48870.54
699.614	48697.21
699.96	48570.21
700.306	48489.53
700.651	48379.7
700.997	48196.2
701.342	48195.3
701.688	48218.58
702.033	47884.12
702.379	47961.63
702.724	47916.66
703.069	47862.65
703.415	47502.44
703.76	47535.2
704.105	47497.01
704.45	47466.51
704.795	47221.09
705.14	47088.44
705.485	47132.05
705.83	46925.96
706.175	46961.43
706.52	46758.5
706.865	46625.17
707.209	46517.15
707.554	46392.41
707.899	46502.24
708.243	46269.25
708.588	46145.41
708.932	45833.78
709.277	45929.37
709.621	45915.81
709.966	45581.58
710.31	45759.21
710.654	45447.12
710.998	45423.4
711.342	45438.76
711.687	45331.65
712.031	45120.35
712.375	45025.21
712.719	45193.8
713.063	45075.38
713.407	45141.37
713.75	44878.78
714.094	44871.32
714.438	44648.95
714.782	44674.94
715.125	44642.85
715.469	44686.69
715.812	44578.45
716.156	44126.03
716.499	44301.17
716.843	44423.65
717.186	44197.21
717.53	44295.74
717.873	44227.27
718.216	44029.99
718.559	44011.46
718.902	43740.73
719.246	43907.73
719.589	43665.93
719.932	43498.93
720.275	43441.08
720.617	43462.09
720.96	43284.7
721.303	43431.13
721.646	43300.74
721.989	43157.92
722.331	43423
722.674	43248.76
723.016	43330.57
723.359	43063.91
723.701	43000.63
724.044	42720.64
724.386	42661.21
724.729	42916.12
725.071	42713.41
725.413	42698.27
725.755	42694.88
726.097	42571.49
726.439	42294.21
726.782	42348.45
727.124	42490.37
727.465	42321.1
727.807	42392.29
728.149	42247.89
728.491	42190.94
728.833	42091.51
729.175	42043.15
729.516	42096.25
729.858	41977.16
730.199	42060.32
730.541	41861
730.882	41762.7
731.224	41977.61
731.565	41655.59
731.906	41690.61
732.248	41781.01
732.589	41636.38
732.93	41493.56
733.271	41594.12
733.612	41624.17
733.953	41585.76
734.294	41438.64
734.635	41287.69
734.976	41514.57
735.317	41242.72
735.658	41133.11
735.999	41185.32
736.339	41175.15
736.68	41268.03
737.021	41023.29
737.361	40889.28
737.702	40969.73
738.042	40897.64
738.383	40824.87
738.723	40918.66
739.063	40784.65
739.404	40815.38
739.744	40807.47
740.084	40558.67
740.424	40662.39
740.764	40536.07
741.104	40776.29
741.444	40429.18
741.784	40384.88
742.124	40512.56
742.464	40333.59
742.804	40348.5
743.143	40388.5
743.483	40230.54
743.823	40162.29
744.162	40062.41
744.502	40167.72
744.841	40002.75
745.181	40013.82
745.52	40008.4
745.86	40002.3
746.199	39913.03
746.538	39947.38
746.877	39915.74
747.216	39998.91
747.556	39897.21
747.895	39663.77
748.234	39598.69
748.573	39644.34
748.911	39534.29
749.25	39437.79
749.589	39393.95
749.928	39525.02
750.267	39560.73
750.605	39351.01
750.944	39253.16
751.283	39086.84
751.621	39231.69
751.96	39011.36
752.298	39043.9
752.636	39001.19
752.975	38744.48
753.313	38699.51
753.651	38776.79
753.989	38597.36
754.327	38581.32
754.666	38457.7
755.004	38400.76
755.342	38629.68
755.679	38342.68
756.017	38132.06
756.355	38284.83
756.693	37990.82
757.031	38180.65
757.368	37912.86
757.706	37837.15
758.044	37764.84
758.381	37665.63
758.719	37665.63
759.056	37757.16
759.394	37453.44
759.731	37284.85
760.068	37301.58
760.405	37268.36
760.743	36977.97
761.08	37081.24
761.417	36935.71
761.754	36838.99
762.091	36768.71
762.428	36593.8
762.765	36455.5
763.102	36552.44
763.438	36386.12
763.775	36237.2
764.112	36269.06
764.449	36194.94
764.785	36056.41
765.122	35780.26
765.458	35721.05
765.795	35651
766.131	35620.04
766.467	35345.92
766.804	35305.92
767.14	35052.37
767.476	35153.38
767.812	34938.02
768.148	34990.68
768.485	34820.06
768.821	34587.97
769.157	34510.91
769.492	34370.35
769.828	34467.53
770.164	34075.22
770.5	34016.01
770.836	34082.9
771.171	33793.87
771.507	33821.44
771.842	33529.92
772.178	33581.45
772.513	33535.12
772.849	33418.06
773.184	33301.23
773.519	33187.56
773.855	33095.58
774.19	32909.15
774.525	32821.69
774.86	32795.48
775.195	32701.92
775.53	32549.84
775.865	32358.2
776.2	32204.53
776.535	31944.2
776.87	31980.13
777.205	31989.4
777.539	31824.21
777.874	31872.11
778.209	31455.85
778.543	31450.2
778.878	31257.21
779.212	31401.84
779.547	31067.62
779.881	31052.93
780.215	30929.09
780.55	31111.46
780.884	30733.61
781.218	30614.97
781.552	30601.86
781.886	30451.36
782.22	30260.4
782.554	30247.07
782.888	29917.14
783.222	29912.17
783.556	29725.5
783.889	29721.21
784.223	29538.39
784.557	29545.4
784.89	29480.99
785.224	29355.12
785.557	29337.27
785.891	29216.14
786.224	29005.07
786.558	28888.46
786.891	28614.12
787.224	28614.8
787.557	28612.99
787.891	28537.51
788.224	28496.16
788.557	28522.6
788.89	28309.5
789.223	28283.73
789.556	28079.45
789.888	28054.81
790.221	28020.46
790.554	27642.85
790.887	27695.5
791.219	27655.05
791.552	27477.65
791.884	27420.93
792.217	27369.41
792.549	27206.25
792.882	27094.61
793.214	26942.07
793.546	27029.08
793.879	26897.33
794.211	26739.59
794.543	26849.2
794.875	26632.7
795.207	26691.46
795.539	26477.23
795.871	26519.49
796.203	26236.33
796.535	26114.98
796.867	26159.5
797.198	26108.88
797.53	26033.4
797.862	25874.08
798.193	25813.97
798.525	25658.27
798.856	25667.76
799.188	25344.15
799.519	25386.86
799.85	25241.55
800.182	25346.18
800.513	25216.7
800.844	24973.31
801.175	25026.42
801.506	25105.74
801.837	24881.56
802.168	24854.22
802.499	24701
802.83	24677.73
803.161	24633.21
803.491	24507.79
803.822	24546.43
804.153	24414
804.483	24077.06
804.814	24192.09
805.145	24116.61
805.475	24034.81
805.805	24078.42
806.136	24031.64
806.466	24030.29
806.796	23945.77
807.126	23660.35
807.457	23639.79
807.787	23760.46
808.117	23488.83
808.447	23491.09
808.777	23533.12
809.107	23377.87
809.436	23442.05
809.766	23345.11
810.096	23152.34
810.426	23193.92
810.755	23143.53
811.085	23080.71
811.414	22995.96
811.744	22823.31
812.073	22903.31
812.403	22888.4
812.732	22694.73
813.061	22639.59
813.39	22585.58
813.719	22511.91
814.049	22555.07
814.378	22523.89
814.707	22413.83
815.036	22306.26
815.365	22324.12
815.693	22096.55
816.022	22153.05
816.351	21957.57
816.68	21833.73
817.008	21908.99
817.337	21819.5
817.665	21658.15
817.994	21830.8
818.322	21845.03
818.651	21631.48
818.979	21484.36
819.307	21621.31
819.636	21617.02
819.964	21474.42
820.292	21539.05
820.62	21462.44
820.948	21345.16
821.276	21396.46
821.604	21326.18
821.932	21450.69
822.259	21494.76
822.587	21346.29
822.915	21331.37
823.243	21400.07
823.57	21386.97
823.898	21356.01
824.225	21265.39
824.553	21168.89
824.88	21231.26
825.207	21255.9
825.535	21233.98
825.862	21292.96
826.189	21220.87
826.516	21372.05
826.843	21390.13
827.17	21334.54
827.497	21363.46
827.824	21285.73
828.151	21261.77
828.478	21314.43
828.805	21374.99
829.131	21236.24
829.458	21175.67
829.785	21104.71
830.111	21163.24
830.438	21294.09
830.764	21263.58
831.09	21346.51
831.417	21054.32
831.743	21323.01
832.069	21251.38
832.395	21106.3
832.722	21130.25
833.048	20990.82
833.374	21102.91
833.7	20946.98
834.026	21063.36
834.351	21126.86
834.677	21070.59
835.003	21083.25
835.329	20963.93
835.654	20953.76
835.98	20853.87
836.306	20993.53
836.631	20800.31
836.956	20896.58
837.282	20904.04
837.607	20749.69
837.932	20635.12
838.258	20677.61
838.583	20538.85
838.908	20568.68
839.233	20547.44
839.558	20541.34
839.883	20501.79
840.208	20469.25
840.533	20458.85
840.858	20466.99
841.182	20458.4
841.507	20513.77
841.832	20217.51
842.156	20297.73
842.481	20172.31
842.805	20173.21
843.13	20059.32
843.454	20157.85
843.778	20047.57
844.103	19987.91
844.427	19935.7
844.751	19967.79
845.075	19872.66
845.399	19838.53
845.723	19749.72
846.047	19734.58
846.371	19521.25
846.695	19490.29
847.019	19394.7
847.343	19309.73
847.666	19216.85
847.99	19160.58
848.313	19120.81
848.637	19106.12
848.96	18977.99
849.284	19024.32
849.607	18789.75
849.931	18750.65
850.254	18618.45
850.577	18485.35
850.9	18380.49
851.223	18464.1
851.546	18250.1
851.869	18246.48
852.192	18285.58
852.515	18073.61
852.838	18097.33
853.161	18004.23
853.483	17943.44
853.806	17827.29
854.129	17744.12
854.451	17757.68
854.774	17625.71
855.096	17515.43
855.419	17614.41
855.741	17471.14
856.063	17423.23
856.385	17400.86
856.708	17379.84
857.03	17358.15
857.352	17288.54
857.674	17208.77
857.996	17118.6
858.318	17025.72
858.64	17108.89
858.961	17001.32
859.283	17011.94
859.605	16830.02
859.926	16951.38
860.248	16838.61
860.57	16723.59
860.891	16801.1
861.212	16703.93
861.534	16672.51
861.855	16630.48
862.176	16632.29
862.498	16569.47
862.819	16476.36
863.14	16552.74
863.461	16498.73
863.782	16412.18
864.103	16464.16
864.424	16370.37
864.745	16443.59
865.065	16351.62
865.386	16261.45
865.707	16247.21
866.027	16187.33
866.348	16165.63
866.668	16199.31
866.989	16092.42
867.309	16036.82
867.63	16099.65
867.95	16081.12
868.27	16002.7
868.59	15989.14
868.91	15892.65
869.23	15903.04
869.55	15779.88
869.87	15885.64
870.19	15807
870.51	15812.2
870.83	15799.32
871.15	15730.17
871.469	15713.89
871.789	15689.71
872.109	15670.05
872.428	15617.63
872.748	15642.71
873.067	15649.49
873.386	15647.46
873.706	15570.62
874.025	15458.99
874.344	15522.26
874.663	15476.39
874.982	15401.13
875.301	15448.82
875.62	15319.55
875.939	15351.42
876.258	15380.12
876.577	15284.53
876.896	15365.2
877.214	15307.35
877.533	15229.61
877.852	15278.65
878.17	15177.41
878.489	15197.98
878.807	15243.17
879.125	15190.97
879.444	15114.59
879.762	15011.54
880.08	15041.6
880.398	14966.34
880.716	15007.7
881.034	15009.05
881.352	15008.38
881.67	14945.33
881.988	14898.55
882.306	14856.74
882.624	14861.04
882.941	14687.93
883.259	14623.75
883.577	14629.86
883.894	14609.52
884.212	14599.8
884.529	14608.16
884.846	14552.12
885.164	14531.78
885.481	14444.32
885.798	14583.75
886.115	14285.68
886.432	14332.91
886.75	14312.58
887.067	14324.33
887.383	14276.19
887.7	14278.68
888.017	14267.15
888.334	14212.92
888.651	14116.65
888.967	14117.33
889.284	14001.17
889.6	14026.93
889.917	13831.01
890.233	13939.25
890.55	13851.12
890.866	13885.47
891.182	13763.21
891.498	13750.1
891.815	13737.45
892.131	13581.75
892.447	13696.55
892.763	13661.07
893.079	13609.32
893.395	13503.11
893.71	13442.32
894.026	13504.46
894.342	13350.34
894.657	13344.24
894.973	13342.66
895.289	13313.96
895.604	13243.23
895.92	13187.63
896.235	13115.77
896.55	13199.38
896.865	13172.72
897.181	13021.54
897.496	13049.11
897.811	12929.56
898.126	12848.21
898.441	12889.34
898.756	12790.36
899.071	12779.51
899.386	12661.09
899.7	12557.82
900.015	12615.67
900.33	12451.16
900.644	12465.17
900.959	12504.04
901.273	12473.3
901.588	12383.36
901.902	12382.91
902.216	12344.27
902.531	12286.87
902.845	12190.82
903.159	12156.7
903.473	12033.54
903.787	12076.48
904.101	11900.44
904.415	12045.06
904.729	11925.07
905.042	11815.92
905.356	11871.96
905.67	11718.97
905.984	11817.95
906.297	11737.5
906.611	11631.97
906.924	11752.19
907.237	11598.07
907.551	11464.51
907.864	11452.31
908.177	11326.67
908.491	11421.58
908.804	11348.36
909.117	11234.24
909.43	11159.21
909.743	11197.4
910.056	11177.52
910.368	11131.64
910.681	11003.51
910.994	10975.94
911.307	10992.89
911.619	10928.48
911.932	10882.38
912.244	10834.93
912.557	10836.28
912.869	10792.67
913.181	10738.43
913.494	10664.31
913.806	10639.9
914.118	10557.19
914.43	10493.47
914.742	10516.97
915.054	10449.17
915.366	10375.73
915.678	10359.46
915.99	10351.1
916.302	10245.79
916.613	10140.71
916.925	10126.02
917.236	10123.53
917.548	10081.95
917.859	10075.17
918.171	9986.14
918.482	9983.88
918.794	10049.86
919.105	9873.82
919.416	9830.21
919.727	9880.15
920.038	9797.89
920.349	9693.49
920.66	9673.83
920.971	9721.28
921.282	9636.77
921.593	9600.61
921.903	9513.83
922.214	9461.63
922.525	9439.94
922.835	9404.46
923.146	9318.81
923.456	9292.37
923.767	9271.13
924.077	9228.42
924.387	9198.36
924.697	9130.34
925.008	9110.23
925.318	9022.55
925.628	9004.92
925.938	8965.37
926.248	8942.1
926.558	8888.09
926.867	8877.92
927.177	8774.64
927.487	8832.49
927.796	8744.36
928.106	8728.99
928.416	8654.19
928.725	8646.51
929.034	8563.12
929.344	8586.62
929.653	8534.87
929.962	8447.65
930.271	8451.49
930.581	8459.4
930.89	8368.1
931.199	8258.27
931.508	8281.55
931.817	8352.51
932.125	8251.04
932.434	8227.76
932.743	8110.7
933.051	8174.21
933.36	8117.94
933.669	7989.58
933.977	8003.14
934.286	7989.8
934.594	7893.76
934.902	7841.11
935.21	7823.25
935.519	7856.7
935.827	7783.26
936.135	7770.37
936.443	7771.96
936.751	7662.36
937.059	7577.16
937.367	7671.62
937.674	7611.96
937.982	7556.14
938.29	7564.28
938.597	7538.52
938.905	7501.68
939.213	7374.23
939.52	7406.32
939.827	7371.97
940.135	7342.14
940.442	7256.26
940.749	7316.6
941.056	7280.9
941.363	7180.33
941.67	7216.27
941.977	7134.01
942.284	7084.97
942.591	7052.88
942.898	7102.6
943.205	7038.64
943.511	7028.25
943.818	6955.03
944.125	6936.72
944.431	6964.52
944.738	6851.08
945.044	6814.02
945.35	6806.33
945.657	6750.74
945.963	6760.68
946.269	6729.95
946.575	6697.63
946.881	6618.54
947.187	6631.2
947.493	6605.66
947.799	6615.6
948.105	6561.14
948.41	6502.39
948.716	6527.7
949.022	6493.8
949.327	6427.59
949.633	6412.67
949.938	6321.37
950.244	6359.34
950.549	6320.47
950.854	6246.8
951.16	6221.26
951.465	6207.7
951.77	6178.1
952.075	6185.11
952.38	6136.29
952.685	6106.46
952.99	6019.23
953.294	6068.27
953.599	5995.51
953.904	6004.09
954.209	5967.03
954.513	6001.83
954.818	5916.19
955.122	5955.73
955.426	5915.96
955.731	5856.98
956.035	5815.62
956.339	5808.39
956.643	5749.18
956.948	5738.11
957.252	5746.7
957.556	5725.91
957.86	5680.03
958.163	5675.97
958.467	5588.06
958.771	5604.33
959.075	5613.37
959.378	5525.46
959.682	5514.84
959.985	5511
960.289	5471.23
960.592	5424.67
960.896	5432.13
961.199	5410.44
961.502	5354.62
961.805	5367.05
962.108	5375.18
962.411	5283.89
962.714	5277.56
963.017	5283.89
963.32	5234.4
963.623	5182.42
963.926	5209.99
964.228	5191.91
964.531	5127.73
964.833	5158.47
965.136	5059.26
965.438	5082.54
965.741	5034.18
966.043	5015.19
966.345	5005.93
966.648	4973.16
966.95	4950.34
967.252	4905.37
967.554	4904.46
967.856	4891.35
968.158	4854.52
968.46	4815.65
968.761	4821.07
969.063	4833.95
969.365	4772.26
969.666	4764.58
969.968	4774.75
970.269	4722.77
970.571	4697.91
970.872	4658.82
971.174	4672.38
971.475	4668.31
971.776	4653.17
972.077	4584.7
972.378	4571.59
972.679	4566.84
972.98	4541.08
973.281	4504.25
973.582	4524.36
973.883	4465.6
974.183	4463.12
974.484	4447.98
974.785	4399.16
975.085	4406.4
975.386	4396.45
975.686	4380.63
975.986	4304.93
976.287	4324.82
976.587	4240.3
976.887	4277.13
977.187	4288.88
977.487	4212.5
977.787	4243.24
978.087	4198.49
978.387	4147.42
978.687	4186.51
978.987	4179.28
979.286	4096.57
979.586	4088.66
979.885	4078.95
980.185	4035.11
980.484	4076.23
980.784	4021.55
981.083	4021.09
981.382	4007.54
981.682	3963.47
981.981	3942.45
982.28	3915.33
982.579	3889.8
982.878	3935.45
983.177	3887.54
983.475	3880.76
983.774	3812.51
984.073	3817.03
984.372	3784.72
984.67	3781.1
984.969	3793.3
985.267	3740.2
985.566	3731.61
985.864	3769.12
986.162	3758.28
986.461	3691.61
986.759	3675.34
987.057	3641.22
987.355	3638.28
987.653	3669.47
987.951	3599.86
988.249	3570.26
988.547	3539.3
988.844	3554.21
989.142	3542.92
989.44	3553.54
989.737	3483.93
990.035	3501.79
990.332	3502.69
990.63	3425.4
990.927	3460.43
991.224	3416.14
991.521	3433.77
991.819	3386.76
992.116	3397.61
992.413	3382.24
992.71	3369.81
993.006	3337.95
993.303	3367.78
993.6	3307.44
993.897	3277.61
994.193	3293.43
994.49	3262.47
994.787	3260.21
995.083	3200.78
995.379	3203.04
995.676	3171.63
995.972	3170.72
996.268	3149.03
996.565	3150.16
996.861	3150.38
997.157	3142.25
997.453	3066.32
997.749	3082.59
998.044	3075.81
998.34	3058.86
998.636	3041.69
998.932	2981.12
999.227	3017.96
999.523	2960.78
999.818	2971.63
1000.114	2980.67
1000.409	2959.2
1000.704	2932.54
1001	2877.4
1001.295	2881.01
1001.59	2839.66
1001.885	2888.24
1002.18	2840.56
1002.475	2832.65
1002.77	2788.36
1003.065	2774.35
1003.359	2769.15
1003.654	2766.89
1003.949	2737.74
1004.243	2700.9
1004.538	2719.89
1004.832	2662.71
1005.127	2647.8
1005.421	2671.75
1005.715	2652.32
1006.009	2620
1006.304	2596.95
1006.598	2581.36
1006.892	2577.29
1007.186	2561.92
1007.48	2584.97
1007.773	2513.34
1008.067	2529.38
1008.361	2488.93
1008.655	2486.45
1008.948	2495.03
1009.242	2457.29
1009.535	2429.95
1009.829	2442.61
1010.122	2417.75
1010.415	2417.52
1010.708	2384.98
1011.001	2343.4
1011.295	2360.57
1011.588	2356.28
1011.881	2309.73
1012.173	2325.77
1012.466	2286.23
1012.759	2282.16
1013.052	2290.97
1013.344	2300.69
1013.637	2255.04
1013.93	2229.96
1014.222	2227.47
1014.514	2186.57
1014.807	2180.92
1015.099	2168.26
1015.391	2155.38
1015.683	2152.67
1015.976	2153.12
1016.268	2147.25
1016.56	2138.43
1016.851	2057.98
1017.143	2068.83
1017.435	2072.45
1017.727	2043.75
1018.018	2037.64
1018.31	2040.81
1018.602	2002.16
1018.893	2011.2
1019.185	1997.19
1019.476	1990.41
1019.767	1997.19
1020.058	1941.6
1020.35	1923.52
1020.641	1933.47
1020.932	1888.95
1021.223	1889.4
1021.514	1890.08
1021.804	1830.87
1022.095	1855.05
1022.386	1847.82
1022.677	1844.88
1022.967	1822.96
1023.258	1809.4
1023.548	1811.21
1023.839	1798.78
1024.129	1721.27
1024.419	1749.52
1024.709	1765.79
1025	1721.49
1025.29	1717.65
1025.58	1716.75
1025.87	1684.89
1026.16	1686.24
1026.449	1668.16
1026.739	1681.72
1027.029	1665.45
1027.319	1627.71
1027.608	1622.74
1027.898	1617.09
1028.187	1600.59
1028.477	1613.47
1028.766	1590.65
1029.055	1574.61
1029.344	1568.73
1029.634	1545.23
1029.923	1513.82
1030.212	1563.98
1030.501	1520.37
1030.79	1534.15
1031.078	1522.18
1031.367	1477.66
1031.656	1485.34
1031.945	1462.74
1032.233	1437.21
1032.522	1427.94
1032.81	1415.29
1033.099	1430.43
1033.387	1409.19
1033.675	1407.6
1033.963	1397.66
1034.251	1398.79
1034.54	1362.63
1034.828	1361.96
1035.116	1350.66
1035.403	1319.47
1035.691	1328.28
1035.979	1313.6
1036.267	1299.13
1036.554	1305.91
1036.842	1315.18
1037.129	1256.87
1037.417	1276.53
1037.704	1270.21
1037.992	1270.43
1038.279	1259.81
1038.566	1243.54
1038.853	1243.54
1039.14	1243.54
