Data from orange_diffuse_book_FLMS001491_00001.txt Node
Date: Wed Feb 08 15:29:02 GMT 2017
User: dcchb
Spectrometer: FLMS00149
Trigger mode: 0
Integration Time (sec): 2.000000E-2
Scans to average: 10
Electric dark correction enabled: true
Nonlinearity correction enabled: false
Boxcar width: 0
XAxis mode: Wavelengths
Number of Pixels in Spectrum: 2048
>>>>>Begin Spectral Data<<<<<
341.393	-14.28
341.776	-14.28
342.16	-14.28
342.543	-45.92
342.927	-62.19
343.31	-61.96
343.693	-51.34
344.077	-72.13
344.46	-45.01
344.843	-49.76
345.226	-59.48
345.61	-54.5
345.993	-1.4
346.376	-19.25
346.759	6.29
347.142	35.66
347.525	45.61
347.908	50.8
348.291	81.31
348.674	91.03
349.057	104.14
349.44	132.16
349.823	147.07
350.206	177.58
350.588	210.12
350.971	222.55
351.354	226.62
351.737	233.4
352.119	252.83
352.502	288.09
352.884	270.23
353.267	303.68
353.65	299.84
354.032	300.74
354.414	311.59
354.797	336.45
355.179	336.22
355.562	345.03
355.944	344.81
356.326	347.07
356.709	355.43
357.091	345.26
357.473	358.14
357.855	353.39
358.238	349.1
358.62	340.29
359.002	362.43
359.384	345.49
359.766	341.19
360.148	343.9
360.53	345.94
360.912	360.85
361.294	351.59
361.676	320.85
362.057	329.21
362.439	357.46
362.821	324.02
363.203	360.4
363.584	341.64
363.966	328.76
364.348	329.89
364.729	348.2
365.111	331.02
365.493	324.69
365.874	315.88
366.256	335.77
366.637	349.78
367.019	335.32
367.4	313.85
367.781	331.47
368.163	326.5
368.544	336.9
368.925	336.9
369.306	336.67
369.688	326.95
370.069	308.2
370.45	320.18
370.831	320.63
371.212	331.02
371.593	330.57
371.974	312.49
372.355	316.79
372.736	339.84
373.117	324.47
373.498	335.54
373.879	353.85
374.26	322.21
374.641	336.22
375.021	317.69
375.402	360.4
375.783	350.23
376.163	316.79
376.544	336.67
376.925	351.81
377.305	338.25
377.686	345.71
378.066	329.67
378.447	347.97
378.827	347.97
379.208	353.17
379.588	327.63
379.968	340.97
380.349	344.13
380.729	348.42
381.109	344.81
381.489	339.84
381.87	365.15
382.25	367.63
382.63	350
383.01	341.19
383.39	360.85
383.77	357.46
384.15	358.14
384.53	353.62
384.91	381.87
385.29	394.07
385.67	384.13
386.049	374.86
386.429	354.07
386.809	375.54
387.189	338.25
387.568	391.59
387.948	369.89
388.328	378.7
388.707	367.18
389.087	379.38
389.466	357.91
389.846	373.73
390.225	392.94
390.605	372.38
390.984	397.24
391.363	385.71
391.743	383
392.122	369.21
392.501	403.56
392.881	383.9
393.26	394.3
393.639	399.04
394.018	391.36
394.397	399.95
394.776	386.39
395.155	393.39
395.534	383.45
395.913	407.86
396.292	418.48
396.671	406.73
397.05	398.82
397.429	403.79
397.808	415.09
398.186	409.89
398.565	405.6
398.944	407.86
399.323	431.36
399.701	422.32
400.08	424.81
400.458	397.46
400.837	450.12
401.215	430.91
401.594	405.37
401.972	407.86
402.351	418.03
402.729	431.58
403.107	416.9
403.486	437.01
403.864	438.82
404.242	444.69
404.62	430.68
404.999	439.72
405.377	434.97
405.755	445.6
406.133	456.44
406.511	446.95
406.889	437.23
407.267	470.68
407.645	471.36
408.023	476.1
408.401	463.67
408.779	476.56
409.156	481.3
409.534	461.87
409.912	489.44
410.29	479.49
410.667	475.88
411.045	494.18
411.422	515.88
411.8	479.27
412.178	497.35
412.555	511.13
412.933	506.84
413.31	507.74
413.687	496.22
414.065	503.67
414.442	534.86
414.819	544.58
415.197	534.63
415.574	563.56
415.951	529.44
416.328	530.34
416.705	535.99
417.082	556.33
417.46	558.59
417.837	552.94
418.214	563.56
418.591	538.93
418.967	560.62
419.344	587.51
419.721	566.72
420.098	561.3
420.475	578.7
420.852	592.03
421.228	564.24
421.605	578.25
421.982	588.19
422.358	588.19
422.735	624.35
423.111	603.56
423.488	593.39
423.864	606.5
424.241	614.63
424.617	598.81
424.994	617.57
425.37	632.26
425.746	649.43
426.123	638.58
426.499	613.05
426.875	637.23
427.251	631.13
427.627	647.85
428.003	645.82
428.379	653.5
428.756	690.11
429.132	686.72
429.507	710.45
429.883	691.69
430.259	715.87
430.635	695.31
431.011	691.24
431.387	717.9
431.763	718.58
432.138	718.13
432.514	733.95
432.89	730.11
433.265	721.75
433.641	753.16
434.016	760.84
434.392	745.25
434.767	760.62
435.143	775.76
435.518	774.63
435.894	768.98
436.269	807.85
436.644	800.84
437.02	816.21
437.395	800.39
437.77	826.38
438.145	818.02
438.52	822.99
438.895	824.34
439.271	855.3
439.646	866.38
440.021	818.92
440.395	830.22
440.77	852.82
441.145	861.86
441.52	842.2
441.895	858.24
442.27	886.49
442.645	854.85
443.019	895.75
443.394	884.68
443.769	927.62
444.143	893.95
444.518	927.62
444.892	895.98
445.267	895.75
445.641	888.97
446.016	912.48
446.39	942.53
446.764	930.78
447.139	928.75
447.513	928.29
447.887	943.44
448.262	947.96
448.636	964
449.01	955.64
449.384	966.03
449.758	964.9
450.132	954.73
450.506	983.43
450.88	971.46
451.254	979.14
451.628	980.5
452.002	980.5
452.376	997.22
452.75	1020.72
453.123	1008.07
453.497	1048.29
453.871	1042.64
454.244	1048.97
454.618	1047.16
454.992	1074.73
455.365	1072.7
455.739	1106.37
456.112	1099.36
456.486	1098.69
456.859	1119.25
457.232	1134.62
457.606	1133.71
457.979	1125.58
458.352	1135.07
458.725	1163.77
459.099	1156.54
459.472	1176.2
459.845	1192.24
460.218	1208.29
460.591	1186.14
460.964	1212.81
461.337	1219.13
461.71	1234.95
462.083	1262.75
462.456	1248.29
462.829	1251
463.201	1266.59
463.574	1279.47
463.947	1291
464.32	1273.14
464.692	1317.44
465.065	1322.41
465.438	1345.23
465.81	1339.13
466.183	1353.82
466.555	1332.13
466.928	1362.18
467.3	1375.74
467.672	1408.96
468.045	1416.64
468.417	1439.02
468.789	1436.53
469.161	1443.08
469.534	1450.09
469.906	1480.82
470.278	1495.96
470.65	1520.82
471.022	1536.19
471.394	1517.21
471.766	1562.18
472.138	1556.53
472.51	1584.55
472.882	1622.74
473.253	1628.39
473.625	1630.65
473.997	1653.93
474.369	1676.3
474.74	1695.05
475.112	1713.58
475.484	1735.05
475.855	1754.26
476.227	1778.89
476.598	1841.49
476.97	1817.54
477.341	1858.44
477.713	1890.08
478.084	1921.94
478.455	1923.75
478.827	1947.48
479.198	2006.68
479.569	2010.53
479.94	2058.66
480.311	2046.68
480.682	2133.01
481.053	2171.43
481.424	2200.35
481.795	2156.06
482.166	2219.33
482.537	2238.77
482.908	2291.42
483.279	2314.25
483.65	2369.39
484.021	2380.69
484.391	2418.43
484.762	2436.5
485.133	2497.75
485.503	2494.58
485.874	2543.62
486.244	2584.52
486.615	2648.02
486.985	2651.41
487.356	2726.21
487.726	2693.9
488.097	2782.94
488.467	2812.54
488.837	2867
489.207	2869.03
489.578	2960.56
489.948	2967.79
490.318	3005.3
490.688	3048.69
491.058	3075.58
491.428	3087.56
491.798	3138.18
492.168	3194.45
492.538	3229.25
492.908	3261.79
493.278	3333.43
493.648	3367.55
494.017	3379.08
494.387	3410.26
494.757	3481.45
495.126	3488.23
495.496	3506.76
495.866	3556.93
496.235	3586.08
496.605	3660.2
496.974	3661.1
497.344	3673.53
497.713	3739.07
498.082	3794.89
498.452	3819.97
498.821	3846.86
499.19	3829.01
499.559	3904.71
499.928	3922.79
500.298	3925.96
500.667	4014.32
501.036	4027.42
501.405	4045.95
501.774	4043.02
502.143	4137.25
502.512	4094.54
502.88	4183.12
503.249	4214.99
503.618	4261.54
503.987	4289.79
504.356	4313.06
504.724	4298.15
505.093	4327.98
505.462	4397.13
505.83	4440.52
506.199	4440.29
506.567	4475.55
506.936	4539.95
507.304	4577.01
507.672	4579.27
508.041	4617.46
508.409	4629.44
508.777	4701.75
509.145	4729.78
509.514	4683.68
509.882	4799.83
510.25	4772.94
510.618	4857.23
510.986	4861.07
511.354	4917.12
511.722	4959.38
512.09	4974.06
512.458	4993.95
512.826	5012.48
513.193	5108.98
513.561	5071.69
513.929	5171.12
514.297	5192.59
514.664	5184.45
515.032	5220.84
515.4	5309.65
515.767	5339.03
516.135	5361.17
516.502	5363.21
516.869	5490.66
517.237	5474.16
517.604	5489.76
517.972	5553.94
518.339	5560.49
518.706	5587.83
519.073	5609.3
519.44	5655.18
519.808	5712.58
520.175	5747.38
520.542	5824.21
520.909	5850.2
521.276	5834.83
521.643	5902.85
522.009	5957.09
522.376	6006.35
522.743	6020.14
523.11	6047.48
523.477	6090.42
523.843	6172.68
524.21	6201.83
524.577	6297.65
524.943	6285.44
525.31	6354.37
525.676	6357.08
526.043	6395.5
526.409	6484.98
526.776	6525.21
527.142	6556.17
527.508	6577.86
527.874	6677.07
528.241	6649.27
528.607	6713.23
528.973	6742.83
529.339	6830.51
529.705	6862.83
530.071	6877.06
530.437	6859.89
530.803	6908.25
531.169	6933.79
531.535	7030.96
531.901	7000.45
532.267	7053.78
532.632	7098.08
532.998	7121.13
533.364	7182.59
533.73	7131.52
534.095	7294.23
534.461	7257.39
534.826	7237.06
535.192	7352.53
535.557	7366.54
535.923	7408.35
536.288	7435.92
536.653	7440.67
537.019	7496.26
537.384	7487.9
537.749	7570.15
538.114	7580.1
538.479	7574.22
538.845	7625.07
539.21	7580.78
539.575	7653.09
539.94	7724.27
540.305	7765.63
540.67	7724.95
541.034	7813.76
541.399	7802.01
541.764	7881.11
542.129	7943.93
542.494	7991.16
542.858	7960.88
543.223	7962.91
543.587	8058.5
543.952	8065.51
544.316	8078.39
544.681	8152.29
545.045	8154.77
545.41	8224.6
545.774	8227.99
546.138	8200.87
546.503	8250.36
546.867	8337.82
547.231	8356.8
547.595	8464.37
547.959	8467.98
548.324	8501.2
548.688	8465.5
549.052	8513.86
549.416	8631.14
549.779	8617.13
550.143	8656.68
550.507	8699.39
550.871	8779.39
551.235	8747.98
551.599	8864.13
551.962	8879.72
552.326	8897.8
552.689	9041.53
553.053	8977.8
553.417	9041.53
553.78	9169.43
554.143	9099.61
554.507	9220.28
554.87	9210.34
555.234	9326.94
555.597	9232.71
555.96	9372.14
556.323	9445.13
556.686	9521.06
557.05	9601.51
557.413	9579.37
557.776	9658.46
558.139	9772.13
558.502	9817.33
558.865	9866.59
559.228	9970.99
559.59	9947.27
559.953	10021.16
560.316	10128.05
560.679	10215.28
561.041	10210.99
561.404	10326.69
561.767	10456.86
562.129	10436.29
562.492	10612.56
562.854	10652.78
563.217	10803.97
563.579	10786.11
563.941	10890.29
564.304	10972.78
564.666	11057.07
565.028	11139.55
565.39	11194.47
565.753	11344.97
566.115	11416.61
566.477	11558.52
566.839	11606.88
567.201	11770.72
567.563	11825.18
567.925	11966.87
568.287	12048
568.648	12158.96
569.01	12342.46
569.372	12489.57
569.734	12511.72
570.095	12648.66
570.457	12814.99
570.819	12954.19
571.18	13123.68
571.542	13268.08
571.903	13318.93
572.265	13546.72
572.626	13625.81
572.987	13824.68
573.349	13941.74
573.71	14164.33
574.071	14262.86
574.432	14492.23
574.794	14699.68
575.155	14804.99
575.516	14970.19
575.877	15207.69
576.238	15384.86
576.599	15660.11
576.96	15894.45
577.32	16042.25
577.681	16268.91
578.042	16530.6
578.403	16690.37
578.763	17001.32
579.124	17320.86
579.485	17639.72
579.845	17825.25
580.206	18028.64
580.566	18303.66
580.927	18646.92
581.287	18954.71
581.648	19004.66
582.008	19444.87
582.368	19750.62
582.728	19983.61
583.089	20318.52
583.449	20554.9
583.809	20918.96
584.169	21269.68
584.529	21634.64
584.889	21999.83
585.249	22233.95
585.609	22481.85
585.969	23093.59
586.329	23280.02
586.688	23768.37
587.048	24159.77
587.408	24486.55
587.768	24967.21
588.127	25302.57
588.487	25574.2
588.846	26143.23
589.206	26365.14
589.565	26791.8
589.925	27288.28
590.284	27577.31
590.643	28111.99
591.003	28547.68
591.362	29025.18
591.721	29396.7
592.08	29756.01
592.44	30327.52
592.799	30556.89
593.158	31071.23
593.517	31559.81
593.876	31937.87
594.235	32325.44
594.593	32880.45
594.952	33343.04
595.311	33580.09
595.67	34036.58
596.029	34651.25
596.387	35119.49
596.746	35692.35
597.104	35787.72
597.463	36346.8
597.822	36869.95
598.18	37151.75
598.538	37452.76
598.897	37976.81
599.255	38286.86
599.613	39160.06
599.972	39166.39
600.33	39696.99
600.688	39923.2
601.046	40490.42
601.404	41037.97
601.762	41098.54
602.12	41775.81
602.478	42082.69
602.836	42658.95
603.194	42586.63
603.552	42863.24
603.91	43213.28
604.268	43753.61
604.625	44062.98
604.983	44566.02
605.341	44617.54
605.698	44989.51
606.056	45380.23
606.413	45636.95
606.771	46012.08
607.128	46293.88
607.485	46316.03
607.843	46667.43
608.2	47048.89
608.557	47474.87
608.914	47595.54
609.272	48011.58
609.629	48026.72
609.986	48477.55
610.343	48459.7
610.7	48944.21
611.057	48954.83
611.414	49125.22
611.771	49335.16
612.127	49565.89
612.484	49565.66
612.841	49916.61
613.198	49999.09
613.554	50088.81
613.911	50411.29
614.267	50570.38
614.624	50565.41
614.98	50637.27
615.337	51093.76
615.693	51098.05
616.05	51139.86
616.406	51322.68
616.762	51360.42
617.118	51547.75
617.475	51555.89
617.831	51706.17
618.187	51808.31
618.543	51897.12
618.899	52072.03
619.255	52179.83
619.611	52257.79
619.967	52390.67
620.323	52443.32
620.678	52449.2
621.034	52343.44
621.39	52565.81
621.746	52476.32
622.101	52871.11
622.457	52689.65
622.812	52776.65
623.168	52945.68
623.523	52914.72
623.879	53116.98
624.234	52863.65
624.589	53087.83
624.945	53169.18
625.3	53193.36
625.655	53185.23
626.01	53246.47
626.365	53243.98
626.72	53206.69
627.075	53278.78
627.43	53296.86
627.785	53246.24
628.14	53332.57
628.495	53401.04
628.85	53407.82
629.205	53286.92
629.559	53471.77
629.914	53413.69
630.269	53436.52
630.623	53352.68
630.978	53361.49
631.332	53509.74
631.687	53525.56
632.041	53390.19
632.396	53577.53
632.75	53389.29
633.104	53488.72
633.459	53345.45
633.813	53381.38
634.167	53385.9
634.521	53403.3
634.875	53407.82
635.229	53372.79
635.583	53335.5
635.937	53259.8
636.291	53289.86
636.645	53250.99
636.999	53252.57
637.352	53401.94
637.706	53168.5
638.06	53305.45
638.413	53225.68
638.767	53069.3
639.121	53276.97
639.474	52972.12
639.828	53071.1
640.181	53148.62
640.534	53177.77
640.888	53010.77
641.241	52932.35
641.594	53025.91
641.947	53096.87
642.301	53039.24
642.654	53095.96
643.007	53089.41
643.36	53071.33
643.713	53005.12
644.066	53108.17
644.419	52901.84
644.771	52736.88
645.124	52507.73
645.477	52435.64
645.83	52223.44
646.182	52086.05
646.535	52064.58
646.888	52143.9
647.24	51971.25
647.593	52170.56
647.945	52037.69
648.298	51909.78
648.65	51924.47
649.002	51892.83
649.355	51968.08
649.707	51993.17
650.059	52061.41
650.411	52367.17
650.763	52478.58
651.115	52707.95
651.467	52710.66
651.819	52635.86
652.171	52554.73
652.523	52594.28
652.875	52507.5
653.227	52428.41
653.578	52669.53
653.93	52582.3
654.282	52424.12
654.633	52421.4
654.985	52462.53
655.337	52524.68
655.688	52424.57
656.039	52575.52
656.391	52405.36
656.742	52428.86
657.094	52401.97
657.445	52523.55
657.796	52434.96
658.147	52453.95
658.498	52419.6
658.849	52527.39
659.2	52420.95
659.551	52266.83
659.902	52518.58
660.253	52399.48
660.604	52469.31
660.955	52306.38
661.306	52379.15
661.656	52341.18
662.007	52324.46
662.358	52310.22
662.708	52288.98
663.059	52283.78
663.409	52098.25
663.76	52316.1
664.11	52401.97
664.461	52289.66
664.811	52422.31
665.161	52289.66
665.511	52172.15
665.862	52277.68
666.212	52263.67
666.562	52267.51
666.912	52296.21
667.262	52238.36
667.612	52235.42
667.962	52309.09
668.312	52185.48
668.662	52313.61
669.011	52246.04
669.361	52228.64
669.711	52172.37
670.06	52076.78
670.41	52096.21
670.76	51985.26
671.109	52134.86
671.459	52084.24
671.808	51967.4
672.157	51998.14
672.507	51791.36
672.856	51851.7
673.205	51873.62
673.554	51923.79
673.904	51776.68
674.253	52012.38
674.602	51919.72
674.951	51455.1
675.3	51203.81
675.649	51833.17
675.998	51731.7
676.346	51718.6
676.695	51702.55
677.044	51559.73
677.393	51690.8
677.741	51670.46
678.09	51550.92
678.438	51592.95
678.787	51591.37
679.135	51524.48
679.484	51375.33
679.832	51509.11
680.181	51284.26
680.529	51345.27
680.877	51257.37
681.225	51190.7
681.573	51508.89
681.922	51194.77
682.27	51149.57
682.618	51170.59
682.966	51131.49
683.314	51159.74
683.661	51073.64
684.009	50878.85
684.357	50781.67
684.705	50873.65
685.053	50657.61
685.4	50628.46
685.748	50503.04
686.095	50567.22
686.443	50417.84
686.79	50545.52
687.138	50592.53
687.485	50433.66
687.832	50319.09
688.18	50339.42
688.527	50084.29
688.874	50165.19
689.221	49997.51
689.568	49950.73
689.915	49819.44
690.262	49778.54
690.609	49763.85
690.956	49587.35
691.303	49610.4
691.65	49428.94
691.997	49435.95
692.344	49168.83
692.69	49132.23
693.037	49111.21
693.383	48807.04
693.73	49068.72
694.077	48789.41
694.423	48799.35
694.769	48623.54
695.116	48575.18
695.462	48488.4
695.808	48346.48
696.155	48421.51
696.501	48138.8
696.847	48023.55
697.193	47727.52
697.539	48054.51
697.885	47689.55
698.231	47634.41
698.577	47598.25
698.923	47436.68
699.269	47310.58
699.614	47173.63
699.96	47019.51
700.306	47176.12
700.651	46885.5
700.997	46645.96
701.342	46690.26
701.688	46638.51
702.033	46521.45
702.379	46437.83
702.724	46437.83
703.069	46361.45
703.415	45928.02
703.76	46006.66
704.105	46001.46
704.45	45858.19
704.795	45640.34
705.14	45450.06
705.485	45472.43
705.83	45248.26
706.175	45424.75
706.52	45216.4
706.865	44935.73
707.209	44959.23
707.554	44811.66
707.899	44929.85
708.243	44633.81
708.588	44642.4
708.932	44360.15
709.277	44311.56
709.621	44295.74
709.966	44016.43
710.31	44124.67
710.654	43837.68
710.998	44034.28
711.342	43987.28
711.687	43666.15
712.031	43626.83
712.375	43617.79
712.719	43564.69
713.063	43508.87
713.407	43505.71
713.75	43367.63
714.094	43227.75
714.438	43115.21
714.782	43131.7
715.125	42972.39
715.469	43148.43
715.812	42811.26
716.156	42693.07
716.499	42763.58
716.843	42776.91
717.186	42451.04
717.53	42647.88
717.873	42560.65
718.216	42537.6
718.559	42309.35
718.902	42120.66
719.246	42128.57
719.589	42067.55
719.932	41938.74
720.275	41909.36
720.617	41916.37
720.96	41859.87
721.303	41712.08
721.646	41831.4
721.989	41481.13
722.331	41736.04
722.674	41487.45
723.016	41712.76
723.359	41449.94
723.701	41401.13
724.044	41287.01
724.386	41146.67
724.729	41258.99
725.071	41140.34
725.413	41150.51
725.755	41099.44
726.097	40945.1
726.439	40747.36
726.782	40805.89
727.124	40955.04
727.465	40797.98
727.807	40717.31
728.149	40671.43
728.491	40562.96
728.833	40735.16
729.175	40674.82
729.516	40388.73
729.858	40499.91
730.199	40538.33
730.541	40312.57
730.882	40216.08
731.224	40382.85
731.565	40013.14
731.906	40162.74
732.248	40238.45
732.589	40016.53
732.93	39897.67
733.271	39905.12
733.612	39897.89
733.953	39941.28
734.294	39875.97
734.635	39676.43
734.976	39758.69
735.317	39558.92
735.658	39522.08
735.999	39609.54
736.339	39616.09
736.68	39619.71
737.021	39452.03
737.361	39337.23
737.702	39651.57
738.042	39239.6
738.383	39227.17
738.723	39354.18
739.063	39151.47
739.404	39200.51
739.744	39126.16
740.084	39064.24
740.424	39026.28
740.764	39084.13
741.104	39192.6
741.444	38854.53
741.784	38862.21
742.124	38993.06
742.464	38857.02
742.804	38781.31
743.143	38671.03
743.483	38652.27
743.823	38543.12
744.162	38510.81
744.502	38578.38
744.841	38316.46
745.181	38519.17
745.52	38260.42
745.86	38497.93
746.199	38308.33
746.538	38360.3
746.877	38410.02
747.216	38234.43
747.556	38117.6
747.895	38075.34
748.234	38015.91
748.573	37960.77
748.911	37882.58
749.25	37895.68
749.589	37820.88
749.928	37824.5
750.267	37770.04
750.605	37704.28
750.944	37614.56
751.283	37584.28
751.621	37587.22
751.96	37499.08
752.298	37427.22
752.636	37434
752.975	37261.35
753.313	37125.76
753.651	37311.97
753.989	37054.58
754.327	37142.94
754.666	36803.51
755.004	36972.77
755.342	36987.46
755.679	36832.89
756.017	36655.94
756.355	36711.76
756.693	36483.29
757.031	36578.43
757.368	36412.11
757.706	36261.83
758.044	36208.05
758.381	36278.33
758.719	36095.96
759.056	36141.15
759.394	36117.43
759.731	35698.45
760.068	35787.72
760.405	35520.61
760.743	35570.32
761.08	35572.13
761.417	35378.01
761.754	35300.95
762.091	35291.01
762.428	35102.99
762.765	34808.76
763.102	34996.78
763.438	34803.79
763.775	34651.02
764.112	34550.01
764.449	34708.65
764.785	34616.22
765.122	34309.34
765.458	34338.04
765.795	34338.26
766.131	34185.5
766.467	34045.39
766.804	33923.81
767.14	33693.08
767.476	33728.56
767.812	33519.98
768.148	33640.2
768.485	33395.46
768.821	33104.62
769.157	33173.1
769.492	33033.89
769.828	33039.99
770.164	32674.13
770.5	32561.14
770.836	32664.18
771.171	32463.51
771.507	32345.32
771.842	32182.61
772.178	32228.04
772.513	32155.04
772.849	32044.99
773.184	31788.27
773.519	31923.86
773.855	31718.9
774.19	31574.49
774.525	31421.05
774.86	31358.46
775.195	31221.74
775.53	31186.26
775.865	30961.18
776.2	30811.58
776.535	30625.14
776.87	30533.62
777.205	30538.59
777.539	30382.66
777.874	30437.35
778.209	30261.31
778.543	30194.64
778.878	29853.18
779.212	29926.4
779.547	29744.49
779.881	29791.94
780.215	29652.51
780.55	29719.63
780.884	29349.69
781.218	29408.45
781.552	29364.38
781.886	29214.1
782.22	29060.44
782.554	28878.29
782.888	28718.75
783.222	28651.18
783.556	28462.03
783.889	28562.37
784.223	28236.73
784.557	28228.14
784.89	28269.5
785.224	28049.16
785.557	27906.57
785.891	27926.23
786.224	27825.67
786.558	27764.88
786.891	27518.1
787.224	27377.32
787.557	27399.69
787.891	27324.66
788.224	27357.43
788.557	27262.74
788.89	27138.91
789.223	27086.93
789.556	26840.61
789.888	26688.97
790.221	26616.88
790.554	26524.01
790.887	26504.8
791.219	26477.68
791.552	26329.43
791.884	26221.64
792.217	26184.35
792.549	26042.44
792.882	25862.78
793.214	25696.46
793.546	25871.82
793.879	25630.02
794.211	25582.34
794.543	25580.08
794.875	25515.9
795.207	25482.45
795.539	25291.27
795.871	25224.38
796.203	25112.29
796.535	25012.63
796.867	25052.63
797.198	24919.08
797.53	24916.59
797.862	24699.87
798.193	24710.27
798.525	24646.77
798.856	24580.55
799.188	24349.6
799.519	24171.75
799.85	24211.07
800.182	24122.04
800.513	24188.25
800.844	23884.53
801.175	24004.52
801.506	24032.77
801.837	23886.34
802.168	23827.13
802.499	23736.96
802.83	23582.39
803.161	23604.99
803.491	23542.16
803.822	23611.54
804.153	23254.26
804.483	23159.12
804.814	23078.22
805.145	23110.31
805.475	23119.58
805.805	22992.12
806.136	22972.23
806.466	23030.09
806.796	22901.28
807.126	22728.4
807.457	22616.76
807.787	22671.45
808.117	22606.82
808.447	22497.67
808.777	22475.98
809.107	22419.93
809.436	22343.78
809.766	22365.02
810.096	22183.78
810.426	22198.24
810.755	22086.83
811.085	22083.9
811.414	22101.3
811.744	21869.21
812.073	21772.72
812.403	21783.79
812.732	21679.39
813.061	21680.29
813.39	21494.53
813.719	21455.44
814.049	21588.32
814.378	21457.47
814.707	21383.35
815.036	21403.24
815.365	21298.15
815.693	21094.54
816.022	21074.66
816.351	21094.09
816.68	21052.96
817.008	21043.02
817.337	20860.43
817.665	20839.41
817.994	20808.45
818.322	20753.08
818.651	20686.87
818.979	20608.23
819.307	20653.43
819.636	20643.93
819.964	20491.4
820.292	20541.79
820.62	20517.61
820.948	20466.76
821.276	20464.05
821.604	20377.95
821.932	20426.99
822.259	20464.96
822.587	20403.49
822.915	20405.07
823.243	20484.62
823.57	20359.65
823.898	20425.41
824.225	20326.43
824.553	20346.77
824.88	20407.56
825.207	20359.42
825.535	20343.38
825.862	20328.46
826.189	20202.59
826.516	20268.8
826.843	20405.97
827.17	20397.16
827.497	20420.89
827.824	20290.5
828.151	20398.07
828.478	20310.16
828.805	20422.25
829.131	20278.97
829.458	20271.74
829.785	20221.35
830.111	20169.37
830.438	20308.12
830.764	20358.07
831.09	20190.39
831.417	20231.52
831.743	20285.53
832.069	20227.67
832.395	20106.77
832.722	20252.53
833.048	20201.23
833.374	20183.16
833.7	20142.03
834.026	20115.13
834.351	20067.23
834.677	20109.26
835.003	20135.47
835.329	20051.63
835.654	20063.38
835.98	19951.07
836.306	20045.53
836.631	19868.14
836.956	19945.65
837.282	19899.1
837.607	19793.34
837.932	19764.41
838.258	19720.57
838.583	19746.33
838.908	19733.22
839.233	19684.86
839.558	19661.59
839.883	19551.76
840.208	19551.08
840.533	19474.47
840.858	19441.71
841.182	19407.81
841.507	19465.66
841.832	19290.75
842.156	19371.43
842.481	19254.59
842.805	19161.49
843.13	19147.7
843.454	19203.07
843.778	19134.6
844.103	19085.33
844.427	19025.22
844.751	19000.14
845.075	19022.51
845.399	18890.99
845.723	18820.48
846.047	18816.41
846.371	18688.51
846.695	18703.65
847.019	18451.45
847.343	18448.96
847.666	18345.01
847.99	18311.34
848.313	18308.4
848.637	18188.41
848.96	18281.28
849.284	18174.4
849.607	18106.83
849.931	17939.6
850.254	17838.36
850.577	17721.75
850.9	17605.37
851.223	17571.25
851.546	17601.3
851.869	17424.13
852.192	17466.39
852.515	17300.07
852.838	17250.13
853.161	17256.23
853.483	17078.15
853.806	17032.28
854.129	17031.37
854.451	16976.46
854.774	16839.29
855.096	16832.28
855.419	16728.78
855.741	16686.52
856.063	16615.57
856.385	16680.2
856.708	16635.9
857.03	16584.61
857.352	16510.71
857.674	16425.51
857.996	16401.33
858.318	16214.45
858.64	16325.4
858.961	16287.21
859.283	16221.23
859.605	16063.72
859.926	16072.53
860.248	16058.07
860.57	16036.82
860.891	15997.96
861.212	15946.21
861.534	15841.57
861.855	15908.92
862.176	15868.47
862.498	15794.12
862.819	15801.8
863.14	15694.91
863.461	15678.64
863.782	15669.38
864.103	15664.63
864.424	15573.56
864.745	15722.03
865.065	15551.19
865.386	15499.66
865.707	15467.12
866.027	15466.67
866.348	15397.74
866.668	15444.75
866.989	15367.46
867.309	15356.16
867.63	15377.18
867.95	15328.59
868.27	15208.6
868.59	15229.61
868.91	15249.95
869.23	15094.93
869.55	15097.64
869.87	15228.71
870.19	15204.3
870.51	15145.32
870.83	15174.47
871.15	15053.8
871.469	15070.75
871.789	15042.27
872.109	14990.98
872.428	14882.28
872.748	14943.52
873.067	14953.46
873.386	14959.11
873.706	14903.97
874.025	14877.31
874.344	14760.02
874.663	14806.35
874.982	14747.82
875.301	14842.51
875.62	14751.21
875.939	14677.31
876.258	14780.13
876.577	14657.88
876.896	14557.99
877.214	14518.67
877.533	14542.4
877.852	14482.97
878.17	14512.34
878.489	14571.55
878.807	14561.83
879.125	14498.79
879.444	14469.41
879.762	14372.01
880.08	14355.06
880.398	14262.41
880.716	14331.33
881.034	14269.86
881.352	14318.23
881.67	14217.66
881.988	14171.79
882.306	14195.74
882.624	14086.59
882.941	14029.19
883.259	14016.99
883.577	13992.36
883.894	14008.85
884.212	13860.38
884.529	13878.46
884.846	13814.06
885.164	13820.84
885.481	13859.93
885.798	13869.88
886.115	13792.36
886.432	13692.48
886.75	13724.12
887.067	13615.64
887.383	13602.09
887.7	13616.55
888.017	13603.22
888.334	13567.06
888.651	13519.6
888.967	13458.81
889.284	13383.33
889.6	13436.67
889.917	13365.48
890.233	13360.51
890.55	13249.78
890.866	13222.43
891.182	13216.79
891.498	13147.41
891.815	13147.86
892.131	13092.04
892.447	13064.25
892.763	12937.47
893.079	13048.88
893.395	12948.77
893.71	12996.23
894.026	12878.94
894.342	12873.07
894.657	12817.93
894.973	12746.74
895.289	12713.75
895.604	12652.73
895.92	12649.57
896.235	12543.81
896.55	12515.33
896.865	12485.05
897.181	12445.73
897.496	12511.72
897.811	12273.99
898.126	12355.56
898.441	12218.39
898.756	12197.83
899.071	12121.9
899.386	12232.18
899.7	12043.93
900.015	11986.99
900.33	12019.53
900.644	11946.08
900.959	12045.52
901.273	11806.2
901.588	11819.31
901.902	11749.71
902.216	11706.32
902.531	11688.24
902.845	11664.51
903.159	11566.89
903.473	11522.14
903.787	11469.71
904.101	11410.51
904.415	11432.65
904.729	11400.56
905.042	11348.36
905.356	11315.14
905.67	11222.71
905.984	11278.98
906.297	11269.27
906.611	11149.49
906.924	11141.36
907.237	11076.28
907.551	10962.38
907.864	10917.64
908.177	10975.26
908.491	10884.64
908.804	10860.24
909.117	10895.26
909.43	10686.46
909.743	10693.91
910.056	10729.62
910.368	10644.2
910.681	10624.09
910.994	10518.33
911.307	10383.19
911.619	10467.25
911.932	10409.63
912.244	10366.01
912.557	10361.27
912.869	10388.39
913.181	10237.88
913.494	10234.04
913.806	10138
914.118	10092.12
914.43	10067.72
914.742	10027.94
915.054	10015.06
915.366	9963.76
915.678	9918.57
915.99	9874.73
916.302	9792.69
916.613	9758.57
916.925	9762.41
917.236	9739.36
917.548	9638.57
917.859	9701.85
918.171	9619.59
918.482	9544.34
918.794	9519.26
919.105	9506.37
919.416	9457.79
919.727	9437.68
920.038	9382.31
920.349	9265.25
920.66	9335.98
920.971	9299.6
921.282	9220.73
921.593	9195.65
921.903	9087.63
922.214	9028.65
922.525	9081.98
922.835	9027.52
923.146	8893.74
923.456	8860.97
923.767	8877.92
924.077	8846.5
924.387	8796.56
924.697	8768.77
925.008	8729.9
925.318	8684.02
925.628	8641.31
925.938	8601.31
926.248	8458.49
926.558	8540.75
926.867	8448.1
927.177	8453.29
927.487	8432.05
927.796	8354.77
928.106	8306.63
928.416	8279.97
928.725	8329
929.034	8210.14
929.344	8246.52
929.653	8199.29
929.962	8107.32
930.271	8056.47
930.581	8048.79
930.89	7988
931.199	7968.11
931.508	7932.86
931.817	7945.74
932.125	7900.99
932.434	7899.18
932.743	7847.43
933.051	7743.26
933.36	7671.62
933.669	7690.83
933.977	7712.3
934.286	7704.16
934.594	7587.55
934.902	7549.59
935.21	7544.17
935.519	7555.24
935.827	7513.88
936.135	7428.69
936.443	7358.63
936.751	7358.86
937.059	7335.36
937.367	7312.08
937.674	7298.07
937.982	7348.01
938.29	7185.31
938.597	7266.66
938.905	7106.66
939.213	7069.15
939.52	7109.83
939.827	7151.18
940.135	7052.43
940.442	7001.36
940.749	6997.74
941.056	6971.75
941.363	6908.25
941.67	6879.1
941.977	6899.44
942.284	6807.91
942.591	6715.04
942.898	6752.32
943.205	6743.96
943.511	6673.45
943.818	6703.96
944.125	6647.69
944.431	6601.82
944.738	6575.83
945.044	6543.51
945.35	6524.53
945.657	6495.38
945.963	6493.12
946.269	6368.83
946.575	6376.74
946.881	6356.63
947.187	6360.24
947.493	6316.18
947.799	6328.38
948.105	6277.98
948.41	6203.18
948.716	6259
949.022	6169.06
949.327	6195.27
949.633	6084.32
949.938	6102.4
950.244	6057.88
950.549	6038.44
950.854	6006.81
951.16	6009.74
951.465	5965.9
951.77	5955.06
952.075	5912.34
952.38	5899.69
952.685	5893.59
952.99	5809.07
953.294	5819.47
953.599	5790.77
953.904	5783.53
954.209	5712.58
954.513	5686.59
954.818	5750.54
955.122	5699.47
955.426	5620.6
955.731	5623.99
956.035	5580.83
956.339	5569.08
956.643	5539.7
956.948	5463.99
957.252	5449.76
957.556	5423.54
957.86	5470.1
958.163	5462.86
958.467	5372.47
958.771	5411.79
959.075	5366.6
959.378	5319.82
959.682	5370.66
959.985	5274.85
960.289	5276.66
960.592	5205.7
960.896	5221.97
961.199	5195.75
961.502	5120.95
961.805	5151.69
962.108	5084.34
962.411	5101.97
962.714	5119.37
963.017	5052.71
963.32	5075.53
963.623	4993.72
963.926	5004.35
964.228	4952.37
964.531	4934.07
964.833	4922.09
965.136	4909.43
965.438	4886.83
965.741	4847.51
966.043	4801.64
966.345	4756.67
966.648	4809.55
966.95	4767.74
967.252	4700.17
967.554	4753.05
967.856	4670.34
968.158	4644.81
968.46	4634.86
968.761	4569.33
969.063	4579.05
969.365	4591.48
969.666	4585.83
969.968	4515.09
970.269	4512.61
970.571	4512.61
970.872	4500.63
971.174	4471.93
971.475	4430.8
971.776	4427.64
972.077	4449.11
972.378	4402.78
972.679	4388.99
972.98	4349
973.281	4381.99
973.582	4324.59
973.883	4320.07
974.183	4254.08
974.484	4266.06
974.785	4270.13
975.085	4263.8
975.386	4193.75
975.686	4226.74
975.986	4180.86
976.287	4167.53
976.587	4115.56
976.887	4110.13
977.187	4123.47
977.487	4109.45
977.787	4032.62
978.087	4020.87
978.387	4032.85
978.687	4045.05
978.987	3993.75
979.286	3950.14
979.586	3976.8
979.885	3915.56
980.185	3916.69
980.484	3895.67
980.784	3871.72
981.083	3853.42
981.382	3859.29
981.682	3857.03
981.981	3810.7
982.28	3792.63
982.579	3747.66
982.878	3781.33
983.177	3737.94
983.475	3755.34
983.774	3708.33
984.073	3651.84
984.372	3659.52
984.67	3655.68
984.969	3660.43
985.267	3615.23
985.566	3643.93
985.864	3533.2
986.162	3589.69
986.461	3569.81
986.759	3530.03
987.057	3470.6
987.355	3507.89
987.653	3508.79
987.951	3445.29
988.249	3473.76
988.547	3448
988.844	3427.21
989.142	3427.89
989.44	3365.97
989.737	3392.64
990.035	3363.26
990.332	3339.53
990.63	3326.42
990.927	3321.23
991.224	3310.61
991.521	3306.31
991.819	3262.02
992.116	3217.27
992.413	3218.86
992.71	3231.06
993.006	3215.92
993.303	3205.07
993.6	3193.55
993.897	3156.71
994.193	3154
994.49	3139.54
994.787	3096.37
995.083	3092.31
995.379	3079.88
995.676	3055.24
995.972	3061.57
996.268	3005.98
996.565	3016.15
996.861	2987.45
997.157	2989.26
997.453	3005.3
997.749	2958.3
998.044	2904.74
998.34	2950.61
998.636	2949.94
998.932	2892.99
999.227	2892.08
999.523	2879.66
999.818	2854.12
1000.114	2810.05
1000.409	2792.43
1000.704	2827.68
1001	2783.61
1001.295	2763.27
1001.59	2780.45
1001.885	2783.84
1002.18	2717.85
1002.475	2724.63
1002.77	2669.27
1003.065	2692.77
1003.359	2648.25
1003.654	2647.35
1003.949	2621.13
1004.243	2636.72
1004.538	2612.54
1004.832	2589.49
1005.127	2582.94
1005.421	2556.5
1005.715	2538.65
1006.009	2553.11
1006.304	2526.67
1006.598	2495.71
1006.892	2452.1
1007.186	2468.14
1007.48	2497.97
1007.773	2453.23
1008.067	2469.05
1008.361	2441.02
1008.655	2391.31
1008.948	2401.7
1009.242	2407.13
1009.535	2378.65
1009.829	2336.85
1010.122	2350.18
1010.415	2326.22
1010.708	2348.82
1011.001	2293.46
1011.295	2304.3
1011.588	2272.67
1011.881	2264.08
1012.173	2212.78
1012.466	2225.66
1012.759	2222.5
1013.052	2196.28
1013.344	2189.73
1013.637	2141.37
1013.93	2140.24
1014.222	2137.75
1014.514	2125.33
1014.807	2122.16
1015.099	2095.5
1015.391	2126.68
1015.683	2069.73
1015.976	2116.29
1016.268	2065.44
1016.56	2025.89
1016.851	2059.79
1017.143	2003.52
1017.435	1984.99
1017.727	1977.31
1018.018	1970.08
1018.31	1960.36
1018.602	1958.78
1018.893	1934.6
1019.185	1899.34
1019.476	1899.57
1019.767	1928.04
1020.058	1885.56
1020.35	1855.5
1020.641	1894.37
1020.932	1839.01
1021.223	1827.48
1021.514	1812.79
1021.804	1796.29
1022.095	1783.64
1022.386	1807.14
1022.677	1743.19
1022.967	1757.88
1023.258	1747.93
1023.548	1720.82
1023.839	1730.53
1024.129	1717.88
1024.419	1737.09
1024.709	1702.06
1025	1682.4
1025.29	1658.22
1025.58	1635.39
1025.87	1638.11
1026.16	1602.18
1026.449	1621.16
1026.739	1604.89
1027.029	1612.57
1027.319	1589.29
1027.608	1570.76
1027.898	1542.97
1028.187	1544.78
1028.477	1554.49
1028.766	1509.97
1029.055	1497.77
1029.344	1512.91
1029.634	1516.08
1029.923	1492.8
1030.212	1488.73
1030.501	1478.34
1030.79	1464.55
1031.078	1453.7
1031.367	1422.75
1031.656	1410.99
1031.945	1429.98
1032.233	1446.93
1032.522	1371.9
1032.81	1378.45
1033.099	1374.84
1033.387	1368.28
1033.675	1327.38
1033.963	1343.2
1034.251	1352.46
1034.54	1320.15
1034.828	1319.02
1035.116	1299.58
1035.403	1284.22
1035.691	1283.31
1035.979	1289.42
1036.267	1284.67
1036.554	1258.68
1036.842	1298.45
1037.129	1268.62
1037.417	1241.96
1037.704	1225.91
1037.992	1236.54
1038.279	1213.03
1038.566	1214.84
1038.853	1214.84
1039.14	1214.84
