Data from orange_diffuse_book_FLMS001491_00094.txt Node
Date: Wed Feb 08 15:30:18 GMT 2017
User: dcchb
Spectrometer: FLMS00149
Trigger mode: 0
Integration Time (sec): 2.000000E-2
Scans to average: 10
Electric dark correction enabled: true
Nonlinearity correction enabled: false
Boxcar width: 0
XAxis mode: Wavelengths
Number of Pixels in Spectrum: 2048
>>>>>Begin Spectral Data<<<<<
341.393	2.29
341.776	2.29
342.16	2.29
342.543	-51.5
342.927	-68.9
343.31	-67.31
343.693	-41.33
344.077	-46.98
344.46	-57.37
344.843	-49.24
345.226	-56.24
345.61	-39.29
345.993	-16.47
346.376	0.03
346.759	30.54
347.142	9.52
347.525	24.66
347.908	57.88
348.291	59.01
348.674	74.6
349.057	117.99
349.44	128.39
349.823	142.17
350.206	178.1
350.588	209.97
350.971	226.24
351.354	264.2
351.737	261.72
352.119	278.44
352.502	278.89
352.884	275.95
353.267	310.53
353.65	293.81
354.032	322.96
354.414	322.73
354.797	307.82
355.179	336.29
355.562	339
355.944	339.91
356.326	340.36
356.709	375.61
357.091	357.53
357.473	374.93
357.855	353.92
358.238	353.92
358.62	356.86
359.002	344.88
359.384	355.95
359.766	385.55
360.148	335.39
360.53	342.17
360.912	352.56
361.294	351.21
361.676	340.13
362.057	346.46
362.439	331.09
362.821	339.68
363.203	338.78
363.584	329.06
363.966	317.99
364.348	317.53
364.729	343.3
365.111	332.45
365.493	336.97
365.874	335.84
366.256	327.03
366.637	344.2
367.019	318.44
367.4	330.19
367.781	348.49
368.163	343.07
368.544	335.16
368.925	342.62
369.306	332
369.688	308.95
370.069	301.49
370.45	337.65
370.831	332.22
371.212	324.77
371.593	341.49
371.974	337.19
372.355	330.64
372.736	339.23
373.117	343.52
373.498	319.79
373.879	333.8
374.26	324.09
374.641	318.89
375.021	336.06
375.402	341.26
375.783	350.53
376.163	345.33
376.544	347.14
376.925	332
377.305	344.65
377.686	355.27
378.066	352.79
378.447	347.36
378.827	359.34
379.208	335.39
379.588	359.79
379.968	366.57
380.349	330.19
380.729	363.63
381.109	355.5
381.489	361.37
381.87	367.25
382.25	351.88
382.63	340.58
383.01	376.74
383.39	380.36
383.77	362.73
384.15	380.81
384.53	356.18
384.91	349.17
385.29	381.26
385.67	386.91
386.049	373.13
386.429	382.62
386.809	366.35
387.189	378.1
387.568	367.02
387.948	362.96
388.328	371.77
388.707	361.6
389.087	362.96
389.466	387.81
389.846	366.8
390.225	379
390.605	363.63
390.984	381.71
391.363	390.75
391.743	398.44
392.122	411.54
392.501	392.56
392.881	403.63
393.26	368.15
393.639	397.53
394.018	384.42
394.397	388.04
394.776	392.56
395.155	410.41
395.534	388.49
395.913	390.98
396.292	418.55
396.671	414.71
397.05	435.95
397.429	408.83
397.808	422.16
398.186	435.27
398.565	430.75
398.944	424.88
399.323	419.68
399.701	410.64
400.08	421.03
400.458	409.73
400.837	418.77
401.215	440.24
401.594	437.76
401.972	433.24
402.351	442.05
402.729	421.94
403.107	430.98
403.486	442.95
403.864	431.88
404.242	449.28
404.62	451.77
404.999	434.59
405.377	439.34
405.755	466.46
406.133	454.25
406.511	454.25
406.889	448.83
407.267	470.75
407.645	454.71
408.023	472.33
408.401	480.47
408.779	481.6
409.156	466.23
409.534	495.38
409.912	474.82
410.29	505.1
410.667	496.51
411.045	500.58
411.422	473.91
411.8	487.47
412.178	492.44
412.555	496.74
412.933	500.81
413.31	528.15
413.687	519.11
414.065	549.17
414.442	541.03
414.819	528.15
415.197	530.41
415.574	541.93
415.951	553.46
416.328	545.32
416.705	541.93
417.082	558.21
417.46	559.11
417.837	561.6
418.214	567.92
418.591	574.7
418.967	560.47
419.344	582.84
419.721	581.48
420.098	564.31
420.475	576.06
420.852	578.54
421.228	575.38
421.605	601.37
421.982	580.35
422.358	595.04
422.735	593.91
423.111	597.75
423.488	606.57
423.864	637.07
424.241	637.98
424.617	610.86
424.994	601.37
425.37	616.06
425.746	641.82
426.123	643.18
426.499	655.83
426.875	652.67
427.251	657.19
427.627	669.62
428.003	631.2
428.379	640.92
428.756	660.12
429.132	668.49
429.507	699.22
429.883	686.34
430.259	695.83
430.635	702.83
431.011	714.59
431.387	731.31
431.763	726.79
432.138	731.31
432.514	747.35
432.89	729.05
433.265	753.68
433.641	758.88
434.016	769.73
434.392	769.27
434.767	756.84
435.143	792.55
435.518	802.49
435.894	800.91
436.269	795.04
436.644	834.58
437.02	824.19
437.395	821.7
437.77	814.24
438.145	835.03
438.52	823.06
438.895	843.17
439.271	827.13
439.646	842.04
440.021	887.01
440.395	837.29
440.77	863.73
441.145	874.81
441.52	874.13
441.895	854.24
442.27	895.6
442.645	859.21
443.019	876.84
443.394	907.12
443.769	890.4
444.143	908.93
444.518	903.06
444.892	900.57
445.267	930.17
445.641	905.09
446.016	901.02
446.39	923.17
446.764	928.59
447.139	918.2
447.513	932.89
447.887	945.77
448.262	963.39
448.636	943.28
449.01	957.97
449.384	968.36
449.758	974.47
450.132	971.98
450.506	980.12
450.88	958.87
451.254	977.4
451.628	988.93
452.002	1004.97
452.376	1018.08
452.75	1002.71
453.123	1008.36
453.497	1061.47
453.871	1036.84
454.244	1042.94
454.618	1034.58
454.992	1045.65
455.365	1044.29
455.739	1080.68
456.112	1078.64
456.486	1082.26
456.859	1123.39
457.232	1099.43
457.606	1126.55
457.979	1083.62
458.352	1121.13
458.725	1139.66
459.099	1155.25
459.472	1152.77
459.845	1176.95
460.218	1177.17
460.591	1176.27
460.964	1207.23
461.337	1167.46
461.71	1234.57
462.083	1222.14
462.456	1219.43
462.829	1204.06
463.201	1210.39
463.574	1253.55
463.947	1256.27
464.32	1271.18
464.692	1294.23
465.065	1285.42
465.438	1306.89
465.81	1288.81
466.183	1348.92
466.555	1329.48
466.928	1324.51
467.3	1361.35
467.672	1358.41
468.045	1395.7
468.417	1373.1
468.789	1390.95
469.161	1428.01
469.534	1394.34
469.906	1451.97
470.278	1451.06
470.65	1447.9
471.022	1471.63
471.394	1506.66
471.766	1511.85
472.138	1501.01
472.51	1548.46
472.882	1541.91
473.253	1574.22
473.625	1579.42
473.997	1592.08
474.369	1597.27
474.74	1638.18
475.112	1668.46
475.484	1685.41
475.855	1729.02
476.227	1723.37
476.598	1738.51
476.97	1759.3
477.341	1802.92
477.713	1804.95
478.084	1820.32
478.455	1831.17
478.827	1864.39
479.198	1897.83
479.569	1912.07
479.94	1935.8
480.311	1978.06
480.682	1999.07
481.053	2037.49
481.424	2033.65
481.795	2032.52
482.166	2120.88
482.537	2131.27
482.908	2137.6
483.279	2204.04
483.65	2210.82
484.021	2220.76
484.391	2284.26
484.762	2311.83
485.133	2336.46
485.503	2380.76
485.874	2444.94
486.244	2458.49
486.615	2457.36
486.985	2492.62
487.356	2530.58
487.726	2561.09
488.097	2627.08
488.467	2637.25
488.837	2690.58
489.207	2713.4
489.578	2757.7
489.948	2826.39
490.318	2766.06
490.688	2843.57
491.058	2867.75
491.428	2927.63
491.798	2980.51
492.168	2990.01
492.538	3034.07
492.908	3083.79
493.278	3148.65
493.648	3116.78
494.017	3180.96
494.387	3202.43
494.757	3259.6
495.126	3246.95
495.496	3303.9
495.866	3335.08
496.235	3374.85
496.605	3435.19
496.974	3457.11
497.344	3503.44
497.713	3580.05
498.082	3563.32
498.452	3598.58
498.821	3616.88
499.19	3651.01
499.559	3647.39
499.928	3646.71
500.298	3744.11
500.667	3820.94
501.036	3735.98
501.405	3807.61
501.774	3828.4
502.143	3876.76
502.512	3898
502.88	3973.03
503.249	3931.45
503.618	4018
503.987	4048.96
504.356	4071.11
504.724	4110.2
505.093	4132.57
505.462	4135.51
505.83	4204.66
506.199	4213.48
506.567	4285.57
506.936	4267.94
507.304	4320.59
507.672	4336.41
508.041	4308.39
508.409	4412.34
508.777	4427.26
509.145	4512.9
509.514	4460.48
509.882	4547.71
510.25	4518.33
510.618	4592.68
510.986	4595.84
511.354	4671.32
511.722	4671.09
512.09	4729.17
512.458	4684.42
512.826	4792.44
513.193	4807.36
513.561	4817.98
513.929	4876.51
514.297	4910.41
514.664	4934.81
515.032	4945.66
515.4	5015.26
515.767	5056.17
516.135	5081.02
516.502	5085.77
516.869	5142.27
517.237	5170.06
517.604	5157.41
517.972	5221.13
518.339	5278.76
518.706	5278.53
519.073	5323.73
519.44	5327.8
519.808	5401.02
520.175	5417.51
520.542	5452.31
520.909	5501.8
521.276	5500.67
521.643	5542.48
522.009	5595.59
522.376	5615.02
522.743	5638.75
523.11	5721.23
523.477	5733.44
523.843	5800.55
524.21	5828.58
524.577	5898.4
524.943	5960.55
525.31	5984.73
525.676	5974.56
526.043	6059.53
526.409	6118.74
526.776	6116.7
527.142	6129.81
527.508	6131.39
527.874	6276.7
528.241	6239.41
528.607	6336.58
528.973	6363.93
529.339	6323.25
529.705	6401.67
530.071	6445.06
530.437	6448.9
530.803	6484.15
531.169	6537.94
531.535	6500.42
531.901	6575.9
532.267	6582
532.632	6663.13
532.998	6692.51
533.364	6771.38
533.73	6743.81
534.095	6758.95
534.461	6786.29
534.826	6834.65
535.192	6851.37
535.557	6968.66
535.923	6913.07
536.288	6937.7
536.653	7036.45
537.019	6936.12
537.384	7030.8
537.749	7114.64
538.114	7140.18
538.479	7117.36
538.845	7159.16
539.21	7155.09
539.575	7216.79
539.94	7238.93
540.305	7280.74
540.67	7300.85
541.034	7280.06
541.399	7328.42
541.764	7356.67
542.129	7392.6
542.494	7422.43
542.858	7488.87
543.223	7534.75
543.587	7499.04
543.952	7522.54
544.316	7570.68
544.681	7618.13
545.045	7619.49
545.41	7685.48
545.774	7671.92
546.138	7725.47
546.503	7759.37
546.867	7822.65
547.231	7928.18
547.595	7873.95
547.959	7965.02
548.324	7990.1
548.688	8024.45
549.052	8032.59
549.416	8099.25
549.779	8078.01
550.143	8146.48
550.507	8169.53
550.871	8163.43
551.235	8239.36
551.599	8332.01
551.962	8353.25
552.326	8349.19
552.689	8482.52
553.053	8479.81
553.417	8485
553.78	8624.66
554.143	8648.84
554.507	8664.21
554.87	8751.89
555.234	8801.6
555.597	8783.07
555.96	8863.3
556.323	8870.53
556.686	9013.8
557.05	9041.15
557.413	9133.8
557.776	9174.48
558.139	9267.36
558.502	9230.52
558.865	9285.89
559.228	9479.55
559.59	9487.24
559.953	9575.14
560.316	9644.29
560.679	9676.38
561.041	9800.22
561.404	9884.06
561.767	9919.77
562.129	10010.84
562.492	10102.36
562.854	10114.11
563.217	10216.03
563.579	10308.68
563.941	10421.9
564.304	10472.97
564.666	10574.67
565.028	10727.43
565.39	10679.52
565.753	10911.83
566.115	10898.72
566.477	11058.95
566.839	11214.65
567.201	11244.48
567.563	11394.3
567.925	11439.05
568.287	11581.64
568.648	11725.37
569.01	11896.89
569.372	11965.82
569.734	12122.2
570.095	12248.52
570.457	12361.06
570.819	12546.82
571.18	12675.18
571.542	12853.02
571.903	12996.52
572.265	13129.63
572.626	13267.93
572.987	13464.76
573.349	13642.38
573.71	13849.38
574.071	14030.62
574.432	14199.43
574.794	14567.1
575.155	14664.73
575.516	14735.69
575.877	15064.94
576.238	15167.31
576.599	15492.95
576.96	15765.72
577.32	15957.35
577.681	16208.19
578.042	16490.22
578.403	16763.88
578.763	17038.68
579.124	17279.35
579.485	17629.4
579.845	17906.22
580.206	18202.94
580.566	18452.2
580.927	18836.82
581.287	19173.31
581.648	19305.74
582.008	19771.94
582.368	20041.08
582.728	20382.54
583.089	20711.12
583.449	21135.29
583.809	21408.28
584.169	21926.91
584.529	22320.35
584.889	22782.25
585.249	22980.44
585.609	23371.17
585.969	23939.06
586.329	24131.82
586.688	24756.44
587.048	25073.95
587.408	25419.25
587.768	25979.01
588.127	26291.31
588.487	26681.81
588.846	27359.99
589.206	27566.99
589.565	28064.83
589.925	28641.31
590.284	28973.5
590.643	29555.86
591.003	29984.55
591.362	30464.54
591.721	30953.79
592.08	31467.9
592.44	31930.71
592.799	32334.77
593.158	32931.37
593.517	33383.78
593.876	33845.47
594.235	34266.7
594.593	34686.8
594.952	35295.6
595.311	35648.36
595.67	36187.78
596.029	36937.81
596.387	37290.8
596.746	37893.27
597.104	38080.38
597.463	38676.3
597.822	39210.52
598.18	39507.46
598.538	39952.2
598.897	40520.32
599.255	40809.12
599.613	41610.46
599.972	41853.62
600.33	42300.16
600.688	42556.65
601.046	43100.14
601.404	43715.26
601.762	43941.47
602.12	44565.64
602.478	44848.34
602.836	45194.77
603.194	45357.71
603.552	45874.75
603.91	46020.51
604.268	46547.73
604.625	46683.09
604.983	47265.9
605.341	47410.31
605.698	47847.36
606.056	48189.95
606.413	48300.91
606.771	48640.78
607.128	49040.32
607.485	48905.18
607.843	49334.1
608.2	49625.16
608.557	50076
608.914	50124.59
609.272	50493.84
609.629	50718.02
609.986	50974.51
610.343	50996.43
610.7	51407.26
611.057	51437.77
611.414	51624.21
611.771	51804.54
612.127	51938.78
612.484	52115.27
612.841	52250.41
613.198	52349.39
613.554	52494.69
613.911	52787.79
614.267	52876.83
614.624	52894.46
614.98	53028.69
615.337	53288.8
615.693	53395.91
616.05	53396.82
616.406	53702.57
616.762	53602.91
617.118	53686.07
617.475	53846.3
617.831	54004.48
618.187	54024.14
618.543	54179.17
618.899	54384.36
619.255	54387.07
619.611	54322.89
619.967	54542.32
620.323	54650.79
620.678	54587.97
621.034	54583
621.39	54631.36
621.746	54684.92
622.101	54918.58
622.457	54751.58
622.812	54886.95
623.168	54963.1
623.523	55050.33
623.879	55161.52
624.234	54991.58
624.589	55079.48
624.945	55131.01
625.3	55214.17
625.655	55220.27
626.01	55304.11
626.365	55249.2
626.72	55288.97
627.075	55215.53
627.43	55355.63
627.785	55361.74
628.14	55454.84
628.495	55481.51
628.85	55479.93
629.205	55417.55
629.559	55603.99
629.914	55482.86
630.269	55508.4
630.623	55521.05
630.978	55500.04
631.332	55523.77
631.687	55609.87
632.041	55512.92
632.396	55558.34
632.75	55472.02
633.104	55587.27
633.459	55395.63
633.813	55404
634.167	55442.64
634.521	55438.8
634.875	55511.56
635.229	55548.4
635.583	55345.69
635.937	55413.26
636.291	55337.78
636.645	55413.71
636.999	55330.1
637.352	55398.57
637.706	55244.23
638.06	55381.4
638.413	55293.49
638.767	55293.72
639.121	55380.04
639.474	55214.85
639.828	55252.36
640.181	55310.21
640.534	55303.21
640.888	55204.9
641.241	55061.41
641.594	55186.37
641.947	55275.19
642.301	55133.49
642.654	55226.37
643.007	55206.03
643.36	55244.45
643.713	55148.41
644.066	55246.26
644.419	55084.23
644.771	54868.87
645.124	54624.58
645.477	54528.54
645.83	54424.81
646.182	54409.9
646.535	54286.96
646.888	54355.44
647.24	54189.56
647.593	54440.18
647.945	54318.15
648.298	54138.27
648.65	54190.47
649.002	54143.69
649.355	54288.77
649.707	54179.85
650.059	54245.38
650.411	54647.18
650.763	54717.91
651.115	54957.68
651.467	54880.85
651.819	54890.11
652.171	54747.97
652.523	54735.76
652.875	54751.58
653.227	54718.59
653.578	54822.99
653.93	54800.17
654.282	54648.08
654.633	54692.38
654.985	54702.32
655.337	54726.05
655.688	54690.57
656.039	54773.73
656.391	54549.55
656.742	54651.02
657.094	54657.8
657.445	54816.67
657.796	54704.35
658.147	54689.89
658.498	54526.96
658.849	54781.64
659.2	54737.35
659.551	54627.07
659.902	54696.22
660.253	54633.39
660.604	54685.14
660.955	54519.05
661.306	54710.23
661.656	54525.15
662.007	54583.68
662.358	54608.54
662.708	54526.05
663.059	54585.71
663.409	54333.74
663.76	54624.81
664.11	54568.54
664.461	54622.77
664.811	54676.56
665.161	54618.48
665.511	54468.88
665.862	54522.21
666.212	54620.29
666.562	54658.25
666.912	54494.64
667.262	54470.01
667.612	54444.47
667.962	54459.84
668.312	54428.88
668.662	54628.42
669.011	54447.18
669.361	54392.95
669.711	54373.51
670.06	54340.97
670.41	54317.47
670.76	54281.54
671.109	54431.82
671.459	54260.75
671.808	54273.63
672.157	54283.8
672.507	54022.56
672.856	54188.89
673.205	54173.52
673.554	54147.76
673.904	54082
674.253	54291.26
674.602	54219.39
674.951	53724.27
675.3	53607.43
675.649	54039.06
675.998	53995.22
676.346	54041.32
676.695	54091.04
677.044	53869.35
677.393	53896.24
677.741	53947.31
678.09	53990.7
678.438	53838.16
678.787	53923.36
679.135	53923.58
679.484	53749.58
679.832	53798.39
680.181	53632.29
680.529	53727.43
680.877	53609.24
681.225	53660.76
681.573	53834.09
681.922	53477.49
682.27	53531.73
682.618	53518.17
682.966	53464.61
683.314	53480.43
683.661	53388.45
684.009	53248.57
684.357	53238.63
684.705	53116.82
685.053	53147.33
685.4	53204.28
685.748	52961.8
686.095	52998.41
686.443	52930.39
686.79	52831.63
687.138	52959.31
687.485	52873.21
687.832	52783.27
688.18	52746.44
688.527	52631.41
688.874	52527.23
689.221	52573.79
689.568	52426.67
689.915	52275.72
690.262	52313.45
690.609	52185.77
690.956	52202.05
691.303	52133.57
691.65	51986.68
691.997	51900.81
692.344	51771.55
692.69	51757.99
693.037	51790.98
693.383	51518.45
693.73	51631.21
694.077	51427.15
694.423	51442.07
694.769	51351.9
695.116	51228.06
695.462	51170.89
695.808	50972.93
696.155	51099.02
696.501	50832.59
696.847	50823.78
697.193	50521.86
697.539	50693.38
697.885	50454.52
698.231	50313.96
698.577	50235.77
698.923	50328.42
699.269	50052.05
699.614	49920.98
699.96	49802.33
700.306	49852.95
700.651	49723.24
700.997	49544.71
701.342	49436.47
701.688	49478.28
702.033	49338.62
702.379	49346.75
702.724	49217.72
703.069	49331.84
703.415	48822.25
703.76	48835.35
704.105	48860.21
704.45	48827.44
704.795	48660.67
705.14	48336.61
705.485	48389.04
705.83	48373.22
706.175	48255.48
706.52	48129.61
706.865	47973
707.209	47840.58
707.554	47720.13
707.899	47971.2
708.243	47701.82
708.588	47633.35
708.932	47350.65
709.277	47255.51
709.621	47292.12
709.966	47074.04
710.31	47082.18
710.654	46824.79
710.998	46981.39
711.342	46957.21
711.687	46818.68
712.031	46624.34
712.375	46366.72
712.719	46591.8
713.063	46586.15
713.407	46599.25
713.75	46477.9
714.094	46336.66
714.438	46072.94
714.782	46150.91
715.125	45830.46
715.469	46091.25
715.812	45913.17
716.156	45693.97
716.499	45688.54
716.843	45850.12
717.186	45550.24
717.53	45685.83
717.873	45574.42
718.216	45442.68
718.559	45390.7
718.902	45060.54
719.246	45067.77
719.589	45037.26
719.932	44937.15
720.275	44974.44
720.617	44893.31
720.96	44714.33
721.303	44773.77
721.646	44754.78
721.989	44410.61
722.331	44720.66
722.674	44599.31
723.016	44442.25
723.359	44475.47
723.701	44527.45
724.044	44179.88
724.386	44089.26
724.729	44248.13
725.071	44053.33
725.413	44137.85
725.755	44187.57
726.097	44028.02
726.439	43798.88
726.782	43764.3
727.124	43977.85
727.465	43823.73
727.807	43766.11
728.149	43616.06
728.491	43566.11
728.833	43678.2
729.175	43470.07
729.516	43468.04
729.858	43427.13
730.199	43425.55
730.541	43384.42
730.882	43339.45
731.224	43457.19
731.565	43173.58
731.906	43205.67
732.248	43312.11
732.589	42944.21
732.93	42870.77
733.271	42939.69
733.612	43002.97
733.953	42897.21
734.294	42898.34
734.635	42734.95
734.976	42850.65
735.317	42523.43
735.658	42538.12
735.999	42517.1
736.339	42565.24
736.68	42575.41
737.021	42519.36
737.361	42258.35
737.702	42454.51
738.042	42400.95
738.383	42256.32
738.723	42311.91
739.063	42148.98
739.404	42268.97
739.744	42122.54
740.084	42026.49
740.424	42133.38
740.764	41956.21
741.104	42192.14
741.444	41814.97
741.784	41776.56
742.124	41889.32
742.464	41924.12
742.804	41722.32
743.143	41683.9
743.483	41662.44
743.823	41534.3
744.162	41478.26
744.502	41595.54
744.841	41457.24
745.181	41637.35
745.52	41465.38
745.86	41366.17
746.199	41289.79
746.538	41270.81
746.877	41350.13
747.216	41287.3
747.556	41141.32
747.895	41121.43
748.234	41008.89
748.573	40915.56
748.911	40980.65
749.25	40953.53
749.589	40699.75
749.928	40720.77
750.267	40790.14
750.605	40634.89
750.944	40575.01
751.283	40540.66
751.621	40578.62
751.96	40325.52
752.298	40327.1
752.636	40318.74
752.975	40209.37
753.313	40102.48
753.651	40180.89
753.989	39946.55
754.327	39888.24
754.666	39812.31
755.004	39905.87
755.342	39782.26
755.679	39723.5
756.017	39491.42
756.355	39760.79
756.693	39337.3
757.031	39500.91
757.368	39239.9
757.706	39268.15
758.044	39069.28
758.381	39037.19
758.719	38962.85
759.056	38944.99
759.394	38844.88
759.731	38625.91
760.068	38697.54
760.405	38478.79
760.743	38326.03
761.08	38248.29
761.417	38119.7
761.754	38067.95
762.091	38124.22
762.428	37817.11
762.765	37680.39
763.102	37922.65
763.438	37521.08
763.775	37508.65
764.112	37500.51
764.449	37473.17
764.785	37242.89
765.122	37100.75
765.458	36909.57
765.795	36913.41
766.131	36887.19
766.467	36607.65
766.804	36524.27
767.14	36351.16
767.476	36389.13
767.812	36175.57
768.148	36301.45
768.485	35996.6
768.821	35877.5
769.157	35795.92
769.492	35732.87
769.828	35690.84
770.164	35410.17
770.5	35331.3
770.836	35395.48
771.171	35179.89
771.507	35121.14
771.842	34789.85
772.178	34791.2
772.513	34617.42
772.849	34553.47
773.184	34526.8
773.519	34470.08
773.855	34260.14
774.19	34124.55
774.525	33832.13
774.86	34006.37
775.195	33819.7
775.53	33809.08
775.865	33592.37
776.2	33295.42
776.535	33144.02
776.87	33224.92
777.205	32968.88
777.539	32829
777.874	32917.13
778.209	32523.92
778.543	32551.49
778.878	32347.88
779.212	32284.15
779.547	32231.72
779.881	32359.86
780.215	31989.92
780.55	31989.47
780.884	31935.69
781.218	31699.31
781.552	31727.33
781.886	31513.78
782.22	31426.55
782.554	31399.88
782.888	31091.41
783.222	30927.35
783.556	30857.3
783.889	30789.28
784.223	30509.28
784.557	30589.05
784.89	30586.57
785.224	30323.98
785.557	30264.54
785.891	30214.6
786.224	30091.89
786.558	30105.45
786.891	29752.92
787.224	29674.28
787.557	29739.13
787.891	29527.61
788.224	29524.68
788.557	29585.47
788.89	29399.26
789.223	29428.86
789.556	29189.32
789.888	29142.76
790.221	29044.69
790.554	28778.48
790.887	28698.03
791.219	28644.7
791.552	28555.44
791.884	28456.23
792.217	28298.04
792.549	28182.11
792.882	27976.47
793.214	27882.01
793.546	27936.92
793.879	27810.14
794.211	27643.14
794.543	27677.72
794.875	27614.67
795.207	27649.47
795.539	27468.91
795.871	27445.86
796.203	27166.55
796.535	27009.26
796.867	26932.65
797.198	26945.31
797.53	26877.29
797.862	26686.56
798.193	26702.83
798.525	26583.96
798.856	26536.73
799.188	26312.33
799.519	26371.54
799.85	26214.25
800.182	26205.44
800.513	26158.89
800.844	25890.87
801.175	26033.02
801.506	25873.25
801.837	25809.07
802.168	25734.04
802.499	25677.32
802.83	25594.16
803.161	25517.1
803.491	25461.05
803.822	25511.45
804.153	25314.62
804.483	25005.47
804.814	25024.23
805.145	24955.76
805.475	25010.9
805.805	24869.2
806.136	24995.53
806.466	24943.78
806.796	24794.63
807.126	24683.67
807.457	24581.08
807.787	24540.4
808.117	24412.95
808.447	24277.36
808.777	24287.07
809.107	24297.47
809.436	24221.31
809.766	24194.19
810.096	24039.62
810.426	23993.3
810.755	24002.11
811.085	23910.13
811.414	23838.27
811.744	23724.38
812.073	23669.69
812.403	23646.19
812.732	23513.76
813.061	23559.41
813.39	23284.61
813.719	23278.06
814.049	23342.92
814.378	23256.14
814.707	23174.11
815.036	23206.2
815.365	22999.88
815.693	22885.08
816.022	22862.7
816.351	22719.43
816.68	22758.53
817.008	22742.48
817.337	22566.21
817.665	22608.25
817.994	22634.24
818.322	22428.37
818.651	22384.75
818.979	22338.42
819.307	22420
819.636	22416.39
819.964	22156.96
820.292	22266.34
820.62	22234.25
820.948	22117.86
821.276	22201.25
821.604	22046.68
821.932	22126.68
822.259	22154.47
822.587	22164.64
822.915	22075.83
823.243	22161.48
823.57	22045.55
823.898	22118.99
824.225	21908.83
824.553	21992.44
824.88	22005.78
825.207	22171.65
825.535	22026.34
825.862	22098.43
826.189	22079.9
826.516	22076.74
826.843	22190.86
827.17	22179.33
827.497	22040.8
827.824	21983.41
828.151	22056.85
828.478	21998.32
828.805	22094.59
829.131	22069.96
829.458	22010.3
829.785	21970.3
830.111	21853.92
830.438	22048.71
830.764	21950.64
831.09	22000.81
831.417	21949.51
831.743	21970.98
832.069	21931.65
832.395	21809.17
832.722	21864.54
833.048	21848.72
833.374	21925.55
833.7	21754.94
834.026	21721.04
834.351	21809.85
834.677	21763.98
835.003	21792.22
835.329	21817.53
835.654	21747.48
835.98	21629.97
836.306	21719.91
836.631	21511.33
836.956	21582.51
837.282	21613.25
837.607	21524.66
837.932	21387.94
838.258	21460.03
838.583	21412.8
838.908	21309.98
839.233	21383.65
839.558	21254.16
839.883	21167.83
840.208	21094.61
840.533	21255.51
840.858	21139.81
841.182	21109.98
841.507	21062.75
841.832	20942.53
842.156	20964
842.481	20881.51
842.805	20849.2
843.13	20832.7
843.454	20792.93
843.778	20678.81
844.103	20748.64
844.427	20708.86
844.751	20620.05
845.075	20602.42
845.399	20629.32
845.723	20395.88
846.047	20395.88
846.371	20273.17
846.695	20247.86
847.019	20080.4
847.343	19948.88
847.666	19859.62
847.99	19840.64
848.313	19874.53
848.637	19735.55
848.96	19683.58
849.284	19590.25
849.607	19539.18
849.931	19438.61
850.254	19279.52
850.577	19175.34
850.9	19092.18
851.223	19092.18
851.546	19046.08
851.869	18811.51
852.192	18970.83
852.515	18806.99
852.838	18775.81
853.161	18585.08
853.483	18517.73
853.806	18409.94
854.129	18472.54
854.451	18441.58
854.774	18242.03
855.096	18225.54
855.419	18237.29
855.741	18165.88
856.063	18000.01
856.385	17931.99
856.708	17884.76
857.03	17842.5
857.352	17850.86
857.674	17723.18
857.996	17739.22
858.318	17635.72
858.64	17689.73
858.961	17684.76
859.283	17546.23
859.605	17367.93
859.926	17496.74
860.248	17427.82
860.57	17368.84
860.891	17371.77
861.212	17311.89
861.534	17335.62
861.855	17216.3
862.176	17117.77
862.498	17196.64
862.819	17143.53
863.14	16988.73
863.461	16995.74
863.782	16975.63
864.103	17011.56
864.424	16952.35
864.745	17006.13
865.065	16957.77
865.386	16827.38
865.707	16791.23
866.027	16734.96
866.348	16734.28
866.668	16771.34
866.989	16689.08
867.309	16596.43
867.63	16578.35
867.95	16671.23
868.27	16529.31
868.59	16624.22
868.91	16518.24
869.23	16330.9
869.55	16313.27
869.87	16354.17
870.19	16363.44
870.51	16353.95
870.83	16330.45
871.15	16302.88
871.469	16285.93
871.789	16297.9
872.109	16294.97
872.428	16173.16
872.748	16186.72
873.067	16214.52
873.386	16173.84
873.706	16070.34
874.025	15977.01
874.344	15957.35
874.663	16047.74
874.982	15958.48
875.301	15986.95
875.62	15887.97
875.939	15883.9
876.258	15974.52
876.577	15875.54
876.896	15868.76
877.214	15771.59
877.533	15717.81
877.852	15722.55
878.17	15816.79
878.489	15746.05
878.807	15704.25
879.125	15685.94
879.444	15619.5
879.762	15552.84
880.08	15552.84
880.398	15512.39
880.716	15540.86
881.034	15508.77
881.352	15453.41
881.67	15291.6
881.988	15429
882.306	15346.52
882.624	15280.53
882.941	15209.35
883.259	15174.77
883.577	15109.24
883.894	15072.63
884.212	15083.7
884.529	15079.18
884.846	15050.48
885.164	15019.07
885.481	15062.23
885.798	15004.38
886.115	14890.94
886.432	14811.62
886.75	14775.91
887.067	14781.56
887.383	14760.09
887.7	14787.44
888.017	14721.45
888.334	14743.14
888.651	14597.16
888.967	14607.55
889.284	14486.43
889.6	14443.94
889.917	14426.99
890.233	14422.02
890.55	14395.36
890.866	14309.71
891.182	14327.79
891.498	14240.11
891.815	14155.36
892.131	14144.97
892.447	14143.84
892.763	14119.21
893.079	14038.98
893.395	14052.54
893.71	14002.37
894.026	13909.49
894.342	13862.49
894.657	13861.36
894.973	13770.74
895.289	13772.32
895.604	13729.16
895.92	13735.03
896.235	13608.03
896.55	13649.16
896.865	13502.05
897.181	13488.04
897.496	13447.36
897.811	13318.1
898.126	13340.69
898.441	13294.14
898.756	13257.53
899.071	13188.83
899.386	13159.68
899.7	13095.5
900.015	13110.64
900.33	12954.49
900.644	12980.03
900.959	13006.24
901.273	12887.37
901.588	12886.24
901.902	12768.28
902.216	12720.6
902.531	12597.66
902.845	12625.01
903.159	12556.53
903.473	12496.2
903.787	12474.28
904.101	12365.8
904.415	12423.66
904.729	12326.26
905.042	12278.8
905.356	12253.94
905.67	12156.32
905.984	12222.31
906.297	12224.34
906.611	12058.02
906.924	12068.64
907.237	11974.18
907.551	11947.74
907.864	11873.39
908.177	11834.29
908.491	11801.75
908.804	11778.25
909.117	11689.44
909.43	11646.73
909.743	11622.1
910.056	11635.2
910.368	11532.38
910.681	11416.68
910.994	11387.07
911.307	11359.73
911.619	11220.98
911.932	11262.56
912.244	11174.88
912.557	11204.93
912.869	11088.32
913.181	11086.29
913.494	11014.88
913.806	10940.08
914.118	10957.93
914.43	10814.89
914.742	10804.49
915.054	10805.17
915.366	10715.9
915.678	10713.87
915.99	10605.4
916.302	10535.57
916.613	10557.94
916.925	10505.29
917.236	10526.08
917.548	10425.97
917.859	10402.69
918.171	10315.01
918.482	10349.36
918.794	10279.08
919.105	10235.01
919.416	10167.44
919.727	10116.82
920.038	10114.79
920.349	9992.08
920.66	10045.19
920.971	9980.1
921.282	9925.19
921.593	9895.59
921.903	9805.65
922.214	9839.54
922.525	9781.01
922.835	9689.94
923.146	9603.17
923.456	9562.49
923.767	9572.66
924.077	9579.66
924.387	9482.49
924.697	9496.05
925.008	9382.61
925.318	9348.48
925.628	9320.46
925.938	9323.4
926.248	9179.45
926.558	9260.12
926.867	9186.91
927.177	9122.73
927.487	9086.79
927.796	9004.31
928.106	9032.33
928.416	8995.27
928.725	8888.16
929.034	8873.47
929.344	8876.18
929.653	8861.94
929.962	8790.08
930.271	8708.05
930.581	8703.08
930.89	8665.34
931.199	8597.09
931.508	8577.43
931.817	8634.15
932.125	8519.58
932.434	8525.45
932.743	8427.15
933.051	8379.69
933.36	8378.11
933.669	8334.05
933.977	8273.26
934.286	8285.46
934.594	8224.22
934.902	8125.69
935.21	8109.65
935.519	8183.54
935.827	8092.02
936.135	8096.99
936.443	8001.85
936.751	7973.6
937.059	7953.04
937.367	7876.43
937.674	7870.78
937.982	7867.39
938.29	7799.37
938.597	7775.42
938.905	7705.14
939.213	7650.67
939.52	7611.35
939.827	7656.32
940.135	7572.48
940.442	7551.24
940.749	7507.63
941.056	7505.59
941.363	7402.55
941.67	7424.01
941.977	7318.48
942.284	7295.88
942.591	7323.68
942.898	7233.06
943.205	7233.51
943.511	7181.99
943.818	7184.47
944.125	7141.54
944.431	7224.7
944.738	7141.99
945.044	7022.67
945.35	7076.23
945.657	6957.81
945.963	6946.51
946.269	6883.69
946.575	6953.29
946.881	6906.74
947.187	6815.44
947.493	6829.45
947.799	6827.19
948.105	6763.47
948.41	6701.09
948.716	6697.03
949.022	6678.95
949.327	6663.13
949.633	6534.32
949.938	6527.99
950.244	6569.8
950.549	6477.6
950.854	6480.76
951.16	6443.7
951.465	6453.87
951.77	6430.37
952.075	6406.19
952.38	6383.14
952.685	6346.08
952.99	6278.06
953.294	6268.56
953.599	6238.73
953.904	6185.4
954.209	6153.31
954.513	6164.16
954.818	6108.12
955.122	6137.95
955.426	6104.5
955.731	6012.3
956.035	6015.01
956.339	5983.83
956.643	5926.43
956.948	5924.84
957.252	5920.78
957.556	5920.78
957.86	5855.02
958.163	5816.82
958.467	5829.93
958.771	5821.57
959.075	5711.97
959.378	5738.63
959.682	5722.36
959.985	5723.27
960.289	5667.68
960.592	5638.07
960.896	5577.51
961.199	5627.22
961.502	5577.96
961.805	5527.34
962.108	5533.22
962.411	5498.87
962.714	5455.93
963.017	5437.85
963.32	5440.56
963.623	5403.28
963.926	5385.2
964.228	5332.77
964.531	5299.32
964.833	5309.49
965.136	5239.44
965.438	5206.45
965.741	5170.74
966.043	5177.97
966.345	5198.99
966.648	5153.11
966.95	5188.37
967.252	5066.11
967.554	5042.16
967.856	5019.56
968.158	4978.2
968.46	4995.83
968.761	4977.75
969.063	4957.86
969.365	4934.36
969.666	4956.96
969.968	4878.32
970.269	4907.92
970.571	4862.27
970.872	4851.43
971.174	4829.96
971.475	4776.85
971.776	4795.83
972.077	4754.25
972.378	4784.31
972.679	4725.55
972.98	4715.38
973.281	4648.27
973.582	4639.23
973.883	4617.99
974.183	4648.95
974.484	4582.51
974.785	4543.19
975.085	4526.46
975.386	4577.08
975.686	4498.67
975.986	4463.87
976.287	4482.4
976.587	4421.83
976.887	4404.88
977.187	4375.05
977.487	4355.17
977.787	4300.93
978.087	4369.4
978.387	4279.01
978.687	4292.34
978.987	4253.02
979.286	4271.1
979.586	4268.62
979.885	4199.92
980.185	4167.38
980.484	4201.05
980.784	4161.27
981.083	4195.17
981.382	4092.58
981.682	4133.93
981.981	4074.72
982.28	4029.75
982.579	4050.54
982.878	4017.55
983.177	4030.43
983.475	4003.54
983.774	3952.01
984.073	3972.81
984.372	3914.28
984.67	3925.35
984.969	3925.35
985.267	3886.71
985.566	3872.47
985.864	3846.71
986.162	3862.98
986.461	3786.6
986.759	3784.34
987.057	3802.87
987.355	3732.81
987.653	3755.41
987.951	3730.78
988.249	3698.01
988.547	3685.81
988.844	3672.47
989.142	3669.99
989.44	3647.39
989.737	3655.07
990.035	3590.22
990.332	3587.5
990.63	3579.14
990.927	3557
991.224	3528.75
991.521	3521.97
991.819	3515.64
992.116	3516.55
992.413	3497.11
992.71	3398.81
993.006	3378.24
993.303	3412.59
993.6	3381.41
993.897	3366.04
994.193	3331.24
994.49	3361.3
994.787	3327.62
995.083	3314.97
995.379	3327.62
995.676	3297.79
995.972	3234.07
996.268	3201.3
996.565	3242.88
996.861	3197.68
997.157	3195.2
997.453	3188.64
997.749	3200.62
998.044	3142.54
998.34	3157.46
998.636	3111.58
998.932	3091.25
999.227	3085.6
999.523	3043.34
999.818	3030.23
1000.114	3029.55
1000.409	3015.32
1000.704	3007.18
1001	2998.37
1001.295	2974.19
1001.59	2969.67
1001.885	2930.57
1002.18	2850.35
1002.475	2874.75
1002.77	2875.43
1003.065	2866.85
1003.359	2858.26
1003.654	2851.93
1003.949	2790.69
1004.243	2790.46
1004.538	2742.1
1004.832	2765.83
1005.127	2764.02
1005.421	2739.84
1005.715	2697.13
1006.009	2719.28
1006.304	2691.71
1006.598	2685.83
1006.892	2665.95
1007.186	2663.69
1007.48	2628.89
1007.773	2624.82
1008.067	2594.08
1008.361	2586.4
1008.655	2594.54
1008.948	2546.63
1009.242	2547.08
1009.535	2492.17
1009.829	2491.71
1010.122	2516.8
1010.415	2446.97
1010.708	2464.82
1011.001	2446.74
1011.295	2420.08
1011.588	2375.11
1011.881	2397.03
1012.173	2376.69
1012.466	2384.82
1012.759	2374.66
1013.052	2347.31
1013.344	2290.82
1013.637	2330.14
1013.93	2293.08
1014.222	2297.14
1014.514	2257.37
1014.807	2241.1
1015.099	2235.22
1015.391	2202.23
1015.683	2227.99
1015.976	2229.57
1016.268	2185.28
1016.56	2196.35
1016.851	2199.07
1017.143	2136.92
1017.435	2136.7
1017.727	2126.07
1018.018	2089.46
1018.31	2085.62
1018.602	2077.49
1018.893	2056.02
1019.185	2057.38
1019.476	2042.23
1019.767	2008.79
1020.058	2022.12
1020.35	1997.04
1020.641	1965.85
1020.932	1939.64
1021.223	1940.09
1021.514	1920.66
1021.804	1896.25
1022.095	1908
1022.386	1888.79
1022.677	1877.49
1022.967	1855.12
1023.258	1829.13
1023.548	1841.56
1023.839	1814.44
1024.129	1818.29
1024.419	1803.6
1024.709	1808.12
1025	1767.21
1025.29	1791.85
1025.58	1759.98
1025.87	1754.78
1026.16	1722.92
1026.449	1738.97
1026.739	1682.92
1027.029	1698.74
1027.319	1698.97
1027.608	1695.12
1027.898	1652.64
1028.187	1654.9
1028.477	1628.23
1028.766	1613.55
1029.055	1607.67
1029.344	1621.45
1029.634	1609.25
1029.923	1575.13
1030.212	1585.3
1030.501	1541.46
1030.79	1554.56
1031.078	1534.23
1031.367	1523.83
1031.656	1487.67
1031.945	1498.29
1032.233	1511.4
1032.522	1490.61
1032.81	1457.62
1033.099	1437.5
1033.387	1453.55
1033.675	1444.96
1033.963	1430.73
1034.251	1433.89
1034.54	1399.31
1034.828	1408.58
1035.116	1378.98
1035.403	1371.29
1035.691	1365.64
1035.979	1360.9
1036.267	1323.61
1036.554	1313.67
1036.842	1313.21
1037.129	1325.19
1037.417	1324.51
1037.704	1281.58
1037.992	1288.81
1038.279	1263.72
1038.566	1288.13
1038.853	1288.13
1039.14	1288.13
