Data from orange_diffuse_book_FLMS001491_00064.txt Node
Date: Wed Feb 08 15:29:53 GMT 2017
User: dcchb
Spectrometer: FLMS00149
Trigger mode: 0
Integration Time (sec): 2.000000E-2
Scans to average: 10
Electric dark correction enabled: true
Nonlinearity correction enabled: false
Boxcar width: 0
XAxis mode: Wavelengths
Number of Pixels in Spectrum: 2048
>>>>>Begin Spectral Data<<<<<
341.393	-24.34
341.776	-24.34
342.16	-24.34
342.543	-89.42
342.927	-68.85
343.31	-67.72
343.693	-61.4
344.077	-61.62
344.46	-54.39
344.843	-68.18
345.226	-34.5
345.61	2.56
345.993	-22.98
346.376	-11.45
346.759	-4.45
347.142	13.86
347.525	36.68
347.908	66.06
348.291	75.77
348.674	81.88
349.057	109.9
349.44	141.54
349.823	136.11
350.206	149.45
350.588	208.2
350.971	215.43
351.354	209.78
351.737	234.19
352.119	255.66
352.502	270.12
352.884	292.04
353.267	287.29
353.65	305.83
354.032	309.89
354.414	328.42
354.797	332.04
355.179	326.39
355.562	336.33
355.944	348.08
356.326	351.47
356.709	345.6
357.091	342.89
357.473	354.19
357.855	358.48
358.238	334.3
358.62	334.07
359.002	348.08
359.384	364.81
359.766	337.24
360.148	341.76
360.53	363.22
360.912	354.86
361.294	354.19
361.676	339.72
362.057	339.27
362.439	346.73
362.821	340.63
363.203	348.31
363.584	333.17
363.966	344.92
364.348	338.59
364.729	330.46
365.111	346.73
365.493	325.03
365.874	344.69
366.256	323.23
366.637	313.51
367.019	334.98
367.4	335.66
367.781	314.64
368.163	323
368.544	338.37
368.925	341.76
369.306	316.67
369.688	343.11
370.069	329.78
370.45	317.8
370.831	347.18
371.212	338.82
371.593	319.84
371.974	314.41
372.355	329.1
372.736	348.08
373.117	337.01
373.498	336.11
373.879	321.19
374.26	344.02
374.641	343.79
375.021	325.94
375.402	327.75
375.783	336.33
376.163	348.08
376.544	328.65
376.925	334.75
377.305	321.19
377.686	345.6
378.066	345.82
378.447	339.04
378.827	342.66
379.208	345.15
379.588	345.6
379.968	341.3
380.349	335.43
380.729	342.21
381.109	339.5
381.489	347.41
381.87	354.41
382.25	328.65
382.63	371.13
383.01	372.26
383.39	376.11
383.77	341.98
384.15	357.58
384.53	358.25
384.91	368.2
385.29	382.43
385.67	356.22
386.049	371.59
386.429	368.87
386.809	360.29
387.189	367.52
387.568	374.3
387.948	367.97
388.328	352.38
388.707	381.53
389.087	367.07
389.466	391.25
389.846	375.2
390.225	391.25
390.605	374.07
390.984	377.91
391.363	376.56
391.743	384.92
392.122	385.15
392.501	381.08
392.881	377.91
393.26	398.93
393.639	391.7
394.018	390.57
394.397	405.03
394.776	398.93
395.155	413.85
395.534	401.64
395.913	402.09
396.292	399.83
396.671	427.63
397.05	417.01
397.429	397.12
397.808	406.16
398.186	412.04
398.565	410.46
398.944	431.02
399.323	411.59
399.701	424.01
400.08	427.4
400.458	414.3
400.837	411.13
401.215	423.11
401.594	401.42
401.972	424.01
402.351	415.2
402.729	417.23
403.107	429.66
403.486	411.81
403.864	438.48
404.242	426.5
404.62	440.06
404.999	425.82
405.377	430.57
405.755	440.51
406.133	435.77
406.511	435.09
406.889	450.23
407.267	451.36
407.645	441.87
408.023	456.78
408.401	445.93
408.779	468.53
409.156	443
409.534	453.39
409.912	465.14
410.29	492.26
410.667	458.82
411.045	482.54
411.422	475.09
411.8	475.54
412.178	482.09
412.555	487.97
412.933	494.52
413.31	505.59
413.687	490.23
414.065	485.71
414.442	522.77
414.819	527.74
415.197	539.27
415.574	520.28
415.951	523.67
416.328	521.19
416.705	543.56
417.082	531.36
417.46	527.06
417.837	551.92
418.214	528.42
418.591	519.15
418.967	534.52
419.344	543.79
419.721	550.34
420.098	536.33
420.475	541.3
420.852	562.77
421.228	544.46
421.605	589.66
421.982	552.6
422.358	566.84
422.735	591.92
423.111	580.62
423.488	591.24
423.864	588.08
424.241	586.04
424.617	597.8
424.994	602.99
425.37	616.78
425.746	595.54
426.123	614.74
426.499	621.52
426.875	614.29
427.251	625.59
427.627	638.02
428.003	649.77
428.379	627.17
428.756	667.62
429.132	645.93
429.507	665.59
429.883	648.42
430.259	654.97
430.635	654.52
431.011	693.16
431.387	690.9
431.763	701.75
432.138	720.5
432.514	685.93
432.89	719.6
433.265	733.84
433.641	734.29
434.016	738.81
434.392	741.97
434.767	737.23
435.143	718.7
435.518	732.48
435.894	773.84
436.269	784.23
436.644	755.76
437.02	781.52
437.395	762.08
437.77	780.84
438.145	779.26
438.52	815.19
438.895	783.78
439.271	806.15
439.646	814.96
440.021	806.38
440.395	799.15
440.77	825.59
441.145	805.47
441.52	815.42
441.895	831.91
442.27	862.87
442.645	851.35
443.019	838.01
443.394	847.96
443.769	848.64
444.143	823.78
444.518	882.08
444.892	868.3
445.267	879.37
445.641	845.02
446.016	892.25
446.39	857.68
446.764	879.14
447.139	876.88
447.513	884.12
447.887	881.86
448.262	871.23
448.636	898.58
449.01	901.74
449.384	888.41
449.758	886.6
450.132	907.84
450.506	901.06
450.88	922.08
451.254	914.4
451.628	933.15
452.002	962.08
452.376	962.31
452.75	934.74
453.123	968.63
453.497	971.57
453.871	985.58
454.244	994.62
454.618	997.78
454.992	1006.15
455.365	990.55
455.739	1012.47
456.112	1031.68
456.486	1024.22
456.859	1030.78
457.232	1046.14
457.606	1056.99
457.979	1068.07
458.352	1063.55
458.725	1102.19
459.099	1077.56
459.472	1095.18
459.845	1115.3
460.218	1073.94
460.591	1122.53
460.964	1122.75
461.337	1141.28
461.71	1121.85
462.083	1140.83
462.456	1125.46
462.829	1166.37
463.201	1158.91
463.574	1164.56
463.947	1189.19
464.32	1203.65
464.692	1209.53
465.065	1206.82
465.438	1209.3
465.81	1250.21
466.183	1266.93
466.555	1270.55
466.928	1255.86
467.3	1294.73
467.672	1297.89
468.045	1312.8
468.417	1273.03
468.789	1289.98
469.161	1322.52
469.534	1344.44
469.906	1385.34
470.278	1346.7
470.65	1376.98
471.022	1412.01
471.394	1421.28
471.766	1396.19
472.138	1417.89
472.51	1440.26
472.882	1466.25
473.253	1477.32
473.625	1481.16
473.997	1507.15
474.369	1494.95
474.74	1531.33
475.112	1528.62
475.484	1565.68
475.855	1603.19
476.227	1617.88
476.598	1640.93
476.97	1649.29
477.341	1692.23
477.713	1718.67
478.084	1704.66
478.455	1729.74
478.827	1766.13
479.198	1810.42
479.569	1824.43
479.94	1821.94
480.311	1887.7
480.682	1899.46
481.053	1923.41
481.424	1943.07
481.795	1958.89
482.166	2003.63
482.537	2026.91
482.908	2067.13
483.279	2078.21
483.65	2106.23
484.021	2133.57
484.391	2174.93
484.762	2187.58
485.133	2204.98
485.503	2226.45
485.874	2282.27
486.244	2328.6
486.615	2333.34
486.985	2411.08
487.356	2419.22
487.726	2450.18
488.097	2482.27
488.467	2513.68
488.837	2559.33
489.207	2588.93
489.578	2616.5
489.948	2651.3
490.318	2653.56
490.688	2697.4
491.058	2719.1
491.428	2807.91
491.798	2797.29
492.168	2867.57
492.538	2902.82
492.908	2917.28
493.278	2979.65
493.648	2973.33
494.017	3037.73
494.387	3087
494.757	3082.48
495.126	3118.41
495.496	3130.38
495.866	3204.51
496.235	3223.49
496.605	3255.8
496.974	3300.77
497.344	3327.21
497.713	3339.19
498.082	3405.63
498.452	3398.63
498.821	3440.66
499.19	3474.1
499.559	3509.13
499.928	3530.15
500.298	3554.78
500.667	3602.01
501.036	3624.38
501.405	3668.9
501.774	3663.93
502.143	3702.57
502.512	3737.83
502.88	3768.56
503.249	3785.73
503.618	3847.43
503.987	3799.52
504.356	3877.48
504.724	3896.47
505.093	3941.44
505.462	3918.16
505.83	4017.59
506.199	4080.64
506.567	4069.34
506.936	4078.16
507.304	4141.43
507.672	4165.38
508.041	4190.47
508.409	4169.45
508.777	4203.8
509.145	4301.88
509.514	4308.21
509.882	4261.43
510.25	4392.95
510.618	4379.62
510.986	4376.45
511.354	4469.33
511.722	4500.74
512.09	4459.16
512.458	4478.37
512.826	4588.42
513.193	4611.25
513.561	4645.6
513.929	4611.7
514.297	4687.18
514.664	4709.1
515.032	4763.56
515.4	4779.15
515.767	4790.45
516.135	4812.15
516.502	4860.73
516.869	4939.38
517.237	4923.33
517.604	4947.51
517.972	4973.95
518.339	5040.39
518.706	5018.47
519.073	5047.62
519.44	5113.38
519.808	5218.69
520.175	5160.39
520.542	5238.12
520.909	5324
521.276	5264.11
521.643	5336.2
522.009	5323.77
522.376	5370.1
522.743	5468.85
523.11	5467.27
523.477	5476.54
523.843	5573.94
524.21	5606.25
524.577	5640.15
524.943	5642.86
525.31	5686.02
525.676	5783.2
526.043	5804.21
526.409	5801.73
526.776	5875.4
527.142	5865.45
527.508	5923.08
527.874	5937.32
528.241	5990.87
528.607	6017.31
528.973	6077.42
529.339	6078.1
529.705	6166.01
530.071	6169.85
530.437	6157.65
530.803	6223.64
531.169	6313.12
531.535	6279.68
531.901	6261.6
532.267	6315.38
532.632	6333.24
532.998	6421.6
533.364	6448.71
533.73	6392.67
534.095	6503.18
534.461	6456.17
534.826	6526.23
535.192	6552.21
535.557	6639.9
535.923	6638.31
536.288	6678.77
536.653	6628.14
537.019	6736.39
537.384	6711.08
537.749	6742.72
538.114	6772.77
538.479	6807.35
538.845	6843.73
539.21	6801.02
539.575	6912.66
539.94	6924.41
540.305	6937.06
540.67	6959.89
541.034	7030.17
541.399	6997.63
541.764	7098.19
542.129	7095.93
542.494	7108.13
542.858	7160.56
543.223	7197.17
543.587	7231.07
543.952	7208.69
544.316	7306.77
544.681	7307.68
545.045	7365.07
545.41	7314.23
545.774	7377.96
546.138	7434.45
546.503	7479.87
546.867	7512.64
547.231	7539.31
547.595	7520.1
547.959	7631.51
548.324	7596.93
548.688	7680.32
549.052	7705.86
549.416	7710.38
549.779	7785.85
550.143	7846.19
550.507	7868.79
550.871	7866.76
551.235	7919.64
551.599	8038.05
551.962	8022.46
552.326	8081.67
552.689	8094.32
553.053	8140.2
553.417	8185.17
553.78	8288.21
554.143	8278.72
554.507	8390.81
554.87	8360.75
555.234	8487.31
555.597	8438.49
555.96	8579.51
556.323	8624.93
556.686	8659.28
557.05	8784.02
557.413	8762.55
557.776	8884.81
558.139	8924.13
558.502	8967.52
558.865	9009.78
559.228	9193.95
559.59	9141.07
559.953	9148.3
560.316	9262.2
560.679	9304.23
561.041	9471.01
561.404	9398.92
561.767	9589.2
562.129	9538.35
562.492	9748.74
562.854	9819.02
563.217	9805.01
563.579	9878.68
563.941	10005.46
564.304	10146.24
564.666	10199.12
565.028	10346.01
565.39	10382.62
565.753	10531.09
566.115	10611.54
566.477	10715.27
566.839	10800.24
567.201	10978.54
567.563	11001.14
567.925	11131.98
568.287	11257.85
568.648	11320.22
569.01	11458.07
569.372	11669.82
569.734	11683.38
570.095	11886.54
570.457	11963.37
570.819	12195.91
571.18	12288.34
571.542	12495.56
571.903	12596.8
572.265	12760.19
572.626	12956.79
572.987	13027.98
573.349	13293.96
573.71	13441.07
574.071	13723.1
574.432	13783.89
574.794	14031.79
575.155	14177.1
575.516	14409.18
575.877	14631.32
576.238	14931.43
576.599	15180.01
576.96	15370.51
577.32	15601.47
577.681	15734.35
578.042	16087.11
578.403	16291.17
578.763	16636.24
579.124	16857.25
579.485	17216.34
579.845	17444.81
580.206	17675.31
580.566	18069.65
580.927	18396.2
581.287	18617.66
581.648	18956.86
582.008	19372.89
582.368	19675.26
582.728	19928.81
583.089	20272.08
583.449	20637.72
583.809	20989.8
584.169	21354.76
584.529	21716.11
584.889	22255.76
585.249	22546.82
585.609	22942.29
585.969	23452.56
586.329	23809.39
586.688	24178.87
587.048	24566.43
587.408	24959.19
587.768	25303.13
588.127	25749.68
588.487	26149.67
588.846	26850.21
589.206	27030.09
589.565	27546.69
589.925	28014.93
590.284	28367.01
590.643	28906.88
591.003	29531.5
591.362	30021.88
591.721	30335.54
592.08	30970.1
592.44	31340.94
592.799	31840.36
593.158	32286.68
593.517	32759.21
593.876	33268.57
594.235	33616.36
594.593	34118.72
594.952	34672.15
595.311	35090.9
595.67	35602.3
596.029	36333.35
596.387	36742.83
596.746	37223.27
597.104	37547.78
597.463	37887.66
597.822	38569.23
598.18	38879.27
598.538	39202.66
598.897	39962.41
599.255	39995.86
599.613	40888.26
599.972	41135.94
600.33	41620.22
600.688	41687.11
601.046	42452.97
601.404	43021.54
601.762	43241.19
602.12	43829.2
602.478	44171.79
602.836	44473.03
603.194	44682.29
603.552	45082.73
603.91	45442.49
604.268	45857.17
604.625	46030.05
604.983	46581.22
605.341	46693.76
605.698	47218.49
606.056	47553.85
606.413	47744.8
606.771	48169.65
607.128	48449.87
607.485	48542.07
607.843	48729.64
608.2	49031.32
608.557	49368.72
608.914	49592.66
609.272	49858.19
609.629	50189.49
609.986	50369.59
610.343	50447.33
610.7	50784.72
611.057	50886.87
611.414	51057.26
611.771	51209.35
612.127	51543.57
612.484	51519.39
612.841	51747.86
613.198	51738.6
613.554	51939.04
613.911	52270.11
614.267	52243.67
614.624	52392.82
614.98	52509.88
615.337	52722.53
615.693	52874.84
616.05	52916.65
616.406	53117.54
616.762	53155.28
617.118	53272.79
617.475	53329.52
617.831	53456.07
618.187	53482.51
618.543	53616.06
618.899	53875.26
619.255	53862.16
619.611	53884.3
619.967	54134.01
620.323	54149.16
620.678	54096.28
621.034	54159.1
621.39	54146.9
621.746	54098.99
622.101	54438.41
622.457	54312.54
622.812	54374.69
623.168	54415.36
623.523	54523.83
623.879	54643.38
624.234	54470.73
624.589	54622.82
624.945	54679.99
625.3	54741
625.655	54729.03
626.01	54788.91
626.365	54827.78
626.72	54824.39
627.075	54865.75
627.43	54850.61
627.785	54862.36
628.14	54973.31
628.495	54933.09
628.85	54969.47
629.205	54943.94
629.559	55111.16
629.914	54944.39
630.269	55053.54
630.623	55018.51
630.978	54982.35
631.332	55096.93
631.687	55175.12
632.041	55078.4
632.396	55114.33
632.75	54954.78
633.104	55022.13
633.459	54933.54
633.813	54919.53
634.167	54960.21
634.521	54963.37
634.875	54992.75
635.229	54997.04
635.583	54916.82
635.937	54945.74
636.291	54892.19
636.645	54874.33
636.999	54868.46
637.352	54953.43
637.706	54740.33
638.06	54875.92
638.413	54767.22
638.767	54742.81
639.121	54914.11
639.474	54721.34
639.828	54730.38
640.181	54731.29
640.534	54773.32
640.888	54660.33
641.241	54640.67
641.594	54679.08
641.947	54782.13
642.301	54701.23
642.654	54667.33
643.007	54708.24
643.36	54704.85
643.713	54730.61
644.066	54814.67
644.419	54550.73
644.771	54349.15
645.124	54100.79
645.477	54106.67
645.83	53848.15
646.182	53824.42
646.535	53756.4
646.888	53823.74
647.24	53704.42
647.593	53916.39
647.945	53853.57
648.298	53689.73
648.65	53610.19
649.002	53645.67
649.355	53754.59
649.707	53600.02
650.059	53709.62
650.411	54091.53
650.763	54134.24
651.115	54512.31
651.467	54376.27
651.819	54273.9
652.171	54308.93
652.523	54289.94
652.875	54331.3
653.227	54138.31
653.578	54364.29
653.93	54309.6
654.282	54078.87
654.633	54108.25
654.985	54166.33
655.337	54149.38
655.688	54215.37
656.039	54305.99
656.391	54112.09
656.742	54144.86
657.094	54131.53
657.445	54261.69
657.796	54154.58
658.147	54062.38
658.498	54150.74
658.849	54218.53
659.2	54170.62
659.551	54150.74
659.902	54154.8
660.253	54158.42
660.604	54110.06
660.955	53995.94
661.306	54079.55
661.656	54045.43
662.007	54127.46
662.358	54052.43
662.708	54011.53
663.059	54024.64
663.409	53933.34
663.76	54092.43
664.11	54037.07
664.461	54090.17
664.811	54080.68
665.161	54089.27
665.511	53928.6
665.862	54082.49
666.212	54128.82
666.562	54076.84
666.912	54046.56
667.262	54068.03
667.612	53959.56
667.962	53905.77
668.312	53898.09
668.662	54008.14
669.011	53952.1
669.361	53912.55
669.711	53827.13
670.06	53852.44
670.41	53754.36
670.76	53749.17
671.109	53797.53
671.459	53733.57
671.808	53673.69
672.157	53814.93
672.507	53634.59
672.856	53625.33
673.205	53642.95
673.554	53796.85
673.904	53624.88
674.253	53775.15
674.602	53661.48
674.951	53172.91
675.3	53058.56
675.649	53478.89
675.998	53418.55
676.346	53470.76
676.695	53637.53
677.044	53330.87
677.393	53440.02
677.741	53519.57
678.09	53363.87
678.438	53432.34
678.787	53382.17
679.135	53404.54
679.484	53198.45
679.832	53228.95
680.181	53160.03
680.529	53206.13
680.877	53145.34
681.225	53149.63
681.573	53277.99
681.922	52928.4
682.27	53029.64
682.618	53017.66
682.966	52914.39
683.314	52951.22
683.661	52847.49
684.009	52653.83
684.357	52724.33
684.705	52583.32
685.053	52666.93
685.4	52633.49
685.748	52360.05
686.095	52461.74
686.443	52305.81
686.79	52247.51
687.138	52350.78
687.485	52418.35
687.832	52101.53
688.18	52275.08
688.527	52059.94
688.874	51975.88
689.221	51976.33
689.568	51823.57
689.915	51767.75
690.262	51753.06
690.609	51694.3
690.956	51627.64
691.303	51587.41
691.65	51382.67
691.997	51282.56
692.344	51200.98
692.69	51214.32
693.037	51124.38
693.383	50986.07
693.73	50913.31
694.077	50728.45
694.423	50728.91
694.769	50667.66
695.116	50666.54
695.462	50599.19
695.808	50421.34
696.155	50447.78
696.501	50116.49
696.847	50236.26
697.193	49938.42
697.539	50108.13
697.885	49773
698.231	49766.22
698.577	49616.62
698.923	49640.35
699.269	49462.72
699.614	49325.33
699.96	49205.33
700.306	49218.21
700.651	49118.55
700.997	48958.33
701.342	48918.78
701.688	48816.19
702.033	48843.31
702.379	48688.06
702.724	48525.57
703.069	48543.2
703.415	48218.69
703.76	48236.77
704.105	48133.27
704.45	48067.51
704.795	47890.11
705.14	47899.38
705.485	47745.03
705.83	47509.56
706.175	47669.78
706.52	47484.02
706.865	47382.78
707.209	47250.35
707.554	47025.73
707.899	47166.06
708.243	46905.96
708.588	46906.86
708.932	46744.15
709.277	46549.58
709.621	46552.52
709.966	46364.95
710.31	46549.13
710.654	46264.84
710.998	46268.23
711.342	46258.06
711.687	46145.52
712.031	45866.89
712.375	45813.33
712.719	45801.8
713.063	45845.64
713.407	45967
713.75	45690.85
714.094	45679.77
714.438	45486.33
714.782	45510.96
715.125	45326.11
715.469	45371.53
715.812	45237.53
716.156	45052.22
716.499	45145.55
716.843	44951.21
717.186	44808.16
717.53	45003.86
717.873	44927.48
718.216	44777.65
718.559	44585.34
718.902	44233.26
719.246	44536.98
719.589	44268.06
719.932	44238.23
720.275	44335.18
720.617	44052.02
720.96	44118.91
721.303	43995.75
721.646	44057.44
721.989	43809.99
722.331	44036.65
722.674	43765.7
723.016	43974.28
723.359	43624.01
723.701	43614.07
724.044	43503.33
724.386	43400.06
724.729	43539.49
725.071	43373.39
725.413	43339.04
725.755	43524.8
726.097	43168.88
726.439	42929.34
726.782	43118.94
727.124	43379.49
727.465	42979.05
727.807	43021.76
728.149	42957.36
728.491	42977.25
728.833	42999.39
729.175	42737.25
729.516	42891.15
729.858	42781.32
730.199	42702.68
730.541	42650.7
730.882	42534.32
731.224	42682.34
731.565	42444.38
731.906	42484.83
732.248	42443.47
732.589	42281.9
732.93	42265.4
733.271	42112.41
733.612	42290.48
733.953	42211.84
734.294	42119.87
734.635	41973.88
734.976	42189.02
735.317	41816.15
735.658	41735.7
735.999	41910.16
736.339	41757.62
736.68	41898.4
737.021	41791.06
737.361	41707.9
737.702	41702.48
738.042	41660.22
738.383	41588.58
738.723	41563.95
739.063	41449.38
739.404	41493.22
739.744	41427.23
740.084	41338.19
740.424	41417.29
740.764	41282.15
741.104	41440.56
741.444	41173.68
741.784	41029.95
742.124	41106.79
742.464	41038.09
742.804	41097.97
743.143	40847.13
743.483	41071.31
743.823	40730.3
744.162	40933.91
744.502	40741.15
744.841	40824.08
745.181	40831.99
745.52	40664.31
745.86	40707.93
746.199	40486.24
746.538	40551.77
746.877	40656.85
747.216	40719
747.556	40575.05
747.895	40487.82
748.234	40344.09
748.573	40247.6
748.911	40272.23
749.25	40324.21
749.589	40019.81
749.928	40225.68
750.267	40177.09
750.605	39978.23
750.944	39966.48
751.283	39726.48
751.621	39898
751.96	39629.76
752.298	39744.56
752.636	39609.42
752.975	39432.03
753.313	39380.96
753.651	39431.58
753.989	39298.25
754.327	39321.75
754.666	39051.93
755.004	39092.83
755.342	39098.03
755.679	39067.97
756.017	38737.58
756.355	38977.8
756.693	38924.92
757.031	38806.51
757.368	38518.61
757.706	38523.8
758.044	38476.57
758.381	38574.88
758.719	38411.04
759.056	38494.88
759.394	38257.37
759.731	37990.71
760.068	38040.65
760.405	37724.28
760.743	37560.66
761.08	37769.92
761.417	37483.15
761.754	37463.72
762.091	37521.57
762.428	37270.96
762.765	36964.3
763.102	37131.3
763.438	36891.98
763.775	36778.99
764.112	36811.31
764.449	36884.07
764.785	36647.92
765.122	36461.48
765.458	36283.18
765.795	36219.68
766.131	36350.75
766.467	36059.69
766.804	35911.89
767.14	35840.71
767.476	35784.21
767.812	35600.04
768.148	35641.17
768.485	35423.09
768.821	35223.55
769.157	35219.94
769.492	35220.39
769.828	35070.79
770.164	34686.84
770.5	34668.99
770.836	34646.39
771.171	34424.7
771.507	34478.94
771.842	34284.37
772.178	34225.84
772.513	34069.46
772.849	33989.23
773.184	33838.73
773.519	33864.26
773.855	33654.33
774.19	33424.05
774.525	33431.96
774.86	33459.98
775.195	33310.16
775.53	33215.02
775.865	32954.01
776.2	32760.57
776.535	32512.89
776.87	32568.71
777.205	32444.64
777.539	32256.4
777.874	32372.78
778.209	31976.86
778.543	31942.06
778.878	31791.33
779.212	31768.95
779.547	31540.71
779.881	31587.71
780.215	31429.53
780.55	31526.02
780.884	31257.33
781.218	31051.23
781.552	31087.61
781.886	31045.13
782.22	30936.43
782.554	30682.88
782.888	30553.17
783.222	30490.12
783.556	30360.63
783.889	30298.48
784.223	29970.36
784.557	29793.41
784.89	30014.65
785.224	29789.57
785.557	29797.93
785.891	29711.83
786.224	29557.26
786.558	29456.25
786.891	29259.64
787.224	29137.38
787.557	29115.46
787.891	29094.9
788.224	29016.48
788.557	29052.19
788.89	28881.8
789.223	28771.74
789.556	28592.99
789.888	28501.92
790.221	28444.97
790.554	28116.85
790.887	28242.72
791.219	28176.05
791.552	28042.5
791.884	27975.61
792.217	27882.95
792.549	27649.29
792.882	27572.9
793.214	27422.85
793.546	27520.93
793.879	27331.1
794.211	27251.78
794.543	27361.39
794.875	27099.25
795.207	27167.27
795.539	27045.69
795.871	26943.77
796.203	26665.58
796.535	26553.95
796.867	26557.34
797.198	26420.62
797.53	26417.68
797.862	26391.24
798.193	26367.74
798.525	26116.22
798.856	26218.59
799.188	25894.31
799.519	25920.29
799.85	25807.98
800.182	25790.35
800.513	25725.27
800.844	25495.22
801.175	25658.38
801.506	25461.1
801.837	25421.55
802.168	25218.16
802.499	25146.3
802.83	25077.83
803.161	25087.55
803.491	24889.59
803.822	25041.45
804.153	24909.92
804.483	24698.4
804.814	24591.06
805.145	24714
805.475	24617.95
805.805	24431.74
806.136	24408.69
806.466	24377.73
806.796	24398.53
807.126	24127.8
807.457	24164.18
807.787	24120.57
808.117	23995.6
808.447	23968.48
808.777	24104.75
809.107	23835.6
809.436	23772.33
809.766	23756.28
810.096	23709.73
810.426	23670.63
810.755	23591.99
811.085	23494.14
811.414	23453.69
811.744	23309.97
812.073	23234.71
812.403	23258.67
812.732	23046.02
813.061	23120.82
813.39	22994.27
813.719	22990.2
814.049	23011.44
814.378	22919.24
814.707	22731.22
815.036	22775.29
815.365	22603.32
815.693	22518.12
816.022	22438.58
816.351	22434.96
816.68	22359.48
817.008	22327.39
817.337	22157.68
817.665	22076.55
817.994	22184.8
818.322	22148.87
818.651	22061.64
818.979	21925.14
819.307	21994.29
819.636	22028.42
819.964	21883.56
820.292	21903.45
820.62	21922.88
820.948	21767.63
821.276	21865.03
821.604	21725.83
821.932	21805.37
822.259	21780.74
822.587	21681.99
822.915	21713.4
823.243	21722.21
823.57	21732.38
823.898	21675.21
824.225	21690.57
824.553	21773.06
824.88	21662.1
825.207	21762.66
825.535	21696.22
825.862	21834.75
826.189	21614.42
826.516	21715.88
826.843	21814.64
827.17	21767.41
827.497	21693.29
827.824	21806.5
828.151	21736
828.478	21651.25
828.805	21763.34
829.131	21533.52
829.458	21561.99
829.785	21493.06
830.111	21554.76
830.438	21684.92
830.764	21557.92
831.09	21678.14
831.417	21566.28
831.743	21544.59
832.069	21651.7
832.395	21396.57
832.722	21636.79
833.048	21548.2
833.374	21483.12
833.7	21397.93
834.026	21427.3
834.351	21543.01
834.677	21420.3
835.003	21402.22
835.329	21399.28
835.654	21339.85
835.98	21229.34
836.306	21256.69
836.631	21157.48
836.956	21249.46
837.282	21170.81
837.607	21046.52
837.932	21112.28
838.258	21047.88
838.583	20972.17
838.908	20855.57
839.233	20841.1
839.558	20926.98
839.883	20853.99
840.208	20814.21
840.533	20813.08
840.858	20901.22
841.182	20746.64
841.507	20718.62
841.832	20730.37
842.156	20675.69
842.481	20567.44
842.805	20584.61
843.13	20455.13
843.454	20370.16
843.778	20390.49
844.103	20337.61
844.427	20245.64
844.751	20312.76
845.075	20194.79
845.399	20225.3
845.723	20051.97
846.047	20211.29
846.371	19850.4
846.695	19905.31
847.019	19808.82
847.343	19706.67
847.666	19724.52
847.99	19558.88
848.313	19527.24
848.637	19407.7
848.96	19378.32
849.284	19312.78
849.607	19073.47
849.931	19211.32
850.254	19002.28
850.577	18957.76
850.9	18769.75
851.223	18742.85
851.546	18720.03
851.869	18506.93
852.192	18657.89
852.515	18439.59
852.838	18345.12
853.161	18372.47
853.483	18342.19
853.806	18255.86
854.129	18189.87
854.451	18103.78
854.774	18057.67
855.096	17886.38
855.419	17882.31
855.741	17825.82
856.063	17774.52
856.385	17732.49
856.708	17572.94
857.03	17630.79
857.352	17547.41
857.674	17524.81
857.996	17378.37
858.318	17429.89
858.64	17335.89
858.961	17292.72
859.283	17314.64
859.605	17114.65
859.926	17114.87
860.248	17120.98
860.57	17001.21
860.891	17106.51
861.212	17035.33
861.534	16925.28
861.855	16934.77
862.176	16933.41
862.498	16991.94
862.819	16940.87
863.14	16715.56
863.461	16775.67
863.782	16733.64
864.103	16615
864.424	16800.98
864.745	16774.77
865.065	16643.7
865.386	16501.11
865.707	16451.84
866.027	16441.67
866.348	16455.01
866.668	16373.43
866.989	16365.74
867.309	16266.76
867.63	16396.25
867.95	16424.95
868.27	16273.54
868.59	16286.87
868.91	16171.17
869.23	16151.96
869.55	16043.49
869.87	16180.44
870.19	16159.42
870.51	16125.3
870.83	16145.18
871.15	16028.58
871.469	16080.78
871.789	16050.95
872.109	16004.62
872.428	15871.74
872.748	15838.75
873.067	15898.64
873.386	15907.22
873.706	15858.64
874.025	15721.01
874.344	15786.32
874.663	15768.7
874.982	15730.05
875.301	15720.11
875.62	15595.37
875.939	15624.52
876.258	15620.68
876.577	15533.22
876.896	15524.63
877.214	15541.81
877.533	15536.16
877.852	15446.22
878.17	15549.94
878.489	15464.52
878.807	15468.59
879.125	15345.43
879.444	15438.31
879.762	15310.85
880.08	15265.21
880.398	15179.33
880.716	15191.31
881.034	15174.13
881.352	15180.69
881.67	15170.97
881.988	15202.61
882.306	15106.57
882.624	15091.2
882.941	15055.95
883.259	14966.23
883.577	14952.9
883.894	14850.98
884.212	14828.61
884.529	14956.51
884.846	14792.45
885.164	14771.43
885.481	14721.94
885.798	14746.8
886.115	14625.22
886.432	14712.23
886.75	14524.21
887.067	14533.93
887.383	14563.53
887.7	14559.69
888.017	14559.24
888.334	14529.18
888.651	14415.74
888.967	14408.05
889.284	14278.79
889.6	14297.55
889.917	14164.67
890.233	14172.81
890.55	14171.68
890.866	14173.71
891.182	14067.5
891.498	13940.27
891.815	13980.72
892.131	13840.16
892.447	14008.97
892.763	13917.67
893.079	13809.88
893.395	13799.48
893.71	13702.31
894.026	13666.38
894.342	13658.69
894.657	13542.77
894.973	13569.66
895.289	13528.98
895.604	13535.08
895.92	13483.11
896.235	13400.17
896.55	13476.78
896.865	13362.88
897.181	13242.66
897.496	13186.16
897.811	13106.84
898.126	13089.67
898.441	13057.58
898.756	13074.3
899.071	12922.89
899.386	13024.59
899.7	12830.02
900.015	12781.88
900.33	12716.12
900.644	12686.29
900.959	12702.56
901.273	12695.33
901.588	12591.6
901.902	12500.31
902.216	12490.82
902.531	12468.22
902.845	12401.1
903.159	12361.55
903.473	12385.06
903.787	12211.95
904.101	12219.86
904.415	12202.46
904.729	12150.26
905.042	12147.1
905.356	12054.44
905.67	12028.91
905.984	12008.12
906.297	11926.31
906.611	11877.27
906.924	11825.52
907.237	11845.63
907.551	11781.68
907.864	11644.51
908.177	11668.69
908.491	11654
908.804	11550.95
909.117	11517.06
909.43	11477.06
909.743	11411.3
910.056	11442.26
910.368	11339.66
910.681	11200.23
910.994	11163.17
911.307	11209.95
911.619	11143.73
911.932	11121.36
912.244	10975.6
912.557	11055.15
912.869	10956.62
913.181	10811.09
913.494	10851.31
913.806	10806.79
914.118	10780.35
914.43	10726.57
914.742	10610.41
915.054	10610.41
915.366	10595.5
915.678	10502.62
915.99	10574.26
916.302	10427.37
916.613	10372
916.925	10397.99
917.236	10329.06
917.548	10272.57
917.859	10212.68
918.171	10158.22
918.482	10148.28
918.794	10079.81
919.105	10065.79
919.416	9975.63
919.727	9980.83
920.038	9985.57
920.349	9858.57
920.66	9841.17
920.971	9756.88
921.282	9843.2
921.593	9814.05
921.903	9690.44
922.214	9687.73
922.525	9617.9
922.835	9543.1
923.146	9501.06
923.456	9406.6
923.767	9407.96
924.077	9447.96
924.387	9351.92
924.697	9338.81
925.008	9271.47
925.318	9194.63
925.628	9220.39
925.938	9126.16
926.248	9115.99
926.558	9027.4
926.867	9050.68
927.177	8993.96
927.487	8939.72
927.796	8847.97
928.106	8959.61
928.416	8794.64
928.725	8829.44
929.034	8752.61
929.344	8737.69
929.653	8665.38
929.962	8609.34
930.271	8662.44
930.581	8579.05
930.89	8498.83
931.199	8517.59
931.508	8460.64
931.817	8395.78
932.125	8352.17
932.434	8381.55
932.743	8310.81
933.051	8278.95
933.36	8231.49
933.669	8135.22
933.977	8181.78
934.286	8116.24
934.594	8148.56
934.902	8037.6
935.21	7984.27
935.519	7996.92
935.827	7971.61
936.135	7970.26
936.443	7819.3
936.751	7808.45
937.059	7820.43
937.367	7758.28
937.674	7713.77
937.982	7719.64
938.29	7685.97
938.597	7680.55
938.905	7552.64
939.213	7551.74
939.52	7459.54
939.827	7484.39
940.135	7468.12
940.442	7428.58
940.749	7462.7
941.056	7454.11
941.363	7362.14
941.67	7362.36
941.977	7284.17
942.284	7198.07
942.591	7156.27
942.898	7155.36
943.205	7150.39
943.511	7163.5
943.818	7063.39
944.125	7015.25
944.431	7066.1
944.738	7066.78
945.044	6962.83
945.35	6949.94
945.657	6892.09
945.963	6834.02
946.269	6808.25
946.575	6813.22
946.881	6705.66
947.187	6765.54
947.493	6639.22
947.799	6717.86
948.105	6670.86
948.41	6593.57
948.716	6612.55
949.022	6543.85
949.327	6570.97
949.633	6414.59
949.938	6505.21
950.244	6424.99
950.549	6421.14
950.854	6381.6
951.16	6386.34
951.465	6315.84
951.77	6299.34
952.075	6319.68
952.38	6280.58
952.685	6217.99
952.99	6206.01
953.294	6161.26
953.599	6110.42
953.904	6088.95
954.209	6070.19
954.513	6047.14
954.818	6051.44
955.122	6043.53
955.426	5997.43
955.731	5918.79
956.035	5932.34
956.339	5923.76
956.643	5881.5
956.948	5865.45
957.252	5849.41
957.556	5829.52
957.86	5791.1
958.163	5750.2
958.467	5715.85
958.771	5670.43
959.075	5713.14
959.378	5649.87
959.682	5667.72
959.985	5667.94
960.289	5564.9
960.592	5559.02
960.896	5533.03
961.199	5445.58
961.502	5440.61
961.805	5484.9
962.108	5426.59
962.411	5381.62
962.714	5346.6
963.017	5371.45
963.32	5313.83
963.623	5345.24
963.926	5293.04
964.228	5260.72
964.531	5236.09
964.833	5232.02
965.136	5158.35
965.438	5173.04
965.741	5126.94
966.043	5100.28
966.345	5059.15
966.648	5112.48
966.95	5033.38
967.252	4988.41
967.554	5007.85
967.856	4985.02
968.158	4915.42
968.46	4939.15
968.761	4902.31
969.063	4883.11
969.365	4846.27
969.666	4847.63
969.968	4843.56
970.269	4783.9
970.571	4786.39
970.872	4771.02
971.174	4738.93
971.475	4712.49
971.776	4689.66
972.077	4702.32
972.378	4678.37
972.679	4666.16
972.98	4629.33
973.281	4577.35
973.582	4593.17
973.883	4560.85
974.183	4512.95
974.484	4502.78
974.785	4522.89
975.085	4483.79
975.386	4501.42
975.686	4443.34
975.986	4414.42
976.287	4405.6
976.587	4307.3
976.887	4323.35
977.187	4357.02
977.487	4325.83
977.787	4316.34
978.087	4258.04
978.387	4235.67
978.687	4232.05
978.987	4239.96
979.286	4180.98
979.586	4214.2
979.885	4151.37
980.185	4163.58
980.484	4107.53
980.784	4102.11
981.083	4086.97
981.382	4084.71
981.682	4067.31
981.981	4000.64
982.28	4029.12
982.579	3980.98
982.878	3972.17
983.177	3960.87
983.475	3940.31
983.774	3935.79
984.073	3915.22
984.372	3908.22
984.67	3857.82
984.969	3828.67
985.267	3829.12
985.566	3821.67
985.864	3795.9
986.162	3773.98
986.461	3753.87
986.759	3736.47
987.057	3681.1
987.355	3719.52
987.653	3684.95
987.951	3656.02
988.249	3616.92
988.547	3627.77
988.844	3612.86
989.142	3609.24
989.44	3565.85
989.737	3550.94
990.035	3523.37
990.332	3518.17
990.63	3522.92
990.927	3502.13
991.224	3489.24
991.521	3480.21
991.819	3417.61
992.116	3432.52
992.413	3420.09
992.71	3433.88
993.006	3366.99
993.303	3379.42
993.6	3319.31
993.897	3324.05
994.193	3321.79
994.49	3302.13
994.787	3276.14
995.083	3292.19
995.379	3254.67
995.676	3255.8
995.972	3223.26
996.268	3220.1
996.565	3174.9
996.861	3123.6
997.157	3163.15
997.453	3128.35
997.749	3079.54
998.044	3121.34
998.34	3079.99
998.636	3084.28
998.932	3042.93
999.227	3023.49
999.523	3015.36
999.818	2998.64
1000.114	2988.01
1000.409	2995.02
1000.704	2960.44
1001	2973.78
1001.295	2934.46
1001.59	2900.33
1001.885	2927.68
1002.18	2899.2
1002.475	2839.32
1002.77	2838.41
1003.065	2825.08
1003.359	2811.3
1003.654	2807
1003.949	2772.2
1004.243	2781.92
1004.538	2748.47
1004.832	2740.56
1005.127	2728.59
1005.421	2714.58
1005.715	2684.97
1006.009	2682.49
1006.304	2658.31
1006.598	2629.15
1006.892	2659.21
1007.186	2630.51
1007.48	2602.49
1007.773	2565.65
1008.067	2542.15
1008.361	2570.17
1008.655	2508.25
1008.948	2487.01
1009.242	2479.55
1009.535	2487.01
1009.829	2462.6
1010.122	2454.24
1010.415	2454.47
1010.708	2465.77
1011.001	2432.1
1011.295	2418.76
1011.588	2369.5
1011.881	2386.67
1012.173	2353.23
1012.466	2357.75
1012.759	2304.19
1013.052	2321.37
1013.344	2314.13
1013.637	2281.14
1013.93	2247.02
1014.222	2219.45
1014.514	2257.19
1014.807	2213.35
1015.099	2208.15
1015.391	2197.3
1015.683	2172.22
1015.976	2160.24
1016.268	2129.96
1016.56	2141.71
1016.851	2149.84
1017.143	2101.48
1017.435	2089.73
1017.727	2095.61
1018.018	2076.63
1018.31	2094.93
1018.602	2029.17
1018.893	2077.08
1019.185	2038.44
1019.476	1971.09
1019.767	2003.18
1020.058	1991.66
1020.35	1976.52
1020.641	1954.82
1020.932	1922.96
1021.223	1915.95
1021.514	1901.72
1021.804	1894.26
1022.095	1891.32
1022.386	1868.72
1022.677	1873.69
1022.967	1828.27
1023.258	1843.86
1023.548	1833.02
1023.839	1796.41
1024.129	1791.44
1024.419	1767.48
1024.709	1738.78
1025	1766.13
1025.29	1736.75
1025.58	1748.95
1025.87	1708.5
1026.16	1725.22
1026.449	1690.42
1026.739	1682.06
1027.029	1664.43
1027.319	1655.85
1027.608	1654.04
1027.898	1646.13
1028.187	1644.77
1028.477	1616.3
1028.766	1597.99
1029.055	1572.91
1029.344	1587.83
1029.634	1556.41
1029.923	1539.69
1030.212	1541.27
1030.501	1539.24
1030.79	1503.53
1031.078	1513.25
1031.367	1528.84
1031.656	1512.57
1031.945	1478
1032.233	1478
1032.522	1466.7
1032.81	1434.61
1033.099	1431.9
1033.387	1431.9
1033.675	1404.33
1033.963	1423.08
1034.251	1403.88
1034.54	1375.4
1034.828	1384.44
1035.116	1400.71
1035.403	1370.66
1035.691	1375.63
1035.979	1344.44
1036.267	1336.53
1036.554	1329.08
1036.842	1353.48
1037.129	1304.67
1037.417	1288.85
1037.704	1296.53
1037.992	1278
1038.279	1263.09
1038.566	1256.53
1038.853	1256.53
1039.14	1256.53
