Data from orange_diffuse_book_FLMS001491_00059.txt Node
Date: Wed Feb 08 15:29:46 GMT 2017
User: dcchb
Spectrometer: FLMS00149
Trigger mode: 0
Integration Time (sec): 2.000000E-2
Scans to average: 10
Electric dark correction enabled: true
Nonlinearity correction enabled: false
Boxcar width: 0
XAxis mode: Wavelengths
Number of Pixels in Spectrum: 2048
>>>>>Begin Spectral Data<<<<<
341.393	-13.95
341.776	-13.95
342.16	-13.95
342.543	-65.03
342.927	-56.89
343.31	-56.89
343.693	-52.82
344.077	-73.84
344.46	-54.18
344.843	-31.13
345.226	-56.44
345.61	-10.79
345.993	-13.73
346.376	-11.02
346.759	-2.66
347.142	19.94
347.525	30.11
347.908	47.74
348.291	59.26
348.674	88.64
349.057	117.79
349.44	130.9
349.823	143.33
350.206	149.21
350.588	176.32
350.971	232.59
351.354	232.59
351.737	259.71
352.119	269.65
352.502	261.29
352.884	276.89
353.267	279.15
353.65	297.45
354.032	322.08
354.414	282.99
354.797	350.33
355.179	329.77
355.562	339.03
355.944	333.83
356.326	328.18
356.709	351.91
357.091	330.44
357.473	345.13
357.855	348.52
358.238	351.46
358.62	354.4
359.002	352.59
359.384	355.3
359.766	360.72
360.148	336.77
360.53	360.95
360.912	331.35
361.294	340.16
361.676	359.6
362.057	351.91
362.439	351.46
362.821	322.31
363.203	346.04
363.584	334.28
363.966	343.78
364.348	336.32
364.729	334.51
365.111	337.67
365.493	333.16
365.874	344.91
366.256	314.62
366.637	326.38
367.019	344.45
367.4	322.08
367.781	339.48
368.163	315.75
368.544	337
368.925	328.64
369.306	328.86
369.688	304.23
370.069	319.37
370.45	321.86
370.831	319.82
371.212	324.12
371.593	330.67
371.974	338.8
372.355	350.78
372.736	310.56
373.117	341.29
373.498	310.56
373.879	333.38
374.26	336.09
374.641	321.18
375.021	329.77
375.402	327.51
375.783	322.76
376.163	318.47
376.544	338.13
376.925	345.13
377.305	340.61
377.686	333.38
378.066	340.84
378.447	316.43
378.827	351.23
379.208	339.93
379.588	344.91
379.968	333.16
380.349	338.8
380.729	334.74
381.109	353.04
381.489	344.91
381.87	332.93
382.25	355.3
382.63	372.93
383.01	344.45
383.39	365.47
383.77	342.42
384.15	340.39
384.53	376.77
384.91	367.5
385.29	367.5
385.67	364.11
386.049	350.33
386.429	373.83
386.809	362.98
387.189	365.7
387.568	378.13
387.948	357.34
388.328	365.92
388.707	379.71
389.087	371.12
389.466	376.77
389.846	370.67
390.225	376.77
390.605	363.21
390.984	373.61
391.363	361.18
391.743	378.8
392.122	375.19
392.501	378.13
392.881	384.45
393.26	385.58
393.639	407.5
394.018	383.1
394.397	389.42
394.776	397.11
395.155	395.53
395.534	363.21
395.913	391.91
396.292	405.92
396.671	401.4
397.05	396.43
397.429	403.66
397.808	402.08
398.186	397.56
398.565	383.78
398.944	393.04
399.323	398.24
399.701	401.4
400.08	408.18
400.458	409.09
400.837	414.51
401.215	424.45
401.594	415.64
401.972	397.56
402.351	410.22
402.729	424.45
403.107	410.67
403.486	412.25
403.864	416.54
404.242	420.84
404.62	421.97
404.999	424.9
405.377	440.5
405.755	424.23
406.133	427.16
406.511	435.75
406.889	451.8
407.267	434.62
407.645	444.79
408.023	454.06
408.401	457.45
408.779	476.2
409.156	470.78
409.534	449.54
409.912	467.84
410.29	473.26
410.667	484.56
411.045	443.43
411.422	476.65
411.8	469.2
412.178	507.61
412.555	481.4
412.933	487.28
413.31	475.52
413.687	497.67
414.065	490.67
414.442	492.02
414.819	494.05
415.197	490.67
415.574	505.81
415.951	512.36
416.328	523.21
416.705	517.56
417.082	524.79
417.46	528.63
417.837	518.01
418.214	515.75
418.591	543.32
418.967	533.38
419.344	548.97
419.721	562.3
420.098	550.78
420.475	561.62
420.852	558.23
421.228	583.32
421.605	558.91
421.982	571.11
422.358	574.5
422.735	566.37
423.111	566.14
423.488	579.7
423.864	570.44
424.241	590.32
424.617	578.35
424.994	594.17
425.37	573.15
425.746	602.3
426.123	606.82
426.499	593.26
426.875	633.71
427.251	615.41
427.627	616.54
428.003	640.27
428.379	625.58
428.756	628.51
429.132	646.14
429.507	652.92
429.883	650.21
430.259	632.81
430.635	654.5
431.011	650.89
431.387	671
431.763	674.84
432.138	677.78
432.514	696.54
432.89	663.32
433.265	673.49
433.641	693.15
434.016	696.76
434.392	701.73
434.767	732.69
435.143	725.46
435.518	708.96
435.894	711
436.269	769.3
436.644	761.17
437.02	735.4
437.395	738.79
437.77	766.59
438.145	765.91
438.52	757.1
438.895	781.96
439.271	801.84
439.646	828.06
440.021	781.28
440.395	789.19
440.77	780.15
441.145	804.56
441.52	814.95
441.895	800.04
442.27	813.82
442.645	811.33
443.019	840.71
443.394	826.7
443.769	827.83
444.143	830.09
444.518	845.91
444.892	823.09
445.267	838.68
445.641	832.58
446.016	849.07
446.39	848.85
446.764	873.71
447.139	842.75
447.513	861.5
447.887	838.23
448.262	873.25
448.636	856.76
449.01	871.22
449.384	884.55
449.758	875.29
450.132	895.63
450.506	881.84
450.88	901.95
451.254	906.47
451.628	921.16
452.002	901.28
452.376	918.9
452.75	934.27
453.123	940.6
453.497	946.25
453.871	937.88
454.244	928.85
454.618	962.29
454.992	969.3
455.365	958.45
455.739	988.73
456.112	1009.75
456.486	999.35
456.859	1008.84
457.232	1018.11
457.606	1002.74
457.979	1010.88
458.352	1040.71
458.725	1038.45
459.099	1056.53
459.472	1072.34
459.845	1064.21
460.218	1095.62
460.591	1096.98
460.964	1069.18
461.337	1097.2
461.71	1133.13
462.083	1123.87
462.456	1133.81
462.829	1152.57
463.201	1118.67
463.574	1157.54
463.947	1139.01
464.32	1179.69
464.692	1187.82
465.065	1194.15
465.438	1209.52
465.81	1254.71
466.183	1210.42
466.555	1227.37
466.928	1217.43
467.3	1258.55
467.672	1240.93
468.045	1259.91
468.417	1273.7
468.789	1289.97
469.161	1268.95
469.534	1308.95
469.906	1336.29
470.278	1340.81
470.65	1331.32
471.022	1364.77
471.394	1375.39
471.766	1384.43
472.138	1412.22
472.51	1416.29
472.882	1451.09
473.253	1468.72
473.625	1457.42
473.997	1493.58
474.369	1496.74
474.74	1493.35
475.112	1508.72
475.484	1555.27
475.855	1567.25
476.227	1605.66
476.598	1608.15
476.97	1624.42
477.341	1639.56
477.713	1682.95
478.084	1687.7
478.455	1709.62
478.827	1749.16
479.198	1756.62
479.569	1786.68
479.94	1811.99
480.311	1818.54
480.682	1849.05
481.053	1910.97
481.424	1915.26
481.795	1968.14
482.166	1957.75
482.537	1959.1
482.908	2017.63
483.279	2050.62
483.65	2117.51
484.021	2136.05
484.391	2123.39
484.762	2164.75
485.133	2143.73
485.503	2213.56
485.874	2260.79
486.244	2253.78
486.615	2280.45
486.985	2363.38
487.356	2400.9
487.726	2386.89
488.097	2437.28
488.467	2476.6
488.837	2496.04
489.207	2520.89
489.578	2552.08
489.948	2592.53
490.318	2635.47
490.688	2630.72
491.058	2662.59
491.428	2734
491.798	2743.94
492.168	2833.2
492.538	2835.01
492.908	2862.81
493.278	2908.68
493.648	2857.38
494.017	2961.33
494.387	3001.56
494.757	3032.52
495.126	3049.69
495.496	3053.99
495.866	3101.9
496.235	3153.87
496.605	3172.85
496.974	3198.62
497.344	3222.8
497.713	3284.72
498.082	3340.99
498.452	3332.85
498.821	3334.88
499.19	3398.16
499.559	3385.05
499.928	3463.02
500.298	3411.04
500.667	3496.01
501.036	3485.84
501.405	3545.95
501.774	3558.83
502.143	3583.47
502.512	3617.14
502.88	3658.27
503.249	3695.78
503.618	3671.15
503.987	3700.75
504.356	3747.75
504.724	3822.55
505.093	3788.66
505.462	3815.1
505.83	3858.49
506.199	3857.81
506.567	3918.15
506.936	3963.57
507.304	3987.3
507.672	4002.21
508.041	3998.14
508.409	4056.45
508.777	4115.65
509.145	4139.16
509.514	4125.6
509.882	4185.94
510.25	4175.09
510.618	4230.45
510.986	4239.27
511.354	4309.1
511.722	4300.06
512.09	4354.52
512.458	4348.64
512.826	4386.16
513.193	4421.64
513.561	4415.99
513.929	4503.44
514.297	4576.89
514.664	4591.8
515.032	4580.73
515.4	4588.86
515.767	4632.48
516.135	4644
516.502	4667.73
516.869	4790.21
517.237	4739.14
517.604	4768.07
517.972	4807.16
518.339	4867.73
518.706	4854.39
519.073	4950.21
519.44	4934.62
519.808	5003.99
520.175	4963.32
520.542	5047.16
520.909	5034.5
521.276	5052.58
521.643	5149.07
522.009	5179.58
522.376	5156.53
522.743	5157.66
523.11	5296.41
523.477	5324.66
523.843	5369.18
524.21	5421.61
524.577	5412.34
524.943	5483.08
525.31	5521.72
525.676	5532.79
526.043	5568.27
526.409	5572.34
526.776	5610.08
527.142	5649.63
527.508	5680.59
527.874	5765.55
528.241	5736.18
528.607	5737.08
528.973	5809.62
529.339	5834.93
529.705	5898.66
530.071	5889.85
530.437	5996.06
530.803	5996.06
531.169	6055.04
531.535	6018.66
531.901	6064.76
532.267	6070.63
532.632	6110.4
532.998	6133.45
533.364	6207.35
533.73	6226.79
534.095	6300.91
534.461	6304.3
534.826	6303.39
535.192	6340.91
535.557	6361.02
535.923	6354.47
536.288	6391.75
536.653	6439.89
537.019	6434.24
537.384	6465.42
537.749	6482.15
538.114	6522.82
538.479	6543.61
538.845	6523.73
539.21	6588.81
539.575	6638.75
539.94	6614.35
540.305	6666.1
540.67	6648.7
541.034	6701.12
541.399	6732.08
541.764	6780.9
542.129	6836.49
542.494	6807.56
542.858	6902.47
543.223	6936.82
543.587	6935.92
543.952	6948.35
544.316	6962.13
544.681	7024.05
545.045	7057.95
545.41	7122.81
545.774	7121.68
546.138	7164.84
546.503	7199.64
546.867	7153.09
547.231	7204.16
547.595	7258.62
547.959	7292.52
548.324	7345.17
548.688	7370.48
549.052	7342.91
549.416	7409.35
549.779	7486.87
550.143	7497.26
550.507	7516.92
550.871	7584.26
551.235	7584.72
551.599	7677.82
551.962	7774.32
552.326	7658.84
552.689	7793.07
553.053	7866.06
553.417	7812.28
553.78	7925.95
554.143	7954.65
554.507	8047.08
554.87	8063.12
555.234	8193.06
555.597	8146.73
555.96	8204.59
556.323	8283
556.686	8321.65
557.05	8343.34
557.413	8370.68
557.776	8471.7
558.139	8513.28
558.502	8582.2
558.865	8643.9
559.228	8744.69
559.59	8767.51
559.953	8781.29
560.316	8902.2
560.679	9022.87
561.041	9041.85
561.404	9090.44
561.767	9257.89
562.129	9270.55
562.492	9376.53
562.854	9358
563.217	9457.43
563.579	9524.33
563.941	9617.66
564.304	9728.84
564.666	9870.76
565.028	9891.1
565.39	9882.96
565.753	10140.13
566.115	10198.88
566.477	10279.33
566.839	10376.51
567.201	10486.79
567.563	10590.29
567.925	10720.9
568.287	10755.93
568.648	10849.71
569.01	11048.35
569.372	11276.14
569.734	11272.3
570.095	11468.91
570.457	11636.13
570.819	11729.47
571.18	11840.2
571.542	11943.02
571.903	12152.96
572.265	12346.4
572.626	12444.02
572.987	12672.94
573.349	12800.85
573.71	12987.96
574.071	13192.7
574.432	13370.33
574.794	13563.77
575.155	13749.53
575.516	13986.81
575.877	14165.79
576.238	14398.77
576.599	14588.83
576.96	14804.19
577.32	14986.56
577.681	15243.27
578.042	15528.69
578.403	15815.23
578.763	16029.01
579.124	16397.37
579.485	16600.07
579.845	17033.05
580.206	17273.5
580.566	17493.38
580.927	17809.76
581.287	18166.81
581.648	18380.14
582.008	18880.24
582.368	19014.02
582.728	19434.35
583.089	19765.19
583.449	20031.39
583.809	20500.99
584.169	20870.92
584.529	21090.8
584.889	21740.5
585.249	21991.79
585.609	22136.65
585.969	22815.95
586.329	23184.98
586.688	23475.15
587.048	23980.22
587.408	24345.63
587.768	24669.69
588.127	25142.9
588.487	25611.59
588.846	26191.01
589.206	26323.88
589.565	26954.15
589.925	27471.42
590.284	27800.91
590.643	28251.97
591.003	28732.18
591.362	29251.94
591.721	29783
592.08	30171.47
592.44	30632.25
592.799	31227.26
593.158	31534.82
593.517	32078.99
593.876	32531.63
594.235	32937.27
594.593	33449.57
594.952	34099.72
595.311	34375.88
595.67	34878.01
596.029	35496.52
596.387	35995.27
596.746	36473.45
597.104	36801.57
597.463	37333.76
597.822	37877.25
598.18	38142.1
598.538	38630.91
598.897	39227.05
599.255	39260.04
599.613	40284.2
599.972	40484.42
600.33	40947.45
600.688	41075.59
601.046	41780.65
601.404	42325.5
601.762	42461.09
602.12	43225.81
602.478	43415.86
602.836	43866.93
603.194	43989.63
603.552	44473.46
603.91	44709.84
604.268	45202.71
604.625	45330.62
604.983	45910.26
605.341	46044.04
605.698	46497.59
606.056	46931.93
606.413	47113.62
606.771	47549.54
607.128	47780.04
607.485	47832.7
607.843	48149.98
608.2	48550.19
608.557	48794.03
608.914	49081.48
609.272	49370.28
609.629	49565.31
609.986	49804.85
610.343	49921
610.7	50311.95
611.057	50463.14
611.414	50548.11
611.771	50691.38
612.127	51019.05
612.484	51033.74
612.841	51245.94
613.198	51357.35
613.554	51507.63
613.911	51796.66
614.267	51835.98
614.624	51958.46
614.98	52114.84
615.337	52341.96
615.693	52432.58
616.05	52538.56
616.406	52663.76
616.762	52738.33
617.118	52805
617.475	52869.17
617.831	53100.13
618.187	53130.86
618.543	53288.37
618.899	53547.12
619.255	53480.68
619.611	53445.43
619.967	53620.57
620.323	53807.46
620.678	53714.12
621.034	53656.05
621.39	53829.15
621.746	53782.15
622.101	54179.2
622.457	53910.96
622.812	54145.75
623.168	54205.64
623.523	54152.53
623.879	54330.38
624.234	54194.11
624.589	54242.25
624.945	54379.64
625.3	54450.15
625.655	54445.63
626.01	54448.57
626.365	54491.28
626.72	54537.61
627.075	54466.19
627.43	54573.54
627.785	54494.89
628.14	54674.55
628.495	54625.51
628.85	54689.69
629.205	54579.19
629.559	54794.55
629.914	54729.01
630.269	54692.63
630.623	54640.43
630.978	54673.87
631.332	54758.39
631.687	54913.41
632.041	54706.41
632.396	54841.55
632.75	54691.27
633.104	54671.61
633.459	54572.86
633.813	54652.18
634.167	54652.4
634.521	54677.49
634.875	54751.39
635.229	54633.42
635.583	54553.2
635.937	54589.58
636.291	54547.55
636.645	54551.16
636.999	54499.19
637.352	54621.22
637.706	54402.47
638.06	54555.23
638.413	54454.9
638.767	54470.71
639.121	54561.33
639.474	54355.01
639.828	54412.86
640.181	54500.54
640.534	54479.98
640.888	54373.09
641.241	54223.72
641.594	54384.16
641.947	54469.58
642.301	54457.38
642.654	54337.16
643.007	54347.78
643.36	54347.78
643.713	54262.81
644.066	54390.26
644.419	54188.91
644.771	54090.16
645.124	53765.65
645.477	53688.81
645.83	53603.39
646.182	53492.66
646.535	53489.95
646.888	53498.31
647.24	53336.73
647.593	53521.14
647.945	53523.17
648.298	53327.02
648.65	53311.42
649.002	53202.73
649.355	53397.3
649.707	53383.06
650.059	53422.15
650.411	53799.55
650.763	53889.71
651.115	54088.13
651.467	53991.86
651.819	54004.74
652.171	53957.51
652.523	53908.92
652.875	53835.7
653.227	53816.04
653.578	54072.53
653.93	53931.52
654.282	53759.77
654.633	53744.63
654.985	53847
655.337	53828.47
655.688	53913.89
656.039	53941.69
656.391	53710.06
656.742	53683.84
657.094	53797.96
657.445	53942.59
657.796	53801.13
658.147	53774.69
658.498	53731.3
658.849	53792.99
659.2	53821.47
659.551	53677.74
659.902	53805.87
660.253	53749.6
660.604	53836.61
660.955	53636.84
661.306	53740.79
661.656	53720
662.007	53700.34
662.358	53686.78
662.708	53693.33
663.059	53731.3
663.409	53468.48
663.76	53743.28
664.11	53611.98
664.461	53764.29
664.811	53740.79
665.161	53600.46
665.511	53485.66
665.862	53677.74
666.212	53780.79
666.562	53709.15
666.912	53650.62
667.262	53638.42
667.612	53606.33
667.962	53546.9
668.312	53551.19
668.662	53695.59
669.011	53569.72
669.361	53590.74
669.711	53480.68
670.06	53518.65
670.41	53409.5
670.76	53338.32
671.109	53477.75
671.459	53455.37
671.808	53393.68
672.157	53530.85
672.507	53232.56
672.856	53252.89
673.205	53293.57
673.554	53383.06
673.904	53181.71
674.253	53373.57
674.602	53297.86
674.951	52830.53
675.3	52627.37
675.649	53191.43
675.998	53110.75
676.346	53121.82
676.695	53297.19
677.044	52924.77
677.393	52969.96
677.741	53094.93
678.09	52989.17
678.438	52934.03
678.787	53110.07
679.135	53012
679.484	52806.35
679.832	52922.51
680.181	52670.08
680.529	52852
680.877	52746.47
681.225	52708.95
681.573	52847.93
681.922	52721.61
682.27	52575.4
682.618	52565.23
682.966	52465.8
683.314	52572.69
683.661	52512.8
684.009	52333.37
684.357	52256.99
684.705	52234.62
685.053	52322.97
685.4	52216.54
685.748	52087.73
686.095	52001.85
686.443	51877.11
686.79	51935.87
687.138	51999.59
687.485	51965.92
687.832	51720.73
688.18	51715.53
688.527	51583.78
688.874	51664.01
689.221	51502.21
689.568	51377.01
689.915	51421.98
690.262	51313.51
690.609	51224.7
690.956	51171.82
691.303	51115.77
691.65	50943.58
691.997	50970.02
692.344	50771.15
692.69	50826.52
693.037	50733.19
693.383	50460.88
693.73	50626.52
694.077	50394.44
694.423	50426.08
694.769	50350.6
695.116	50217.95
695.462	50133.2
695.808	49969.82
696.155	50031.28
696.501	49702.7
696.847	49805.98
697.193	49500.22
697.539	49562.6
697.885	49402.6
698.231	49256.39
698.577	49203.28
698.923	49086.22
699.269	48942.27
699.614	48736.4
699.96	48714.71
700.306	48811.2
700.651	48595.61
700.997	48486.92
701.342	48398.78
701.688	48362.63
702.033	48237.21
702.379	48094.61
702.724	47952.24
703.069	48240.37
703.415	47742.53
703.76	47801.96
704.105	47778.24
704.45	47617.79
704.795	47315.2
705.14	47268.64
705.485	47238.59
705.83	47117.46
706.175	47185.48
706.52	46944.13
706.865	46830.24
707.209	46909.78
707.554	46513.86
707.899	46726.74
708.243	46416.46
708.588	46481.77
708.932	46069.35
709.277	46113.19
709.621	46189.12
709.966	45865.74
710.31	45865.74
710.654	45579.2
710.998	45681.34
711.342	45727.67
711.687	45589.82
712.031	45452.65
712.375	45377.62
712.719	45497.17
713.063	45249.26
713.407	45346.21
713.75	45099.66
714.094	45084.52
714.438	44905.09
714.782	44969.5
715.125	44696.06
715.469	44989.83
715.812	44637.53
716.156	44358.44
716.499	44461.26
716.843	44491.32
717.186	44285.45
717.53	44471.2
717.873	44402.96
718.216	44239.35
718.559	44012.23
718.902	43869.19
719.246	43934.72
719.589	43840.03
719.932	43665.35
720.275	43682.3
720.617	43602.3
720.96	43488.18
721.303	43637.78
721.646	43582.19
721.989	43257
722.331	43484.79
722.674	43414.06
723.016	43359.37
723.359	43230.11
723.701	43232.59
724.044	42929.1
724.386	42885.71
724.729	43127.06
725.071	42940.62
725.413	42810.23
725.755	42844.81
726.097	42681.87
726.439	42455.66
726.782	42683.45
727.124	42718.26
727.465	42521.2
727.807	42481.65
728.149	42503.57
728.491	42361.2
728.833	42326.63
729.175	42360.98
729.516	42201.43
729.858	42177.93
730.199	42235.56
730.541	42116.46
730.882	42025.62
731.224	42144.03
731.565	41822.46
731.906	41809.35
732.248	41919.41
732.589	41789.69
732.93	41620.43
733.271	41689.36
733.612	41734.1
733.953	41673.99
734.294	41472.19
734.635	41414.56
734.976	41556.7
735.317	41283.04
735.658	41348.8
735.999	41463.15
736.339	41306.32
736.68	41407.33
737.021	41270.38
737.361	41037.85
737.702	41345.41
738.042	41018.41
738.383	41124.17
738.723	41053.44
739.063	40900.22
739.404	41007.34
739.744	40779.78
740.084	40745.65
740.424	40852.54
740.764	40694.81
741.104	40838.08
741.444	40616.84
741.784	40552.66
742.124	40677.18
742.464	40542.27
742.804	40473.57
743.143	40336.17
743.483	40280.81
743.823	40075.84
744.162	40191.99
744.502	40206.91
744.841	40128.04
745.181	40391.54
745.52	40079.45
745.86	40193.58
746.199	40055.73
746.538	39890.99
746.877	40137.31
747.216	40004.88
747.556	39995.16
747.895	39854.83
748.234	39748.84
748.573	39707.04
748.911	39648.73
749.25	39696.19
749.589	39545.46
749.928	39611.44
750.267	39527.83
750.605	39353.15
750.944	39403.77
751.283	39252.13
751.621	39316.31
751.96	38959.48
752.298	39086.03
752.636	39054.4
752.975	38919.49
753.313	38827.28
753.651	38886.94
753.989	38712.03
754.327	38632.26
754.666	38378.71
755.004	38632.71
755.342	38595.43
755.679	38415.77
756.017	38312.72
756.355	38354.98
756.693	38109.34
757.031	38222.78
757.368	38038.38
757.706	38013.97
758.044	37787.09
758.381	37860.76
758.719	37670.7
759.056	37811.04
759.394	37570.37
759.731	37337.83
760.068	37401.11
760.405	37255.12
760.743	37113.2
761.08	37078.4
761.417	36908.69
761.754	36905.75
762.091	36792.31
762.428	36605.2
762.765	36442.94
763.102	36722.93
763.438	36407.01
763.775	36295.83
764.112	36266
764.449	36284.07
764.785	36099.45
765.122	35966.79
765.458	35683.41
765.795	35620.59
766.131	35709.85
766.467	35555.05
766.804	35357.77
767.14	35303.99
767.476	35202.97
767.812	35025.58
768.148	35236.87
768.485	34860.38
768.821	34688.86
769.157	34697.68
769.492	34494.74
769.828	34464.24
770.164	34176.11
770.5	34180.85
770.836	34203
771.171	33929.56
771.507	33815.89
771.842	33613.86
772.178	33653.41
772.513	33519.4
772.849	33441.21
773.184	33384.94
773.519	33331.16
773.855	33086.42
774.19	32926.2
774.525	33016.82
774.86	32844.16
775.195	32829.25
775.53	32702.93
775.865	32497.06
776.2	32260.68
776.535	32068.59
776.87	32095.26
777.205	32041.47
777.539	31858.88
777.874	31884.42
778.209	31512.67
778.543	31516.97
778.878	31295.05
779.212	31283.3
779.547	31294.83
779.881	31231.55
780.215	31007.83
780.55	31007.38
780.884	30695.75
781.218	30762.86
781.552	30813.48
781.886	30522.19
782.22	30278.36
782.554	30398.35
782.888	30074.29
783.222	29930.79
783.556	29826.39
783.889	29653.51
784.223	29559.28
784.557	29588.66
784.89	29632.95
785.224	29394.09
785.557	29162.45
785.891	29218.27
786.224	29036.36
786.558	28990.93
786.891	28776.25
787.224	28632.52
787.557	28494.22
787.891	28493.09
788.224	28656.93
788.557	28503.94
788.89	28504.84
789.223	28335.81
789.556	28170.39
789.888	28040.9
790.221	27922.26
790.554	27791.64
790.887	27749.84
791.219	27672.78
791.552	27698.99
791.884	27538.99
792.217	27376.51
792.549	27333.12
792.882	27054.94
793.214	27041.61
793.546	27021.27
793.879	27000.02
794.211	26734.04
794.543	26835.51
794.875	26634.16
795.207	26797.09
795.539	26533.37
795.871	26527.72
796.203	26304.22
796.535	26155.75
796.867	26103.1
797.198	26121.86
797.53	26052.93
797.862	25888.42
798.193	25899.26
798.525	25729.32
798.856	25792.6
799.188	25438.94
799.519	25452.95
799.85	25329.56
800.182	25369.11
800.513	25304.02
800.844	25102.9
801.175	25246.85
801.506	25097.7
801.837	24954.2
802.168	24795.34
802.499	24768.22
802.83	24755.11
803.161	24739.29
803.491	24715.79
803.822	24695.9
804.153	24547.21
804.483	24360.09
804.814	24254.33
805.145	24205.75
805.475	24125.52
805.805	23991.06
806.136	24042.14
806.466	24062.25
806.796	24000.33
807.126	23779.32
807.457	23765.76
807.787	23884.17
808.117	23555.6
808.447	23568.7
808.777	23591.75
809.107	23585.2
809.436	23453.68
809.766	23410.74
810.096	23379.33
810.426	23166.23
810.755	23165.32
811.085	23052.33
811.414	23107.02
811.744	22936.63
812.073	22826.8
812.403	22825.67
812.732	22650.08
813.061	22660.25
813.39	22581.84
813.719	22552.46
814.049	22610.54
814.378	22491.22
814.707	22401.95
815.036	22462.97
815.365	22206.7
815.693	22075.63
816.022	22131.23
816.351	22079.48
816.68	21903.66
817.008	22017.56
817.337	21791.12
817.665	21785.92
817.994	21820.27
818.322	21729.65
818.651	21541.86
818.979	21642.65
819.307	21702.76
819.636	21655.08
819.964	21324.02
820.292	21563.33
820.62	21524.91
820.948	21427.97
821.276	21468.64
821.604	21336.44
821.932	21359.72
822.259	21466.16
822.587	21317.01
822.915	21278.37
823.243	21428.42
823.57	21308.87
823.898	21454.86
824.225	21394.3
824.553	21191.59
824.88	21351.81
825.207	21363.11
825.535	21372.38
825.862	21273.85
826.189	21256.67
826.516	21358.14
826.843	21358.59
827.17	21315.43
827.497	21434.52
827.824	21299.61
828.151	21296.9
828.478	21302.1
828.805	21347.52
829.131	21260.74
829.458	21212.61
829.785	21102.55
830.111	21200.63
830.438	21280.85
830.764	21259.38
831.09	21258.25
831.417	21194.98
831.743	21277.24
832.069	21320.85
832.395	21164.47
832.722	21169.9
833.048	21102.78
833.374	21096.45
833.7	21112.27
834.026	21023.68
834.351	21162.21
834.677	21021.65
835.003	21071.14
835.329	21071.82
835.654	21025.27
835.98	20938.04
836.306	20886.96
836.631	20774.43
836.956	20859.4
837.282	20905.5
837.607	20716.57
837.932	20799.74
838.258	20702.34
838.583	20685.39
838.908	20632.28
839.233	20616.46
839.558	20532.85
839.883	20547.76
840.208	20394.1
840.533	20497.6
840.858	20493.98
841.182	20506.41
841.507	20426.64
841.832	20302.35
842.156	20224.38
842.481	20280.43
842.805	20216.7
843.13	20296.92
843.454	20164.27
843.778	20117.27
844.103	20132.18
844.427	19821.68
844.751	20000.66
845.075	19949.14
845.399	19864.84
845.723	19692.87
846.047	19737.39
846.371	19484.52
846.695	19555.7
847.019	19428.92
847.343	19326.33
847.666	19311.41
847.99	19179.44
848.313	19256.5
848.637	19123.4
848.96	19044.3
849.284	18931.31
849.607	18929.73
849.931	18848.37
850.254	18701.03
850.577	18614.03
850.9	18448.16
851.223	18395.96
851.546	18392.12
851.869	18310.76
852.192	18311.67
852.515	18118.45
852.838	18082.52
853.161	18103.99
853.483	17986.02
853.806	17950.32
854.129	17900.15
854.451	17706.94
854.774	17732.47
855.096	17672.59
855.419	17633.94
855.741	17548.3
856.063	17466.49
856.385	17441.86
856.708	17297.23
857.03	17299.94
857.352	17275.99
857.674	17202.77
857.996	17163.45
858.318	17043.9
858.64	17155.09
858.961	17062.43
859.283	16953.28
859.605	16849.33
859.926	16892.95
860.248	16862.89
860.57	16743.8
860.891	16764.36
861.212	16637.59
861.534	16710.58
861.855	16598.72
862.176	16621.54
862.498	16567.3
862.819	16653.63
863.14	16472.62
863.461	16444.14
863.782	16339.51
864.103	16436.69
864.424	16428.78
864.745	16448.66
865.065	16274.2
865.386	16276.24
865.707	16288.44
866.027	16179.07
866.348	16143.81
866.668	16172.74
866.989	16059.52
867.309	16033.76
867.63	16157.37
867.95	16065.17
868.27	16037.15
868.59	16042.12
868.91	15943.14
869.23	15925.06
869.55	15794.67
869.87	15860.43
870.19	15866.76
870.51	15813.88
870.83	15864.27
871.15	15714.45
871.469	15774.78
871.789	15722.13
872.109	15740.66
872.428	15713.54
872.748	15662.47
873.067	15695.46
873.386	15720.55
873.706	15522.59
874.025	15582.47
874.344	15410.27
874.663	15577.73
874.982	15427.45
875.301	15405.3
875.62	15354.46
875.939	15331.4
876.258	15375.7
876.577	15346.55
876.896	15357.62
877.214	15260.9
877.533	15289.6
877.852	15195.59
878.17	15268.13
878.489	15158.08
878.807	15093.9
879.125	15168.25
879.444	15157.62
879.762	15081.92
880.08	15147
880.398	14904.07
880.716	15048.7
881.034	14947.69
881.352	14935.26
881.67	14901.13
881.988	14881.7
882.306	14762.83
882.624	14819.33
882.941	14773
883.259	14686.68
883.577	14667.24
883.894	14597.41
884.212	14633.57
884.529	14623.63
884.846	14596.73
885.164	14587.92
885.481	14498.88
885.798	14449.17
886.115	14351.54
886.432	14340.7
886.75	14365.78
887.067	14340.24
887.383	14248.04
887.7	14262.73
888.017	14236.29
888.334	14267.48
888.651	14232.9
888.967	14114.26
889.284	14125.33
889.6	13998.11
889.917	13950.42
890.233	13999.69
890.55	13970.76
890.866	13860.03
891.182	13850.54
891.498	13836.98
891.815	13722.18
892.131	13684.89
892.447	13745.01
892.763	13704.1
893.079	13630.66
893.395	13578.23
893.71	13582.52
894.026	13439.93
894.342	13477.89
894.657	13310.21
894.973	13283.55
895.289	13284.45
895.604	13290.78
895.92	13317.45
896.235	13208.75
896.55	13132.82
896.865	13115.19
897.181	12996.1
897.496	13031.13
897.811	12952.26
898.126	12940.06
898.441	12912.03
898.756	12882.2
899.071	12790.23
899.386	12779.38
899.7	12710.46
900.015	12591.14
900.33	12486.28
900.644	12488.54
900.959	12536.9
901.273	12363.8
901.588	12356.34
901.902	12305.04
902.216	12285.61
902.531	12210.58
902.845	12167.19
903.159	12160.19
903.473	12138.95
903.787	12081.55
904.101	11986.18
904.415	12011.72
904.729	11921.55
905.042	11843.59
905.356	11860.08
905.67	11751.84
905.984	11750.26
906.297	11733.99
906.611	11681.78
906.924	11653.99
907.237	11602.46
907.551	11538.96
907.864	11488.79
908.177	11510.04
908.491	11420.32
908.804	11321.11
909.117	11419.19
909.43	11326.76
909.743	11186.88
910.056	11185.3
910.368	11091.29
910.681	11068.69
910.994	11066.66
911.307	10894.23
911.619	10939.66
911.932	10920.45
912.244	10862.14
912.557	10857.62
912.869	10787.12
913.181	10736.72
913.494	10691.98
913.806	10590.74
914.118	10602.04
914.43	10509.38
914.742	10544.86
915.054	10420.57
915.366	10419.22
915.678	10329.5
915.99	10309.62
916.302	10292.89
916.613	10224.65
916.925	10245.21
917.236	10184.42
917.548	10038.21
917.859	10038.66
918.171	10060.13
918.482	9989.85
918.794	9859.68
919.105	9972.45
919.416	9823.08
919.727	9867.59
920.038	9783.3
920.349	9743.08
920.66	9711.89
920.971	9715.28
921.282	9648.39
921.593	9574.04
921.903	9510.31
922.214	9461.95
922.525	9475.06
922.835	9383.76
923.146	9374.73
923.456	9320.26
923.767	9205.69
924.077	9259.25
924.387	9117.1
924.697	9156.65
925.008	9102.42
925.318	9074.85
925.628	9024.68
925.938	8979.03
926.248	8913.04
926.558	8918.24
926.867	8859.03
927.177	8893.16
927.487	8810.22
927.796	8720.28
928.106	8762.31
928.416	8671.24
928.725	8677.79
929.034	8593.73
929.344	8646.83
929.653	8574.97
929.962	8479.16
930.271	8468.53
930.581	8487.29
930.89	8417.91
931.199	8351.02
931.508	8334.3
931.817	8340.85
932.125	8228.09
932.434	8222.89
932.743	8122.55
933.051	8141.09
933.36	8081.65
933.669	8080.3
933.977	7969.79
934.286	7965.72
934.594	7981.09
934.902	7946.97
935.21	7885.5
935.519	7878.49
935.827	7821.09
936.135	7827.42
936.443	7695.67
936.751	7689.8
937.059	7638.73
937.367	7573.87
937.674	7584.94
937.982	7624.94
938.29	7558.28
938.597	7527.54
938.905	7479.41
939.213	7434.44
939.52	7369.58
939.827	7403.25
940.135	7367.55
940.442	7354.44
940.749	7288.23
941.056	7299.3
941.363	7249.13
941.67	7204.84
941.977	7090.04
942.284	7087.1
942.591	7069.25
942.898	7071.06
943.205	7034.45
943.511	7018.18
943.818	6958.07
944.125	6935.92
944.431	6921.68
944.738	6929.14
945.044	6833.78
945.35	6815.92
945.657	6726.89
945.963	6780.67
946.269	6740.67
946.575	6668.81
946.881	6692.08
947.187	6627.23
947.493	6614.12
947.799	6619.77
948.105	6505.42
948.41	6492.54
948.716	6534.35
949.022	6463.16
949.327	6419.55
949.633	6374.35
949.938	6361.47
950.244	6356.27
950.549	6307.46
950.854	6264.52
951.16	6276.05
951.465	6277.18
951.77	6195.83
952.075	6184.98
952.38	6124.64
952.685	6111.99
952.99	6086.22
953.294	6109.27
953.599	6105.43
953.904	5990.63
954.209	6013.23
954.513	5985.21
954.818	5931.65
955.122	5931.43
955.426	5877.19
955.731	5874.7
956.035	5850.3
956.339	5819.34
956.643	5790.41
956.948	5742.05
957.252	5745.67
957.556	5728.27
957.86	5658.66
958.163	5674.71
958.467	5658.44
958.771	5606.69
959.075	5611.21
959.378	5549.29
959.682	5541.61
959.985	5542.74
960.289	5518.56
960.592	5492.34
960.896	5461.61
961.199	5417.09
961.502	5374.83
961.805	5347.49
962.108	5286.47
962.411	5299.58
962.714	5223.42
963.017	5256.19
963.32	5301.16
963.623	5218.9
963.926	5254.38
964.228	5141.16
964.531	5139.36
964.833	5157.66
965.136	5104.1
965.438	5106.59
965.741	5125.8
966.043	4981.17
966.345	5015.74
966.648	4992.92
966.95	4955.63
967.252	4962.41
967.554	4912.02
967.856	4911.57
968.158	4848.97
968.46	4885.35
968.761	4884.67
969.063	4821.17
969.365	4810.78
969.666	4756.32
969.968	4748.41
970.269	4721.51
970.571	4737.79
970.872	4707.05
971.174	4613.04
971.475	4650.56
971.776	4613.95
972.077	4664.79
972.378	4606.04
972.679	4608.52
972.98	4529.43
973.281	4550.22
973.582	4539.6
973.883	4492.37
974.183	4472.48
974.484	4476.77
974.785	4412.82
975.085	4436.32
975.386	4415.76
975.686	4404.46
975.986	4359.49
976.287	4322.43
976.587	4311.13
976.887	4265.26
977.187	4237.01
977.487	4258.93
977.787	4223.45
978.087	4194.07
978.387	4179.16
978.687	4179.38
978.987	4142.77
979.286	4130.34
979.586	4141.42
979.885	4088.54
980.185	4065.03
980.484	4045.83
980.784	4031.36
981.083	4007.41
981.382	3973.51
981.682	3981.19
981.981	3987.07
982.28	3929.44
982.579	3919.73
982.878	3898.26
983.177	3920.86
983.475	3861.65
983.774	3809
984.073	3877.47
984.372	3797.02
984.67	3792.73
984.969	3811.03
985.267	3772.16
985.566	3740.07
985.864	3747.08
986.162	3711.82
986.461	3660.3
986.759	3652.84
987.057	3655.1
987.355	3633.86
987.653	3632.05
987.951	3646.74
988.249	3615.1
988.547	3579.4
988.844	3578.27
989.142	3550.47
989.44	3510.92
989.737	3502.11
990.035	3510.47
990.332	3499.17
990.63	3484.03
990.927	3456.91
991.224	3406.29
991.521	3423.02
991.819	3392.74
992.116	3382.11
992.413	3410.14
992.71	3346.86
993.006	3354.09
993.303	3321.55
993.6	3274.55
993.897	3265.06
994.193	3278.39
994.49	3222.57
994.787	3221.67
995.083	3223.93
995.379	3201.78
995.676	3215.57
995.972	3152.06
996.268	3161.56
996.565	3110.94
996.861	3104.38
997.157	3111.16
997.453	3088.34
997.749	3077.94
998.044	3071.39
998.34	3026.19
998.636	3032.75
998.932	3010.6
999.227	3017.83
999.523	2997.72
999.818	2948.91
1000.114	2930.83
1000.409	2922.24
1000.704	2885.4
1001	2898.29
1001.295	2867.55
1001.59	2875.46
1001.885	2849.47
1002.18	2805.86
1002.475	2807.89
1002.77	2798.85
1003.065	2769.25
1003.359	2771.51
1003.654	2753.88
1003.949	2747.33
1004.243	2733.09
1004.538	2679.99
1004.832	2703.71
1005.127	2694.9
1005.421	2669.36
1005.715	2655.81
1006.009	2633.66
1006.304	2616.48
1006.598	2627.78
1006.892	2551.63
1007.186	2552.76
1007.48	2500.56
1007.773	2506.43
1008.067	2519.99
1008.361	2505.08
1008.655	2501.23
1008.948	2454.68
1009.242	2447.22
1009.535	2466.66
1009.829	2394.57
1010.122	2412.2
1010.415	2430.73
1010.708	2387.56
1011.001	2372.42
1011.295	2385.98
1011.588	2348.92
1011.881	2333.55
1012.173	2313.44
1012.466	2315.48
1012.759	2286.32
1013.052	2275.93
1013.344	2277.51
1013.637	2237.06
1013.93	2257.17
1014.222	2204.97
1014.514	2251.75
1014.807	2194.58
1015.099	2121.13
1015.391	2154.58
1015.683	2174.69
1015.976	2164.97
1016.268	2123.16
1016.56	2140.11
1016.851	2096.72
1017.143	2106.67
1017.435	2091.07
1017.727	2033.68
1018.018	2080.91
1018.31	2019.66
1018.602	2017.18
1018.893	1993.45
1019.185	1990.96
1019.476	1945.99
1019.767	1984.41
1020.058	1950.06
1020.35	1915.94
1020.641	1897.86
1020.932	1906.45
1021.223	1897.86
1021.514	1876.17
1021.804	1870.06
1022.095	1871.42
1022.386	1852.89
1022.677	1848.14
1022.967	1784.42
1023.258	1814.02
1023.548	1788.94
1023.839	1784.87
1024.129	1772.67
1024.419	1788.26
1024.709	1753.46
1025	1745.1
1025.29	1736.06
1025.58	1680.01
1025.87	1682.27
1026.16	1702.38
1026.449	1651.99
1026.739	1649.28
1027.029	1661.48
1027.319	1627.13
1027.608	1638.66
1027.898	1593.01
1028.187	1602.27
1028.477	1629.84
1028.766	1570.18
1029.055	1552.11
1029.344	1568.83
1029.634	1569.96
1029.923	1525.67
1030.212	1556.4
1030.501	1533.58
1030.79	1505.55
1031.078	1467.59
1031.367	1489.51
1031.656	1463.97
1031.945	1471.2
1032.233	1444.76
1032.522	1446.35
1032.81	1433.01
1033.099	1429.85
1033.387	1397.99
1033.675	1409.51
1033.963	1401.15
1034.251	1368.16
1034.54	1352.56
1034.828	1339.23
1035.116	1389.85
1035.403	1346.24
1035.691	1347.59
1035.979	1337.87
1036.267	1307.59
1036.554	1299.91
1036.842	1291.77
1037.129	1292.68
1037.417	1260.59
1037.704	1273.24
1037.992	1247.26
1038.279	1235.05
1038.566	1221.95
1038.853	1221.95
1039.14	1221.95
