Data from orange_diffuse_book_FLMS001491_00017.txt Node
Date: Wed Feb 08 15:29:12 GMT 2017
User: dcchb
Spectrometer: FLMS00149
Trigger mode: 0
Integration Time (sec): 2.000000E-2
Scans to average: 10
Electric dark correction enabled: true
Nonlinearity correction enabled: false
Boxcar width: 0
XAxis mode: Wavelengths
Number of Pixels in Spectrum: 2048
>>>>>Begin Spectral Data<<<<<
341.393	-11.69
341.776	-11.69
342.16	-11.69
342.543	-53.28
342.927	-63.9
343.31	-76.78
343.693	-81.98
344.077	-65.93
344.46	-51.02
344.843	-52.37
345.226	-50.11
345.61	-15.31
345.993	4.12
346.376	-12.6
346.759	8.87
347.142	12.94
347.525	55.87
347.908	73.05
348.291	44.8
348.674	101.07
349.057	105.36
349.44	146.27
349.823	146.72
350.206	182.88
350.588	220.62
350.971	231.01
351.354	232.37
351.737	255.42
352.119	254.74
352.502	277.79
352.884	279.37
353.267	293.16
353.65	313.27
354.032	298.35
354.414	324.12
354.797	344.91
355.179	327.51
355.562	332.03
355.944	312.59
356.326	345.36
356.709	334.28
357.091	352.14
357.473	363.21
357.855	354.17
358.238	367.5
358.62	341.52
359.002	363.21
359.384	351.91
359.766	349.2
360.148	322.31
360.53	358.69
360.912	359.6
361.294	345.81
361.676	350.33
362.057	332.03
362.439	339.03
362.821	321.63
363.203	357.11
363.584	331.12
363.966	333.38
364.348	350.1
364.729	322.99
365.111	312.82
365.493	345.58
365.874	340.61
366.256	347.62
366.637	344
367.019	323.66
367.4	315.53
367.781	338.35
368.163	316.88
368.544	329.31
368.925	328.64
369.306	339.48
369.688	327.73
370.069	323.89
370.45	319.6
370.831	339.93
371.212	334.74
371.593	332.93
371.974	343.32
372.355	327.73
372.736	301.29
373.117	324.57
373.498	331.57
373.879	323.66
374.26	331.35
374.641	343.1
375.021	343.78
375.402	324.34
375.783	334.06
376.163	337.9
376.544	332.25
376.925	341.52
377.305	339.26
377.686	333.61
378.066	348.3
378.447	342.87
378.827	339.03
379.208	344
379.588	347.62
379.968	351.01
380.349	333.38
380.729	344.68
381.109	336.32
381.489	352.36
381.87	338.35
382.25	361.85
382.63	355.75
383.01	333.38
383.39	358.69
383.77	351.01
384.15	357.11
384.53	358.47
384.91	348.3
385.29	347.84
385.67	362.53
386.049	364.34
386.429	376.09
386.809	371.12
387.189	377
387.568	360.05
387.948	366.83
388.328	355.98
388.707	369.09
389.087	366.37
389.466	384
389.846	384.68
390.225	377
390.605	372.7
390.984	374.06
391.363	361.18
391.743	393.27
392.122	382.19
392.501	387.62
392.881	389.88
393.26	400.05
393.639	375.41
394.018	414.51
394.397	377.67
394.776	380.84
395.155	399.59
395.534	412.7
395.913	378.58
396.292	405.24
396.671	403.44
397.05	409.99
397.429	404.11
397.808	398.24
398.186	412.48
398.565	414.28
398.944	413.6
399.323	411.12
399.701	406.83
400.08	404.79
400.458	423.1
400.837	411.57
401.215	423.77
401.594	414.28
401.972	416.77
402.351	422.87
402.729	426.49
403.107	431.23
403.486	411.8
403.864	430.55
404.242	428.52
404.62	449.99
404.999	425.13
405.377	430.1
405.755	421.06
406.133	469.87
406.511	448.63
406.889	449.08
407.267	452.02
407.645	457.45
408.023	450.44
408.401	465.35
408.779	453.6
409.156	455.41
409.534	450.67
409.912	461.29
410.29	484.34
410.667	498.57
411.045	474.17
411.422	475.52
411.8	490.67
412.178	498.12
412.555	472.36
412.933	471.23
413.31	487.73
413.687	496.09
414.065	502.64
414.442	495.86
414.819	499.48
415.197	511.68
415.574	514.17
415.951	525.47
416.328	529.31
416.705	527.73
417.082	538.57
417.46	528.4
417.837	520.95
418.214	523.88
418.591	556.88
418.967	538.35
419.344	554.84
419.721	545.35
420.098	566.6
420.475	559.14
420.852	539.7
421.228	562.3
421.605	588.52
421.982	552.13
422.358	565.24
422.735	552.81
423.111	563.43
423.488	597.1
423.864	581.96
424.241	608.63
424.617	597.55
424.994	598.46
425.37	616.09
425.746	607.5
426.123	589.87
426.499	606.37
426.875	616.09
427.251	610.44
427.627	617.67
428.003	632.13
428.379	637.55
428.756	636.65
429.132	656.99
429.507	652.92
429.883	655.86
430.259	648.4
430.635	652.47
431.011	674.84
431.387	692.92
431.763	668.29
432.138	686.82
432.514	700.15
432.89	681.62
433.265	704.44
433.641	699.02
434.016	728.62
434.392	732.69
434.767	718.91
435.143	741.73
435.518	718.46
435.894	738.57
436.269	739.25
436.644	749.87
437.02	775.18
437.395	768.85
437.77	771.56
438.145	774.5
438.52	789.19
438.895	791.45
439.271	810.43
439.646	775.86
440.021	789.19
440.395	806.14
440.77	781.96
441.145	802.97
441.52	822.18
441.895	821.96
442.27	827.15
442.645	812.01
443.019	843.88
443.394	823.99
443.769	840.49
444.143	848.62
444.518	852.69
444.892	829.64
445.267	843.88
445.641	854.05
446.016	862.86
446.39	901.5
446.764	866.02
447.139	865.12
447.513	867.6
447.887	877.1
448.262	869.64
448.636	895.63
449.01	878.9
449.384	904.21
449.758	908.28
450.132	917.32
450.506	896.53
450.88	907.38
451.254	893.37
451.628	906.25
452.002	945.12
452.376	938.56
452.75	945.34
453.123	938.34
453.497	971.56
453.871	960.94
454.244	956.64
454.618	966.13
454.992	998.22
455.365	969.97
455.739	1005.68
456.112	997.32
456.486	996.64
456.859	1040.93
457.232	1028.28
457.606	1009.07
457.979	1034.61
458.352	1045
458.725	1094.72
459.099	1064.89
459.472	1066.24
459.845	1096.3
460.218	1069.18
460.591	1102.4
460.964	1109.86
461.337	1114.6
461.71	1130.87
462.083	1148.27
462.456	1141.04
462.829	1173.36
463.201	1153.25
463.574	1165.45
463.947	1187.14
464.32	1181.49
464.692	1194.6
465.065	1195.96
465.438	1219.23
465.81	1233.7
466.183	1234.83
466.555	1265.11
466.928	1258.1
467.3	1278.67
467.672	1306.69
468.045	1290.19
468.417	1286.58
468.789	1296.29
469.161	1307.14
469.534	1336.74
469.906	1351.43
470.278	1337.87
470.65	1392.79
471.022	1409.74
471.394	1427.36
471.766	1414.26
472.138	1433.47
472.51	1466.91
472.882	1476.4
473.253	1464.2
473.625	1475.95
473.997	1521.15
474.369	1505.1
474.74	1548.26
475.112	1560.24
475.484	1576.51
475.855	1601.37
476.227	1608.6
476.598	1661.71
476.97	1662.84
477.341	1701.48
477.713	1717.53
478.084	1710.29
478.455	1765.89
478.827	1781.25
479.198	1831.42
479.569	1807.47
479.94	1864.19
480.311	1872.32
480.682	1894.02
481.053	1940.12
481.424	1992.32
481.795	2003.17
482.166	2007.69
482.537	2027.35
482.908	2076.39
483.279	2100.57
483.65	2110.28
484.021	2172.43
484.391	2193.9
484.762	2193.67
485.133	2217.4
485.503	2246.1
485.874	2321.13
486.244	2320
486.615	2361.8
486.985	2402.25
487.356	2456.04
487.726	2464.62
488.097	2510.5
488.467	2524.51
488.837	2574.68
489.207	2620.1
489.578	2632.53
489.948	2681.34
490.318	2707.1
490.688	2743.71
491.058	2767.89
491.428	2798.4
491.798	2839.53
492.168	2877.04
492.538	2922.69
492.908	2943.48
493.278	2974.22
493.648	3028
494.017	3044.95
494.387	3037.72
494.757	3101.9
495.126	3150.48
495.496	3156.58
495.866	3190.26
496.235	3238.16
496.605	3227.77
496.974	3307.31
497.344	3362
497.713	3366.3
498.082	3395.22
498.452	3419.85
498.821	3435.9
499.19	3456.01
499.559	3521.32
499.928	3503.24
500.298	3578.04
500.667	3598.15
501.036	3614.42
501.405	3645.16
501.774	3668.21
502.143	3707.76
502.512	3741.2
502.88	3771.93
503.249	3817.13
503.618	3855.77
503.987	3889.45
504.356	3848.99
504.724	3919.28
505.093	3961.99
505.462	3982.32
505.83	3951.37
506.199	3988.88
506.567	4084.02
506.936	4074.53
507.304	4152.94
507.672	4179.16
508.041	4113.85
508.409	4224.13
508.777	4236.78
509.145	4274.75
509.514	4295.76
509.882	4335.31
510.25	4401.97
510.618	4363.11
510.986	4395.2
511.354	4444.69
511.722	4457.11
512.09	4508.86
512.458	4545.7
512.826	4552.48
513.193	4559.26
513.561	4555.87
513.929	4604.68
514.297	4688.97
514.664	4727.16
515.032	4727.84
515.4	4761.06
515.767	4822.75
516.135	4794.51
516.502	4821.85
516.869	4898.68
517.237	4932.36
517.604	4955.18
517.972	5029.98
518.339	5042.86
518.706	5053.03
519.073	5036.53
519.44	5060.04
519.808	5147.49
520.175	5189.3
520.542	5224.1
520.909	5195.85
521.276	5255.29
521.643	5293.7
522.009	5366.92
522.376	5383.87
522.743	5423.19
523.11	5433.81
523.477	5499.35
523.843	5500.25
524.21	5630.87
524.577	5674.71
524.943	5666.35
525.31	5709.28
525.676	5734.59
526.043	5782.73
526.409	5837.42
526.776	5861.82
527.142	5865.89
527.508	5932.1
527.874	5966.91
528.241	6000.8
528.607	5979.11
528.973	6017.07
529.339	6088.94
529.705	6112.44
530.071	6127.13
530.437	6154.7
530.803	6211.64
531.169	6228.14
531.535	6294.81
531.901	6231.98
532.267	6273.34
532.632	6317.18
532.998	6424.97
533.364	6379.32
533.73	6386.56
534.095	6452.99
534.461	6476.04
534.826	6508.59
535.192	6546.33
535.557	6556.04
535.923	6584.97
536.288	6650.96
536.653	6675.14
537.019	6626.77
537.384	6682.37
537.749	6725.3
538.114	6701.58
538.479	6792.42
538.845	6777.51
539.21	6876.94
539.575	6858.18
539.94	6855.92
540.305	6916.94
540.67	6916.26
541.034	6894.79
541.399	7032.41
541.764	7009.82
542.129	7075.12
542.494	7049.81
542.858	7159.64
543.223	7163.94
543.587	7139.3
543.952	7197.61
544.316	7246.65
544.681	7294.55
545.045	7238.06
545.41	7289.58
545.774	7353.08
546.138	7370.48
546.503	7396.7
546.867	7421.56
547.231	7524.83
547.595	7533.19
547.959	7552.17
548.324	7557.6
548.688	7642.57
549.052	7678.5
549.416	7695.45
549.779	7697.93
550.143	7746.75
550.507	7859.96
550.871	7882.56
551.235	7894.76
551.599	7985.38
551.962	7972.73
552.326	8042.33
552.689	8077.81
553.053	8135.21
553.417	8164.81
553.78	8250.01
554.143	8231.25
554.507	8308.99
554.87	8364.36
555.234	8470.12
555.597	8360.97
555.96	8464.92
556.323	8560.06
556.686	8502.88
557.05	8674.86
557.413	8671.92
557.776	8705.59
558.139	8769.09
558.502	8937.22
558.865	8901.74
559.228	9029.65
559.59	9054.96
559.953	9093.38
560.316	9272.81
560.679	9261.06
561.041	9352.8
561.404	9443.88
561.767	9522.07
562.129	9581.95
562.492	9648.16
562.854	9722.29
563.217	9788.95
563.579	9865.11
563.941	9940.81
564.304	10057.65
564.666	10109.62
565.028	10213.8
565.39	10325.43
565.753	10441.14
566.115	10462.38
566.477	10609.5
566.839	10734.69
567.201	10848.81
567.563	10865.08
567.925	11072.31
568.287	11108.01
568.648	11245.41
569.01	11390.49
569.372	11614.44
569.734	11647.43
570.095	11776.02
570.457	11864.6
570.819	11987.99
571.18	12120.42
571.542	12359.51
571.903	12448.77
572.265	12648.09
572.626	12800.62
572.987	13041.07
573.349	13104.12
573.71	13303.44
574.071	13441.96
574.432	13748.62
574.794	13951.1
575.155	14094.6
575.516	14275.61
575.877	14493.23
576.238	14663.4
576.599	14941.36
576.96	15171.18
577.32	15332.31
577.681	15671.28
578.042	15811.62
578.403	16144.49
578.763	16407.53
579.124	16691.6
579.485	16861.53
579.845	17236.89
580.206	17488.18
580.566	17756.88
580.927	18070.77
581.287	18316.86
581.648	18669.62
582.008	19014.7
582.368	19285.88
582.728	19663.72
583.089	19943.49
583.449	20235.46
583.809	20649.68
584.169	20994.53
584.529	21339.16
584.889	21901.4
585.249	21975.52
585.609	22426.59
585.969	22938.21
586.329	23267.69
586.688	23682.6
587.048	23982.25
587.408	24499.07
587.768	24828.33
588.127	25259.73
588.487	25720.06
588.846	26304.9
589.206	26518.46
589.565	27066.24
589.925	27576.05
590.284	27923.39
590.643	28434.79
591.003	28835.46
591.362	29357.93
591.721	29687.19
592.08	30180.73
592.44	30675.86
592.799	31184.55
593.158	31549.28
593.517	32147.46
593.876	32555.13
594.235	32958.29
594.593	33458.61
594.952	33967.52
595.311	34371.81
595.67	34896.31
596.029	35498.56
596.387	35922.05
596.746	36373.79
597.104	36722.71
597.463	37144.62
597.822	37795.45
598.18	37981.66
598.538	38408.54
598.897	39048.3
599.255	39157.9
599.613	40174.37
599.972	40356.74
600.33	40900.68
600.688	41055.25
601.046	41640.09
601.404	42137.71
601.762	42575.43
602.12	43045.93
602.478	43344
602.836	43588.06
603.194	43850.88
603.552	44304.43
603.91	44605.21
604.268	45041.58
604.625	45296.04
604.983	45668.23
605.341	45874.1
605.698	46333.53
606.056	46832.5
606.413	46909.78
606.771	47224.58
607.128	47764
607.485	47678.8
607.843	47911.57
608.2	48457.99
608.557	48677.19
608.914	48755.16
609.272	49210.06
609.629	49408.7
609.986	49712.42
610.343	49595.14
610.7	50144.95
611.057	50211.17
611.414	50329.58
611.771	50515.11
612.127	50801.21
612.484	50860.19
612.841	51158.49
613.198	51187.41
613.554	51330.46
613.911	51600.51
614.267	51704.69
614.624	51738.58
614.98	51909.65
615.337	52155.75
615.693	52232.36
616.05	52262.41
616.406	52552.8
616.762	52551.67
617.118	52607.94
617.475	52725.68
617.831	52920.7
618.187	52976.29
618.543	53024.65
618.899	53284.76
619.255	53261.48
619.611	53330.63
619.967	53431.65
620.323	53606.33
620.678	53629.15
621.034	53442.95
621.39	53527.46
621.746	53579.21
622.101	53914.8
622.457	53689.04
622.812	53818.75
623.168	54044.29
623.523	53990.73
623.879	54169.71
624.234	53941.46
624.589	54068.47
624.945	54261.45
625.3	54313.43
625.655	54223.04
626.01	54298.29
626.365	54326.54
626.72	54337.84
627.075	54307.78
627.43	54353.88
627.785	54326.76
628.14	54453.77
628.495	54452.18
628.85	54513.43
629.205	54452.64
629.559	54632.07
629.914	54434.78
630.269	54496.48
630.623	54510.26
630.978	54394.78
631.332	54602.69
631.687	54598.62
632.041	54465.29
632.396	54583.03
632.75	54571.28
633.104	54596.14
633.459	54470.04
633.813	54466.19
634.167	54451.51
634.521	54451.05
634.875	54527.44
635.229	54449.02
635.583	54329.7
635.937	54431.17
636.291	54405.18
636.645	54375.58
636.999	54394.33
637.352	54389.13
637.706	54203.83
638.06	54446.99
638.413	54328.35
638.767	54276.37
639.121	54358.4
639.474	54105.98
639.828	54113.44
640.181	54339.19
640.534	54317.5
640.888	54180.55
641.241	54097.62
641.594	54134
641.947	54225.52
642.301	54170.38
642.654	54185.07
643.007	54190.95
643.36	54202.7
643.713	54071.86
644.066	54212.87
644.419	53981.24
644.771	53856.04
645.124	53569.5
645.477	53526.78
645.83	53349.84
646.182	53267.13
646.535	53212.89
646.888	53343.29
647.24	53086.57
647.593	53320.91
647.945	53376.51
648.298	53149.85
648.65	53153.69
649.002	52992.34
649.355	53124.99
649.707	53107.13
650.059	53284.98
650.411	53653.79
650.763	53639.1
651.115	53925.64
651.467	53840.67
651.819	53800.45
652.171	53766.33
652.523	53742.15
652.875	53738.53
653.227	53659.89
653.578	53906.89
653.93	53765.87
654.282	53655.82
654.633	53596.16
654.985	53550.96
655.337	53578.31
655.688	53729.94
656.039	53778.53
656.391	53554.35
656.742	53482.49
657.094	53593.22
657.445	53680.45
657.796	53609.72
658.147	53628.93
658.498	53613.56
658.849	53590.74
659.2	53577.18
659.551	53531.3
659.902	53686.1
660.253	53579.21
660.604	53605.88
660.955	53448.82
661.306	53546.45
661.656	53473.23
662.007	53568.37
662.358	53608.82
662.708	53560.46
663.059	53572.21
663.409	53322.04
663.76	53545.54
664.11	53602.26
664.461	53609.27
664.811	53605.88
665.161	53524.52
665.511	53426.67
665.862	53422.38
666.212	53606.33
666.562	53619.44
666.912	53330.41
667.262	53526.33
667.612	53423.74
667.962	53561.36
668.312	53397.52
668.662	53571.08
669.011	53408.6
669.361	53410.86
669.711	53419.44
670.06	53288.15
670.41	53261.03
670.76	53178.55
671.109	53306.45
671.459	53231.2
671.808	53195.72
672.157	53348.94
672.507	53077.76
672.856	53125.44
673.205	53153.91
673.554	53251.99
673.904	53128.15
674.253	53357.98
674.602	53060.13
674.951	52673.47
675.3	52515.29
675.649	52988.04
675.998	52964.54
676.346	53019.23
676.695	53058.1
677.044	52803.87
677.393	52905.56
677.741	52912.79
678.09	52884.77
678.438	52847.48
678.787	52936.74
679.135	52885.45
679.484	52617.43
679.832	52861.04
680.181	52576.98
680.529	52688.61
680.877	52543.53
681.225	52537.66
681.573	52805.45
681.922	52494.27
682.27	52394.84
682.618	52405.01
682.966	52273.26
683.314	52415.63
683.661	52354.39
684.009	52066.48
684.357	52075.07
684.705	51982.19
685.053	52102.87
685.4	52000.72
685.748	51840.5
686.095	51908.07
686.443	51746.04
686.79	51701.07
687.138	51770.45
687.485	51720.05
687.832	51579.94
688.18	51636.44
688.527	51426.27
688.874	51439.61
689.221	51282.1
689.568	51283.68
689.915	51218.14
690.262	51114.64
690.609	51091.59
690.956	50929.79
691.303	50944.71
691.65	50748.78
691.997	50744.71
692.344	50526.86
692.69	50558.5
693.037	50600.53
693.383	50279.19
693.73	50438.05
694.077	50129.13
694.423	50210.04
694.769	50128.68
695.116	50105.18
695.462	49950.38
695.808	49928.46
696.155	49921
696.501	49560.56
696.847	49532.31
697.193	49362.6
697.539	49446.89
697.885	49181.81
698.231	49084.87
698.577	49016.62
698.923	48858.43
699.269	48691.88
699.614	48587.03
699.96	48545.9
700.306	48548.38
700.651	48338.22
700.997	48241.95
701.342	48178.9
701.688	48134.38
702.033	48062.07
702.379	47947.5
702.724	47870.89
703.069	47893.26
703.415	47451.92
703.76	47536.21
704.105	47504.57
704.45	47397.91
704.795	47108.65
705.14	47092.83
705.485	47034.53
705.83	46876.79
706.175	46929.9
706.52	46721.31
706.865	46622.33
707.209	46548.21
707.554	46294.66
707.899	46562.22
708.243	46195.68
708.588	46167.66
708.932	45970.6
709.277	45953.65
709.621	45966.31
709.966	45542.81
710.31	45830.26
710.654	45385.3
710.998	45554.79
711.342	45416.94
711.687	45406.77
712.031	45248.81
712.375	45095.82
712.719	45315.48
713.063	45046.1
713.407	45156.84
713.75	44997.52
714.094	44926.78
714.438	44623.06
714.782	44780.12
715.125	44482.5
715.469	44708.94
715.812	44456.74
716.156	44266.46
716.499	44150.76
716.843	44320.47
717.186	44018.11
717.53	44352.56
717.873	44191.44
718.216	44012.23
718.559	43981.5
718.902	43561.62
719.246	43853.59
719.589	43609.76
719.932	43425.58
720.275	43574.05
720.617	43548.97
720.96	43476.43
721.303	43427.84
721.646	43404.56
721.989	43151.92
722.331	43254.06
722.674	43275.75
723.016	43187.62
723.359	43108.3
723.701	43082.31
724.044	42834.64
724.386	42654.08
724.729	42839.83
725.071	42689.33
725.413	42764.81
725.755	42667.86
726.097	42587.41
726.439	42408.66
726.782	42324.82
727.124	42478.26
727.465	42358.26
727.807	42210.7
728.149	42271.26
728.491	42017.71
728.833	42318.27
729.175	42068.78
729.516	42050.48
729.858	42012.74
730.199	42087.54
730.541	41889.12
730.882	41890.71
731.224	41974.55
731.565	41719.19
731.906	41774.33
732.248	41833.31
732.589	41512.41
732.93	41475.12
733.271	41499.76
733.612	41443.71
733.953	41570.49
734.294	41408.69
734.635	41303.6
734.976	41314.9
735.317	41260.21
735.658	41316.48
735.999	41249.82
736.339	41021.35
736.68	41260.44
737.021	41029.26
737.361	40860
737.702	41163.49
738.042	41025.42
738.383	40937.74
738.723	40869.94
739.063	40653
739.404	40925.31
739.744	40721.92
740.084	40620.68
740.424	40742.49
740.764	40609.16
741.104	40750.62
741.444	40400.35
741.784	40325.55
742.124	40610.06
742.464	40546.11
742.804	40186.8
743.143	40277.64
743.483	40380.46
743.823	40054.82
744.162	40055.05
744.502	40199.68
744.841	40002.62
745.181	40182.28
745.52	39901.15
745.86	40128.27
746.199	39945.9
746.538	39834.49
746.877	40031.77
747.216	39917.88
747.556	39855.96
747.895	39811.67
748.234	39705.91
748.573	39588.39
748.911	39466.59
749.25	39520.6
749.589	39363.99
749.928	39390.89
750.267	39479.7
750.605	39304.11
750.944	39198.8
751.283	39164.22
751.621	39379.59
751.96	39065.7
752.298	39027.5
752.636	38907.28
752.975	38966.94
753.313	38738.47
753.651	38750.22
753.989	38671.36
754.327	38597.23
754.666	38479.04
755.004	38499.16
755.342	38502.09
755.679	38339.39
756.017	38176.68
756.355	38399.27
756.693	38064.14
757.031	38057.13
757.368	37919.29
757.706	37973.07
758.044	37752.96
758.381	37866.63
758.719	37585.96
759.056	37650.59
759.394	37522.01
759.731	37224.61
760.068	37305.74
760.405	37068.69
760.743	37009.03
761.08	36992.76
761.417	36894.91
761.754	36872.99
762.091	36938.29
762.428	36538.76
762.765	36384.41
763.102	36665.31
763.438	36409.27
763.775	36210.86
764.112	36264.41
764.449	36327.91
764.785	36019
765.122	35826.69
765.458	35723.41
765.795	35642.74
766.131	35626.01
766.467	35442.51
766.804	35312.35
767.14	35177.21
767.476	35141.28
767.812	34869.2
768.148	35096.08
768.485	34927.73
768.821	34579.26
769.157	34613.84
769.492	34636.21
769.828	34317.8
770.164	34106.73
770.5	34075.54
770.836	34128.65
771.171	33876.23
771.507	33831.03
771.842	33601.88
772.178	33522.11
772.513	33460.65
772.849	33450.25
773.184	33192.18
773.519	33312.17
773.855	33066.53
774.19	32989.02
774.525	32860.66
774.86	32866.31
775.195	32709.03
775.53	32653.44
775.865	32380.9
776.2	32192.43
776.535	32014.58
776.87	32099.1
777.205	31841.25
777.539	31704.08
777.874	31781.14
778.209	31526.23
778.543	31456.86
778.878	31240.37
779.212	31262.74
779.547	31123.53
779.881	31223.87
780.215	30910.66
780.55	31004.44
780.884	30714.96
781.218	30585.02
781.552	30556.77
781.886	30436.77
782.22	30296.66
782.554	30262.99
782.888	30015.76
783.222	29780.06
783.556	29814.41
783.889	29600.41
784.223	29406.97
784.557	29481.32
784.89	29421.2
785.224	29358.15
785.557	29234.99
785.891	29001.33
786.224	29039.52
786.558	29032.06
786.891	28691.96
787.224	28681.11
787.557	28499.65
787.891	28628.23
788.224	28491.06
788.557	28539.19
788.89	28174.91
789.223	28267.11
789.556	28025.08
789.888	27997.51
790.221	27911.86
790.554	27713.23
790.887	27713.9
791.219	27590.29
791.552	27524.08
791.884	27517.53
792.217	27341.03
792.549	27274.37
792.882	26992.34
793.214	27007.26
793.546	27018.56
793.879	26866.24
794.211	26719.58
794.543	26623.54
794.875	26544.9
795.207	26694.04
795.539	26478.68
795.871	26520.72
796.203	26248.41
796.535	26164.57
796.867	26162.31
797.198	25989.2
797.53	26045.93
797.862	25847.96
798.193	25860.85
798.525	25535.43
798.856	25727.97
799.188	25438.26
799.519	25374.98
799.85	25269.22
800.182	25245.49
800.513	25219.96
800.844	24991.04
801.175	25189.9
801.506	25077.14
801.837	25030.81
802.168	24866.75
802.499	24718.73
802.83	24723.25
803.161	24660.43
803.491	24586.98
803.822	24597.83
804.153	24336.59
804.483	24151.51
804.814	24170.04
805.145	24087.78
805.475	24094.34
805.805	24099.08
806.136	24099.54
806.466	23950.61
806.796	24118.29
807.126	23725.08
807.457	23717.17
807.787	23680.79
808.117	23539.55
808.447	23491.42
808.777	23528.03
809.107	23513.11
809.436	23447.12
809.766	23436.28
810.096	23269.28
810.426	23165.78
810.755	23201.03
811.085	23111.09
811.414	23073.57
811.744	22890.53
812.073	22896.4
812.403	22859.79
812.732	22680.82
813.061	22712.68
813.39	22550.42
813.719	22489.86
814.049	22601.27
814.378	22627.48
814.707	22370.77
815.036	22355.17
815.365	22326.48
815.693	22012.36
816.022	21992.25
816.351	21983.43
816.68	21883.32
817.008	21920.84
817.337	21784.12
817.665	21790.44
817.994	21693.27
818.322	21713.84
818.651	21595.42
818.979	21624.35
819.307	21608.08
819.636	21530.79
819.964	21421.41
820.292	21509.32
820.62	21468.64
820.948	21360.62
821.276	21479.94
821.604	21375.09
821.932	21366.95
822.259	21344.35
822.587	21404.24
822.915	21321.53
823.243	21467.51
823.57	21274.98
823.898	21310
824.225	21214.41
824.553	21254.64
824.88	21284.69
825.207	21314.07
825.535	21290.57
825.862	21373.73
826.189	21211.02
826.516	21278.14
826.843	21303
827.17	21333.28
827.497	21377.8
827.824	21350.23
828.151	21332.6
828.478	21269.55
828.805	21387.06
829.131	21227.52
829.458	21235.66
829.785	21082.67
830.111	21167.64
830.438	21178.03
830.764	21282.21
831.09	21217.35
831.417	21159.27
831.743	21236.11
832.069	21161.08
832.395	21182.55
832.722	21186.62
833.048	20973.97
833.374	21109.11
833.7	20981.43
834.026	21000.41
834.351	21113.4
834.677	21015.32
835.003	21081.76
835.329	20999.5
835.654	20990.01
835.98	20785.72
836.306	20834.99
836.631	20786.4
836.956	20860.75
837.282	20910.47
837.607	20726.07
837.932	20802.9
838.258	20760.64
838.583	20628.44
838.908	20512.51
839.233	20504.6
839.558	20559.29
839.883	20535.34
840.208	20352.97
840.533	20349.58
840.858	20473.64
841.182	20410.14
841.507	20371.27
841.832	20297.38
842.156	20237.72
842.481	20238.62
842.805	20165.4
843.13	20093.99
843.454	20070.94
843.778	20043.15
844.103	19985.52
844.427	19889.7
844.751	19949.59
845.075	19850.38
845.399	19811.29
845.723	19728.35
846.047	19775.13
846.371	19545.53
846.695	19545.76
847.019	19418.53
847.343	19244.97
847.666	19235.71
847.99	19173.11
848.313	19163.17
848.637	19051.31
848.96	19016.05
849.284	18912.33
849.607	18796.17
849.931	18803.63
850.254	18565.44
850.577	18548.27
850.9	18426.46
851.223	18403.64
851.546	18364.32
851.869	18260.82
852.192	18283.87
852.515	18186.92
852.838	18048.17
853.161	18040.03
853.483	17874.39
853.806	17915.52
854.129	17784
854.451	17704
854.774	17604.11
855.096	17607.28
855.419	17546.71
855.741	17536.32
856.063	17434.4
856.385	17434.17
856.708	17330.9
857.03	17277.34
857.352	17169.1
857.674	17292.48
857.996	17108.99
858.318	17080.74
858.64	17076.67
858.961	16966.16
859.283	16904.92
859.605	16869.44
859.926	16798.94
860.248	16898.37
860.57	16737.47
860.891	16690.01
861.212	16705.83
861.534	16705.61
861.855	16607.53
862.176	16685.72
862.498	16592.16
862.819	16562.33
863.14	16448.66
863.461	16484.59
863.782	16480.75
864.103	16407.53
864.424	16399.85
864.745	16435.33
865.065	16303.13
865.386	16290.93
865.707	16251.15
866.027	16237.37
866.348	16147.88
866.668	16139.97
866.989	16157.82
867.309	16014.78
867.63	16104.49
867.95	16171.83
868.27	15845.52
868.59	15956.47
868.91	15908.56
869.23	15847.1
869.55	15768.23
869.87	15933.65
870.19	15785.18
870.51	15891.16
870.83	15847.55
871.15	15732.98
871.469	15753.09
871.789	15739.53
872.109	15679.19
872.428	15626.76
872.748	15636.48
873.067	15607.56
873.386	15650.04
873.706	15535.02
874.025	15617.72
874.344	15484.17
874.663	15526.2
874.982	15443.27
875.301	15442.59
875.62	15441.23
875.939	15312.42
876.258	15359.43
876.577	15292.08
876.896	15344.51
877.214	15210.5
877.533	15283.27
877.852	15232.88
878.17	15231.52
878.489	15181.8
878.807	15225.42
879.125	15078.98
879.444	15101.81
879.762	15099.77
880.08	15089.6
880.398	14957.63
880.716	14946.78
881.034	14936.39
881.352	14973.67
881.67	14827.01
881.988	14898.65
882.306	14890.06
882.624	14783.85
882.941	14755.15
883.259	14552.89
883.577	14590.41
883.894	14611.2
884.212	14604.19
884.529	14582.05
884.846	14499.11
885.164	14522.39
885.481	14470.86
885.798	14567.58
886.115	14361.49
886.432	14404.65
886.75	14325.1
887.067	14321.26
887.383	14243.3
887.7	14291.43
888.017	14259.57
888.334	14198.78
888.651	14098.67
888.967	14182.06
889.284	14043.98
889.6	13961.95
889.917	13870.2
890.233	13934.61
890.55	13862.74
890.866	13869.3
891.182	13850.77
891.498	13760.37
891.815	13719.02
892.131	13692.8
892.447	13632.24
892.763	13626.14
893.079	13564.9
893.395	13481.51
893.71	13500.04
894.026	13399.03
894.342	13400.83
894.657	13345.02
894.973	13279.48
895.289	13285.36
895.604	13287.16
895.92	13225.25
896.235	13160.16
896.55	13118.58
896.865	13116.1
897.181	12997.68
897.496	12988.87
897.811	12950.68
898.126	12831.58
898.441	12785.93
898.756	12796.78
899.071	12759.72
899.386	12843.33
899.7	12632.27
900.015	12590.01
900.33	12501.2
900.644	12440.86
900.959	12531.7
901.273	12463.23
901.588	12349.11
901.902	12300.52
902.216	12329.45
902.531	12203.13
902.845	12153.86
903.159	12116.35
903.473	12074.77
903.787	12016.69
904.101	11950.7
904.415	11963.58
904.729	11925.17
905.042	11861.21
905.356	11833.87
905.67	11802.01
905.984	11860.54
906.297	11701.44
906.611	11692.4
906.924	11592.29
907.237	11680.2
907.551	11568.34
907.864	11580.77
908.177	11407.67
908.491	11450.15
908.804	11320.21
909.117	11311.85
909.43	11258.97
909.743	11249.25
910.056	11200.44
910.368	11174
910.681	11085.19
910.994	11005.19
911.307	11009.48
911.619	10849.26
911.932	10988.24
912.244	10821.92
912.557	10814.46
912.869	10728.14
913.181	10647.46
913.494	10590.74
913.806	10655.82
914.118	10534.47
914.43	10436.62
914.742	10498.09
915.054	10394.36
915.366	10400.01
915.678	10424.42
915.99	10267.81
916.302	10243.4
916.613	10196.85
916.925	10186.23
917.236	10145.33
917.548	10081.15
917.859	10068.04
918.171	10031.88
918.482	9985.33
918.794	9897.88
919.105	9980.36
919.416	9867.37
919.727	9874.83
920.038	9787.82
920.349	9729.07
920.66	9671.21
920.971	9617.43
921.282	9640.48
921.593	9577.21
921.903	9521.16
922.214	9514.38
922.525	9435.74
922.835	9357.1
923.146	9273.71
923.456	9351
923.767	9266.48
924.077	9240.04
924.387	9179.93
924.697	9176.54
925.008	9157.33
925.318	9075.98
925.628	9035.53
925.938	9037.56
926.248	8854.96
926.558	8864.46
926.867	8894.29
927.177	8942.19
927.487	8800.5
927.796	8720.73
928.106	8764.12
928.416	8704.01
928.725	8640.28
929.034	8570.23
929.344	8501.53
929.653	8518.25
929.962	8491.81
930.271	8471.02
930.581	8436.67
930.89	8415.43
931.199	8310.57
931.508	8327.97
931.817	8332.94
932.125	8249.33
932.434	8215.89
932.743	8137.24
933.051	8106.96
933.36	8089.11
933.669	8026.06
933.977	8007.53
934.286	8019.05
934.594	7970.47
934.902	7929.79
935.21	7888.44
935.519	7863.35
935.827	7748.55
936.135	7807.76
936.443	7693.41
936.751	7661.55
937.059	7662
937.367	7636.24
937.674	7596.69
937.982	7538.39
938.29	7541.33
938.597	7533.64
938.905	7409.35
939.213	7390.6
939.52	7346.3
939.827	7412.74
940.135	7354.67
940.442	7259.98
940.749	7312.86
941.056	7302.01
941.363	7206.65
941.67	7161.9
941.977	7130.26
942.284	7024.96
942.591	7056.14
942.898	7079.87
943.205	7049.81
943.511	6993.54
943.818	6967.33
944.125	6909.93
944.431	6902.7
944.738	6904.06
945.044	6835.58
945.35	6778.41
945.657	6807.34
945.963	6739.99
946.269	6699.77
946.575	6707.45
946.881	6624.29
947.187	6610.96
947.493	6553.1
947.799	6572.77
948.105	6586.55
948.41	6529.15
948.716	6533.22
949.022	6469.94
949.327	6459.1
949.633	6312.43
949.938	6389.04
950.244	6386.1
950.549	6288.7
950.854	6302.94
951.16	6276.5
951.465	6271.08
951.77	6184.07
952.075	6182.49
952.38	6133.68
952.685	6142.04
952.99	6046.45
953.294	6096.62
953.599	5996.28
953.904	6016.85
954.209	6024.53
954.513	5978.66
954.818	5906.34
955.122	5863.86
955.426	5889.39
955.731	5837.19
956.035	5800.58
956.339	5786.35
956.643	5757.19
956.948	5733.01
957.252	5762.84
957.556	5709.96
957.86	5695.95
958.163	5642.85
958.467	5626.12
958.771	5580.47
959.075	5563.75
959.378	5532.11
959.682	5519.01
959.985	5506.35
960.289	5475.39
960.592	5461.83
960.896	5429.29
961.199	5431.78
961.502	5379.58
961.805	5380.03
962.108	5276.98
962.411	5297.54
962.714	5279.47
963.017	5283.99
963.32	5237.43
963.623	5232.69
963.926	5196.76
964.228	5150.88
964.531	5153.37
964.833	5163.54
965.136	5087.61
965.438	5109.3
965.741	5013.71
966.043	5058.91
966.345	5006.93
966.648	5022.3
966.95	4971.45
967.252	4964.22
967.554	4918.12
967.856	4900.49
968.158	4810.33
968.46	4811.23
968.761	4843.09
969.063	4772.13
969.365	4795.18
969.666	4779.37
969.968	4747.95
970.269	4712.47
970.571	4711.35
970.872	4703.89
971.174	4608.07
971.475	4660.05
971.776	4569.43
972.077	4598.58
972.378	4599.48
972.679	4578.69
972.98	4563.78
973.281	4517
973.582	4533.95
973.883	4484.68
974.183	4458.02
974.484	4458.7
974.785	4424.57
975.085	4390.22
975.386	4412.14
975.686	4400.17
975.986	4353.16
976.287	4335.31
976.587	4288.08
976.887	4313.62
977.187	4270
977.487	4272.26
977.787	4227.74
978.087	4215.76
978.387	4158.82
978.687	4187.52
978.987	4150.91
979.286	4112.26
979.586	4108.88
979.885	4085.6
980.185	4078.59
980.484	4024.36
980.784	4057.12
981.083	4023.23
981.382	4037.92
981.682	3970.12
981.981	3962.44
982.28	3943.91
982.579	3926.28
982.878	3897.36
983.177	3863.01
983.475	3857.81
983.774	3844.7
984.073	3851.25
984.372	3797.02
984.67	3820.97
984.969	3772.16
985.267	3755.89
985.566	3750.69
985.864	3707.08
986.162	3719.73
986.461	3733.52
986.759	3693.74
987.057	3634.76
987.355	3669.11
987.653	3615.1
987.951	3610.81
988.249	3597.02
988.547	3563.13
988.844	3568.32
989.142	3540.3
989.44	3519.51
989.737	3507.31
990.035	3516.12
990.332	3483.13
990.63	3429.12
990.927	3470.93
991.224	3405.84
991.521	3420.53
991.819	3430.47
992.116	3380.98
992.413	3357.26
992.71	3377.59
993.006	3369.91
993.303	3346.18
993.6	3305.28
993.897	3286.98
994.193	3265.51
994.49	3251.95
994.787	3234.1
995.083	3228.9
995.379	3196.36
995.676	3158.17
995.972	3164.95
996.268	3123.59
996.565	3145.06
996.861	3121.1
997.157	3121.33
997.453	3103.7
997.749	3082.01
998.044	3017.38
998.34	3044.72
998.636	3012.41
998.932	3047.66
999.227	2997.94
999.523	2991.39
999.818	2981.9
1000.114	2957.27
1000.409	2964.27
1000.704	2903.26
1001	2902.13
1001.295	2871.39
1001.59	2875.01
1001.885	2866.87
1002.18	2830.26
1002.475	2830.49
1002.77	2785.52
1003.065	2768.35
1003.359	2781.45
1003.654	2795.92
1003.949	2757.27
1004.243	2713.88
1004.538	2713.21
1004.832	2670.49
1005.127	2658.97
1005.421	2664.39
1005.715	2647.44
1006.009	2628.01
1006.304	2601.34
1006.598	2596.6
1006.892	2591.17
1007.186	2584.85
1007.48	2536.94
1007.773	2553.44
1008.067	2543.94
1008.361	2503.95
1008.655	2462.82
1008.948	2460.78
1009.242	2450.16
1009.535	2443.83
1009.829	2441.8
1010.122	2426.66
1010.415	2389.82
1010.708	2346.89
1011.001	2367
1011.295	2376.49
1011.588	2360.45
1011.881	2330.84
1012.173	2292.88
1012.466	2281.8
1012.759	2279.54
1013.052	2307.11
1013.344	2262.37
1013.637	2235.7
1013.93	2207
1014.222	2236.61
1014.514	2174.69
1014.807	2180.79
1015.099	2187.34
1015.391	2153.22
1015.683	2174.46
1015.976	2146.44
1016.268	2108.93
1016.56	2097.63
1016.851	2081.58
1017.143	2096.27
1017.435	2048.82
1017.727	2054.92
1018.018	2019.89
1018.31	2037.52
1018.602	2032.09
1018.893	2011.3
1019.185	1995.71
1019.476	1965.88
1019.767	1972.43
1020.058	1970.17
1020.35	1983.51
1020.641	1943.51
1020.932	1919.1
1021.223	1920.01
1021.514	1872.1
1021.804	1883.17
1022.095	1846.79
1022.386	1820.8
1022.677	1818.77
1022.967	1846.79
1023.258	1828.03
1023.548	1795.72
1023.839	1797.07
1024.129	1772.67
1024.419	1774.02
1024.709	1756.85
1025	1737.64
1025.29	1722.95
1025.58	1695.15
1025.87	1692.44
1026.16	1669.62
1026.449	1675.27
1026.739	1668.26
1027.029	1660.58
1027.319	1655.61
1027.608	1610.64
1027.898	1614.48
1028.187	1571.77
1028.477	1599.56
1028.766	1601.14
1029.055	1558.21
1029.344	1565.67
1029.634	1546.23
1029.923	1552.56
1030.212	1519.11
1030.501	1511.2
1030.79	1517.3
1031.078	1527.25
1031.367	1487.7
1031.656	1504.2
1031.945	1446.57
1032.233	1446.8
1032.522	1448.15
1032.81	1431.43
1033.099	1427.59
1033.387	1430.53
1033.675	1423.52
1033.963	1387.36
1034.251	1405.22
1034.54	1361.6
1034.828	1352.56
1035.116	1342.62
1035.403	1358.21
1035.691	1321.6
1035.979	1303.75
1036.267	1316.41
1036.554	1296.29
1036.842	1282.06
1037.129	1289.97
1037.417	1259.23
1037.704	1279.57
1037.992	1257.88
1038.279	1243.19
1038.566	1236.41
1038.853	1236.41
1039.14	1236.41
