Data from orange_diffuse_book_FLMS001491_00037.txt Node
Date: Wed Feb 08 15:29:28 GMT 2017
User: dcchb
Spectrometer: FLMS00149
Trigger mode: 0
Integration Time (sec): 2.000000E-2
Scans to average: 10
Electric dark correction enabled: true
Nonlinearity correction enabled: false
Boxcar width: 0
XAxis mode: Wavelengths
Number of Pixels in Spectrum: 2048
>>>>>Begin Spectral Data<<<<<
341.393	-20.34
341.776	-20.34
342.16	-20.34
342.543	-54.69
342.927	-89.49
343.31	-69.83
343.693	-55.59
344.077	-87.23
344.46	-40.45
344.843	-47.46
345.226	-55.82
345.61	-41.13
345.993	-26.21
346.376	-3.84
346.759	7.23
347.142	27.12
347.525	51.98
347.908	51.98
348.291	59.43
348.674	101.01
349.057	128.81
349.44	120.67
349.823	145.08
350.206	183.05
350.588	196.38
350.971	232.31
351.354	237.28
351.737	248.81
352.119	264.4
352.502	282.93
352.884	288.35
353.267	300.11
353.65	302.14
354.032	300.78
354.414	325.42
354.797	328.58
355.179	334.91
355.562	344.4
355.944	335.13
356.326	335.36
356.709	338.3
357.091	336.94
357.473	340.33
357.855	354.11
358.238	333.32
358.62	357.96
359.002	371.29
359.384	369.26
359.766	355.7
360.148	339.43
360.53	352.53
360.912	349.37
361.294	338.3
361.676	345.3
362.057	354.57
362.439	346.43
362.821	364.74
363.203	345.98
363.584	352.31
363.966	367.9
364.348	359.54
364.729	328.58
365.111	331.97
365.493	343.04
365.874	349.37
366.256	329.48
366.637	330.39
367.019	309.6
367.4	342.59
367.781	319.31
368.163	339.88
368.544	334.23
368.925	330.84
369.306	347.56
369.688	321.57
370.069	346.21
370.45	351.4
370.831	344.4
371.212	344.85
371.593	319.54
371.974	342.59
372.355	348.47
372.736	332.65
373.117	314.34
373.498	330.61
373.879	318.41
374.26	328.13
374.641	333.78
375.021	347.56
375.402	338.97
375.783	355.24
376.163	343.27
376.544	348.01
376.925	322.93
377.305	340.1
377.686	325.42
378.066	339.88
378.447	369.71
378.827	348.69
379.208	340.56
379.588	347.11
379.968	331.06
380.349	362.02
380.729	366.09
381.109	357.96
381.489	358.18
381.87	369.48
382.25	353.21
382.63	350.5
383.01	394.57
383.39	370.84
383.77	372.87
384.15	360.89
384.53	354.11
384.91	395.02
385.29	378.07
385.67	379.2
386.049	369.26
386.429	380.78
386.809	384.85
387.189	360.89
387.568	335.58
387.948	357.05
388.328	371.97
388.707	398.86
389.087	395.92
389.466	409.71
389.846	400.67
390.225	393.89
390.605	403.83
390.984	392.76
391.363	392.98
391.743	390.05
392.122	375.36
392.501	393.44
392.881	399.54
393.26	416.71
393.639	409.03
394.018	383.94
394.397	409.48
394.776	406.32
395.155	395.7
395.534	409.25
395.913	412.19
396.292	418.75
396.671	415.13
397.05	413.55
397.429	403.61
397.808	447.22
398.186	435.24
398.565	438.18
398.944	455.13
399.323	435.02
399.701	446.54
400.08	421.46
400.458	451.29
400.837	439.76
401.215	444.73
401.594	431.85
401.972	449.93
402.351	466.2
402.729	446.54
403.107	458.29
403.486	438.86
403.864	463.04
404.242	452.87
404.62	474.56
404.999	472.76
405.377	475.47
405.755	454
406.133	471.4
406.511	484.06
406.889	485.18
407.267	452.64
407.645	478.86
408.023	501.46
408.401	492.87
408.779	499.87
409.156	478.63
409.534	491.96
409.912	515.69
410.29	516.82
410.667	495.58
411.045	502.36
411.422	519.08
411.8	534.45
412.178	530.83
412.555	525.18
412.933	532.42
413.31	528.57
413.687	553.66
414.065	551.62
414.442	539.65
414.819	568.12
415.197	547.78
415.574	554.34
415.951	577.39
416.328	545.07
416.705	594.79
417.082	574.67
417.46	572.41
417.837	601.11
418.214	570.83
418.591	595.46
418.967	585.75
419.344	587.78
419.721	608.35
420.098	595.24
420.475	609.7
420.852	606.76
421.228	632.98
421.605	607.44
421.982	613.32
422.358	639.76
422.735	636.14
423.111	616.48
423.488	629.81
423.864	646.08
424.241	638.4
424.617	642.69
424.994	649.7
425.37	669.81
425.746	664.16
426.123	653.99
426.499	665.52
426.875	686.99
427.251	697.38
427.627	703.48
428.003	689.02
428.379	705.52
428.756	725.63
429.132	728.79
429.507	704.39
429.883	710.04
430.259	739.64
430.635	745.29
431.011	747.78
431.387	771.96
431.763	767.89
432.138	781.9
432.514	773.09
432.89	773.99
433.265	796.36
433.641	786.19
434.016	794.78
434.392	804.72
434.767	841.79
435.143	812.41
435.518	847.44
435.894	856.93
436.269	863.48
436.644	877.27
437.02	888.56
437.395	865.51
437.77	878.85
438.145	882.91
438.52	884.5
438.895	906.87
439.271	901.9
439.646	907.77
440.021	922.91
440.395	935.79
440.77	919.52
441.145	926.76
441.52	925.17
441.895	932.4
442.27	940.09
442.645	949.35
443.019	966.75
443.394	955
443.769	977.38
444.143	983.7
444.518	994.78
444.892	986.64
445.267	1001.1
445.641	996.81
446.016	983.7
446.39	995
446.764	997.49
447.139	1011.95
447.513	1010.59
447.887	1037.03
448.262	1004.04
448.636	978.05
449.01	1047.2
449.384	1036.58
449.758	1031.61
450.132	1026.64
450.506	1046.07
450.88	1059.63
451.254	1039.07
451.628	1081.1
452.002	1065.73
452.376	1068.22
452.75	1069.8
453.123	1098.05
453.497	1124.26
453.871	1113.42
454.244	1150.48
454.618	1131.04
454.992	1126.98
455.365	1140.99
455.739	1174.88
456.112	1176.24
456.486	1192.51
456.859	1212.62
457.232	1189.8
457.606	1223.92
457.979	1229.12
458.352	1256.24
458.725	1287.65
459.099	1261.89
459.472	1282.45
459.845	1304.6
460.218	1303.24
460.591	1312.28
460.964	1303.47
461.337	1360.19
461.71	1369.46
462.083	1375.56
462.456	1359.06
462.829	1373.52
463.201	1390.7
463.574	1371.72
463.947	1408.78
464.32	1421.43
464.692	1449.91
465.065	1482.22
465.438	1481.09
465.81	1470.47
466.183	1486.29
466.555	1500.53
466.928	1545.72
467.3	1559.51
467.672	1515.89
468.045	1577.13
468.417	1571.71
468.789	1550.24
469.161	1589.34
469.534	1651.48
469.906	1646.28
470.278	1671.14
470.65	1670.24
471.022	1687.64
471.394	1738.49
471.766	1735.1
472.138	1739.16
472.51	1750.91
472.882	1806.05
473.253	1820.74
473.625	1844.47
473.997	1884.47
474.369	1855.77
474.74	1880.18
475.112	1921.98
475.484	1929.89
475.855	2004.92
476.227	2009.21
476.598	2018.48
476.97	2052.83
477.341	2093.05
477.713	2108.19
478.084	2184.12
478.455	2181.64
478.827	2200.39
479.198	2241.97
479.569	2233.61
479.94	2298.92
480.311	2328.53
480.682	2379.37
481.053	2413.04
481.424	2425.47
481.795	2471.35
482.166	2526.71
482.537	2542.08
482.908	2597.45
483.279	2605.58
483.65	2661.62
484.021	2702.75
484.391	2729.87
484.762	2763.32
485.133	2774.16
485.503	2832.69
485.874	2906.82
486.244	2911.34
486.615	2993.82
486.985	2984.78
487.356	3033.14
487.726	3068.85
488.097	3141.16
488.467	3129.18
488.837	3222.74
489.207	3226.81
489.578	3302.74
489.948	3330.31
490.318	3409.85
490.688	3427.25
491.058	3463.41
491.428	3499.79
491.798	3556.74
492.168	3600.81
492.538	3693.46
492.908	3705.67
493.278	3747.25
493.648	3767.81
494.017	3806.23
494.387	3869.95
494.757	3883.97
495.126	3977.07
495.496	3973.91
495.866	4016.17
496.235	4055.94
496.605	4110.4
496.974	4151.08
497.344	4178.65
497.713	4229.95
498.082	4244.86
498.452	4282.83
498.821	4295.71
499.19	4363.5
499.559	4399.43
499.928	4414.57
500.298	4489.83
500.667	4502.25
501.036	4526.66
501.405	4577.51
501.774	4626.09
502.143	4679.42
502.512	4674
502.88	4776.37
503.249	4784.06
503.618	4842.36
503.987	4835.81
504.356	4869.7
504.724	4906.09
505.093	4925.29
505.462	4953.32
505.83	5003.94
506.199	5012.52
506.567	5127.77
506.936	5143.59
507.304	5172.52
507.672	5210.71
508.041	5205.74
508.409	5253.87
508.777	5303.59
509.145	5397.37
509.514	5358.5
509.882	5409.12
510.25	5466.97
510.618	5457.26
510.986	5527.76
511.354	5571.15
511.722	5614.54
512.09	5651.6
512.458	5678.27
512.826	5709.68
513.193	5774.31
513.561	5756.23
513.929	5848.21
514.297	5855.67
514.664	5897.25
515.032	5921.65
515.4	5995.77
515.767	6032.16
516.135	6112.16
516.502	6068.09
516.869	6185.83
517.237	6198.71
517.604	6143.34
517.972	6244.13
518.339	6274.19
518.706	6348.99
519.073	6373.39
519.44	6398.25
519.808	6451.81
520.175	6465.37
520.542	6576.1
520.909	6650.9
521.276	6577.68
521.643	6732.25
522.009	6729.99
522.376	6771.35
522.743	6803.44
523.11	6947.84
523.477	6968.4
523.843	7042.3
524.21	7120.04
524.577	7110.32
524.943	7160.04
525.31	7158.91
525.676	7311.22
526.043	7355.74
526.409	7369.75
526.776	7388.73
527.142	7428.05
527.508	7487.49
527.874	7570.2
528.241	7565.22
528.607	7616.3
528.973	7713.02
529.339	7714.37
529.705	7760.93
530.071	7765.67
530.437	7870.75
530.803	7888.83
531.169	8001.6
531.535	7955.05
531.901	8026.68
532.267	7980.81
532.632	8111.43
532.998	8146
533.364	8163.85
533.73	8236.85
534.095	8263.74
534.461	8317.3
534.826	8318.2
535.192	8313.91
535.557	8365.2
535.923	8416.28
536.288	8442.04
536.653	8484.75
537.019	8549.83
537.384	8548.02
537.749	8627.57
538.114	8618.3
538.479	8690.39
538.845	8770.84
539.21	8783.05
539.575	8744.4
539.94	8743.72
540.305	8905.98
540.67	8801.12
541.034	8931.29
541.399	8922.25
541.764	8938.75
542.129	9027.33
542.494	9058.52
542.858	9061.46
543.223	9101.23
543.587	9169.48
543.952	9204.28
544.316	9206.31
544.681	9218.06
545.045	9263.26
545.41	9341
545.774	9460.99
546.138	9419.19
546.503	9449.24
546.867	9487.21
547.231	9515.46
547.595	9630.26
547.959	9623.7
548.324	9679.29
548.688	9715.22
549.052	9680.2
549.416	9804.49
549.779	9820.08
550.143	9894.66
550.507	10005.84
550.871	9937.14
551.235	9996.8
551.599	10106.63
551.962	10097.36
552.326	10175.33
552.689	10295.1
553.053	10199.28
553.417	10251.03
553.78	10399.5
554.143	10411.93
554.507	10467.75
554.87	10567.86
555.234	10696.22
555.597	10613.73
555.96	10687.18
556.323	10811.69
556.686	10834.52
557.05	10959.26
557.413	11001.29
557.776	10982.31
558.139	11130.78
558.502	11186.82
558.865	11229.99
559.228	11314.05
559.59	11392.24
559.953	11415.52
560.316	11563.99
560.679	11653.03
561.041	11691.22
561.404	11754.49
561.767	11898.9
562.129	11951.1
562.492	12085.33
562.854	12161.26
563.217	12167.82
563.579	12344.08
563.941	12372.1
564.304	12429.28
564.666	12673.79
565.028	12758.08
565.39	12760.12
565.753	12962.82
566.115	13010.51
566.477	13109.94
566.839	13240.78
567.201	13394.22
567.563	13469.25
567.925	13668.57
568.287	13726.19
568.648	13756.47
569.01	13948.11
569.372	14087.54
569.734	14220.19
570.095	14371.15
570.457	14537.92
570.819	14707.64
571.18	14748.31
571.542	14967.52
571.903	15124.35
572.265	15273.95
572.626	15461.06
572.987	15624.45
573.349	15719.81
573.71	16014.72
574.071	16190.08
574.432	16387.37
574.794	16559.11
575.155	16764.3
575.516	16889.95
575.877	17157.29
576.238	17432.54
576.599	17682.92
576.96	17933.31
577.32	18155.68
577.681	18300.08
578.042	18649.91
578.403	18767.19
578.763	19095.77
579.124	19320.4
579.485	19686.49
579.845	19940.72
580.206	20249.41
580.566	20552.23
580.927	20831.32
581.287	21078.09
581.648	21337.74
582.008	21758.3
582.368	22015.24
582.728	22355.8
583.089	22683.92
583.449	22998.72
583.809	23268.31
584.169	23760.05
584.529	23956.21
584.889	24461.28
585.249	24844.54
585.609	25044.09
585.969	25641.13
586.329	25902.6
586.688	26362.47
587.048	26766.53
587.408	27183.47
587.768	27435.44
588.127	27894.63
588.487	28413.49
588.846	28965.79
589.206	29167.37
589.565	29603.74
589.925	30108.59
590.284	30473.1
590.643	30959.86
591.003	31425.16
591.362	31870.35
591.721	32309.66
592.08	32815.41
592.44	33381.95
592.799	33655.39
593.158	34222.6
593.517	34447.91
593.876	35019.42
594.235	35284.5
594.593	35978.26
594.952	36479.49
595.311	36741.63
595.67	37282.18
596.029	37875.16
596.387	38443.96
596.746	38815.7
597.104	39144.28
597.463	39566.64
597.822	39995.56
598.18	40212.28
598.538	40813.62
598.897	41358.91
599.255	41426.93
599.613	42417.19
599.972	42604.53
600.33	43015.14
600.688	43259.65
601.046	43749.58
601.404	44257.14
601.762	44562.9
602.12	45110
602.478	45318.58
602.836	45815.97
603.194	45851.45
603.552	46357.65
603.91	46443.52
604.268	46900.24
604.625	47069.95
604.983	47687.79
605.341	47889.36
605.698	48108.79
606.056	48532.96
606.413	48647.76
606.771	49035.32
607.128	49231.02
607.485	49349.66
607.843	49561.63
608.2	50042.07
608.557	50207.95
608.914	50259.24
609.272	50667.14
609.629	50883.86
609.986	51107.36
610.343	51167.69
610.7	51536.5
611.057	51674.8
611.414	51655.59
611.771	51754.35
612.127	52012.87
612.484	52216.48
612.841	52388.23
613.198	52424.61
613.554	52569.69
613.911	52714.55
614.267	52906.63
614.624	52932.39
614.98	53174.42
615.337	53346.39
615.693	53432.95
616.05	53524.69
616.406	53721.98
616.762	53698.25
617.118	53778.02
617.475	53800.85
617.831	53968.07
618.187	54039.03
618.543	54205.13
618.899	54353.15
619.255	54386.14
619.611	54409.42
619.967	54614.16
620.323	54655.74
620.678	54569.64
621.034	54590.2
621.39	54640.6
621.746	54609.19
622.101	54981.83
622.457	54771.67
622.812	54903.19
623.168	55054.82
623.523	54982.28
623.879	55133.92
624.234	54992.9
624.589	55153.8
624.945	55131.43
625.3	55197.87
625.655	55242.39
626.01	55296.85
626.365	55295.95
626.72	55301.6
627.075	55327.81
627.43	55341.82
627.785	55249.39
628.14	55379.56
628.495	55396.74
628.85	55500.91
629.205	55436.51
629.559	55586.11
629.914	55496.62
630.269	55571.87
630.623	55438.77
630.978	55401.26
631.332	55553.79
631.687	55547.69
632.041	55433.57
632.396	55592.44
632.75	55435.15
633.104	55481.71
633.459	55344.99
633.813	55368.94
634.167	55383.4
634.521	55338.21
634.875	55448.71
635.229	55469.05
635.583	55400.8
635.937	55365.1
636.291	55312.67
636.645	55398.09
636.999	55317.87
637.352	55417.3
637.706	55238.1
638.06	55394.02
638.413	55261.82
638.767	55171.43
639.121	55272.67
639.474	55114.93
639.828	55051.89
640.181	55181.6
640.534	55229.73
640.888	55183.86
641.241	54999.91
641.594	55064.09
641.947	55229.96
642.301	55203.52
642.654	55206.91
643.007	55173.92
643.36	55138.21
643.713	55121.26
644.066	55233.8
644.419	54991.55
644.771	54858.9
645.124	54556.98
645.477	54517.44
645.83	54409.64
646.182	54291.91
646.535	54289.87
646.888	54261.85
647.24	54123.32
647.593	54360.38
647.945	54242.42
648.298	54222.3
648.65	54104.79
649.002	54074.06
649.355	54192.25
649.707	54154.96
650.059	54212.13
650.411	54554.95
650.763	54625.46
651.115	54923.98
651.467	54823.64
651.819	54850.76
652.171	54735.96
652.523	54741.39
652.875	54721.5
653.227	54565.34
653.578	54728.5
653.93	54802.4
654.282	54611.67
654.633	54590.66
654.985	54662.52
655.337	54705
655.688	54637.66
656.039	54767.37
656.391	54519.92
656.742	54521.28
657.094	54532.13
657.445	54662.07
657.796	54687.15
658.147	54574.61
658.498	54567.6
658.849	54615.51
659.2	54496.87
659.551	54434.95
659.902	54610.09
660.253	54521.96
660.604	54562.63
660.955	54456.2
661.306	54506.36
661.656	54450.09
662.007	54522.63
662.358	54547.27
662.708	54519.92
663.059	54435.86
663.409	54249.87
663.76	54541.39
664.11	54585.01
664.461	54563.76
664.811	54535.74
665.161	54423.2
665.511	54359.25
665.862	54436.53
666.212	54431.56
666.562	54482.41
666.912	54464.1
667.262	54331.9
667.612	54373.26
667.962	54323.77
668.312	54322.41
668.662	54446.25
669.011	54351.79
669.361	54328.06
669.711	54248.07
670.06	54252.81
670.41	54190.89
670.76	54162.19
671.109	54249.87
671.459	54154.73
671.808	54165.36
672.157	54204.45
672.507	54006.94
672.856	54038.35
673.205	54109.99
673.554	54180.04
673.904	54109.09
674.253	54200.83
674.602	54048.75
674.951	53620.51
675.3	53442.89
675.649	53932.37
675.998	53993.16
676.346	53935.53
676.695	53961.07
677.044	53761.52
677.393	53890.79
677.741	53868.41
678.09	53833.39
678.438	53780.28
678.787	53905.7
679.135	53865.7
679.484	53593.17
679.832	53729.89
680.181	53503.23
680.529	53639.72
680.877	53604.47
681.225	53480.63
681.573	53749.77
681.922	53487.86
682.27	53366.05
682.618	53416.9
682.966	53372.61
683.314	53454.19
683.661	53341.2
684.009	53201.76
684.357	53138.26
684.705	53052.84
685.053	53149.34
685.4	53070.69
685.748	52890.36
686.095	52970.13
686.443	52749.12
686.79	52704.38
687.138	52807.65
687.485	52890.36
687.832	52711.83
688.18	52629.58
688.527	52418.28
688.874	52498.05
689.221	52424.61
689.568	52359.3
689.915	52136.71
690.262	52204.5
690.609	52125.18
690.956	52021.68
691.303	51942.36
691.65	51797.51
691.997	51800.22
692.344	51535.82
692.69	51556.16
693.037	51658.98
693.383	51323.17
693.73	51446.56
694.077	51239.1
694.423	51301.93
694.769	51283.4
695.116	51167.69
695.462	51119.33
695.808	50968.6
696.155	50964.31
696.501	50781.94
696.847	50778.55
697.193	50553.02
697.539	50773.13
697.885	50315.51
698.231	50300.6
698.577	50184.67
698.923	50187.15
699.269	50003.21
699.614	49860.84
699.96	49847.95
700.306	49874.39
700.651	49665.36
700.997	49501.75
701.342	49490
701.688	49397.57
702.033	49323.9
702.379	49299.95
702.724	49122.32
703.069	49195.99
703.415	48792.16
703.76	48863.35
704.105	48822.45
704.45	48624.94
704.795	48340.88
705.14	48295
705.485	48405.73
705.83	48262.46
706.175	48249.58
706.52	48086.87
706.865	48080.09
707.209	47771.63
707.554	47648.24
707.899	47772.76
708.243	47554.23
708.588	47512.42
708.932	47265.88
709.277	47204.86
709.621	47290.28
709.966	46984.75
710.31	47089.38
710.654	46815.94
710.998	46869.95
711.342	46815.49
711.687	46782.72
712.031	46597.19
712.375	46311.55
712.719	46517.19
713.063	46495.05
713.407	46626.34
713.75	46210.99
714.094	46152.23
714.438	46003.54
714.782	46132.35
715.125	45892.8
715.469	45995.63
715.812	45792.24
716.156	45442.19
716.499	45540.27
716.843	45732.58
717.186	45486.94
717.53	45519.26
717.873	45562.87
718.216	45461.63
718.559	45254.4
718.902	44939.84
719.246	45205.82
719.589	45040.4
719.932	44827.75
720.275	44883.57
720.617	44935.77
720.96	44808.09
721.303	44731.25
721.646	44664.81
721.989	44381.21
722.331	44671.82
722.674	44411.94
723.016	44623.23
723.359	44371.04
723.701	44435.89
724.044	44154.55
724.386	44003.81
724.729	44306.18
725.071	44020.76
725.413	44065.51
725.755	44107.31
726.097	43867.77
726.439	43717.95
726.782	43809.02
727.124	44064.15
727.465	43861.45
727.807	43709.59
728.149	43547.56
728.491	43576.03
728.833	43592.53
729.175	43467.11
729.516	43382.59
729.858	43412.87
730.199	43261.46
730.541	43229.82
730.882	43204.06
731.224	43271.18
731.565	42982.37
731.906	43155.7
732.248	42977.4
732.589	42797.07
732.93	42720.01
733.271	42819.21
733.612	42815.37
733.953	42808.37
734.294	42541.71
734.635	42526.11
734.976	42763.85
735.317	42444.53
735.658	42429.17
735.999	42475.04
736.339	42426.46
736.68	42521.37
737.021	42435.95
737.361	42163.64
737.702	42454.48
738.042	42164.77
738.383	42048.16
738.723	42292
739.063	42078.67
739.404	42173.81
739.744	42086.58
740.084	41886.36
740.424	41972.23
740.764	41939.69
741.104	42039.8
741.444	41756.42
741.784	41741.28
742.124	41714.16
742.464	41675.51
742.804	41525.69
743.143	41557.1
743.483	41583.54
743.823	41221.51
744.162	41231.91
744.502	41456.76
744.841	41376.77
745.181	41367.05
745.52	41125.25
745.86	41246.15
746.199	41209.54
746.538	41070.78
746.877	41100.84
747.216	41152.59
747.556	41068.52
747.895	40968.41
748.234	40811.13
748.573	40807.74
748.911	40820.85
749.25	40751.47
749.589	40579.95
749.928	40630.8
750.267	40659.72
750.605	40503.57
750.944	40627.41
751.283	40430.12
751.621	40392.38
751.96	40239.17
752.298	40185.84
752.636	40125.05
752.975	40113.07
753.313	40033.3
753.651	40087.76
753.989	39890.7
754.327	39880.76
754.666	39571.84
755.004	39645.51
755.342	39701.55
755.679	39534.55
756.017	39331.4
756.355	39404.39
756.693	39320.1
757.031	39391.05
757.368	39106.09
757.706	39023.61
758.044	38822.48
758.381	39010.73
758.719	38727.12
759.056	38747.91
759.394	38646.67
759.731	38486.45
760.068	38323.29
760.405	38218.2
760.743	38219.79
761.08	38211.2
761.417	37945.67
761.754	37977.08
762.091	37999.23
762.428	37804.88
762.765	37430.65
763.102	37632.68
763.438	37451.22
763.775	37229.53
764.112	37270.21
764.449	37243.31
764.785	37183.66
765.122	36878.58
765.458	36689.66
765.795	36772.82
766.131	36715.87
766.467	36529.21
766.804	36332.38
767.14	36137.13
767.476	36199.95
767.812	36084.02
768.148	36172.16
768.485	35914.08
768.821	35713.41
769.157	35698.04
769.492	35566.07
769.828	35553.64
770.164	35202.24
770.5	35165.18
770.836	35173.99
771.171	34921.57
771.507	34991.62
771.842	34597.96
772.178	34786.66
772.513	34527.68
772.849	34440.68
773.184	34293.79
773.519	34194.36
773.855	34227.8
774.19	33936.51
774.525	33795.95
774.86	33869.17
775.195	33792.33
775.53	33572.22
775.865	33382.85
776.2	33224.89
776.535	33032.35
776.87	33060.37
777.205	32930.89
777.539	32616.54
777.874	32792.81
778.209	32463.33
778.543	32419.49
778.878	32247.74
779.212	32155.31
779.547	32052.72
779.881	32125.03
780.215	31878.48
780.55	31923
780.884	31611.15
781.218	31537.25
781.552	31589
781.886	31420.42
782.22	31209.35
782.554	31203.25
782.888	30895.01
783.222	30830.83
783.556	30735.69
783.889	30584.28
784.223	30395.81
784.557	30343.38
784.89	30523.49
785.224	30202.14
785.557	30208.7
785.891	30029.04
786.224	29938.2
786.558	29923.06
786.891	29638.77
787.224	29593.57
787.557	29502.28
787.891	29483.07
788.224	29404.88
788.557	29386.35
788.89	29328.49
789.223	29252.11
789.556	28992.91
789.888	28834.27
790.221	28813.93
790.554	28591.11
790.887	28564.9
791.219	28529.65
791.552	28460.95
791.884	28236.09
792.217	28198.81
792.549	28013.5
792.882	27909.32
793.214	27872.71
793.546	27795.43
793.879	27725.82
794.211	27535.32
794.543	27509.11
794.875	27453.74
795.207	27541.65
795.539	27185.95
795.871	27243.8
796.203	27104.37
796.535	26875.23
796.867	26942.34
797.198	26892.63
797.53	26829.8
797.862	26662.8
798.193	26755
798.525	26515.91
798.856	26416.48
799.188	26160.44
799.519	26116.38
799.85	25993.89
800.182	26081.57
800.513	26056.04
800.844	25726.56
801.175	25957.28
801.506	25887
801.837	25639.78
802.168	25682.04
802.499	25605.2
802.83	25385.55
803.161	25512.32
803.491	25425.09
803.822	25435.04
804.153	25080.92
804.483	25067.59
804.814	24930.19
805.145	24881.38
805.475	24983.52
805.805	24757.99
806.136	24724.32
806.466	24792.79
806.796	24639.8
807.126	24465.8
807.457	24478.23
807.787	24475.51
808.117	24306.48
808.447	24220.38
808.777	24409.3
809.107	24206.82
809.436	24032.81
809.766	24182.19
810.096	24031.23
810.426	23878.92
810.755	23902.87
811.085	23806.15
811.414	23756.44
811.744	23591.7
812.073	23550.12
812.403	23608.19
812.732	23405.49
813.061	23304.7
813.39	23228.54
813.719	23252.72
814.049	23311.7
814.378	23163.68
814.707	22999.62
815.036	23015.67
815.365	22966.4
815.693	22765.73
816.022	22695.22
816.351	22686.64
816.68	22558.5
817.008	22695.22
817.337	22501.33
817.665	22405.51
817.994	22386.3
818.322	22345.18
818.651	22257.49
818.979	22256.82
819.307	22313.76
819.636	22270.6
819.964	22180.66
820.292	22229.02
820.62	22106.99
820.948	22033.77
821.276	22122.13
821.604	21993.32
821.932	22040.55
822.259	22114.67
822.587	22060.66
822.915	22080.55
823.243	22098.4
823.57	21995.35
823.898	22115.35
824.225	21965.52
824.553	21865.19
824.88	22063.37
825.207	22107.67
825.535	21967.56
825.862	22007.78
826.189	21931.4
826.516	22011.4
826.843	22051.4
827.17	22048.01
827.497	22011.85
827.824	21926.66
828.151	22008.91
828.478	21970.27
828.805	22019.53
829.131	21895.92
829.458	21906.54
829.785	21784.29
830.111	21841.46
830.438	21916.26
830.764	21962.59
831.09	21961.46
831.417	21738.19
831.743	21928.46
832.069	21855.24
832.395	21794.91
832.722	21829.26
833.048	21794.68
833.374	21797.39
833.7	21646.89
834.026	21750.61
834.351	21703.84
834.677	21658.19
835.003	21759.43
835.329	21734.8
835.654	21677.62
835.98	21611.41
836.306	21499.55
836.631	21505.88
836.956	21656.61
837.282	21572.99
837.607	21374.13
837.932	21436.05
838.258	21309.5
838.583	21298.88
838.908	21209.16
839.233	21263.62
839.558	21242.61
839.883	21229.05
840.208	21146.11
840.533	21121.48
840.858	21148.14
841.182	21014.36
841.507	20972.1
841.832	20883.07
842.156	20933.01
842.481	20934.82
842.805	20792.67
843.13	20759
843.454	20771.66
843.778	20672.45
844.103	20606.01
844.427	20603.53
844.751	20574.6
845.075	20488.95
845.399	20425.23
845.723	20366.7
846.047	20346.58
846.371	20175.06
846.695	20047.16
847.019	19975.52
847.343	19948.4
847.666	19836.31
847.99	19818.69
848.313	19728.07
848.637	19693.72
848.96	19632.25
849.284	19549.77
849.607	19503.89
849.931	19256.44
850.254	19270.91
850.577	19158.37
850.9	19046.73
851.223	19001.76
851.546	18855.1
851.869	18778.04
852.192	18859.17
852.515	18708.89
852.838	18679.28
853.161	18664.37
853.483	18441.32
853.806	18414.88
854.129	18433.87
854.451	18393.87
854.774	18140.77
855.096	18197.04
855.419	18175.12
855.741	18073.42
856.063	18035.91
856.385	17970.83
856.708	17895.12
857.03	17922.92
857.352	17881.11
857.674	17782.81
857.996	17609.03
858.318	17588.46
858.64	17546.66
858.961	17538.3
859.283	17528.8
859.605	17440.22
859.926	17503.49
860.248	17350.05
860.57	17331.07
860.891	17315.7
861.212	17283.61
861.534	17180.57
861.855	17187.57
862.176	17186.89
862.498	17201.81
862.819	17140.79
863.14	16962.94
863.461	17019.21
863.782	16924.53
864.103	17000.68
864.424	16937.18
864.745	16973.34
865.065	16859.44
865.386	16703.06
865.707	16762.72
866.027	16773.12
866.348	16628.72
866.668	16674.59
866.989	16630.07
867.309	16551.2
867.63	16653.35
867.95	16602.73
868.27	16401.83
868.59	16433.47
868.91	16423.3
869.23	16448.83
869.55	16246.8
869.87	16374.48
870.19	16280.93
870.51	16358.44
870.83	16318.89
871.15	16266.46
871.469	16247.03
871.789	16280.25
872.109	16164.32
872.428	16149.63
872.748	16151.44
873.067	16088.62
873.386	16165.22
873.706	16139.69
874.025	16030.99
874.344	16039.58
874.663	16017.66
874.982	15985.34
875.301	15958.22
875.62	15864.67
875.939	15884.33
876.258	15863.99
876.577	15787.16
876.896	15786.25
877.214	15716.87
877.533	15741.51
877.852	15698.12
878.17	15758.68
878.489	15755.74
878.807	15673.94
879.125	15620.83
879.444	15524.34
879.762	15449.54
880.08	15504.45
880.398	15402.31
880.716	15457.22
881.034	15359.37
881.352	15448.18
881.67	15413.38
881.988	15461.74
882.306	15350.1
882.624	15316.89
882.941	15193.05
883.259	15076.89
883.577	15084.12
883.894	15046.84
884.212	15087.74
884.529	15140.84
884.846	15075.76
885.164	14948.53
885.481	14960.28
885.798	14946.73
886.115	14827.18
886.432	14782.89
886.75	14754.19
887.067	14792.61
887.383	14747.63
887.7	14741.76
888.017	14683.46
888.334	14721.19
888.651	14583.12
888.967	14610.92
889.284	14501.31
889.6	14499.73
889.917	14399.85
890.233	14416.12
890.55	14291.15
890.866	14337.93
891.182	14189.01
891.498	14186.97
891.815	14222
892.131	14094.54
892.447	14124.15
892.763	14032.4
893.079	14104.71
893.395	13949.69
893.71	13891.16
894.026	13915.79
894.342	13850.48
894.657	13735.46
894.973	13656.82
895.289	13791.5
895.604	13702.69
895.92	13721.45
896.235	13643.71
896.55	13611.17
896.865	13528.68
897.181	13480.55
897.496	13468.35
897.811	13308.12
898.126	13363.49
898.441	13256.37
898.756	13214.79
899.071	13128.24
899.386	13213.66
899.7	13071.52
900.015	13046.21
900.33	12886.44
900.644	12950.39
900.959	12878.31
901.273	12876.72
901.588	12791.75
901.902	12725.54
902.216	12634.02
902.531	12609.61
902.845	12631.98
903.159	12528.94
903.473	12468.6
903.787	12501.59
904.101	12390.63
904.415	12400.58
904.729	12301.6
905.042	12279.9
905.356	12210.3
905.67	12166.69
905.984	12172.11
906.297	12076.74
906.611	12057.08
906.924	12041.04
907.237	12026.35
907.551	11916.97
907.864	11834.49
908.177	11806.47
908.491	11814.38
908.804	11686.47
909.117	11758.79
909.43	11650.32
909.743	11603.31
910.056	11644.21
910.368	11543.65
910.681	11392.02
910.994	11369.19
911.307	11315.18
911.619	11288.97
911.932	11212.36
912.244	11152.25
912.557	11215.75
912.869	11123.55
913.181	11083.78
913.494	10991.58
913.806	10911.35
914.118	10916.55
914.43	10815.99
914.742	10870.67
915.054	10740.73
915.366	10780.73
915.678	10710.9
915.99	10706.39
916.302	10591.36
916.613	10483.79
916.925	10603.79
917.236	10481.53
917.548	10397.24
917.859	10464.58
918.171	10359.73
918.482	10310.69
918.794	10270.46
919.105	10270.69
919.416	10157.47
919.727	10135.55
920.038	10080.41
920.349	10041.77
920.66	10006.29
920.971	9957.25
921.282	9916.8
921.593	9866.86
921.903	9809.46
922.214	9787.77
922.525	9756.35
922.835	9736.24
923.146	9649.46
923.456	9592.29
923.767	9562.23
924.077	9520.65
924.387	9461.67
924.697	9432.97
925.008	9454.44
925.318	9370.38
925.628	9286.31
925.938	9321.34
926.248	9238.63
926.558	9162.92
926.867	9209.25
927.177	9129.7
927.487	9079.54
927.796	9027.33
928.106	9058.52
928.416	8972.65
928.725	8948.92
929.034	8908.92
929.344	8883.61
929.653	8896.94
929.962	8705.76
930.271	8702.14
930.581	8678.19
930.89	8608.59
931.199	8599.1
931.508	8635.25
931.817	8552.32
932.125	8565.65
932.434	8504.86
932.743	8430.29
933.051	8362.04
933.36	8369.05
933.669	8306.67
933.977	8266.9
934.286	8262.16
934.594	8192.1
934.902	8142.84
935.21	8058.77
935.519	8209.28
935.827	8110.07
936.135	8032.78
936.443	7983.07
936.751	7941.71
937.059	7952.56
937.367	7847.93
937.674	7932.45
937.982	7829.4
938.29	7784.65
938.597	7786.69
938.905	7723.64
939.213	7626.69
939.52	7565
939.827	7612.23
940.135	7544.89
940.442	7481.16
940.749	7534.94
941.056	7541.72
941.363	7426.92
941.67	7390.31
941.977	7353.48
942.284	7282.97
942.591	7347.83
942.898	7246.59
943.205	7266.02
943.511	7215.86
943.818	7158.46
944.125	7113.94
944.431	7144.9
944.738	7135.41
945.044	7051.11
945.35	7035.97
945.657	7014.05
945.963	6991.23
946.269	6920.72
946.575	6952.36
946.881	6859.48
947.187	6932.02
947.493	6815.19
947.799	6821.52
948.105	6809.31
948.41	6687.73
948.716	6744.91
949.022	6681.63
949.327	6624.46
949.633	6570
949.938	6609.77
950.244	6624.01
950.549	6534.97
950.854	6502.2
951.16	6496.55
951.465	6454.52
951.77	6446.84
952.075	6387.18
952.38	6372.94
952.685	6331.36
952.99	6290
953.294	6231.02
953.599	6212.49
953.904	6177.01
954.209	6174.98
954.513	6153.96
954.818	6166.39
955.122	6128.65
955.426	6073.29
955.731	6044.81
956.035	6013.4
956.339	5992.61
956.643	5985.83
956.948	5935.21
957.252	5923.23
957.556	5902.22
957.86	5851.15
958.163	5833.52
958.467	5819.73
958.771	5783.8
959.075	5763.69
959.378	5718.95
959.682	5742.22
959.985	5692.05
960.289	5683.47
960.592	5655.9
960.896	5572.73
961.199	5590.59
961.502	5522.34
961.805	5509.69
962.108	5487.54
962.411	5452.51
962.714	5461.55
963.017	5444.15
963.32	5440.08
963.623	5402.34
963.926	5344.72
964.228	5326.87
964.531	5297.94
964.833	5311.72
965.136	5286.41
965.438	5221.56
965.741	5200.54
966.043	5155.57
966.345	5193.99
966.648	5181.56
966.95	5162.12
967.252	5132.07
967.554	5082.35
967.856	5064.05
968.158	5000.77
968.46	5017.04
968.761	5017.72
969.063	5007.55
969.365	4895.92
969.666	4955.8
969.968	4844.84
970.269	4867.22
970.571	4836.03
970.872	4839.42
971.174	4835.13
971.475	4845.97
971.776	4764.85
972.077	4793.09
972.378	4761
972.679	4749.03
972.98	4705.41
973.281	4659.76
973.582	4690.72
973.883	4638.07
974.183	4613.44
974.484	4591.97
974.785	4576.83
975.085	4595.81
975.386	4566.89
975.686	4530.95
975.986	4472.2
976.287	4464.97
976.587	4430.62
976.887	4428.58
977.187	4352.43
977.487	4382.71
977.787	4353.33
978.087	4325.31
978.387	4311.75
978.687	4340.22
978.987	4254.35
979.286	4239.89
979.586	4240.79
979.885	4216.84
980.185	4150.85
980.484	4167.12
980.784	4155.14
981.083	4156.05
981.382	4098.2
981.682	4096.62
981.981	4072.44
982.28	4071.08
982.579	4045.77
982.878	4045.32
983.177	4003.06
983.475	3973.45
983.774	3965.55
984.073	3943.85
984.372	3940.91
984.67	3899.11
984.969	3909.5
985.267	3904.98
985.566	3839
985.864	3875.6
986.162	3873.8
986.461	3821.37
986.759	3777.08
987.057	3774.82
987.355	3733.46
987.653	3770.97
987.951	3733.46
988.249	3696.4
988.547	3691.2
988.844	3661.37
989.142	3677.42
989.44	3647.81
989.737	3674.25
990.035	3595.39
990.332	3615.05
990.63	3580.92
990.927	3570.53
991.224	3566.91
991.521	3507.7
991.819	3510.19
992.116	3517.2
992.413	3478.33
992.71	3478.78
993.006	3453.47
993.303	3398.33
993.6	3408.27
993.897	3383.64
994.193	3412.57
994.49	3340.25
994.787	3359.01
995.083	3356.97
995.379	3300.93
995.676	3281.27
995.972	3291.21
996.268	3269.74
996.565	3227.71
996.861	3209.63
997.157	3243.98
997.453	3235.17
997.749	3194.72
998.044	3128.96
998.34	3170.31
998.636	3128.96
998.932	3079.69
999.227	3061.84
999.523	3059.81
999.818	3051.22
1000.114	3035.85
1000.409	3052.8
1000.704	2979.13
1001	2977.77
1001.295	2981.84
1001.59	2955.4
1001.885	2967.61
1002.18	2967.15
1002.475	2923.99
1002.77	2921.05
1003.065	2854.84
1003.359	2847.16
1003.654	2841.96
1003.949	2830.89
1004.243	2770.1
1004.538	2804.22
1004.832	2757.22
1005.127	2764.45
1005.421	2727.61
1005.715	2731.68
1006.009	2739.81
1006.304	2719.48
1006.598	2672.25
1006.892	2667.27
1007.186	2623.43
1007.48	2653.26
1007.773	2625.02
1008.067	2600.84
1008.361	2583.66
1008.655	2551.12
1008.948	2558.35
1009.242	2535.53
1009.535	2500.95
1009.829	2531.91
1010.122	2493.04
1010.415	2473.16
1010.708	2429.99
1011.001	2438.58
1011.295	2420.28
1011.588	2413.72
1011.881	2417.34
1012.173	2402.87
1012.466	2376.21
1012.759	2352.93
1013.052	2331.46
1013.344	2361.75
1013.637	2348.64
1013.93	2303.67
1014.222	2298.47
1014.514	2273.39
1014.807	2237.23
1015.099	2239.72
1015.391	2206.5
1015.683	2210.79
1015.976	2219.15
1016.268	2177.8
1016.56	2194.74
1016.851	2166.5
1017.143	2135.76
1017.435	2158.36
1017.727	2095.76
1018.018	2120.62
1018.31	2107.97
1018.602	2087.85
1018.893	2062.77
1019.185	2034.97
1019.476	2014.41
1019.767	2010.79
1020.058	1984.35
1020.35	1999.27
1020.641	1973.28
1020.932	1960.4
1021.223	1962.89
1021.514	1950.23
1021.804	1940.74
1022.095	1924.7
1022.386	1911.59
1022.677	1884.47
1022.967	1853.28
1023.258	1859.16
1023.548	1826.39
1023.839	1841.53
1024.129	1827.07
1024.419	1810.35
1024.709	1778.26
1025	1789.56
1025.29	1775.77
1025.58	1743.46
1025.87	1744.36
1026.16	1722.44
1026.449	1717.02
1026.739	1730.8
1027.029	1709.33
1027.319	1700.29
1027.608	1674.31
1027.898	1653.29
1028.187	1609.68
1028.477	1647.19
1028.766	1633.18
1029.055	1618.26
1029.344	1616.68
1029.634	1587.3
1029.923	1563.57
1030.212	1567.42
1030.501	1566.51
1030.79	1572.16
1031.078	1527.64
1031.367	1532.62
1031.656	1528.32
1031.945	1481.09
1032.233	1474.76
1032.522	1467.53
1032.81	1470.92
1033.099	1448.55
1033.387	1493.75
1033.675	1429.11
1033.963	1474.31
1034.251	1424.6
1034.54	1401.32
1034.828	1429.11
1035.116	1414.43
1035.403	1377.59
1035.691	1362.45
1035.979	1362.45
1036.267	1349.57
1036.554	1305.73
1036.842	1329.23
1037.129	1318.38
1037.417	1313.41
1037.704	1292.17
1037.992	1308.89
1038.279	1272.28
1038.566	1285.39
1038.853	1285.39
1039.14	1285.39
