Data from orange_diffuse_book_FLMS001491_00056.txt Node
Date: Wed Feb 08 15:29:45 GMT 2017
User: dcchb
Spectrometer: FLMS00149
Trigger mode: 0
Integration Time (sec): 2.000000E-2
Scans to average: 10
Electric dark correction enabled: true
Nonlinearity correction enabled: false
Boxcar width: 0
XAxis mode: Wavelengths
Number of Pixels in Spectrum: 2048
>>>>>Begin Spectral Data<<<<<
341.393	-14.43
341.776	-14.43
342.16	-14.43
342.543	-49.91
342.927	-59.41
343.31	-99.63
343.693	-65.96
344.077	-73.19
344.46	-53.3
344.843	-49.91
345.226	-42
345.61	-34.1
345.993	-22.8
346.376	-5.4
346.759	18.56
347.142	18.11
347.525	43.42
347.908	59.91
348.291	64.89
348.674	114.83
349.057	126.58
349.44	121.16
349.823	141.04
350.206	154.15
350.588	204.09
350.971	204.99
351.354	217.42
351.737	270.3
352.119	267.37
352.502	270.53
352.884	285.9
353.267	309.4
353.65	308.72
354.032	314.37
354.414	315.95
354.797	327.7
355.179	326.12
355.562	341.94
355.944	330.87
356.326	347.82
356.709	332.9
357.091	336.74
357.473	345.1
357.855	360.02
358.238	349.4
358.62	360.24
359.002	353.24
359.384	341.49
359.766	334.03
360.148	353.69
360.53	353.01
360.912	368.15
361.294	374.03
361.676	340.36
362.057	334.71
362.439	335.84
362.821	349.17
363.203	343.52
363.584	329.06
363.966	323.86
364.348	312.79
364.729	311.88
365.111	318.66
365.493	321.83
365.874	341.26
366.256	324.99
366.637	309.62
367.019	321.15
367.4	329.51
367.781	323.86
368.163	326.8
368.544	321.38
368.925	329.29
369.306	325.67
369.688	323.18
370.069	310.98
370.45	321.83
370.831	329.29
371.212	323.86
371.593	334.26
371.974	331.32
372.355	318.21
372.736	310.53
373.117	315.95
373.498	319.79
373.879	328.16
374.26	339.45
374.641	321.83
375.021	351.21
375.402	329.29
375.783	339.91
376.163	337.87
376.544	330.19
376.925	322.73
377.305	346.23
377.686	321.6
378.066	327.7
378.447	332.9
378.827	327.48
379.208	355.5
379.588	327.93
379.968	347.36
380.349	345.56
380.729	352.34
381.109	346.91
381.489	343.52
381.87	339.23
382.25	327.25
382.63	348.04
383.01	353.24
383.39	361.15
383.77	359.57
384.15	344.88
384.53	347.36
384.91	340.81
385.29	374.71
385.67	360.02
386.049	357.98
386.429	351.21
386.809	367.7
387.189	367.02
387.568	343.3
387.948	334.48
388.328	373.8
388.707	360.7
389.087	368.83
389.466	369.74
389.846	389.4
390.225	362.05
390.605	373.58
390.984	359.79
391.363	357.98
391.743	375.16
392.122	376.74
392.501	377.19
392.881	411.54
393.26	379
393.639	385.55
394.018	389.17
394.397	382.39
394.776	398.21
395.155	394.14
395.534	375.61
395.913	386.68
396.292	407.02
396.671	397.31
397.05	382.62
397.429	414.93
397.808	398.21
398.186	402.05
398.565	399.57
398.944	410.19
399.323	390.75
399.701	391.43
400.08	391.2
400.458	416.97
400.837	423.29
401.215	424.65
401.594	392.33
401.972	426.46
402.351	397.08
402.729	421.49
403.107	430.75
403.486	409.51
403.864	435.72
404.242	427.36
404.62	421.49
404.999	431.66
405.377	439.79
405.755	437.3
406.133	445.67
406.511	441.15
406.889	437.98
407.267	451.77
407.645	440.24
408.023	454.71
408.401	448.38
408.779	456.06
409.156	452.67
409.534	463.74
409.912	463.52
410.29	485.44
410.667	480.47
411.045	478.43
411.422	484.31
411.8	490.18
412.178	485.67
412.555	464.87
412.933	497.42
413.31	496.29
413.687	470.75
414.065	524.31
414.442	513.46
414.819	510.3
415.197	482.95
415.574	506.91
415.951	489.96
416.328	518.88
416.705	512.78
417.082	508.49
417.46	534.03
417.837	529.28
418.214	513.69
418.591	537.19
418.967	543.29
419.344	538.32
419.721	509.17
420.098	541.71
420.475	543.74
420.852	555.95
421.228	559.11
421.605	557.53
421.982	536.96
422.358	553.91
422.735	570.86
423.111	563.4
423.488	558.43
423.864	578.77
424.241	597.98
424.617	564.76
424.994	581.71
425.37	588.94
425.746	604.98
426.123	610.41
426.499	593.68
426.875	601.14
427.251	620.12
427.627	636.62
428.003	639.11
428.379	617.64
428.756	624.19
429.132	625.77
429.507	638.43
429.883	635.72
430.259	640.46
430.635	651.08
431.011	642.05
431.387	661.03
431.763	662.16
432.138	670.52
432.514	659.67
432.89	683.4
433.265	679.56
433.641	701.03
434.016	710.52
434.392	737.86
434.767	705.32
435.143	705.77
435.518	706.68
435.894	732.21
436.269	728.6
436.644	736.51
437.02	752.32
437.395	749.16
437.77	775.15
438.145	768.14
438.52	757.75
438.895	766.11
439.271	761.14
439.646	795.71
440.021	785.32
440.395	808.14
440.77	783.74
441.145	790.52
441.52	804.98
441.895	784.41
442.27	790.52
442.645	826.67
443.019	782.61
443.394	826.45
443.769	818.09
444.143	826.45
444.518	841.81
444.892	831.64
445.267	829.16
445.641	842.27
446.016	865.77
446.39	851.08
446.764	846.56
447.139	847.46
447.513	858.99
447.887	865.54
448.262	878.42
448.636	872.32
449.01	858.08
449.384	883.39
449.758	882.72
450.132	880.68
450.506	895.37
450.88	892.66
451.254	912.55
451.628	906.9
452.002	929.27
452.376	922.49
452.75	932.43
453.123	923.39
453.497	952.32
453.871	963.17
454.244	962.04
454.618	977.86
454.992	976.95
455.365	994.13
455.739	984.64
456.112	1005.2
456.486	992.32
456.859	999.1
457.232	1026.22
457.606	1032.32
457.979	1023.28
458.352	1032.32
458.725	1014.92
459.099	1038.65
459.472	1073.22
459.845	1061.92
460.218	1061.24
460.591	1103.73
460.964	1080.45
461.337	1095.59
461.71	1140.79
462.083	1156.61
462.456	1103.95
462.829	1134.69
463.201	1131.98
463.574	1142.15
463.947	1159.32
464.32	1178.08
464.692	1171.07
465.065	1212.2
465.438	1186.66
465.81	1197.96
466.183	1211.52
466.555	1249.03
466.928	1255.36
467.3	1259.2
467.672	1258.07
468.045	1269.6
468.417	1251.52
468.789	1289.71
469.161	1278.64
469.534	1297.62
469.906	1364.06
470.278	1345.3
470.65	1331.74
471.022	1353.44
471.394	1377.39
471.766	1379.2
472.138	1437.05
472.51	1403.38
472.882	1454.45
473.253	1469.82
473.625	1470.27
473.997	1513.43
474.369	1461.01
474.74	1509.14
475.112	1567.44
475.484	1564.05
475.855	1565.64
476.227	1569.93
476.598	1600.89
476.97	1639.76
477.341	1647.44
477.713	1687.67
478.084	1719.53
478.455	1709.59
478.827	1760.21
479.198	1756.59
479.569	1795.24
479.94	1801.56
480.311	1829.58
480.682	1865.06
481.053	1886.76
481.424	1923.82
481.795	1931.73
482.166	1960.88
482.537	1997.04
482.908	2010.37
483.279	2049.01
483.65	2076.81
484.021	2122.91
484.391	2139.86
484.762	2165.62
485.133	2190.25
485.503	2240.2
485.874	2262.12
486.244	2245.62
486.615	2308.44
486.985	2355.45
487.356	2400.87
487.726	2369.91
488.097	2447.2
488.467	2459.4
488.837	2484.71
489.207	2568.32
489.578	2580.53
489.948	2571.94
490.318	2642.22
490.688	2645.38
491.058	2673.4
491.428	2724.48
491.798	2745.94
492.168	2793.63
492.538	2821.2
492.908	2875.66
493.278	2879.95
493.648	2921.08
494.017	2962.89
494.387	2993.62
494.757	3021.42
495.126	3038.37
495.496	3064.13
495.866	3093.28
496.235	3127.18
496.605	3185.26
496.974	3208.53
497.344	3261.41
497.713	3256.89
498.082	3316.1
498.452	3299.6
498.821	3353.39
499.19	3365.59
499.559	3419.6
499.928	3419.83
500.298	3454.4
500.667	3495.98
501.036	3493.27
501.405	3557.45
501.774	3589.09
502.143	3570.56
502.512	3643.1
502.88	3669.99
503.249	3659.59
503.618	3694.85
503.987	3721.06
504.356	3774.62
504.724	3787.95
505.093	3780.72
505.462	3853.03
505.83	3895.75
506.199	3875.63
506.567	3904.33
506.936	3916.08
507.304	4001.96
507.672	3980.26
508.041	4041.96
508.409	4050.32
508.777	4073.14
509.145	4122.18
509.514	4160.37
509.882	4162.18
510.25	4178.9
510.618	4207.6
510.986	4219.58
511.354	4292.8
511.722	4324.66
512.09	4327.6
512.458	4331.89
512.826	4425.22
513.193	4477.2
513.561	4437.2
513.929	4511.32
514.297	4530.98
514.664	4606.23
515.032	4597.42
515.4	4626.12
515.767	4652.56
516.135	4649.17
516.502	4644.43
516.869	4731.43
517.237	4798.77
517.604	4764.87
517.972	4841.03
518.339	4855.27
518.706	4852.1
519.073	4920.12
519.44	4923.74
519.808	4994.25
520.175	4942.27
520.542	5026.11
520.909	5046.9
521.276	5040.35
521.643	5107.24
522.009	5162.6
522.376	5179.1
522.743	5213.45
523.11	5251.19
523.477	5316.72
523.843	5349.27
524.21	5413.9
524.577	5441.47
524.943	5477.17
525.31	5513.1
525.676	5543.61
526.043	5572.99
526.409	5582.71
526.776	5647.34
527.142	5666.77
527.508	5700.9
527.874	5742.93
528.241	5754.91
528.607	5826.09
528.973	5834.68
529.339	5822.7
529.705	5923.26
530.071	5944.28
530.437	5943.83
530.803	5932.98
531.169	6035.58
531.535	6032.19
531.901	6043.94
532.267	6069.02
532.632	6144.5
532.998	6177.04
533.364	6167.32
533.73	6170.26
534.095	6247.1
534.461	6287.77
534.826	6293.87
535.192	6313.76
535.557	6343.59
535.923	6396.92
536.288	6356.02
536.653	6434.21
537.019	6418.39
537.384	6471.72
537.749	6467.65
538.114	6507.65
538.479	6535.9
538.845	6582.68
539.21	6581.1
539.575	6573.64
539.94	6607.09
540.305	6662.9
540.67	6672.62
541.034	6739.51
541.399	6749
541.764	6745.16
542.129	6863.12
542.494	6825.84
542.858	6846.63
543.223	6895.44
543.587	6922.11
543.952	6965.72
544.316	6932.5
544.681	6988.09
545.045	7036.45
545.41	7087.3
545.774	7128.88
546.138	7178.37
546.503	7173.17
546.867	7225.83
547.231	7274.19
547.595	7309.89
547.959	7313.73
548.324	7372.94
548.688	7326.84
549.052	7428.53
549.416	7398.48
549.779	7413.84
550.143	7504.24
550.507	7516.67
550.871	7563.45
551.235	7611.81
551.599	7636.44
551.962	7663.78
552.326	7792.37
552.689	7790.11
553.053	7773.16
553.417	7865.36
553.78	7973.83
554.143	7916.66
554.507	7984.9
554.87	8061.96
555.234	8155.29
555.597	8112.13
555.96	8201.62
556.323	8224.22
556.686	8263.54
557.05	8372.24
557.413	8437.09
557.776	8436.19
558.139	8522.97
558.502	8532.01
558.865	8624.89
559.228	8643.42
559.59	8816.07
559.953	8769.06
560.316	8856.52
560.679	8967.93
561.041	9028.04
561.404	9114.14
561.767	9218.09
562.129	9265.55
562.492	9378.09
562.854	9409.95
563.217	9475.49
563.579	9511.42
563.941	9605.2
564.304	9664.18
564.666	9827.11
565.028	9884.74
565.39	10024.17
565.753	10098.75
566.115	10177.16
566.477	10263.71
566.839	10383.26
567.201	10475.46
567.563	10571.73
567.925	10692.63
568.287	10766.98
568.648	10963.36
569.01	11099.4
569.372	11164.03
569.734	11305.72
570.095	11469.78
570.457	11615.09
570.819	11712.04
571.18	11866.61
571.542	11960.39
571.903	12204.91
572.265	12336.2
572.626	12415.75
572.987	12688.28
573.349	12832.01
573.71	12965.56
574.071	13184.31
574.432	13367.36
574.794	13622.04
575.155	13762.83
575.516	13949.72
575.877	14101.58
576.238	14380.67
576.599	14586.54
576.96	14740.88
577.32	15000.54
577.681	15259.97
578.042	15540.64
578.403	15774.08
578.763	16057.01
579.124	16402.76
579.485	16615.18
579.845	16974.72
580.206	17169.29
580.566	17524.31
580.927	17753.91
581.287	18048.37
581.648	18402.03
582.008	18703.04
582.368	19121.56
582.728	19434.77
583.089	19764.03
583.449	20091.03
583.809	20365.14
584.169	20880.38
584.529	21118.12
584.889	21692.34
585.249	21943.63
585.609	22225.43
585.969	22907.67
586.329	23107.9
586.688	23538.62
587.048	23889.8
587.408	24237.58
587.768	24878.7
588.127	25119.37
588.487	25520.49
588.846	26149.85
589.206	26441.37
589.565	26950.73
589.925	27555.01
590.284	27848.56
590.643	28275.44
591.003	28803.56
591.362	29296.89
591.721	29677.21
592.08	30216.63
592.44	30620.92
592.799	31169.6
593.158	31649.59
593.517	32044.84
593.876	32542.45
594.235	32939.73
594.593	33449.32
594.952	34085.46
595.311	34304.89
595.67	34818.55
596.029	35511.18
596.387	36023.26
596.746	36382.12
597.104	36862.79
597.463	37295.54
597.822	37885.13
598.18	38090.55
598.538	38609.18
598.897	39176.17
599.255	39298.66
599.613	40241.91
599.972	40391.96
600.33	40897.71
600.688	41167.31
601.046	41767.74
601.404	42268.52
601.762	42494.05
602.12	43069.4
602.478	43383.07
602.836	43770.18
603.194	43847.69
603.552	44371.06
603.91	44657.16
604.268	45290.14
604.625	45497.36
604.983	45833.17
605.341	46080.17
605.698	46426.15
606.056	46902.07
606.413	47175.51
606.771	47391.1
607.128	47726.68
607.485	47963.74
607.843	48177.29
608.2	48606.21
608.557	48920.55
608.914	48858.4
609.272	49311.27
609.629	49596.69
609.986	49873.97
610.343	49907.87
610.7	50251.59
611.057	50416.33
611.414	50457.91
611.771	50672.82
612.127	51044.79
612.484	51068.97
612.841	51395.74
613.198	51362.29
613.554	51495.17
613.911	51770.42
614.267	51818.1
614.624	51881.6
614.98	52040.02
615.337	52361.14
615.693	52362.27
616.05	52494.02
616.406	52733.1
616.762	52731.3
617.118	52843.38
617.475	52898.98
617.831	53116.37
618.187	53092.87
618.543	53236.59
618.899	53450.37
619.255	53477.04
619.611	53594.55
619.967	53751.61
620.323	53809.69
620.678	53761.1
621.034	53770.59
621.39	53727.43
621.746	53764.94
622.101	54133.97
622.457	53924.94
622.812	54073.41
623.168	54187.76
623.523	54156.12
623.879	54325.15
624.234	54142.79
624.589	54286.28
624.945	54354.31
625.3	54443.34
625.655	54477.69
626.01	54453.29
626.365	54491.7
626.72	54495.32
627.075	54479.5
627.43	54527.86
627.785	54500.97
628.14	54652.6
628.495	54681.3
628.85	54631.81
629.205	54589.33
629.559	54795.2
629.914	54627.74
630.269	54702.32
630.623	54691.7
630.978	54640.4
631.332	54759.94
631.687	54766.95
632.041	54719.27
632.396	54727.63
632.75	54719.72
633.104	54704.13
633.459	54628.42
633.813	54640.4
634.167	54634.98
634.521	54658.48
634.875	54637.24
635.229	54697.8
635.583	54592.72
635.937	54640.4
636.291	54578.25
636.645	54612.6
636.999	54482.21
637.352	54618.25
637.706	54532.38
638.06	54597.01
638.413	54542.32
638.767	54401.76
639.121	54434.98
639.474	54322.44
639.828	54409.22
640.181	54449.44
640.534	54453.51
640.888	54450.35
641.241	54229.79
641.594	54312.95
641.947	54392.72
642.301	54369.9
642.654	54364.25
643.007	54354.76
643.36	54400.63
643.713	54329.45
644.066	54465.71
644.419	54212.39
644.771	54016.69
645.124	53763.81
645.477	53721.33
645.83	53609.92
646.182	53447.66
646.535	53447.66
646.888	53478.62
647.24	53375.12
647.593	53500.32
647.945	53441.33
648.298	53356.82
648.65	53334.22
649.002	53214.45
649.355	53443.14
649.707	53241.34
650.059	53437.72
650.411	53799.07
650.763	53720.65
651.115	54162.67
651.467	54042
651.819	53958.61
652.171	53861.44
652.523	53856.69
652.875	53926.75
653.227	53760.2
653.578	54049.68
653.93	53833.87
654.282	53809.01
654.633	53759.74
654.985	53871.38
655.337	53826.64
655.688	53867.31
656.039	53935.56
656.391	53685.62
656.742	53732.4
657.094	53808.33
657.445	53921.1
657.796	53828.22
658.147	53778.73
658.498	53734.43
658.849	53781.66
659.2	53745.28
659.551	53691.05
659.902	53771.95
660.253	53733.76
660.604	53781.89
660.955	53613.53
661.306	53700.76
661.656	53683.36
662.007	53679.52
662.358	53746.19
662.708	53769.01
663.059	53674.55
663.409	53496.02
663.76	53781.66
664.11	53745.96
664.461	53731.27
664.811	53709.58
665.161	53689.46
665.511	53598.17
665.862	53613.31
666.212	53649.24
666.562	53661.44
666.912	53683.59
667.262	53569.24
667.612	53557.26
667.962	53620.99
668.312	53604.95
668.662	53616.47
669.011	53602.69
669.361	53450.83
669.711	53612.63
670.06	53400.43
670.41	53378.74
670.76	53393.88
671.109	53543.25
671.459	53388.91
671.808	53402.01
672.157	53434.33
672.507	53273.88
672.856	53267.33
673.205	53366.53
673.554	53354.11
673.904	53303.94
674.253	53351.85
674.602	53315.91
674.951	52804.97
675.3	52632.99
675.649	53166.77
675.998	53084.28
676.346	53162.02
676.695	53289.7
677.044	53016.49
677.393	53095.36
677.741	53150.04
678.09	52979.2
678.438	53011.52
678.787	53129.93
679.135	53054.68
679.484	52772.43
679.832	52889.03
680.181	52787.11
680.529	52844.29
680.877	52774.23
681.225	52764.97
681.573	52814.91
681.922	52621.24
682.27	52585.99
682.618	52592.54
682.966	52512.32
683.314	52593.45
683.661	52445.65
684.009	52216.28
684.357	52253.57
684.705	52223.29
685.053	52375.37
685.4	52203.4
685.748	52071.2
686.095	52001.15
686.443	51936.06
686.79	51861.26
687.138	51981.03
687.485	51915.5
687.832	51768.16
688.18	51816.97
688.527	51656.98
688.874	51543.98
689.221	51552.57
689.568	51491.78
689.915	51384.44
690.262	51392.58
690.609	51138.57
690.956	51099.02
691.303	51112.81
691.65	50950.1
691.997	50892.7
692.344	50720.05
692.69	50677.11
693.037	50643.67
693.383	50410.68
693.73	50543.78
694.077	50252.94
694.423	50367.29
694.769	50272.83
695.116	50202.78
695.462	50134.3
695.808	49967.08
696.155	50038.03
696.501	49689.57
696.847	49745.61
697.193	49482.34
697.539	49573.41
697.885	49304.95
698.231	49273.08
698.577	49320.99
698.923	49177.94
699.269	48894.11
699.614	48867.67
699.96	48711.06
700.306	48748.13
700.651	48566.89
700.997	48433.33
701.342	48494.12
701.688	48361.92
702.033	48208.48
702.379	48248.93
702.724	48047.13
703.069	48098.42
703.415	47681.71
703.76	47751.77
704.105	47688.72
704.45	47665.22
704.795	47268.16
705.14	47321.72
705.485	47234.94
705.83	47043.31
706.175	47143.42
706.52	47034.72
706.865	46701.85
707.209	46772.13
707.554	46628.86
707.899	46702.53
708.243	46562.65
708.588	46286.95
708.932	46158.81
709.277	46132.37
709.621	46067.74
709.966	45778.03
710.31	45909.1
710.654	45569.68
710.998	45657.13
711.342	45754.53
711.687	45562.45
712.031	45336.01
712.375	45253.08
712.719	45326.75
713.063	45242.23
713.407	45328.78
713.75	45077.49
714.094	45108.45
714.438	44853.31
714.782	44854.22
715.125	44741.45
715.469	44876.36
715.812	44591.17
716.156	44478.18
716.499	44392.99
716.843	44486.54
717.186	44225.76
717.53	44368.35
717.873	44369.03
718.216	44237.96
718.559	44096.27
718.902	43855.6
719.246	43958.65
719.589	43769.95
719.932	43707.13
720.275	43651.08
720.617	43599.56
720.96	43622.61
721.303	43523.18
721.646	43559.11
721.989	43296.97
722.331	43482.27
722.674	43365.22
723.016	43213.36
723.359	43275.73
723.701	43224.88
724.044	43037.31
724.386	42831.67
724.729	43013.36
725.071	42898.11
725.413	42939.01
725.755	42793.93
726.097	42697.66
726.439	42657.44
726.782	42462.64
727.124	42785.8
727.465	42522.98
727.807	42421.29
728.149	42448.18
728.491	42364.11
728.833	42415.64
729.175	42146.49
729.516	42201.63
729.858	42222.87
730.199	42119.6
730.541	42150.33
730.882	42059.94
731.224	42162.76
731.565	41913.73
731.906	41830.11
732.248	41949.21
732.589	41861.98
732.93	41736.56
733.271	41634.41
733.612	41666.05
733.953	41682.55
734.294	41549.22
734.635	41571.36
734.976	41508.32
735.317	41310.35
735.658	41261.32
735.999	41353.74
736.339	41183.35
736.68	41294.99
737.021	41237.59
737.361	41113.3
737.702	41246.63
738.042	41153.52
738.383	41047.76
738.723	41076.69
739.063	40879.63
739.404	41048.21
739.744	40817.71
740.084	40751.73
740.424	40864.04
740.764	40649.58
741.104	40860.2
741.444	40573.2
741.784	40563.71
742.124	40637.38
742.464	40543.37
742.804	40462.47
743.143	40342.02
743.483	40501.56
743.823	40352.87
744.162	40282.13
744.502	40264.73
744.841	40044.17
745.181	40375.01
745.52	40105.19
745.86	40091.63
746.199	40080.78
746.538	40162.14
746.877	40043.27
747.216	39985.42
747.556	39999.88
747.895	39873.1
748.234	39865.65
748.573	39687.12
748.911	39674.69
749.25	39646.44
749.589	39496.84
749.928	39639.21
750.267	39486.9
750.605	39527.8
750.944	39340.24
751.283	39298.2
751.621	39561.25
751.96	38924.2
752.298	39163.29
752.636	39020.7
752.975	38896.18
753.313	38720.82
753.651	38912.45
753.989	38651.22
754.327	38680.14
754.666	38540.03
755.004	38412.58
755.342	38628.84
755.679	38468.17
756.017	38351.11
756.355	38540.03
756.693	38129.2
757.031	38148.18
757.368	38039.48
757.706	37971.91
758.044	37809.88
758.381	37914.29
758.719	37780.05
759.056	37732.37
759.394	37632.26
759.731	37345.71
760.068	37439.04
760.405	37187.3
760.743	37070.69
761.08	37125.15
761.417	36914.31
761.754	36904.82
762.091	36856.01
762.428	36666.63
762.765	36419.18
763.102	36678.84
763.438	36373.76
763.775	36290.83
764.112	36183.48
764.449	36287.44
764.785	36068.46
765.122	35810.16
765.458	35679.32
765.795	35752.76
766.131	35706.89
766.467	35437.06
766.804	35191.87
767.14	35228.03
767.476	35239.33
767.812	35037.53
768.148	35160.91
768.485	34899.22
768.821	34679.79
769.157	34575.84
769.492	34567.03
769.828	34555.96
770.164	34354.61
770.5	34245.91
770.836	34187.6
771.171	33955.75
771.507	33847.73
771.842	33595.53
772.178	33737.45
772.513	33584.68
772.849	33442.09
773.184	33251.36
773.519	33382.43
773.855	33163.9
774.19	33027.41
774.525	32952.61
774.86	32838.26
775.195	32831.93
775.53	32585.61
775.865	32400.31
776.2	32120.54
776.535	32006.19
776.87	32003.25
777.205	31949.92
777.539	31911.73
777.874	31782.92
778.209	31591.06
778.543	31490.5
778.878	31347.45
779.212	31323.05
779.547	31084.86
779.881	31159.43
780.215	30939.55
780.55	31004.64
780.884	30741.14
781.218	30737.53
781.552	30714.93
781.886	30517.64
782.22	30358.78
782.554	30225.45
782.888	29991.1
783.222	30006.92
783.556	29818.91
783.889	29855.06
784.223	29539.36
784.557	29356.32
784.89	29657.1
785.224	29364.91
785.557	29222.76
785.891	29253.95
786.224	29076.1
786.558	29013.95
786.891	28800.85
787.224	28676.34
787.557	28603.8
787.891	28738.48
788.224	28593.85
788.557	28558.37
788.89	28348.66
789.223	28264.37
789.556	28049.01
789.888	28043.58
790.221	27919.75
790.554	27732.86
790.887	27811.05
791.219	27656.7
791.552	27660.54
791.884	27554.78
792.217	27390.49
792.549	27326.77
792.882	27082.93
793.214	26948.02
793.546	27045.64
793.879	26910.06
794.211	26821.7
794.543	26718.2
794.875	26665.77
795.207	26750.96
795.539	26491.31
795.871	26503.06
796.203	26285.21
796.535	26177.87
796.867	26154.82
797.198	26115.05
797.53	26062.85
797.862	25834.15
798.193	25901.04
798.525	25721.84
798.856	25678.9
799.188	25505.35
799.519	25388.29
799.85	25374.95
800.182	25393.71
800.513	25367.04
800.844	25112.14
801.175	25214.05
801.506	25106.03
801.837	24970.45
802.168	24868.3
802.499	24838.02
802.83	24714.41
803.161	24585.14
803.491	24685.71
803.822	24638.25
804.153	24465.6
804.483	24217.47
804.814	24189.45
805.145	24184.48
805.475	24065.16
805.805	24095.44
806.136	24157.36
806.466	24073.75
806.796	23960.08
807.126	23854.54
807.457	23749.91
807.787	23713.76
808.117	23725.73
808.447	23630.82
808.777	23644.38
809.107	23473.99
809.436	23503.14
809.766	23296.14
810.096	23300.88
810.426	23194.67
810.755	23239.64
811.085	23181.11
811.414	23112.41
811.744	23011.85
812.073	22921.46
812.403	22896.6
812.732	22746.55
813.061	22645.76
813.39	22547.23
813.719	22498.42
814.049	22599.89
814.378	22444.18
814.707	22443.51
815.036	22408.03
815.365	22347.01
815.693	22110.41
816.022	22054.82
816.351	22050.52
816.68	21929.62
817.008	22048.49
817.337	21959.22
817.665	21820.25
817.994	21826.35
818.322	21727.37
818.651	21656.86
818.979	21592.68
819.307	21616.41
819.636	21543.19
819.964	21440.37
820.292	21554.26
820.62	21532.57
820.948	21354.95
821.276	21407.15
821.604	21406.47
821.932	21385
822.259	21448.28
822.587	21398.79
822.915	21355.85
823.243	21290.09
823.57	21313.37
823.898	21340.48
824.225	21260.94
824.553	21279.47
824.88	21246.93
825.207	21319.92
825.535	21353.14
825.862	21414.38
826.189	21272.24
826.516	21347.94
826.843	21378.68
827.17	21329.64
827.497	21370.54
827.824	21272.92
828.151	21302.07
828.478	21303.65
828.805	21367.6
829.131	21267.94
829.458	21231.56
829.785	21156.08
830.111	21225.01
830.438	21306.59
830.764	21286.7
831.09	21312.46
831.417	21177.1
831.743	21189.98
832.069	21241.96
832.395	21096.2
832.722	21158.79
833.048	21030.21
833.374	21147.72
833.7	21072.24
834.026	21032.24
834.351	21165.57
834.677	21049.87
835.003	21120.83
835.329	21009.65
835.654	20934.62
835.98	20835.41
836.306	20837.67
836.631	20770.78
836.956	20944.56
837.282	20818.92
837.607	20712.25
837.932	20751.12
838.258	20720.61
838.583	20590
838.908	20521.52
839.233	20701.4
839.558	20593.84
839.883	20537.79
840.208	20544.8
840.533	20412.6
840.858	20474.29
841.182	20467.51
841.507	20442.65
841.832	20265.03
842.156	20220.51
842.481	20128.31
842.805	20111.14
843.13	20012.84
843.454	20203.56
843.778	20035.43
844.103	19992.04
844.427	19994.3
844.751	19903.46
845.075	19899.62
845.399	19829.34
845.723	19710.92
846.047	19716.57
846.371	19521.1
846.695	19594.77
847.019	19484.26
847.343	19375.56
847.666	19132.18
847.99	19085.85
848.313	19118.62
848.637	19093.09
848.96	19022.35
849.284	19003.6
849.607	18815.13
849.931	18825.07
850.254	18623.95
850.577	18543.04
850.9	18494.68
851.223	18416.27
851.546	18376.04
851.869	18300.11
852.192	18317.96
852.515	18163.17
852.838	18117.52
853.161	18103.96
853.483	17994.13
853.806	17871.65
854.129	17854.47
854.451	17786.68
854.774	17602.96
855.096	17598.89
855.419	17638.21
855.741	17593.01
856.063	17412.68
856.385	17447.03
856.708	17294.04
857.03	17301.04
857.352	17179.69
857.674	17195.51
857.996	17140.37
858.318	17053.37
858.64	17103.53
858.961	17090.43
859.283	17019.02
859.605	16801.39
859.926	16937.89
860.248	16832.35
860.57	16774.28
860.891	16804.11
861.212	16719.14
861.534	16601.17
861.855	16581.06
862.176	16601.4
862.498	16588.74
862.819	16546.03
863.14	16397.79
863.461	16426.71
863.782	16373.61
864.103	16421.29
864.424	16394.85
864.745	16442.99
865.065	16288.64
865.386	16250.22
865.707	16188.3
866.027	16230.79
866.348	16225.14
866.668	16150.79
866.989	16151.24
867.309	16048.87
867.63	16142.88
867.95	16125.71
868.27	16028.76
868.59	16075.99
868.91	15917.58
869.23	15894.53
869.55	15819.5
869.87	15870.12
870.19	15841.19
870.51	15893.62
870.83	15781.53
871.15	15760.97
871.469	15811.36
871.789	15683.01
872.109	15725.94
872.428	15626.74
872.748	15742.67
873.067	15650.24
873.386	15730.01
873.706	15619.96
874.025	15534.08
874.344	15478.94
874.663	15449.34
874.982	15443.01
875.301	15509.45
875.62	15410.7
875.939	15401.88
876.258	15371.38
876.577	15387.42
876.896	15328.44
877.214	15208.67
877.533	15244.37
877.852	15209.12
878.17	15248.21
878.489	15221.77
878.807	15116.92
879.125	15182.23
879.444	15090.03
879.762	15037.37
880.08	15121.21
880.398	14969.35
880.716	14941.78
881.034	14938.39
881.352	14895.68
881.67	14991.5
881.988	14971.61
882.306	14872.18
882.624	14816.14
882.941	14733.65
883.259	14624.95
883.577	14601
883.894	14615.92
884.212	14590.38
884.529	14610.49
884.846	14518.06
885.164	14609.14
885.481	14528.91
885.798	14578.63
886.115	14405.53
886.432	14384.06
886.75	14397.84
887.067	14340.44
887.383	14250.5
887.7	14279.65
888.017	14178.41
888.334	14194.01
888.651	14144.29
888.967	14177.51
889.284	14027.23
889.6	14099.54
889.917	14029.72
890.233	13972.54
890.55	13920.57
890.866	13914.46
891.182	13799.21
891.498	13787.24
891.815	13705.66
892.131	13662.72
892.447	13666.79
892.763	13620.46
893.079	13599.9
893.395	13548.37
893.71	13546.79
894.026	13427.92
894.342	13420.01
894.657	13362.61
894.973	13331.88
895.289	13344.76
895.604	13279
895.92	13220.47
896.235	13152.22
896.55	13162.17
896.865	13078.55
897.181	13113.81
897.496	12950.2
897.811	12931.67
898.126	12874.04
898.441	12914.94
898.756	12850.31
899.071	12728.28
899.386	12775.96
899.7	12680.6
900.015	12624.33
900.33	12564.67
900.644	12536.65
900.959	12499.81
901.273	12466.14
901.588	12391.79
901.902	12244.9
902.216	12276.99
902.531	12218.92
902.845	12148.18
903.159	12188.18
903.473	12146.38
903.787	12011.46
904.101	12005.59
904.415	11987.96
904.729	12040.39
905.042	11917.68
905.356	11883.11
905.67	11823.9
905.984	11807.4
906.297	11823.22
906.611	11708.87
906.924	11654.41
907.237	11588.2
907.551	11507.75
907.864	11508.2
908.177	11462.33
908.491	11356.79
908.804	11410.8
909.117	11312.5
909.43	11295.78
909.743	11172.16
910.056	11189.11
910.368	11119.06
910.681	11112.28
910.994	10999.06
911.307	10950.02
911.619	10798.39
911.932	10933.75
912.244	10855.34
912.557	10780.31
912.869	10679.52
913.181	10737.15
913.494	10660.31
913.806	10581.22
914.118	10535.34
914.43	10458.51
914.742	10564.95
915.054	10426.65
915.366	10394.78
915.678	10352.52
915.99	10300.55
916.302	10222.58
916.613	10193.66
916.925	10123.15
917.236	10198.18
917.548	10067.79
917.859	10063.72
918.171	10035.92
918.482	9972.42
918.794	9905.53
919.105	9923.16
919.416	9889.03
919.727	9838.64
920.038	9774.46
920.349	9719.77
920.66	9675.48
920.971	9643.39
921.282	9683.62
921.593	9616.95
921.903	9468.93
922.214	9493.56
922.525	9449.72
922.835	9483.17
923.146	9361.14
923.456	9331.08
923.767	9281.37
924.077	9259.45
924.387	9173.35
924.697	9164.31
925.008	9095.83
925.318	9037.08
925.628	9070.98
925.938	8998.89
926.248	8916.18
926.558	8929.51
926.867	8862.17
927.177	8852.9
927.487	8818.78
927.796	8730.65
928.106	8741.04
928.416	8706.92
928.725	8618.11
929.034	8579.01
929.344	8630.31
929.653	8526.13
929.962	8548.5
930.271	8472.8
930.581	8421.28
930.89	8438.22
931.199	8404.33
931.508	8322.97
931.817	8285.46
932.125	8268.96
932.434	8272.58
932.743	8180.38
933.051	8123.43
933.36	8082.98
933.669	7958.46
933.977	8015.18
934.286	8015.18
934.594	7964.56
934.902	7866.26
935.21	7840.5
935.519	7896.32
935.827	7839.6
936.135	7769.54
936.443	7723.44
936.751	7717.11
937.059	7648.87
937.367	7612.48
937.674	7624.69
937.982	7587.85
938.29	7573.39
938.597	7539.72
938.905	7470.79
939.213	7424.24
939.52	7351.02
939.827	7360.29
940.135	7319.38
940.442	7333.62
940.749	7286.84
941.056	7314.64
941.363	7219.05
941.67	7209.1
941.977	7153.96
942.284	7113.06
942.591	7142.44
942.898	7021.76
943.205	7075.32
943.511	6949
943.818	7020.41
944.125	6884.14
944.431	6959.17
944.738	6895.67
945.044	6814.09
945.35	6847.76
945.657	6782.67
945.963	6786.29
946.269	6686.63
946.575	6697.93
946.881	6656.58
947.187	6640.53
947.493	6564.15
947.799	6594.43
948.105	6553.3
948.41	6457.26
948.716	6499.97
949.022	6443.02
949.327	6443.47
949.633	6370.26
949.938	6401.44
950.244	6409.35
950.549	6319.86
950.854	6232.63
951.16	6274.44
951.465	6201.9
951.77	6203.71
952.075	6166.42
952.38	6168.91
952.685	6173.65
952.99	6018.63
953.294	6043.94
953.599	6024.73
953.904	5971.85
954.209	5991.74
954.513	5953.09
954.818	5965.52
955.122	5897.95
955.426	5919.87
955.731	5849.37
956.035	5808.46
956.339	5835.36
956.643	5807.33
956.948	5763.27
957.252	5747
957.556	5663.38
957.86	5737.05
958.163	5713.78
958.467	5640.56
958.771	5589.49
959.075	5568.7
959.378	5537.28
959.682	5592.65
959.985	5537.74
960.289	5441.02
960.592	5425.65
960.896	5450.05
961.199	5392.65
961.502	5399.66
961.805	5347.46
962.108	5323.5
962.411	5302.94
962.714	5291.64
963.017	5302.49
963.32	5237.86
963.623	5190.85
963.926	5187.46
964.228	5157.63
964.531	5106.79
964.833	5136.39
965.136	5103.4
965.438	5104.75
965.741	5060.69
966.043	4966.45
966.345	5038.99
966.648	5023.4
966.95	4982.95
967.252	4977.3
967.554	4922.38
967.856	4886.68
968.158	4852.1
968.46	4883.06
968.761	4801.26
969.063	4810.3
969.365	4777.08
969.666	4777.98
969.968	4733.46
970.269	4706.35
970.571	4693.46
970.872	4701.6
971.174	4649.85
971.475	4602.39
971.776	4607.82
972.077	4590.87
972.378	4552.9
972.679	4550.42
972.98	4547.48
973.281	4484.66
973.582	4542.06
973.883	4500.02
974.183	4453.02
974.484	4408.5
974.785	4405.79
975.085	4435.62
975.386	4431.55
975.686	4416.41
975.986	4350.87
976.287	4323.76
976.587	4289.63
976.887	4297.54
977.187	4282.85
977.487	4246.92
977.787	4196.98
978.087	4171.44
978.387	4215.28
978.687	4174.16
978.987	4136.64
979.286	4141.39
979.586	4107.04
979.885	4075.4
980.185	4053.03
980.484	3996.76
980.784	4010.32
981.083	3965.8
981.382	3997.44
981.682	3993.82
981.981	3939.81
982.28	4009.19
982.579	3907.95
982.878	3875.41
983.177	3903.43
983.475	3888.74
983.774	3847.38
984.073	3832.47
984.372	3825.24
984.67	3793.15
984.969	3829.08
985.267	3792.24
985.566	3741.4
985.864	3732.59
986.162	3713.6
986.461	3711.34
986.759	3672.93
987.057	3609.42
987.355	3663.66
987.653	3609.42
987.951	3601.52
988.249	3619.14
988.547	3585.24
988.844	3541.18
989.142	3572.82
989.44	3520.16
989.737	3512.25
990.035	3493.95
990.332	3494.63
990.63	3463.44
990.927	3419.83
991.224	3445.36
991.521	3438.81
991.819	3393.84
992.116	3348.41
992.413	3380.96
992.71	3353.16
993.006	3334.86
993.303	3324.23
993.6	3299.15
993.897	3272.48
994.193	3274.74
994.49	3244.01
994.787	3229.55
995.083	3207.4
995.379	3219.6
995.676	3160.4
995.972	3155.2
996.268	3152.94
996.565	3140.96
996.861	3091.7
997.157	3117.23
997.453	3057.57
997.749	3093.73
998.044	3082.66
998.34	3017.12
998.636	3011.7
998.932	2981.64
999.227	2996.56
999.523	2966.73
999.818	2938.93
1000.114	2943
1000.409	2906.62
1000.704	2892.83
1001	2907.07
1001.295	2884.92
1001.59	2872.72
1001.885	2881.31
1002.18	2838.37
1002.475	2778.94
1002.77	2800.18
1003.065	2747.98
1003.359	2729.67
1003.654	2757.92
1003.949	2693.97
1004.243	2699.84
1004.538	2660.07
1004.832	2678.15
1005.127	2660.52
1005.421	2641.09
1005.715	2642.44
1006.009	2623.01
1006.304	2611.71
1006.598	2570.58
1006.892	2574.88
1007.186	2585.27
1007.48	2548.89
1007.773	2550.02
1008.067	2558.38
1008.361	2515.67
1008.655	2497.59
1008.948	2471.15
1009.242	2487.87
1009.535	2465.5
1009.829	2410.36
1010.122	2390.25
1010.415	2408.33
1010.708	2357.03
1011.001	2362.68
1011.295	2351.6
1011.588	2357.48
1011.881	2345.28
1012.173	2297.82
1012.466	2313.19
1012.759	2313.64
1013.052	2272.06
1013.344	2255.56
1013.637	2263.25
1013.93	2235
1014.222	2221.89
1014.514	2210.37
1014.807	2199.07
1015.099	2184.83
1015.391	2139.63
1015.683	2161.1
1015.976	2134.21
1016.268	2130.37
1016.56	2105.28
1016.851	2058.51
1017.143	2106.19
1017.435	2075.91
1017.727	2033.2
1018.018	2011.73
1018.31	2025.51
1018.602	2037.04
1018.893	2016.7
1019.185	1991.84
1019.476	1953.42
1019.767	1974.89
1020.058	1965.4
1020.35	1940.77
1020.641	1913.42
1020.932	1901
1021.223	1908
1021.514	1877.04
1021.804	1864.16
1022.095	1852.63
1022.386	1833.2
1022.677	1836.14
1022.967	1788.68
1023.258	1773.77
1023.548	1798.17
1023.839	1780.77
1024.129	1769.47
1024.419	1749.59
1024.709	1753.88
1025	1725.86
1025.29	1730.6
1025.58	1713.66
1025.87	1686.76
1026.16	1693.77
1026.449	1671.62
1026.739	1619.42
1027.029	1659.19
1027.319	1645.41
1027.608	1638.63
1027.898	1610.61
1028.187	1607.9
1028.477	1580.33
1028.766	1557.5
1029.055	1518.63
1029.344	1569.03
1029.634	1544.17
1029.923	1555.24
1030.212	1544.17
1030.501	1505.3
1030.79	1493.55
1031.078	1466.88
1031.367	1503.04
1031.656	1466.2
1031.945	1462.59
1032.233	1444.28
1032.522	1447.9
1032.81	1425.98
1033.099	1423.27
1033.387	1406.77
1033.675	1398.41
1033.963	1368.81
1034.251	1367.9
1034.54	1359.09
1034.828	1350.5
1035.116	1337.62
1035.403	1329.03
1035.691	1324.74
1035.979	1343.04
1036.267	1316.15
1036.554	1322.48
1036.842	1270.05
1037.129	1278.86
1037.417	1303.5
1037.704	1276.38
1037.992	1236.83
1038.279	1246.32
1038.566	1246.1
1038.853	1246.1
1039.14	1246.1
