Data from orange_diffuse_book_FLMS001491_00012.txt Node
Date: Wed Feb 08 15:29:11 GMT 2017
User: dcchb
Spectrometer: FLMS00149
Trigger mode: 0
Integration Time (sec): 2.000000E-2
Scans to average: 10
Electric dark correction enabled: true
Nonlinearity correction enabled: false
Boxcar width: 0
XAxis mode: Wavelengths
Number of Pixels in Spectrum: 2048
>>>>>Begin Spectral Data<<<<<
341.393	-2.91
341.776	-2.91
342.16	-2.91
342.543	-60.76
342.927	-59.86
343.31	-61.89
343.693	-60.08
344.077	-66.18
344.46	-54.21
344.843	-61.67
345.226	-39.74
345.61	-23.47
345.993	-3.59
346.376	-6.3
346.759	6.13
347.142	14.49
347.525	31.44
347.908	49.29
348.291	76.41
348.674	92.46
349.057	106.92
349.44	119.8
349.823	161.61
350.206	151.44
350.588	221.72
350.971	225.56
351.354	251.55
351.737	263.07
352.119	274.6
352.502	276.63
352.884	274.82
353.267	294.03
353.65	289.51
354.032	309.62
354.414	309.4
354.797	330.42
355.179	318.44
355.562	338.55
355.944	328.83
356.326	353.69
356.709	348.49
357.091	367.02
357.473	364.99
357.855	374.71
358.238	368.38
358.62	359.11
359.002	359.11
359.384	375.84
359.766	347.82
360.148	354.14
360.53	356.86
360.912	364.54
361.294	344.88
361.676	337.19
362.057	364.99
362.439	351.21
362.821	334.48
363.203	346.46
363.584	337.42
363.966	340.13
364.348	338.32
364.729	348.95
365.111	324.54
365.493	344.2
365.874	330.42
366.256	338.55
366.637	322.73
367.019	328.61
367.4	332.9
367.781	327.48
368.163	324.09
368.544	329.96
368.925	350.75
369.306	345.78
369.688	338.78
370.069	340.58
370.45	318.21
370.831	338.1
371.212	324.54
371.593	354.37
371.974	341.94
372.355	343.75
372.736	343.07
373.117	321.15
373.498	326.12
373.879	338.1
374.26	310.98
374.641	329.51
375.021	323.86
375.402	327.7
375.783	338.32
376.163	334.71
376.544	333.13
376.925	344.65
377.305	346.01
377.686	349.4
378.066	346.46
378.447	343.3
378.827	353.01
379.208	350.53
379.588	342.84
379.968	366.57
380.349	367.7
380.729	348.72
381.109	335.84
381.489	352.56
381.87	342.62
382.25	355.27
382.63	364.09
383.01	356.4
383.39	372.67
383.77	361.6
384.15	365.89
384.53	354.37
384.91	360.7
385.29	371.09
385.67	348.49
386.049	358.89
386.429	363.86
386.809	374.26
387.189	383.75
387.568	360.7
387.948	365.67
388.328	377.42
388.707	379.68
389.087	382.39
389.466	382.39
389.846	377.19
390.225	381.71
390.605	374.26
390.984	388.49
391.363	404.31
391.743	386.23
392.122	382.17
392.501	403.63
392.881	390.3
393.26	399.11
393.639	388.04
394.018	396.85
394.397	401.37
394.776	402.73
395.155	402.28
395.534	389.17
395.913	397.76
396.292	401.37
396.671	403.63
397.05	410.86
397.429	411.77
397.808	415.38
398.186	402.05
398.565	407.02
398.944	414.48
399.323	423.52
399.701	416.29
400.08	415.16
400.458	396.85
400.837	419.23
401.215	411.32
401.594	423.29
401.972	415.61
402.351	426.46
402.729	435.72
403.107	431.88
403.486	415.38
403.864	433.01
404.242	442.05
404.62	423.52
404.999	434.37
405.377	448.83
405.755	434.82
406.133	455.61
406.511	448.6
406.889	450.41
407.267	431.66
407.645	437.76
408.023	449.06
408.401	459.45
408.779	440.69
409.156	476.17
409.534	470.75
409.912	491.09
410.29	469.62
410.667	472.11
411.045	480.24
411.422	475.95
411.8	484.76
412.178	480.47
412.555	498.77
412.933	497.64
413.31	495.38
413.687	511.2
414.065	515.72
414.442	492.67
414.819	511.43
415.197	505.1
415.574	517.98
415.951	507.59
416.328	517.53
416.705	534.48
417.082	522.27
417.46	526.12
417.837	539.22
418.214	527.25
418.591	540.8
418.967	550.07
419.344	555.95
419.721	547.81
420.098	552.78
420.475	536.29
420.852	548.49
421.228	561.6
421.605	545.55
421.982	563.86
422.358	559.56
422.735	567.7
423.111	572.44
423.488	574.7
423.864	587.58
424.241	581.48
424.617	571.99
424.994	581.03
425.37	588.26
425.746	595.72
426.123	606.79
426.499	595.27
426.875	647.47
427.251	627.81
427.627	657.86
428.003	648.37
428.379	635.04
428.756	619.45
429.132	629.84
429.507	648.82
429.883	655.15
430.259	638.2
430.635	659.22
431.011	672.55
431.387	688.82
431.763	680.91
432.138	696.51
432.514	703.29
432.89	674.81
433.265	689.05
433.641	713.23
434.016	724.3
434.392	722.72
434.767	722.5
435.143	736.96
435.518	729.27
435.894	756.39
436.269	745.32
436.644	745.32
437.02	763.85
437.395	750.74
437.77	753.68
438.145	800.01
438.52	790.29
438.895	790.97
439.271	770.4
439.646	818.99
440.021	796.84
440.395	796.84
440.77	800.01
441.145	804.75
441.52	820.57
441.895	817.63
442.27	855.82
442.645	818.31
443.019	844.98
443.394	811.31
443.769	827.35
444.143	852.89
444.518	868.03
444.892	833.23
445.267	841.81
445.641	868.71
446.016	855.82
446.39	837.97
446.764	860.8
447.139	872.1
447.513	891.08
447.887	878.88
448.262	898.08
448.636	882.94
449.01	889.04
449.384	894.24
449.758	886.11
450.132	913.9
450.506	928.37
450.88	917.07
451.254	918.2
451.628	932.21
452.002	951.42
452.376	950.29
452.75	976.95
453.123	958.65
453.497	961.58
453.871	959.33
454.244	979.44
454.618	987.35
454.992	999.1
455.365	969.49
455.739	1007.69
456.112	1019.66
456.486	1008.59
456.859	1024.63
457.232	1044.29
457.606	1059.66
457.979	1055.37
458.352	1081.13
458.725	1064.63
459.099	1075.03
459.472	1082.71
459.845	1104.86
460.218	1113.67
460.591	1112.77
460.964	1119.55
461.337	1115.03
461.71	1138.08
462.083	1151.64
462.456	1130.39
462.829	1152.99
463.201	1168.81
463.574	1149.38
463.947	1181.92
464.32	1212.88
464.692	1218.3
465.065	1214.69
465.438	1203.84
465.81	1251.07
466.183	1245.19
466.555	1248.13
466.928	1255.59
467.3	1262.59
467.672	1281.12
468.045	1284.97
468.417	1322.25
468.789	1299.66
469.161	1320.9
469.534	1327.45
469.906	1336.04
470.278	1367.22
470.65	1356.38
471.022	1400.22
471.394	1435.02
471.766	1399.77
472.138	1405.64
472.51	1475.47
472.882	1466.88
473.253	1501.68
473.625	1512.3
473.997	1528.35
474.369	1546.43
474.74	1526.77
475.112	1562.93
475.484	1576.71
475.855	1589.59
476.227	1595.92
476.598	1633.88
476.97	1671.85
477.341	1696.93
477.713	1710.04
478.084	1716.37
478.455	1766.08
478.827	1771.28
479.198	1827.78
479.569	1802.01
479.94	1839.08
480.311	1860.77
480.682	1907.1
481.053	1947.77
481.424	1973.54
481.795	1986.64
482.166	1992.29
482.537	2018.96
482.908	2101.22
483.279	2087.88
483.65	2093.53
484.021	2144.6
484.391	2169.46
484.762	2198.61
485.133	2216.47
485.503	2257.82
485.874	2293.98
486.244	2364.49
486.615	2362
486.985	2411.94
487.356	2469.79
487.726	2483.35
488.097	2522.9
488.467	2539.17
488.837	2562.9
489.207	2598.6
489.578	2648.32
489.948	2621.88
490.318	2733.74
490.688	2698.94
491.058	2770.8
491.428	2822.78
491.798	2843.34
492.168	2891.7
492.538	2902.78
492.908	2930.35
493.278	2973.51
493.648	2987.29
494.017	3025.94
494.387	3062.32
494.757	3093.05
495.126	3160.17
495.496	3177.35
495.866	3216.89
496.235	3246.72
496.605	3266.61
496.974	3285.37
497.344	3312.71
497.713	3339.38
498.082	3404.91
498.452	3448.07
498.821	3485.13
499.19	3468.19
499.559	3489.2
499.928	3536.88
500.298	3571.69
500.667	3666.37
501.036	3615.53
501.405	3653.72
501.774	3636.09
502.143	3737.11
502.512	3778.23
502.88	3775.75
503.249	3811.45
503.618	3877.21
503.987	3814.17
504.356	3871.79
504.724	3897.55
505.093	3908.85
505.462	3956.08
505.83	3947.5
506.199	4001.05
506.567	4092.35
506.936	4047.61
507.304	4109.75
507.672	4125.12
508.041	4155.17
508.409	4198.34
508.777	4201.05
509.145	4282.4
509.514	4264.55
509.882	4282.4
510.25	4309.97
510.618	4377.54
510.986	4376.86
511.354	4421.38
511.722	4498.89
512.09	4522.85
512.458	4527.59
512.826	4556.29
513.193	4566.01
513.561	4595.84
513.929	4618.44
514.297	4670.64
514.664	4685.78
515.032	4707.93
515.4	4751.77
515.767	4787.92
516.135	4826.12
516.502	4789.96
516.869	4888.04
517.237	4923.06
517.604	4944.31
517.972	4983.4
518.339	5030.4
518.706	5020.01
519.073	5033.57
519.44	5116.05
519.808	5151.31
520.175	5156.05
520.542	5240.12
520.909	5285.76
521.276	5243.51
521.643	5292.09
522.009	5361.02
522.376	5372.32
522.743	5393.33
523.11	5467
523.477	5535.48
523.843	5489.6
524.21	5602.82
524.577	5616.83
524.943	5642.14
525.31	5615.93
525.676	5728.47
526.043	5764.85
526.409	5804.4
526.776	5857.73
527.142	5859.76
527.508	5926.43
527.874	5954.9
528.241	5993.99
528.607	6000.1
528.973	5996.48
529.339	6076.03
529.705	6100.21
530.071	6136.59
530.437	6196.02
530.803	6194.67
531.169	6247.77
531.535	6243.03
531.901	6249.81
532.267	6313.76
532.632	6335.68
532.998	6330.48
533.364	6435.57
533.73	6384.95
534.095	6452.06
534.461	6514.21
534.826	6526.86
535.192	6546.75
535.557	6563.47
535.923	6681.89
536.288	6580.19
536.653	6700.42
537.019	6633.53
537.384	6680.3
537.749	6728.66
538.114	6725.28
538.479	6787.42
538.845	6807.98
539.21	6765.5
539.575	6845.5
539.94	6849.11
540.305	6949.45
540.67	6935.44
541.034	6995.78
541.399	7009.79
541.764	7004.14
542.129	7071.93
542.494	7061.99
542.858	7129.33
543.223	7097.92
543.587	7213.85
543.952	7152.83
544.316	7202.1
544.681	7217.92
545.045	7330.91
545.41	7303.11
545.774	7367.74
546.138	7324.58
546.503	7393.73
546.867	7367.29
547.231	7435.76
547.595	7496.1
547.959	7524.8
548.324	7562.32
548.688	7581.75
549.052	7720.28
549.416	7718.92
549.779	7738.58
550.143	7714.4
550.507	7826.04
550.871	7817.22
551.235	7912.36
551.599	7951.46
551.962	7939.25
552.326	7996.88
552.689	8121.85
553.053	8094.28
553.417	8139.7
553.78	8241.85
554.143	8236.2
554.507	8332.24
554.87	8282.3
555.234	8480.71
555.597	8362.07
555.96	8484.55
556.323	8552.57
556.686	8606.13
557.05	8569.97
557.413	8695.62
557.776	8771.78
558.139	8768.61
558.502	8841.83
558.865	8932.67
559.228	8986.46
559.59	9061.26
559.953	9084.54
560.316	9172.22
560.679	9247.69
561.041	9383.28
561.404	9463.73
561.767	9497.86
562.129	9531.08
562.492	9701.02
562.854	9762.26
563.217	9755.7
563.579	9907.11
563.941	9885.64
564.304	10129.48
564.666	10122.7
565.028	10183.26
565.39	10301.45
565.753	10407.66
566.115	10494.44
566.477	10573.08
566.839	10695.34
567.201	10826.86
567.563	10939.63
567.925	11058.72
568.287	11126.97
568.648	11271.82
569.01	11385.94
569.372	11500.29
569.734	11645.6
570.095	11836.1
570.457	11960.39
570.819	12100.5
571.18	12194.96
571.542	12299.37
571.903	12459.81
572.265	12662.75
572.626	12810.54
572.987	12883.53
573.349	13200.36
573.71	13311.09
574.071	13529.84
574.432	13645.77
574.794	13909.49
575.155	14088.92
575.516	14212.54
575.877	14494.11
576.238	14774.33
576.599	14863.37
576.96	15084.38
577.32	15369.57
577.681	15570.69
578.042	15893.85
578.403	16041.19
578.763	16351.01
579.124	16563.21
579.485	16990.77
579.845	17246.58
580.206	17547.14
580.566	17783.52
580.927	18103.28
581.287	18483.38
581.648	18662.36
582.008	19054.89
582.368	19299.18
582.728	19621.21
583.089	19929.45
583.449	20291.02
583.809	20641.97
584.169	21075.86
584.529	21312.46
584.889	21898.21
585.249	22126.45
585.609	22259.33
585.969	22983.83
586.329	23165.52
586.688	23693.19
587.048	24000.75
587.408	24578.82
587.768	24913.5
588.127	25275.75
588.487	25575.85
588.846	26295.16
589.206	26598.88
589.565	26972.65
589.925	27445.41
590.284	27781.9
590.643	28279.28
591.003	28894.18
591.362	29392.93
591.721	29691.22
592.08	30168.95
592.44	30770.29
592.799	31219.32
593.158	31627.45
593.517	32068.34
593.876	32503.58
594.235	32939.28
594.593	33428.53
594.952	33857.67
595.311	34323.65
595.67	34865.1
596.029	35353.22
596.387	35994.11
596.746	36509.8
597.104	36865.27
597.463	37141.88
597.822	37804.23
598.18	37993.38
598.538	38401.73
598.897	39190.18
599.255	39139.11
599.613	40179.76
599.972	40262.7
600.33	40759.41
600.688	41023.13
601.046	41587.18
601.404	42091.12
601.762	42409.08
602.12	42932.91
602.478	43249.74
602.836	43609.28
603.194	43796.84
603.552	44269.37
603.91	44495.13
604.268	45001.78
604.625	45232.74
604.983	45787.07
605.341	45940.74
605.698	46359.49
606.056	46827.72
606.413	46910.21
606.771	47386.58
607.128	47590.64
607.485	47655.72
607.843	48001.03
608.2	48410.05
608.557	48744.96
608.914	48885.3
609.272	49266.76
609.629	49437.6
609.986	49585.84
610.343	49701.55
610.7	50023.8
611.057	50227.63
611.414	50352.6
611.771	50620.17
612.127	50758.47
612.484	50922.31
612.841	51181.73
613.198	51036.2
613.554	51299.47
613.911	51596.19
614.267	51756.41
614.624	51795.95
614.98	51987.81
615.337	52145.32
615.693	52169.28
616.05	52255.83
616.406	52633.67
616.762	52471.19
617.118	52494.24
617.475	52696.72
617.831	52804.06
618.187	52961.35
618.543	53008.35
618.899	53223.04
619.255	53263.49
619.611	53359.3
619.967	53566.76
620.323	53685.17
620.678	53477.27
621.034	53512.52
621.39	53630.48
621.746	53593.2
622.101	53924.71
622.457	53725.85
622.812	53842.91
623.168	53984.37
623.523	53967.42
623.879	54049.68
624.234	53907.99
624.589	54133.75
624.945	54200.41
625.3	54236.12
625.655	54162.9
626.01	54200.41
626.365	54366.28
626.72	54329.45
627.075	54235.21
627.43	54330.13
627.785	54303.46
628.14	54377.36
628.495	54514.3
628.85	54499.39
629.205	54437.92
629.559	54605.82
629.914	54483.12
630.269	54538.71
630.623	54470.69
630.978	54456.9
631.332	54561.98
631.687	54706.16
632.041	54478.6
632.396	54529.67
632.75	54403.34
633.104	54524.24
633.459	54387.98
633.813	54433.85
634.167	54499.84
634.521	54456.22
634.875	54469.56
635.229	54378.71
635.583	54325.61
635.937	54487.41
636.291	54359.5
636.645	54384.81
636.999	54251.71
637.352	54436.79
637.706	54219.62
638.06	54397.69
638.413	54336.23
638.767	54318.6
639.121	54260.07
639.474	54127.42
639.828	54171.26
640.181	54286.28
640.534	54273.86
640.888	54273.4
641.241	54009.23
641.594	54175.1
641.947	54145.95
642.301	54163.58
642.654	54208.32
643.007	54233.18
643.36	54181.2
643.713	54078.38
644.066	54223.91
644.419	54073.18
644.771	53823.47
645.124	53599.97
645.477	53543.25
645.83	53382.58
646.182	53341.68
646.535	53156.14
646.888	53305.52
647.24	53173.77
647.593	53305.29
647.945	53265.52
648.298	53128.57
648.65	52998.86
649.002	53081.12
649.355	53188.46
649.707	53117.73
650.059	53221.45
650.411	53627.77
650.763	53588.68
651.115	53941.66
651.467	53809.46
651.819	53775.56
652.171	53638.84
652.523	53770.82
652.875	53700.09
653.227	53611.5
653.578	53866.86
653.93	53656.7
654.282	53634.1
654.633	53589.81
654.985	53665.74
655.337	53601.78
655.688	53604.72
656.039	53780.76
656.391	53514.1
656.742	53580.99
657.094	53560.88
657.445	53730.59
657.796	53552.74
658.147	53598.17
658.498	53559.3
658.849	53658.96
659.2	53610.82
659.551	53539.19
659.902	53651.5
660.253	53575.79
660.604	53679.07
660.955	53517.04
661.306	53559.98
661.656	53538.06
662.007	53528.11
662.358	53533.08
662.708	53448.57
663.059	53542.8
663.409	53311.17
663.76	53612.4
664.11	53532.63
664.461	53541.45
664.811	53461.45
665.161	53469.36
665.511	53406.31
665.862	53459.19
666.212	53488.34
666.562	53474.33
666.912	53444.5
667.262	53365.63
667.612	53399.08
667.962	53412.64
668.312	53345.74
668.662	53437.04
669.011	53418.74
669.361	53425.06
669.711	53342.13
670.06	53319.53
670.41	53262.36
670.76	53261.68
671.109	53301.68
671.459	53232.75
671.808	53233.2
672.157	53273.88
672.507	53091.06
672.856	53062.14
673.205	53107.33
673.554	53195.01
673.904	53068.46
674.253	53259.42
674.602	53018.07
674.951	52509.61
675.3	52515.94
675.649	52962.93
675.998	52974.45
676.346	53054.45
676.695	53010.39
677.044	52921.8
677.393	52845.19
677.741	52857.17
678.09	52829.37
678.438	52805.42
678.787	52913.21
679.135	52807.91
679.484	52660.34
679.832	52695.37
680.181	52520.46
680.529	52674.12
680.877	52602.71
681.225	52472.32
681.573	52699.66
681.922	52452.21
682.27	52357.3
682.618	52437.29
682.966	52296.05
683.314	52446.11
683.661	52225.32
684.009	52089.73
684.357	52001.37
684.705	52025.1
685.053	52057.87
685.4	52056.51
685.748	51900.81
686.095	51841.83
686.443	51647.94
686.79	51674.83
687.138	51738.33
687.485	51713.02
687.832	51576.98
688.18	51589.86
688.527	51369.53
688.874	51450.65
689.221	51327.27
689.568	51331.11
689.915	51167.72
690.262	51143.32
690.609	51060.15
690.956	50826.49
691.303	50946.03
691.65	50721.18
691.997	50748.98
692.344	50556.89
692.69	50576.55
693.037	50480.06
693.383	50260.85
693.73	50373.84
694.077	50136.11
694.423	50158.71
694.769	50043.01
695.116	50061.99
695.462	49881.88
695.808	49777.48
696.155	49972.5
696.501	49614.77
696.847	49554.88
697.193	49385.85
697.539	49406.19
697.885	49151.73
698.231	48994.22
698.577	49040.55
698.923	48938.63
699.269	48795.58
699.614	48638.98
699.96	48500.45
700.306	48585.42
700.651	48316.5
700.997	48149.72
701.342	48199.21
701.688	48121.25
702.033	48045.77
702.379	48076.5
702.724	47827.92
703.069	47932.55
703.415	47493.24
703.76	47526.46
704.105	47502.96
704.45	47367.6
704.795	47255.28
705.14	47173.25
705.485	46989.98
705.83	46943.65
706.175	47004.89
706.52	46719.48
706.865	46662.98
707.209	46548.63
707.554	46499.37
707.899	46453.04
708.243	46276.1
708.588	46284.01
708.932	45943
709.277	45890.8
709.621	45971.25
709.966	45567.42
710.31	45842.44
710.654	45408.78
710.998	45514.54
711.342	45467.76
711.687	45363.58
712.031	45117.94
712.375	44946.64
712.719	45071.16
713.063	45117.71
713.407	45132.17
713.75	44855.12
714.094	44846.53
714.438	44595.92
714.782	44675.24
715.125	44582.81
715.469	44592.53
715.812	44563.38
716.156	44168.13
716.499	44284.29
716.843	44315.02
717.186	44154.8
717.53	44111.41
717.873	44253.78
718.216	43994.58
718.559	43897.63
718.902	43571.76
719.246	43860.12
719.589	43607.7
719.932	43487.7
720.275	43528.83
720.617	43461.26
720.96	43441.37
721.303	43360.7
721.646	43302.84
721.989	43110.53
722.331	43280.7
722.674	43126.35
723.016	43165.67
723.359	42926.13
723.701	43162.51
724.044	42697.66
724.386	42730.88
724.729	42812.69
725.071	42725.46
725.413	42716.42
725.755	42565.46
726.097	42607.27
726.439	42339.25
726.782	42393.26
727.124	42536.54
727.465	42388.07
727.807	42238.01
728.149	42248.86
728.491	42187.62
728.833	42266.04
729.175	42004.12
729.516	41948.76
729.858	41993.95
730.199	41993.73
730.541	41976.78
730.882	41834.63
731.224	41904.46
731.565	41696.33
731.906	41717.8
732.248	41805.48
732.589	41628.99
732.93	41487.75
733.271	41483.68
733.612	41490.24
733.953	41598.26
734.294	41407.3
734.635	41280.52
734.976	41428.54
735.317	41206.4
735.658	41279.17
735.999	41136.8
736.339	41081.43
736.68	41285.04
737.021	41077.14
737.361	40896.13
737.702	41075.11
738.042	40977.93
738.383	40936.13
738.723	40918.05
739.063	40763.93
739.404	40906.3
739.744	40719.86
740.084	40605.51
740.424	40642.58
740.764	40545.85
741.104	40660.2
741.444	40590.37
741.784	40442.81
742.124	40411.17
742.464	40427.67
742.804	40354.45
743.143	40225.41
743.483	40336.82
743.823	40026.77
744.162	40128.69
744.502	40126.88
744.841	40035.59
745.181	40188.12
745.52	40107.67
745.86	39983.38
746.199	39935.02
746.538	39876.27
746.877	39924.4
747.216	39949.49
747.556	39820.68
747.895	39793.56
748.234	39686.22
748.573	39589.95
748.911	39615.94
749.25	39523.06
749.589	39350.41
749.928	39518.54
750.267	39457.75
750.605	39233.8
750.944	39255.95
751.283	39221.6
751.621	39122.62
751.96	39163.97
752.298	38937.08
752.636	39130.98
752.975	38703.42
753.313	38711.55
753.651	38881.72
753.989	38492.12
754.327	38701.61
754.666	38284.22
755.004	38423.88
755.342	38560.14
755.679	38314.28
756.017	38140.72
756.355	38215.52
756.693	38063.66
757.031	38100.72
757.368	37887.17
757.706	37919.71
758.044	37829.09
758.381	37790.22
758.719	37632.71
759.056	37695.76
759.394	37578.48
759.731	37249.44
760.068	37345.26
760.405	37091.93
760.743	37020.52
761.08	37056
761.417	37009.45
761.754	36833.41
762.091	36658.05
762.428	36622.34
762.765	36430.71
763.102	36546.64
763.438	36272.75
763.775	36151.62
764.112	36276.81
764.449	36148.46
764.785	36071.62
765.122	35821.23
765.458	35676.83
765.795	35644.97
766.131	35682.71
766.467	35394.35
766.804	35299.67
767.14	35087.02
767.476	35141.93
767.812	34976.51
768.148	34997.75
768.485	34691.55
768.821	34629.85
769.157	34663.98
769.492	34439.57
769.828	34487.48
770.164	34107.15
770.5	34040.94
770.836	34048.62
771.171	33891.34
771.507	33761.4
771.842	33587.85
772.178	33560.73
772.513	33393.5
772.849	33444.8
773.184	33167.97
773.519	33330.9
773.855	33067.63
774.19	32973.62
774.525	32909.9
774.86	32809.79
775.195	32760.75
775.53	32482.56
775.865	32379.97
776.2	32104.49
776.535	32069.92
776.87	32008.45
777.205	31913.31
777.539	31682.36
777.874	31783.15
778.209	31437.85
778.543	31527.11
778.878	31298.87
779.212	31307.91
779.547	31136.16
779.881	31177.06
780.215	30806.22
780.55	30992.66
780.884	30741.14
781.218	30708.15
781.552	30613.01
781.886	30360.13
782.22	30331.21
782.554	30156.52
782.888	29978.22
783.222	29910.2
783.556	29852.35
783.889	29686.03
784.223	29555.41
784.557	29460.04
784.89	29562.41
785.224	29336.43
785.557	29128.3
785.891	29156.55
786.224	29011.02
786.558	28970.34
786.891	28754.07
787.224	28634.53
787.557	28660.07
787.891	28543.23
788.224	28482.22
788.557	28447.19
788.89	28369.9
789.223	28284.48
789.556	28014.66
789.888	28024.6
790.221	27804.95
790.554	27708.45
790.887	27608.79
791.219	27625.74
791.552	27508.01
791.884	27546.42
792.217	27370.38
792.549	27158.41
792.882	27024.4
793.214	26952.99
793.546	26904.18
793.879	26894.01
794.211	26641.81
794.543	26819.66
794.875	26702.83
795.207	26807.23
795.539	26443.17
795.871	26461.25
796.203	26184.42
796.535	26057.87
796.867	26107.82
797.198	25988.95
797.53	26049.06
797.862	25871.66
798.193	25935.17
798.525	25634.83
798.856	25751.44
799.188	25513.48
799.519	25335.86
799.85	25208.63
800.182	25298.8
800.513	25279.59
800.844	25123.21
801.175	25184.22
801.506	25025.58
801.837	24934.97
802.168	24944.91
802.499	24663.33
802.83	24643.45
803.161	24588.53
803.491	24534.07
803.822	24490.91
804.153	24437.8
804.483	24192.61
804.814	24256.34
805.145	24249.11
805.475	24123.24
805.805	23957.14
806.136	24161.65
806.466	23975.44
806.796	23947.65
807.126	23720.08
807.457	23665.39
807.787	23778.16
808.117	23530.26
808.447	23490.26
808.777	23530.71
809.107	23406.19
809.436	23448.68
809.766	23362.35
810.096	23288
810.426	23160.32
810.755	23135.24
811.085	23097.05
811.414	23094.79
811.744	22870.16
812.073	22903.83
812.403	22862.48
812.732	22796.94
813.061	22679.21
813.39	22526.67
813.719	22424.3
814.049	22549.49
814.378	22578.87
814.707	22275.15
815.036	22421.13
815.365	22229.5
815.693	21927.81
816.022	22141.14
816.351	22025.44
816.68	21870.64
817.008	22048.94
817.337	21790.87
817.665	21785.22
817.994	21780.02
818.322	21718.55
818.651	21690.76
818.979	21642.17
819.307	21649.4
819.636	21545.68
819.964	21437.66
820.292	21487.37
820.62	21460.71
820.948	21392.23
821.276	21395.62
821.604	21348.39
821.932	21406.47
822.259	21326.93
822.587	21275.4
822.915	21303.2
823.243	21437.88
823.57	21340.71
823.898	21354.27
824.225	21253.71
824.553	21280.37
824.88	21294.38
825.207	21374.38
825.535	21210.77
825.862	21262.75
826.189	21256.42
826.516	21317.43
826.843	21362.63
827.17	21311.33
827.497	21356.53
827.824	21215.74
828.151	21353.82
828.478	21214.84
828.805	21307.26
829.131	21242.63
829.458	21171.45
829.785	21145.46
830.111	21202.41
830.438	21280.15
830.764	21219.58
831.09	21177.78
831.417	21065.01
831.743	21145.91
832.069	21160.38
832.395	21102.3
832.722	21143.43
833.048	21048.51
833.374	21086.48
833.7	21012.81
834.026	21033.6
834.351	21034.73
834.677	21070.43
835.003	21020.04
835.329	21067.5
835.654	20951.12
835.98	20888.74
836.306	20875.41
836.631	20916.99
836.956	20852.36
837.282	20871.34
837.607	20684.46
837.932	20745.7
838.258	20719.26
838.583	20611.92
838.908	20551.35
839.233	20641.07
839.558	20609.43
839.883	20371.7
840.208	20373.05
840.533	20458.25
840.858	20465.03
841.182	20420.28
841.507	20361.75
841.832	20285.82
842.156	20208.31
842.481	20291.7
842.805	20158.14
843.13	20128.99
843.454	20047.86
843.778	20017.36
844.103	19939.16
844.427	19910.47
844.751	19893.06
845.075	19849
845.399	19694.2
845.723	19604.71
846.047	19642
846.371	19509.57
846.695	19492.17
847.019	19372.4
847.343	19273.19
847.666	19305.06
847.99	19173.99
848.313	19207.43
848.637	19054.67
848.96	19010.38
849.284	18976.7
849.607	18754.34
849.931	18757.73
850.254	18596.83
850.577	18484.74
850.9	18407
851.223	18331.3
851.546	18377.85
851.869	18240.45
852.192	18329.72
852.515	18183.28
852.838	18004.53
853.161	18023.06
853.483	17872.78
853.806	17920.91
854.129	17816.73
854.451	17742.39
854.774	17548.49
855.096	17611.32
855.419	17518.89
855.741	17459
856.063	17405.22
856.385	17388.72
856.708	17380.14
857.03	17265.11
857.352	17256.75
857.674	17141.05
857.996	17122.74
858.318	17078.22
858.64	17041.16
858.961	17030.77
859.283	16881.62
859.605	16913.26
859.926	16871.45
860.248	16801.62
860.57	16705.13
860.891	16864.67
861.212	16729.76
861.534	16679.59
861.855	16636.88
862.176	16563.89
862.498	16566.15
862.819	16579.93
863.14	16480.05
863.461	16473.27
863.782	16451.8
864.103	16474.62
864.424	16302.42
864.745	16406.38
865.065	16329.99
865.386	16269.88
865.707	16218.36
866.027	16153.5
866.348	16099.94
866.668	16164.57
866.989	16145.37
867.309	16049.78
867.63	16153.5
867.95	16125.71
868.27	15977.91
868.59	15965.94
868.91	15977.01
869.23	15887.52
869.55	15776.79
869.87	15831.48
870.19	15899.95
870.51	15780.18
870.83	15776.56
871.15	15760.97
871.469	15732.04
871.789	15793.29
872.109	15674.64
872.428	15596.45
872.748	15678.26
873.067	15632.39
873.386	15521.43
873.706	15605.49
874.025	15525.04
874.344	15481.66
874.663	15621.09
874.982	15423.13
875.301	15335.22
875.62	15337.93
875.939	15256.58
876.258	15313.98
876.577	15273.07
876.896	15346.97
877.214	15231.04
877.533	15330.02
877.852	15280.3
878.17	15282.11
878.489	15223.81
878.807	15219.52
879.125	15172.51
879.444	15069.01
879.762	14993.31
880.08	15040.31
880.398	14966.87
880.716	15045.51
881.034	14857.72
881.352	14918.96
881.67	14861.78
881.988	14877.15
882.306	14860.2
882.624	14742.01
882.941	14685.97
883.259	14631.51
883.577	14650.72
883.894	14587.22
884.212	14551.74
884.529	14593.99
884.846	14541.34
885.164	14525.3
885.481	14448.01
885.798	14520.1
886.115	14351.97
886.432	14343.83
886.75	14233.1
887.067	14329.37
887.383	14262.7
887.7	14295.47
888.017	14245.98
888.334	14203.04
888.651	14140
888.967	14051.18
889.284	14074.23
889.6	13998.76
889.917	13936.38
890.233	13921.92
890.55	13899.32
890.866	13970.96
891.182	13749.5
891.498	13783.39
891.815	13675.83
892.131	13637.41
892.447	13635.83
892.763	13551.76
893.079	13576.39
893.395	13496.4
893.71	13559.45
894.026	13514.7
894.342	13398.77
894.657	13304.09
894.973	13294.82
895.289	13271.09
895.604	13262.5
895.92	13163.07
896.235	13143.64
896.55	13091.44
896.865	13126.01
897.181	13066.35
897.496	12986.81
897.811	12820.71
898.126	12902.51
898.441	12825.68
898.756	12807.83
899.071	12731.9
899.386	12742.97
899.7	12712.69
900.015	12612.13
900.33	12527.38
900.644	12482.86
900.959	12468.17
901.273	12386.14
901.588	12409.19
901.902	12303.21
902.216	12260.27
902.531	12219.82
902.845	12157.22
903.159	12096.89
903.473	12082.65
903.787	12068.41
904.101	12039.03
904.415	12028.86
904.729	11933.95
905.042	11814.18
905.356	11808.76
905.67	11752.71
905.984	11814.63
906.297	11792.71
906.611	11683.11
906.924	11623.23
907.237	11574.87
907.551	11590.91
907.864	11471.59
908.177	11458.48
908.491	11401.76
908.804	11290.13
909.117	11259.17
909.43	11249.9
909.743	11235.89
910.056	11186.4
910.368	11085.61
910.681	11075.22
910.994	11021.21
911.307	10952.06
911.619	10882.68
911.932	10899.4
912.244	10841.78
912.557	10782.12
912.869	10735.11
913.181	10696.02
913.494	10658.28
913.806	10573.54
914.118	10546.64
914.43	10521.33
914.742	10430.26
915.054	10424.84
915.366	10443.37
915.678	10353.88
915.99	10271.4
916.302	10195.92
916.613	10218.06
916.925	10147.56
917.236	10131.97
917.548	10023.49
917.859	10094.45
918.171	9965.64
918.482	10018.3
918.794	9943.95
919.105	9952.76
919.416	9849.49
919.727	9844.52
920.038	9768.13
920.349	9670.73
920.66	9685.88
920.971	9693.56
921.282	9667.12
921.593	9602.04
921.903	9487.01
922.214	9450.85
922.525	9413.11
922.835	9357.75
923.146	9322.95
923.456	9281.82
923.767	9247.69
924.077	9266.45
924.387	9178.32
924.697	9115.04
925.008	9146.45
925.318	9057.64
925.628	8990.98
925.938	9037.3
926.248	8907.14
926.558	8922.73
926.867	8872.79
927.177	8830.76
927.487	8784.88
927.796	8703.53
928.106	8733.81
928.416	8642.74
928.725	8651.55
929.034	8615.17
929.344	8536.3
929.653	8569.29
929.962	8436.87
930.271	8387.38
930.581	8460.14
930.89	8374.95
931.199	8362.75
931.508	8302.41
931.817	8308.28
932.125	8285.91
932.434	8212.92
932.743	8181.28
933.051	8123.66
933.36	8057.22
933.669	8051.79
933.977	8076.2
934.286	8010.21
934.594	7923.21
934.902	7894.74
935.21	7862.19
935.519	7889.54
935.827	7809.31
936.135	7763.21
936.443	7711.46
936.751	7610
937.059	7664.23
937.367	7609.55
937.674	7603.44
937.982	7564.35
938.29	7536.55
938.597	7618.58
938.905	7419.95
939.213	7364.35
939.52	7384.24
939.827	7334.98
940.135	7342.43
940.442	7294.07
940.749	7315.54
941.056	7353.96
941.363	7201.87
941.67	7188.31
941.977	7108.32
942.284	7054.08
942.591	7057.47
942.898	7023.57
943.205	7029.9
943.511	7017.7
943.818	6983.8
944.125	6960.07
944.431	6867.87
944.738	6871.26
945.044	6867.42
945.35	6819.96
945.657	6763.47
945.963	6718.5
946.269	6694.32
946.575	6760.98
946.881	6666.29
947.187	6660.42
947.493	6615.9
947.799	6570.02
948.105	6551.27
948.41	6532.96
948.716	6533.87
949.022	6469.91
949.327	6460.2
949.633	6357.6
949.938	6341.78
950.244	6382.69
950.549	6319.86
950.854	6274.44
951.16	6236.02
951.465	6188.34
951.77	6214.55
952.075	6168.91
952.38	6132.07
952.685	6135.23
952.99	6111.05
953.294	6038.97
953.599	6010.94
953.904	6033.77
954.209	5910.83
954.513	6017.5
954.818	5960.32
955.122	5903.83
955.426	5847.11
955.731	5802.81
956.035	5793.77
956.339	5808.69
956.643	5788.58
956.948	5759.65
957.252	5760.55
957.556	5702.03
957.86	5648.47
958.163	5650.05
958.467	5682.36
958.771	5555.36
959.075	5572.99
959.378	5549.03
959.682	5517.62
959.985	5558.75
960.289	5466.1
960.592	5400.56
960.896	5412.09
961.199	5381.36
961.502	5390.39
961.805	5325.76
962.108	5283.96
962.411	5302.26
962.714	5238.53
963.017	5278.08
963.32	5272.43
963.623	5238.08
963.926	5206.45
964.228	5159.89
964.531	5141.14
964.833	5113.34
965.136	5137.75
965.438	5058.43
965.741	5040.57
966.043	5049.39
966.345	4974.59
966.648	5035.6
966.95	4983.63
967.252	4993.8
967.554	4952.89
967.856	4902.72
968.158	4835.83
968.46	4867.7
968.761	4824.99
969.063	4761.48
969.365	4764.2
969.666	4781.82
969.968	4704.99
970.269	4729.4
970.571	4759
970.872	4705.44
971.174	4622.51
971.475	4646.69
971.776	4595.61
972.077	4565.33
972.378	4581.6
972.679	4589.06
972.98	4563.3
973.281	4526.91
973.582	4502.73
973.883	4486.92
974.183	4475.84
974.484	4433.36
974.785	4401.49
975.085	4426.35
975.386	4417.54
975.686	4394.26
975.986	4354.26
976.287	4349.07
976.587	4300.48
976.887	4248.96
977.187	4281.27
977.487	4234.49
977.787	4235.62
978.087	4193.59
978.387	4189.75
978.687	4192.23
978.987	4164.44
979.286	4118.56
979.586	4107.72
979.885	4075.4
980.185	4101.16
980.484	4016.19
980.784	4039.7
981.083	4048.96
981.382	4022.07
981.682	4022.75
981.981	3982.3
982.28	3959.25
982.579	3918.8
982.878	3910.21
983.177	3887.61
983.475	3872.02
983.774	3834.5
984.073	3816.88
984.372	3793.15
984.67	3799.25
984.969	3792.92
985.267	3759.48
985.566	3751.57
985.864	3738.01
986.162	3740.49
986.461	3711.12
986.759	3716.31
987.057	3664.79
987.355	3661.4
987.653	3644
987.951	3656.43
988.249	3621.85
988.547	3606.04
988.844	3560.61
989.142	3594.06
989.44	3538.69
989.737	3578.92
990.035	3531.01
990.332	3465.93
990.63	3502.08
990.927	3481.74
991.224	3421.41
991.521	3418.24
991.819	3384.57
992.116	3356.55
992.413	3362.88
992.71	3351.35
993.006	3349.32
993.303	3315.2
993.6	3283.78
993.897	3291.69
994.193	3307.06
994.49	3253.05
994.787	3208.76
995.083	3197.68
995.379	3188.19
995.676	3204.69
995.972	3162.88
996.268	3129.66
996.565	3116.56
996.861	3124.92
997.157	3118.14
997.453	3110.45
997.749	3102.55
998.044	3064.13
998.34	3054.86
998.636	3054.64
998.932	3002.21
999.227	2996.79
999.523	3013.73
999.818	2931.7
1000.114	2965.6
1000.409	2952.94
1000.704	2893.96
1001	2893.51
1001.295	2848.99
1001.59	2880.4
1001.885	2848.99
1002.18	2819.39
1002.475	2838.82
1002.77	2764.48
1003.065	2794.53
1003.359	2818.49
1003.654	2743.23
1003.949	2740.07
1004.243	2687.19
1004.538	2720.63
1004.832	2665.72
1005.127	2713.18
1005.421	2669.79
1005.715	2627.08
1006.009	2636.12
1006.304	2611.03
1006.598	2608.77
1006.892	2552.96
1007.186	2576.46
1007.48	2576.01
1007.773	2557.7
1008.067	2545.05
1008.361	2516.8
1008.655	2533.97
1008.948	2470.02
1009.242	2498.04
1009.535	2450.59
1009.829	2434.31
1010.122	2457.82
1010.415	2395.67
1010.708	2378.04
1011.001	2374.2
1011.295	2373.07
1011.588	2326.97
1011.881	2332.85
1012.173	2318.39
1012.466	2289.01
1012.759	2294.21
1013.052	2292.62
1013.344	2258.5
1013.637	2289.01
1013.93	2222.12
1014.222	2213.08
1014.514	2209.01
1014.807	2197.94
1015.099	2168.33
1015.391	2178.05
1015.683	2162.91
1015.976	2204.04
1016.268	2097.15
1016.56	2122.91
1016.851	2100.09
1017.143	2093.76
1017.435	2100.31
1017.727	2065.06
1018.018	2015.79
1018.31	2079.75
1018.602	2060.54
1018.893	2020.77
1019.185	1990.26
1019.476	1980.99
1019.767	1991.16
1020.058	1947.32
1020.35	1954.33
1020.641	1893.09
1020.932	1902.8
1021.223	1862.8
1021.514	1883.82
1021.804	1886.31
1022.095	1869.58
1022.386	1851.73
1022.677	1844.05
1022.967	1803.6
1023.258	1816.48
1023.548	1794.56
1023.839	1771.28
1024.129	1784.61
1024.419	1775.57
1024.709	1741.23
1025	1715.24
1025.29	1724.28
1025.58	1704.39
1025.87	1687.67
1026.16	1694.22
1026.449	1698.06
1026.739	1684.5
1027.029	1662.81
1027.319	1645.86
1027.608	1635.01
1027.898	1592.53
1028.187	1614.68
1028.477	1627.1
1028.766	1593.21
1029.055	1575.81
1029.344	1565.18
1029.634	1518.18
1029.923	1526.99
1030.212	1555.02
1030.501	1519.76
1030.79	1494.68
1031.078	1481.8
1031.367	1493.55
1031.656	1487.67
1031.945	1464.17
1032.233	1485.19
1032.522	1454.23
1032.81	1432.31
1033.099	1405.64
1033.387	1418.97
1033.675	1413.55
1033.963	1389.6
1034.251	1388.24
1034.54	1350.95
1034.828	1340.78
1035.116	1365.19
1035.403	1362.25
1035.691	1314.34
1035.979	1335.59
1036.267	1329.26
1036.554	1277.06
1036.842	1295.14
1037.129	1281.58
1037.417	1298.07
1037.704	1264.63
1037.992	1284.29
1038.279	1264.18
1038.566	1224.18
1038.853	1224.18
1039.14	1224.18
