Data from orange_diffuse_book_FLMS001491_00044.txt Node
Date: Wed Feb 08 15:29:37 GMT 2017
User: dcchb
Spectrometer: FLMS00149
Trigger mode: 0
Integration Time (sec): 2.000000E-2
Scans to average: 10
Electric dark correction enabled: true
Nonlinearity correction enabled: false
Boxcar width: 0
XAxis mode: Wavelengths
Number of Pixels in Spectrum: 2048
>>>>>Begin Spectral Data<<<<<
341.393	-23.87
341.776	-23.87
342.16	-23.87
342.543	-52.57
342.927	-54.15
343.31	-81.5
343.693	-68.61
344.077	-58.44
344.46	-70.87
344.843	-50.08
345.226	-34.26
345.61	-41.27
345.993	-17.99
346.376	0.76
346.759	23.36
347.142	30.14
347.525	15.68
347.908	71.72
348.291	74.89
348.674	82.79
349.057	123.7
349.44	133.87
349.823	145.17
350.206	179.74
350.588	211.38
350.971	225.84
351.354	247.99
351.737	238.72
352.119	271.49
352.502	268.33
352.884	269.68
353.267	283.47
353.65	322.11
354.032	300.87
354.414	296.57
354.797	314.88
355.179	315.1
355.562	332.05
355.944	333.18
356.326	339.96
356.709	343.13
357.091	344.71
357.473	361.66
357.855	354.2
358.238	356.23
358.62	351.71
359.002	363.24
359.384	345.61
359.766	350.81
360.148	354.65
360.53	361.66
360.912	335.44
361.294	356.91
361.676	355.56
362.057	354.88
362.439	345.84
362.821	345.84
363.203	348.1
363.584	344.71
363.966	338.83
364.348	323.92
364.729	346.29
365.111	310.36
365.493	329.79
365.874	311.94
366.256	329.34
366.637	342
367.019	307.87
367.4	332.73
367.781	322.56
368.163	322.79
368.544	313.3
368.925	316.23
369.306	333.64
369.688	336.8
370.069	304.48
370.45	322.34
370.831	317.59
371.212	304.48
371.593	313.75
371.974	328.44
372.355	336.57
372.736	328.44
373.117	315.78
373.498	322.34
373.879	337.25
374.26	333.64
374.641	343.58
375.021	319.62
375.402	326.4
375.783	336.57
376.163	334.54
376.544	343.58
376.925	340.87
377.305	336.35
377.686	347.19
378.066	332.73
378.447	325.05
378.827	321.88
379.208	342.9
379.588	341.32
379.968	349.45
380.349	334.09
380.729	354.88
381.109	327.08
381.489	325.95
381.87	347.42
382.25	363.24
382.63	346.52
383.01	356.69
383.39	374.31
383.77	349.45
384.15	364.14
384.53	358.04
384.91	344.03
385.29	349.68
385.67	370.7
386.049	368.89
386.429	368.89
386.809	356.69
387.189	375.67
387.568	375.89
387.948	360.3
388.328	367.98
388.707	368.66
389.087	371.6
389.466	375.89
389.846	381.09
390.225	393.97
390.605	353.07
390.984	371.37
391.363	388.1
391.743	398.04
392.122	375.89
392.501	380.41
392.881	371.6
393.26	378.83
393.639	388.32
394.018	390.58
394.397	381.54
394.776	375.44
395.155	384.26
395.534	400.98
395.913	381.32
396.292	386.52
396.671	391.03
397.05	419.06
397.429	403.24
397.808	403.46
398.186	396.23
398.565	407.53
398.944	418.83
399.323	407.53
399.701	403.69
400.08	392.16
400.458	419.96
400.837	436.68
401.215	412.5
401.594	418.83
401.972	431.03
402.351	408.66
402.729	425.38
403.107	426.51
403.486	427.64
403.864	422.67
404.242	438.49
404.62	422.67
404.999	414.09
405.377	434.65
405.755	449.79
406.133	429.23
406.511	454.08
406.889	450.92
407.267	451.15
407.645	456.57
408.023	440.07
408.401	450.24
408.779	473.07
409.156	452.5
409.534	474.65
409.912	475.78
410.29	476.68
410.667	497.02
411.045	480.3
411.422	485.04
411.8	455.21
412.178	496.79
412.555	470.35
412.933	492.73
413.31	499.96
413.687	488.89
414.065	491.37
414.442	514.65
414.819	488.21
415.197	511.48
415.574	512.84
415.951	530.01
416.328	500.86
416.705	514.87
417.082	544.03
417.46	518.72
417.837	541.54
418.214	526.62
418.591	533.18
418.967	553.97
419.344	566.85
419.721	572.05
420.098	548.09
420.475	574.31
420.852	563.91
421.228	576.34
421.605	561.88
421.982	574.53
422.358	556.45
422.735	572.5
423.111	595.55
423.488	586.96
423.864	596.68
424.241	590.58
424.617	587.87
424.994	615.89
425.37	605.72
425.746	585.15
426.123	608.43
426.499	619.96
426.875	608.88
427.251	645.72
427.627	631.48
428.003	657.69
428.379	654.53
428.756	642.1
429.132	648.66
429.507	660.18
429.883	658.82
430.259	665.15
430.635	690.69
431.011	676.45
431.387	681.87
431.763	690.01
432.138	719.84
432.514	690.24
432.89	715.09
433.265	715.32
433.641	717.58
434.016	709.22
434.392	732.04
434.767	730.24
435.143	739.73
435.518	720.29
435.894	750.57
436.269	756.22
436.644	771.82
437.02	782.66
437.395	779.27
437.77	781.31
438.145	777.01
438.52	772.72
438.895	792.61
439.271	799.16
439.646	794.64
440.021	831.93
440.395	788.76
440.77	804.36
441.145	837.35
441.52	814.98
441.895	833.74
442.27	825.83
442.645	806.84
443.019	833.51
443.394	830.12
443.769	822.66
444.143	824.92
444.518	849.55
444.892	843.45
445.267	846.62
445.641	875.54
446.016	859.27
446.39	876.22
446.764	842.32
447.139	880.06
447.513	864.69
447.887	903.34
448.262	878.25
448.636	880.51
449.01	885.26
449.384	915.77
449.758	875.09
450.132	936.56
450.506	926.39
450.88	936.11
451.254	905.15
451.628	927.74
452.002	940.17
452.376	951.92
452.75	916.67
453.123	927.97
453.497	961.42
453.871	971.13
454.244	965.03
454.618	996.89
454.992	978.82
455.365	991.7
455.739	1010.45
456.112	1021.98
456.486	1012.49
456.859	1017.91
457.232	1016.1
457.606	1037.8
457.979	1021.07
458.352	1027.63
458.725	1069.21
459.099	1046.84
459.472	1080.96
459.845	1091.13
460.218	1090.68
460.591	1115.76
460.964	1102.65
461.337	1131.35
461.71	1158.47
462.083	1122.09
462.456	1168.87
462.829	1141.52
463.201	1169.32
463.574	1149.43
463.947	1175.2
464.32	1188.08
464.692	1181.97
465.065	1216.1
465.438	1220.39
465.81	1235.76
466.183	1244.35
466.555	1291.12
466.928	1292.93
467.3	1281.41
467.672	1266.49
468.045	1305.14
468.417	1275.53
468.789	1310.78
469.161	1312.82
469.534	1349.2
469.906	1361.63
470.278	1355.98
470.65	1377.68
471.022	1395.08
471.394	1409.54
471.766	1424.23
472.138	1419.93
472.51	1467.84
472.882	1485.24
473.253	1483.21
473.625	1490.44
473.997	1537.67
474.369	1512.59
474.74	1556.43
475.112	1593.49
475.484	1602.75
475.855	1620.61
476.227	1606.37
476.598	1653.83
476.97	1623.09
477.341	1701.73
477.713	1705.8
478.084	1748.51
478.455	1769.76
478.827	1780.38
479.198	1838.68
479.569	1822.18
479.94	1882.52
480.311	1888.4
480.682	1911.45
481.053	1972.46
481.424	1991.44
481.795	1983.31
482.166	2017.66
482.537	2044.78
482.908	2097.2
483.279	2089.3
483.65	2118.67
484.021	2167.71
484.391	2197.77
484.762	2204.77
485.133	2214.04
485.503	2266.24
485.874	2271.21
486.244	2313.02
486.615	2343.75
486.985	2410.87
487.356	2451.32
487.726	2452
488.097	2500.81
488.467	2487.7
488.837	2586.46
489.207	2621.03
489.578	2654.93
489.948	2687.02
490.318	2702.39
490.688	2765.21
491.058	2767.02
491.428	2801.59
491.798	2835.94
492.168	2886.34
492.538	2935.15
492.908	2948.93
493.278	3020.8
493.648	3005.88
494.017	3039.55
494.387	3099.66
494.757	3114.35
495.126	3144.41
495.496	3164.75
495.866	3231.41
496.235	3228.02
496.605	3275.7
496.974	3296.95
497.344	3301.69
497.713	3353.22
498.082	3367
498.452	3378.98
498.821	3448.13
499.19	3467.11
499.559	3515.7
499.928	3550.5
500.298	3554.34
500.667	3627.79
501.036	3600.89
501.405	3665.3
501.774	3631.4
502.143	3709.59
502.512	3738.97
502.88	3781.23
503.249	3783.94
503.618	3789.36
503.987	3823.26
504.356	3890.6
504.724	3936.48
505.093	3935.8
505.462	3931.28
505.83	3977.16
506.199	4022.58
506.567	4070.03
506.936	4071.39
507.304	4117.26
507.672	4147.09
508.041	4123.14
508.409	4174.44
508.777	4227.77
509.145	4310.25
509.514	4297.6
509.882	4314.1
510.25	4305.73
510.618	4355.68
510.986	4380.31
511.354	4451.72
511.722	4453.98
512.09	4528.78
512.458	4477.71
512.826	4567.42
513.193	4545.05
513.561	4600.64
513.929	4641.77
514.297	4679.74
514.664	4719.06
515.032	4718.38
515.4	4764.03
515.767	4776.68
516.135	4829.56
516.502	4768.09
516.869	4823.23
517.237	4894.42
517.604	4913.63
517.972	4983.46
518.339	5011.03
518.706	4995.43
519.073	5047.41
519.44	5105.04
519.808	5142.32
520.175	5142.77
520.542	5206.05
520.909	5258.7
521.276	5205.37
521.643	5320.62
522.009	5307.74
522.376	5350
522.743	5385.71
523.11	5464.57
523.477	5529.66
523.843	5535.98
524.21	5563.33
524.577	5651.01
524.943	5663.66
525.31	5667.96
525.676	5767.16
526.043	5719.93
526.409	5815.07
526.776	5897.33
527.142	5913.38
527.508	5920.38
527.874	5935.3
528.241	5920.83
528.607	5995.18
528.973	6044.45
529.339	6052.58
529.705	6132.58
530.071	6185.01
530.437	6193.82
530.803	6245.8
531.169	6243.99
531.535	6268.17
531.901	6290.77
532.267	6310.65
532.632	6339.58
532.998	6374.38
533.364	6396.53
533.73	6444.66
534.095	6497.32
534.461	6496.86
534.826	6515.17
535.192	6559.01
535.557	6605.56
535.923	6588.39
536.288	6576.41
536.653	6676.75
537.019	6707.03
537.384	6709.29
537.749	6747.03
538.114	6778.66
538.479	6873.8
538.845	6841.26
539.21	6836.74
539.575	6857.08
539.94	6840.81
540.305	6964.2
540.67	6897.08
541.034	7006
541.399	7002.39
541.764	7019.34
542.129	7024.98
542.494	7088.71
542.858	7180.46
543.223	7106.11
543.587	7228.14
543.952	7237.41
544.316	7239.89
544.681	7287.35
545.045	7283.28
545.41	7365.31
545.774	7390.85
546.138	7375.03
546.503	7434.01
546.867	7476.72
547.231	7594.69
547.595	7543.84
547.959	7573.67
548.324	7565.54
548.688	7622.26
549.052	7662.03
549.416	7675.59
549.779	7745.19
550.143	7777.51
550.507	7832.2
550.871	7848.24
551.235	7891.63
551.599	7967.56
551.962	7994.9
552.326	8036.94
552.689	8015.24
553.053	8101.34
553.417	8120.32
553.78	8265.18
554.143	8233.54
554.507	8328
554.87	8314.44
555.234	8462.24
555.597	8426.08
555.96	8488.68
556.323	8556.92
556.686	8609.8
557.05	8698.84
557.413	8649.57
557.776	8736.58
558.139	8830.36
558.502	8896.8
558.865	8885.73
559.228	8990.81
559.59	9054.54
559.953	9156.68
560.316	9210.01
560.679	9279.16
561.041	9290.46
561.404	9427.41
561.767	9537.46
562.129	9537.24
562.492	9593.28
562.854	9651.36
563.217	9723.22
563.579	9765.7
563.941	9884.8
564.304	10070.55
564.666	10050.22
565.028	10148.52
565.39	10180.16
565.753	10357.1
566.115	10449.53
566.477	10532.24
566.839	10623.99
567.201	10744.21
567.563	10848.16
567.925	10932.45
568.287	11087.7
568.648	11094.48
569.01	11343.06
569.372	11401.82
569.734	11513.23
570.095	11713.22
570.457	11798.19
570.819	11890.85
571.18	12092.2
571.542	12237.28
571.903	12310.95
572.265	12522.47
572.626	12643.59
572.987	12797.71
573.349	13021.44
573.71	13183.47
574.071	13376
574.432	13524.7
574.794	13775.32
575.155	13841.98
575.516	14094.18
575.877	14311.35
576.238	14404.23
576.599	14708.85
576.96	14943.19
577.32	15084.43
577.681	15368.49
578.042	15662.5
578.403	15822.04
578.763	16025.65
579.124	16427.45
579.485	16637.61
579.845	16874.9
580.206	17110.14
580.566	17397.59
580.927	17715.33
581.287	18124.35
581.648	18325.25
582.008	18659.26
582.368	18856.76
582.728	19264.89
583.089	19523.64
583.449	19993.23
583.809	20244.52
584.169	20555.48
584.529	20913.89
584.889	21479.29
585.249	21583.25
585.609	21995.66
585.969	22490.11
586.329	22782.31
586.688	23177.33
587.048	23620.93
587.408	23932.79
587.768	24358.77
588.127	24650.96
588.487	25141.34
588.846	25647.55
589.206	25901.78
589.565	26314.65
589.925	26805.03
590.284	27275.98
590.643	27706.93
591.003	28088.61
591.362	28632.78
591.721	28953.22
592.08	29385.53
592.44	29931.05
592.799	30327.42
593.158	30704.81
593.517	31125.37
593.876	31647.39
594.235	32019.58
594.593	32644.88
594.952	33114.69
595.311	33398.3
595.67	33940.44
596.029	34504.94
596.387	34963.23
596.746	35424.46
597.104	35743.1
597.463	36107.61
597.822	36706.46
598.18	36932.67
598.538	37244.08
598.897	37962.02
599.255	38059.65
599.613	38996.8
599.972	39072.73
600.33	39729.44
600.688	39938.7
601.046	40328.52
601.404	40793.36
601.762	41205.55
602.12	41797.4
602.478	42069.04
602.836	42359.87
603.194	42476.03
603.552	43034.21
603.91	43176.35
604.268	43962.54
604.625	44054.75
604.983	44504.9
605.341	44618.12
605.698	45128.62
606.056	45398.67
606.413	45755.94
606.771	46142.6
607.128	46370.16
607.485	46357.74
607.843	46701.46
608.2	47154.33
608.557	47525.16
608.914	47574.65
609.272	47956.34
609.629	48058.03
609.986	48559.26
610.343	48532.82
610.7	48954.73
611.057	48930.1
611.414	49127.15
611.771	49344.1
612.127	49565.34
612.484	49791.77
612.841	49991.76
613.198	50025.66
613.554	50082.38
613.911	50493.45
614.267	50634.46
614.624	50611.41
614.98	50874.91
615.337	50994.22
615.693	51188.12
616.05	51225.86
616.406	51575.23
616.762	51392.63
617.118	51475.57
617.475	51627.65
617.831	51820.42
618.187	51932.96
618.543	51981.99
618.899	52304.47
619.255	52292.95
619.611	52226.73
619.967	52471.25
620.323	52604.13
620.678	52474.64
621.034	52468.99
621.39	52563.67
621.746	52520.74
622.101	52953.27
622.457	52738.81
622.812	52844.8
623.168	53040.95
623.523	53050.44
623.879	53133.83
624.234	52906.04
624.589	53046.15
624.945	53211.57
625.3	53265.58
625.655	53263.54
626.01	53251.11
626.365	53294.5
626.72	53271
627.075	53303.32
627.43	53364.78
627.785	53349.19
628.14	53374.73
628.495	53504.44
628.85	53521.84
629.205	53375.18
629.559	53544.89
629.914	53438.91
630.269	53493.14
630.623	53393.48
630.978	53338.34
631.332	53625.57
631.687	53531.56
632.041	53510.77
632.396	53616.08
632.75	53452.69
633.104	53550.54
633.459	53381.28
633.813	53414.5
634.167	53472.58
634.521	53494.05
634.875	53521.16
635.229	53583.53
635.583	53348.74
635.937	53388.06
636.291	53382.64
636.645	53364.56
636.999	53289.53
637.352	53407.72
637.706	53203.88
638.06	53383.54
638.413	53253.83
638.767	53204.34
639.121	53255.63
639.474	53091.8
639.828	53174.05
640.181	53183.32
640.534	53243.2
640.888	53127.28
641.241	53061.51
641.594	53119.82
641.947	53237.33
642.301	53092.7
642.654	53176.54
643.007	53143.32
643.36	53249.98
643.713	53043.89
644.066	53225.13
644.419	52896.77
644.771	52795.98
645.124	52528.65
645.477	52516.44
645.83	52236
646.182	52179.73
646.535	52176.34
646.888	52210.69
647.24	52072.61
647.593	52250.46
647.945	52157.81
648.298	52047.53
648.65	51944.26
649.002	51885.05
649.355	52107.19
649.707	52008.89
650.059	52142.44
650.411	52435.09
650.763	52601.64
651.115	52773.84
651.467	52727.51
651.819	52739.49
652.171	52741.52
652.523	52772.26
652.875	52614.29
653.227	52557.57
653.578	52811.8
653.93	52749.88
654.282	52596.89
654.633	52502.21
654.985	52663.11
655.337	52551.92
655.688	52584.01
656.039	52753.73
656.391	52403
656.742	52468.99
657.094	52598.93
657.445	52626.05
657.796	52593.28
658.147	52527.29
658.498	52545.82
658.849	52565.03
659.2	52491.36
659.551	52440.74
659.902	52562.54
660.253	52545.14
660.604	52554.64
660.955	52384.24
661.306	52601.87
661.656	52405.49
662.007	52450.23
662.358	52443
662.708	52403.68
663.059	52369.56
663.409	52210.24
663.76	52443.23
664.11	52385.37
664.461	52469.89
664.811	52446.39
665.161	52471.7
665.511	52369.33
665.862	52379.05
666.212	52478.48
666.562	52466.28
666.912	52349.67
667.262	52336.56
667.612	52299.5
667.962	52316
668.312	52207.53
668.662	52428.31
669.011	52315.77
669.361	52369.33
669.711	52174.08
670.06	52242.1
670.41	52140.63
670.76	52196
671.109	52254.98
671.459	52164.81
671.808	52120.3
672.157	52146.74
672.507	51876.69
672.856	52007.3
673.205	52081.2
673.554	52076
673.904	51891.6
674.253	52059.96
674.602	51986.06
674.951	51597.37
675.3	51361.45
675.649	51951.49
675.998	51868.78
676.346	51885.73
676.695	52000.3
677.044	51592.4
677.393	51759.85
677.741	51792.62
678.09	51708.1
678.438	51685.28
678.787	51794.2
679.135	51734.09
679.484	51566.41
679.832	51682.57
680.181	51343.14
680.529	51571.16
680.877	51426.08
681.225	51370.94
681.573	51619.52
681.922	51297.72
682.27	51261.11
682.618	51314.44
682.966	51182.69
683.314	51195.35
683.661	51085.52
684.009	51045.97
684.357	50934.34
684.705	50846.88
685.053	50986.09
685.4	50866.77
685.748	50607.57
686.095	50736.83
686.443	50530.51
686.79	50514.69
687.138	50554.69
687.485	50514.46
687.832	50377.52
688.18	50454.58
688.527	50121.03
688.874	50259.78
689.221	50134.81
689.568	49980.24
689.915	49853.69
690.262	49950.41
690.609	49888.26
690.956	49722.85
691.303	49624.32
691.65	49541.61
691.997	49498.67
692.344	49312.69
692.69	49300.71
693.037	49220.71
693.383	48903.43
693.73	49095.97
694.077	48824.11
694.423	48935.07
694.769	48827.28
695.116	48757.45
695.462	48630.44
695.808	48448.3
696.155	48600.61
696.501	48168.99
696.847	48220.51
697.193	48051.48
697.539	48137.35
697.885	47786.85
698.231	47783.91
698.577	47679.96
698.923	47705.27
699.269	47305.06
699.614	47284.72
699.96	47119.52
700.306	47186.19
700.651	47065.06
700.997	46778.74
701.342	46751.85
701.688	46757.5
702.033	46592.31
702.379	46546.88
702.724	46558.18
703.069	46533.1
703.415	46134.69
703.76	46179.66
704.105	46128.59
704.45	46005.2
704.795	45840.69
705.14	45707.81
705.485	45593.69
705.83	45488.61
706.175	45403.64
706.52	45309.85
706.865	45306.69
707.209	45099.24
707.554	44968.85
707.899	45174.04
708.243	44918.68
708.588	44766.37
708.932	44608.18
709.277	44454.28
709.621	44461.51
709.966	44281.18
710.31	44387.17
710.654	43941.98
710.998	44042.32
711.342	44156.44
711.687	43960.51
712.031	43705.83
712.375	43688.43
712.719	43699.27
713.063	43598.26
713.407	43714.64
713.75	43543.35
714.094	43629.22
714.438	43198.72
714.782	43305.39
715.125	43064.04
715.469	43260.19
715.812	43037.37
716.156	42685.97
716.499	42787.21
716.843	42766.64
717.186	42724.61
717.53	42929.35
717.873	42802.35
718.216	42683.03
718.559	42649.13
718.902	42359.87
719.246	42335.24
719.589	42296.15
719.932	42062.48
720.275	42127.79
720.617	42241.23
720.96	42042.82
721.303	41891.86
721.646	41931.86
721.989	41703.62
722.331	41921.92
722.674	41830.17
723.016	41804.64
723.359	41608.03
723.701	41662.04
724.044	41481.25
724.386	41299.79
724.729	41592.89
725.071	41332.56
725.413	41370.75
725.755	41434.93
726.097	41045.79
726.439	41031.77
726.782	40871.55
727.124	41137.08
727.465	41058.89
727.807	40836.53
728.149	40940.25
728.491	40753.14
728.833	40986.58
729.175	40691.67
729.516	40450.32
729.858	40648.28
730.199	40545.01
730.541	40429.08
730.882	40454.39
731.224	40560.83
731.565	40250.55
731.906	40291.45
732.248	40500.71
732.589	40060.05
732.93	40134.62
733.271	40106.83
733.612	40067.51
733.953	40133.27
734.294	39887.17
734.635	39861.18
734.976	39912.71
735.317	39721.75
735.658	39827.96
735.999	39822.54
736.339	39682.21
736.68	39728.31
737.021	39663.22
737.361	39581.64
737.702	39771.47
738.042	39574.19
738.383	39502.32
738.723	39558.82
739.063	39332.84
739.404	39376.9
739.744	39290.35
740.084	39246.28
740.424	39245.15
740.764	39231.82
741.104	39335.32
741.444	39107.31
741.784	39101.43
742.124	39071.83
742.464	39046.74
742.804	38961.32
743.143	38907.31
743.483	38836.35
743.823	38590.93
744.162	38774.43
744.502	38821.44
744.841	38501.45
745.181	38624.38
745.52	38654.89
745.86	38707.54
746.199	38642.91
746.538	38455.57
746.877	38553.42
747.216	38502.58
747.556	38386.65
747.895	38256.03
748.234	38147.56
748.573	38130.16
748.911	38061.46
749.25	38104.17
749.589	37944.4
749.928	38032.08
750.267	37991.4
750.605	37934.91
750.944	37736.27
751.283	37734.01
751.621	37930.39
751.96	37624.41
752.298	37596.38
752.636	37563.39
752.975	37470.96
753.313	37347.8
753.651	37466.67
753.989	37303.96
754.327	37223.06
754.666	36982.39
755.004	37160.92
755.342	37149.84
755.679	37053.35
756.017	36868.95
756.355	36887.48
756.693	36599.35
757.031	36750.76
757.368	36470.99
757.706	36565.68
758.044	36401.84
758.381	36488.39
758.719	36254.27
759.056	36330.88
759.394	36060.38
759.731	35940.16
760.068	35920.04
760.405	35789.2
760.743	35562.09
761.08	35750.11
761.417	35398.25
761.754	35352.38
762.091	35395.09
762.428	35232.83
762.765	35126.84
763.102	35146.28
763.438	34912.61
763.775	34800.3
764.112	34913.74
764.449	34801.2
764.785	34722.56
765.122	34426.07
765.458	34339.07
765.795	34269.69
766.131	34233.31
766.467	34214.78
766.804	34049.81
767.14	33851.85
767.476	33898.4
767.812	33781.34
768.148	33591.29
768.485	33677.84
768.821	33317.17
769.157	33338.87
769.492	33295.25
769.828	33177.52
770.164	32969.61
770.5	32752.9
770.836	32845.55
771.171	32700.47
771.507	32591.09
771.842	32309.97
772.178	32490.08
772.513	32240.14
772.849	32211.44
773.184	31981.62
773.519	31905.01
773.855	31809.87
774.19	31748.63
774.525	31783.2
774.86	31724.45
775.195	31497.11
775.53	31402.87
775.865	31157.68
776.2	31036.1
776.535	30817.58
776.87	30681.99
777.205	30616.23
777.539	30637.47
777.874	30552.05
778.209	30204.71
778.543	30249.01
778.878	30084.27
779.212	30040.42
779.547	29988.22
779.881	29970.14
780.215	29698.74
780.55	29631.4
780.884	29568.8
781.218	29425.98
781.552	29417.39
781.886	29248.81
782.22	29097.62
782.554	29161.58
782.888	28791.42
783.222	28783.06
783.556	28619.9
783.889	28501.93
784.223	28477.75
784.557	28349.17
784.89	28400.02
785.224	28305.56
785.557	28232.34
785.891	28102.62
786.224	28002.06
786.558	27843.19
786.891	27661.28
787.224	27637.55
787.557	27536.08
787.891	27443.66
788.224	27378.8
788.557	27464
788.89	27362.76
789.223	27195.75
789.556	27026.04
789.888	26993.27
790.221	26854.07
790.554	26574.75
790.887	26570.91
791.219	26617.46
791.552	26480.97
791.884	26472.16
792.217	26335.44
792.549	26143.58
792.882	26094.54
793.214	25910.36
793.546	25975.22
793.879	25761.67
794.211	25661.1
794.543	25663.82
794.875	25539.53
795.207	25714.44
795.539	25531.84
795.871	25454.56
796.203	25187.67
796.535	25121.68
796.867	25074.23
797.198	25021.57
797.53	25034.91
797.862	24874.23
798.193	24799.21
798.525	24703.39
798.856	24738.19
799.188	24449.84
799.519	24462.72
799.85	24332.78
800.182	24368.94
800.513	24448.93
800.844	23942.73
801.175	24264.98
801.506	24128.94
801.837	23965.1
802.168	23967.14
802.499	23829.51
802.83	23770.76
803.161	23806.46
803.491	23714.94
803.822	23659.35
804.153	23460.48
804.483	23353.37
804.814	23279.92
805.145	23359.7
805.475	23210.32
805.805	23145.01
806.136	23132.58
806.466	23095.07
806.796	23017.56
807.126	22886.71
807.457	22819.82
807.787	22844.91
808.117	22759.71
808.447	22669.32
808.777	22683.78
809.107	22562.43
809.436	22493.05
809.766	22479.27
810.096	22424.35
810.426	22293.96
810.755	22247.86
811.085	22200.86
811.414	22180.97
811.744	22090.8
812.073	21923.8
812.403	21893.29
812.732	21804.48
813.061	21862.79
813.39	21708.21
813.719	21601.32
814.049	21745.5
814.378	21686.75
814.707	21560.65
815.036	21372.18
815.365	21465.74
815.693	21234.78
816.022	21265.29
816.351	21089.93
816.68	21051.28
817.008	21183.03
817.337	20919.53
817.665	20891.51
817.994	20962.25
818.322	20828.24
818.651	20881.34
818.979	20731.52
819.307	20850.61
819.636	20779.88
819.964	20701.24
820.292	20658.07
820.62	20769.03
820.948	20482.03
821.276	20637.06
821.604	20494.69
821.932	20540.56
822.259	20677.51
822.587	20501.69
822.915	20502.6
823.243	20656.49
823.57	20527.23
823.898	20560.45
824.225	20396.38
824.553	20441.58
824.88	20376.27
825.207	20623.05
825.535	20459.21
825.862	20482.48
826.189	20487.46
826.516	20503.73
826.843	20480.22
827.17	20573.56
827.497	20600.67
827.824	20429.38
828.151	20468.25
828.478	20490.62
828.805	20488.59
829.131	20390.74
829.458	20477.51
829.785	20325.65
830.111	20399.55
830.438	20472.99
830.764	20367.68
831.09	20494.46
831.417	20272.32
831.743	20416.05
832.069	20407.91
832.395	20278.65
832.722	20267.12
833.048	20283.85
833.374	20373.33
833.7	20291.3
834.026	20246.78
834.351	20299.89
834.677	20177.86
835.003	20320.23
835.329	20227.35
835.654	20163.85
835.98	20108.93
836.306	20231.64
836.631	20020.8
836.956	20117.3
837.282	20074.36
837.607	19925.44
837.932	19961.59
838.258	19947.13
838.583	19905.55
838.908	19718.89
839.233	19820.81
839.558	19687.25
839.883	19779.23
840.208	19687.93
840.533	19707.36
840.858	19678.44
841.182	19649.74
841.507	19719.11
841.832	19507.82
842.156	19372
842.481	19468.27
842.805	19372.68
843.13	19432.57
843.454	19352.12
843.778	19254.04
844.103	19230.99
844.427	19180.6
844.751	19227.15
845.075	19113.93
845.399	19102.18
845.723	18991.68
846.047	18973.6
846.371	18748.29
846.695	18819.48
847.019	18636.66
847.343	18606.15
847.666	18477.11
847.99	18441.18
848.313	18417.91
848.637	18281.19
848.96	18266.95
849.284	18214.97
849.607	18069.21
849.931	18012.72
850.254	17972.49
850.577	17860.86
850.9	17633.29
851.223	17725.27
851.546	17721.88
851.869	17518.04
852.192	17585.61
852.515	17487.31
852.838	17422.45
853.161	17464.26
853.483	17228.56
853.806	17191.95
854.129	17130.71
854.451	17109.01
854.774	16958.06
855.096	16935.91
855.419	16887.55
855.741	16879.87
856.063	16709.93
856.385	16650.49
856.708	16594.9
857.03	16609.14
857.352	16645.75
857.674	16593.09
857.996	16530.05
858.318	16474.68
858.64	16458.18
858.961	16374.34
859.283	16260.45
859.605	16268.13
859.926	16223.61
860.248	16220.45
860.57	16154.46
860.891	16227.91
861.212	16107.68
861.534	15980.46
861.855	16049.15
862.176	15973
862.498	15908.82
862.819	15927.8
863.14	15850.97
863.461	15764.87
863.782	15751.31
864.103	15858.2
864.424	15690.75
864.745	15856.84
865.065	15699.11
865.386	15615.27
865.707	15576.85
866.027	15597.64
866.348	15494.82
866.668	15459.34
866.989	15474.71
867.309	15369.4
867.63	15503.18
867.95	15430.41
868.27	15389.74
868.59	15381.83
868.91	15358.1
869.23	15301.83
869.55	15226.13
869.87	15204.88
870.19	15209.63
870.51	15202.17
870.83	15257.76
871.15	15166.24
871.469	15120.59
871.789	15067.03
872.109	15076.3
872.428	14994.04
872.748	14994.27
873.067	14960.37
873.386	15021.38
873.706	15030.2
874.025	14867.04
874.344	14892.57
874.663	14923.99
874.982	14886.47
875.301	14808.73
875.62	14825.68
875.939	14741.39
876.258	14781.39
876.577	14706.82
876.896	14722.86
877.214	14703.43
877.533	14750.43
877.852	14674.5
878.17	14663.65
878.489	14605.58
878.807	14585.46
879.125	14541.62
879.444	14511.79
879.762	14473.38
880.08	14493.94
880.398	14400.84
880.716	14391.34
881.034	14503.88
881.352	14426.82
881.67	14393.38
881.988	14352.25
882.306	14364.68
882.624	14202.88
882.941	14219.82
883.259	14149.54
883.577	14099.15
883.894	14092.37
884.212	14055.53
884.529	13971.47
884.846	14018.25
885.164	14044.91
885.481	13893.28
885.798	13918.81
886.115	13797.24
886.432	13840.85
886.75	13731.25
887.067	13780.29
887.383	13682.66
887.7	13728.31
888.017	13623.68
888.334	13583.23
888.651	13653.29
888.967	13619.84
889.284	13535.77
889.6	13490.58
889.917	13442.9
890.233	13421.65
890.55	13354.54
890.866	13342.11
891.182	13319.51
891.498	13222.11
891.815	13205.61
892.131	13167.87
892.447	13145.05
892.763	13117.93
893.079	13075
893.395	13060.53
893.71	12989.57
894.026	13029.57
894.342	12864.83
894.657	12861.89
894.973	12805.4
895.289	12839.52
895.604	12815.57
895.92	12740.31
896.235	12634.78
896.55	12626.65
896.865	12576.7
897.181	12519.3
897.496	12515.91
897.811	12435.92
898.126	12416.03
898.441	12324.28
898.756	12346.43
899.071	12296.03
899.386	12250.84
899.7	12157.96
900.015	12174.45
900.33	12024.63
900.644	11960
900.959	11933.1
901.273	11999.77
901.588	11920.45
901.902	11834.8
902.216	11767.46
902.531	11772.66
902.845	11738.99
903.159	11655.37
903.473	11702.83
903.787	11556.84
904.101	11537.63
904.415	11590.74
904.729	11422.84
905.042	11459.9
905.356	11408.6
905.67	11362.5
905.984	11367.24
906.297	11376.73
906.611	11241.37
906.924	11249.05
907.237	11164.31
907.551	11089.06
907.864	11175.38
908.177	11033.01
908.491	11021.04
908.804	10961.83
909.117	10920.93
909.43	10897.43
909.743	10850.87
910.056	10708.96
910.368	10733.14
910.681	10648.39
910.994	10592.57
911.307	10591.9
911.619	10450.21
911.932	10535.4
912.244	10389.87
912.557	10428.51
912.869	10355.07
913.181	10299.7
913.494	10284.11
913.806	10200.27
914.118	10170.66
914.43	10111.91
914.742	10118.69
915.054	10007.73
915.366	10020.39
915.678	9973.83
915.99	9909.88
916.302	9897.9
916.613	9756.44
916.925	9858.81
917.236	9739.72
917.548	9650.45
917.859	9722.99
918.171	9589.21
918.482	9606.84
918.794	9592.83
919.105	9508.08
919.416	9504.02
919.727	9496.33
920.038	9364.58
920.349	9339.27
920.66	9280.07
920.971	9310.35
921.282	9217.92
921.593	9201.88
921.903	9241.65
922.214	9120.97
922.525	9087.53
922.835	9041.88
923.146	9019.06
923.456	9008.66
923.767	8906.97
924.077	8895.22
924.387	8889.57
924.697	8744.49
925.008	8848.67
925.318	8704.71
925.628	8756.92
925.938	8662.68
926.248	8602.12
926.558	8627.43
926.867	8576.36
927.177	8605.73
927.487	8456.13
927.796	8395.8
928.106	8440.77
928.416	8387.21
928.725	8337.49
929.034	8299.75
929.344	8271.51
929.653	8291.39
929.962	8179.53
930.271	8186.76
930.581	8124.39
930.89	8109.7
931.199	8066.99
931.508	8063.38
931.817	7989.93
932.125	7957.84
932.434	7913.77
932.743	7838.3
933.051	7831.29
933.36	7786.32
933.669	7743.16
933.977	7735.47
934.286	7719.2
934.594	7647.57
934.902	7603.05
935.21	7600.56
935.519	7528.93
935.827	7549.72
936.135	7471.07
936.443	7407.35
936.751	7418.19
937.059	7450.96
937.367	7342.94
937.674	7318.99
937.982	7320.57
938.29	7290.74
938.597	7318.76
938.905	7173.46
939.213	7112.21
939.52	7109.28
939.827	7134.36
940.135	7034.93
940.442	7047.36
940.749	7053.01
941.056	7045.55
941.363	6965.1
941.67	6910.19
941.977	6925.78
942.284	6804.2
942.591	6778.66
942.898	6754.03
943.205	6764.2
943.511	6732.11
943.818	6754.48
944.125	6666.8
944.431	6677.2
944.738	6654.6
945.044	6618.89
945.35	6613.47
945.657	6524.43
945.963	6524.66
946.269	6500.93
946.575	6479.24
946.881	6387.26
947.187	6401.27
947.493	6387.71
947.799	6398.33
948.105	6335.29
948.41	6275.63
948.716	6272.01
949.022	6248.96
949.327	6241.73
949.633	6173.93
949.938	6160.6
950.244	6148.62
950.549	6065.46
950.854	6064.33
951.16	6073.37
951.465	6023.88
951.77	6016.2
952.075	5962.41
952.38	5902.75
952.685	5924.67
952.99	5913.15
953.294	5883.77
953.599	5787.96
953.904	5763.32
954.209	5780.5
954.513	5736.21
954.818	5743.66
955.122	5702.99
955.426	5679.71
955.731	5627.51
956.035	5599.49
956.339	5618.92
956.643	5589.32
956.948	5530.33
957.252	5540.28
957.556	5539.37
957.86	5491.24
958.163	5425.93
958.467	5474.52
958.771	5400.39
959.075	5375.76
959.378	5390
959.682	5344.58
959.985	5345.93
960.289	5309.1
960.592	5257.12
960.896	5256.67
961.199	5219.16
961.502	5224.58
961.805	5197.01
962.108	5192.72
962.411	5150.68
962.714	5138.03
963.017	5086.28
963.32	5095.77
963.623	5054.42
963.926	5034.98
964.228	4989.56
964.531	4961.99
964.833	4903.46
965.136	4886.06
965.438	4893.06
965.741	4863.23
966.043	4887.64
966.345	4834.53
966.648	4800.86
966.95	4812.61
967.252	4779.39
967.554	4750.92
967.856	4735.33
968.158	4705.05
968.46	4708.66
968.761	4660.53
969.063	4656.01
969.365	4602.22
969.666	4620.3
969.968	4538.5
970.269	4536.91
970.571	4518.16
970.872	4541.89
971.174	4532.17
971.475	4491.72
971.776	4483.13
972.077	4446.3
972.378	4417.14
972.679	4441.78
972.98	4403.81
973.281	4341.21
973.582	4358.84
973.883	4332.17
974.183	4285.85
974.484	4292.85
974.785	4240.2
975.085	4238.39
975.386	4266.87
975.686	4270.03
975.986	4172.4
976.287	4155.91
976.587	4165.4
976.887	4131.73
977.187	4113.87
977.487	4076.14
977.787	4058.51
978.087	4019.19
978.387	4059.64
978.687	4022.13
978.987	3995.91
979.286	3977.61
979.586	4000.88
979.885	3974.22
980.185	3883.6
980.484	3908.46
980.784	3880.43
981.083	3890.6
981.382	3873.2
981.682	3865.29
981.981	3832.07
982.28	3836.37
982.579	3740.1
982.878	3807.22
983.177	3809.48
983.475	3747.33
983.774	3750.95
984.073	3725.41
984.372	3692.19
984.67	3677.95
984.969	3682.02
985.267	3652.19
985.566	3688.8
985.864	3562.7
986.162	3645.64
986.461	3573.32
986.759	3537.17
987.057	3512.53
987.355	3573.55
987.653	3532.87
987.951	3506.43
988.249	3495.36
988.547	3480.9
988.844	3451.07
989.142	3444.51
989.44	3360.45
989.737	3368.36
990.035	3364.06
990.332	3373.33
990.63	3306.21
990.927	3318.87
991.224	3343.05
991.521	3302.14
991.819	3288.81
992.116	3284.52
992.413	3237.97
992.71	3203.39
993.006	3216.05
993.303	3220.57
993.6	3202.94
993.897	3176.27
994.193	3202.94
994.49	3120.23
994.787	3110.06
995.083	3111.87
995.379	3102.6
995.676	3070.51
995.972	3076.84
996.268	3016.5
996.565	3031.42
996.861	3027.12
997.157	3023.51
997.453	2957.3
997.749	2961.36
998.044	2919.33
998.34	2956.17
998.636	2951.19
998.932	2912.55
999.227	2890.4
999.523	2852.67
999.818	2862.16
1000.114	2827.13
1000.409	2818.09
1000.704	2778.77
1001	2790.52
1001.295	2782.16
1001.59	2754.14
1001.885	2766.11
1002.18	2762.72
1002.475	2719.79
1002.77	2701.26
1003.065	2704.87
1003.359	2701.03
1003.654	2657.87
1003.949	2644.08
1004.243	2641.6
1004.538	2604.99
1004.832	2609.96
1005.127	2585.1
1005.421	2572.22
1005.715	2608.15
1006.009	2538.32
1006.304	2519.11
1006.598	2507.59
1006.892	2538.1
1007.186	2491.54
1007.48	2467.36
1007.773	2473.92
1008.067	2444.54
1008.361	2408.16
1008.655	2424.43
1008.948	2408.61
1009.242	2402.96
1009.535	2367.48
1009.829	2355.05
1010.122	2348.05
1010.415	2334.26
1010.708	2333.36
1011.001	2327.71
1011.295	2303.98
1011.588	2268.5
1011.881	2271.44
1012.173	2270.31
1012.466	2213.13
1012.759	2222.17
1013.052	2223.08
1013.344	2221.72
1013.637	2217.88
1013.93	2172.68
1014.222	2155.51
1014.514	2130.65
1014.807	2136.53
1015.099	2106.92
1015.391	2079.35
1015.683	2082.52
1015.976	2056.98
1016.268	2082.52
1016.56	2048.17
1016.851	2045
1017.143	2018.11
1017.435	2021.73
1017.727	1985.12
1018.018	2006.13
1018.31	1987.6
1018.602	1975.4
1018.893	1960.94
1019.185	1925.91
1019.476	1913.03
1019.767	1907.83
1020.058	1927.04
1020.35	1861.5
1020.641	1882.75
1020.932	1836.42
1021.223	1859.02
1021.514	1816.76
1021.804	1807.72
1022.095	1814.95
1022.386	1795.07
1022.677	1781.28
1022.967	1741.51
1023.258	1732.69
1023.548	1745.8
1023.839	1715.07
1024.129	1718.23
1024.419	1696.54
1024.709	1695.18
1025	1694.28
1025.29	1655.18
1025.58	1632.81
1025.87	1650.66
1026.16	1632.81
1026.449	1607.5
1026.739	1608.63
1027.029	1614.28
1027.319	1586.71
1027.608	1554.62
1027.898	1575.18
1028.187	1531.12
1028.477	1581.29
1028.766	1557.56
1029.055	1540.61
1029.344	1513.49
1029.634	1498.35
1029.923	1464.23
1030.212	1494.51
1030.501	1459.93
1030.79	1472.14
1031.078	1478.01
1031.367	1423.32
1031.656	1433.04
1031.945	1412.93
1032.233	1403.66
1032.522	1415.87
1032.81	1395.3
1033.099	1401.63
1033.387	1364.12
1033.675	1369.09
1033.963	1347.62
1034.251	1343.55
1034.54	1331.58
1034.828	1313.04
1035.116	1319.82
1035.403	1294.51
1035.691	1277.34
1035.979	1304.46
1036.267	1287.28
1036.554	1263.33
1036.842	1286.38
1037.129	1255.42
1037.417	1235.98
1037.704	1257.45
1037.992	1227.85
1038.279	1226.27
1038.566	1205.25
1038.853	1205.25
1039.14	1205.25
