Data from orange_diffuse_book_FLMS001491_00052.txt Node
Date: Wed Feb 08 15:29:45 GMT 2017
User: dcchb
Spectrometer: FLMS00149
Trigger mode: 0
Integration Time (sec): 2.000000E-2
Scans to average: 10
Electric dark correction enabled: true
Nonlinearity correction enabled: false
Boxcar width: 0
XAxis mode: Wavelengths
Number of Pixels in Spectrum: 2048
>>>>>Begin Spectral Data<<<<<
341.393	-10.85
341.776	-10.85
342.16	-10.85
342.543	-65.76
342.927	-53.56
343.31	-42.71
343.693	-72.77
344.077	-58.98
344.46	-61.69
344.843	-59.21
345.226	-52.88
345.61	-43.61
345.993	-42.26
346.376	-3.16
346.759	14.01
347.142	40.9
347.525	46.1
347.908	61.69
348.291	74.12
348.674	78.64
349.057	121.8
349.44	132.43
349.823	136.49
350.206	145.31
350.588	197.06
350.971	226.21
351.354	251.07
351.737	218.75
352.119	245.64
352.502	268.92
352.884	262.14
353.267	304.17
353.65	297.62
354.032	282.93
354.414	300.33
354.797	339.88
355.179	350.95
355.562	338.97
355.944	330.84
356.326	312.99
356.709	352.31
357.091	341.23
357.473	337.62
357.855	366.54
358.238	344.85
358.62	353.89
359.002	351.63
359.384	358.63
359.766	347.56
360.148	344.4
360.53	353.89
360.912	336.94
361.294	348.92
361.676	341.46
362.057	344.17
362.439	345.75
362.821	341.01
363.203	340.1
363.584	337.39
363.966	329.71
364.348	349.82
364.729	321.8
365.111	323.38
365.493	334
365.874	325.19
366.256	336.94
366.637	331.74
367.019	301.91
367.4	329.48
367.781	302.59
368.163	335.81
368.544	328.13
368.925	316.15
369.306	322.03
369.688	313.21
370.069	331.06
370.45	333.55
370.831	318.18
371.212	322.7
371.593	311.86
371.974	283.61
372.355	353.89
372.736	333.32
373.117	336.04
373.498	314.57
373.879	331.74
374.26	325.19
374.641	299.2
375.021	331.29
375.402	325.19
375.783	325.19
376.163	370.84
376.544	325.87
376.925	328.13
377.305	347.56
377.686	320.67
378.066	333.1
378.447	336.71
378.827	346.43
379.208	349.37
379.588	347.34
379.968	338.07
380.349	342.82
380.729	338.97
381.109	346.43
381.489	329.93
381.87	349.82
382.25	315.7
382.63	336.71
383.01	343.95
383.39	373.32
383.77	349.82
384.15	367.22
384.53	349.14
384.91	364.06
385.29	364.51
385.67	350.5
386.049	328.8
386.429	343.95
386.809	352.53
387.189	365.19
387.568	354.79
387.948	345.08
388.328	375.81
388.707	360.89
389.087	345.53
389.466	362.25
389.846	359.99
390.225	369.26
390.605	377.39
390.984	383.72
391.363	376.49
391.743	378.52
392.122	385.98
392.501	385.3
392.881	378.97
393.26	382.14
393.639	371.52
394.018	353.89
394.397	370.16
394.776	374.91
395.155	372.19
395.534	375.36
395.913	394.57
396.292	375.36
396.671	413.77
397.05	370.84
397.429	390.95
397.808	369.71
398.186	411.74
398.565	412.87
398.944	398.41
399.323	379.88
399.701	408.58
400.08	408.35
400.458	392.31
400.837	409.25
401.215	407.22
401.594	431.4
401.972	402.93
402.351	420.1
402.729	425.07
403.107	416.94
403.486	412.42
403.864	413.32
404.242	423.27
404.62	427.56
404.999	428.46
405.377	440.89
405.755	423.72
406.133	439.08
406.511	445.86
406.889	441.8
407.267	458.97
407.645	448.58
408.023	436.37
408.401	459.65
408.779	458.52
409.156	456.71
409.534	466.2
409.912	437.28
410.29	479.08
410.667	461.23
411.045	444.73
411.422	449.71
411.8	474.11
412.178	487.67
412.555	484.51
412.933	461.23
413.31	499.2
413.687	486.31
414.065	476.15
414.442	491.06
414.819	487.67
415.197	519.31
415.574	510.27
415.951	496.26
416.328	513.43
416.705	503.26
417.082	519.31
417.46	512.53
417.837	506.88
418.214	532.87
418.591	523.6
418.967	526.54
419.344	540.32
419.721	545.07
420.098	539.87
420.475	553.66
420.852	547.33
421.228	550.72
421.605	543.94
421.982	559.99
422.358	560.89
422.735	561.79
423.111	563.15
423.488	566.99
423.864	581
424.241	567.22
424.617	577.16
424.994	594.56
425.37	598.4
425.746	603.83
426.123	590.27
426.499	599.31
426.875	595.01
427.251	627.1
427.627	610.83
428.003	617.16
428.379	619.42
428.756	629.36
429.132	643.15
429.507	635.01
429.883	638.4
430.259	657.61
430.635	639.31
431.011	650.15
431.387	662.58
431.763	684.5
432.138	680.43
432.514	688.34
432.89	708.91
433.265	700.09
433.641	701.45
434.016	683.82
434.392	712.52
434.767	692.41
435.143	712.52
435.518	693.54
435.894	705.29
436.269	730.83
436.644	726.76
437.02	739.42
437.395	750.49
437.77	735.57
438.145	750.71
438.52	760.21
438.895	749.58
439.271	778.28
439.646	767.89
440.021	769.25
440.395	784.61
440.77	791.39
441.145	787.78
441.52	817.38
441.895	808.11
442.27	793.43
442.645	817.83
443.019	819.87
443.394	825.06
443.769	828.9
444.143	847.21
444.518	820.09
444.892	840.43
445.267	848.57
445.641	849.02
446.016	847.66
446.39	827.55
446.764	825.52
447.139	865.51
447.513	848.34
447.887	853.76
448.262	854.44
448.636	872.75
449.01	879.52
449.384	891.28
449.758	901.45
450.132	899.41
450.506	896.93
450.88	903.48
451.254	905.74
451.628	931.05
452.002	910.48
452.376	921.78
452.75	931.05
453.123	934.89
453.497	943.25
453.871	940.99
454.244	950.94
454.618	971.95
454.992	972.63
455.365	975.12
455.739	1006.53
456.112	992.74
456.486	943.93
456.859	1008.79
457.232	1007.43
457.606	1026.19
457.979	1016.7
458.352	1039.97
458.725	1071.38
459.099	1075.9
459.472	1069.8
459.845	1050.14
460.218	1077.26
460.591	1077.26
460.964	1052.63
461.337	1091.95
461.71	1093.08
462.083	1152.96
462.456	1080.88
462.829	1127.88
463.201	1149.8
463.574	1138.73
463.947	1154.55
464.32	1175.34
464.692	1165.17
465.065	1171.04
465.438	1163.13
465.81	1195
466.183	1213.3
466.555	1234.32
466.928	1239.29
467.3	1230.25
467.672	1236.58
468.045	1261.44
468.417	1270.02
468.789	1296.01
469.161	1313.64
469.534	1323.13
469.906	1306.18
470.278	1338.27
470.65	1343.02
471.022	1371.26
471.394	1382.56
471.766	1383.47
472.138	1415.56
472.51	1426.63
472.882	1460.07
473.253	1448.32
473.625	1443.58
473.997	1496.46
474.369	1486.29
474.74	1511.15
475.112	1514.54
475.484	1550.02
475.855	1567.87
476.227	1588.66
476.598	1608.09
476.97	1633.63
477.341	1653.97
477.713	1678.83
478.084	1664.36
478.455	1716.79
478.827	1720.63
479.198	1737.36
479.569	1788.88
479.94	1835.21
480.311	1832.72
480.682	1821.2
481.053	1876.79
481.424	1917.46
481.795	1945.94
482.166	1956.33
482.537	2000.4
482.908	1998.37
483.279	2041.53
483.65	2075.88
484.021	2071.13
484.391	2151.36
484.762	2159.72
485.133	2204.01
485.503	2206.72
485.874	2238.36
486.244	2262.54
486.615	2303.67
486.985	2302.09
487.356	2393.84
487.726	2379.82
488.097	2409.2
488.467	2460.05
488.837	2479.26
489.207	2508.41
489.578	2572.36
489.948	2606.94
490.318	2631.34
490.688	2673.15
491.058	2690.1
491.428	2761.28
491.798	2767.84
492.168	2825.69
492.538	2837.44
492.908	2849.87
493.278	2935.52
493.648	2891.45
494.017	2981.62
494.387	2973.71
494.757	3005.8
495.126	3053.48
495.496	3076.3
495.866	3100.26
496.235	3174.61
496.605	3195.62
496.974	3221.61
497.344	3226.36
497.713	3259.35
498.082	3318.56
498.452	3316.07
498.821	3328.73
499.19	3373.92
499.559	3430.64
499.928	3404.88
500.298	3452.56
500.667	3476.74
501.036	3503.41
501.405	3568.27
501.774	3548.16
502.143	3615.5
502.512	3627.25
502.88	3642.39
503.249	3669.51
503.618	3703.41
503.987	3710.64
504.356	3758.55
504.724	3769.84
505.093	3774.59
505.462	3797.19
505.83	3852.55
506.199	3858.66
506.567	3914.7
506.936	3889.39
507.304	3964.87
507.672	4024.98
508.041	3981.14
508.409	4027.01
508.777	4081.7
509.145	4064.07
509.514	4125.54
509.882	4181.13
510.25	4206.44
510.618	4235.14
510.986	4223.84
511.354	4329.6
511.722	4321.02
512.09	4352.88
512.458	4343.39
512.826	4405.76
513.193	4419.54
513.561	4450.28
513.929	4452.31
514.297	4543.16
514.664	4497.51
515.032	4549.26
515.4	4607.79
515.767	4612.76
516.135	4653.44
516.502	4697.96
516.869	4745.86
517.237	4752.64
517.604	4737.5
517.972	4798.07
518.339	4821.12
518.706	4863.37
519.073	4858.86
519.44	4916.25
519.808	5011.39
520.175	4961.45
520.542	5073.54
520.909	5026.08
521.276	5086.65
521.643	5150.37
522.009	5175.91
522.376	5153.99
522.743	5199.64
523.11	5267.88
523.477	5332.74
523.843	5322.35
524.21	5438.28
524.577	5457.71
524.943	5429.24
525.31	5479.86
525.676	5526.41
526.043	5580.64
526.409	5598.72
526.776	5608.21
527.142	5671.94
527.508	5685.95
527.874	5765.5
528.241	5805.95
528.607	5760.3
528.973	5841.43
529.339	5791.03
529.705	5882.33
530.071	5880.3
530.437	5968.2
530.803	5966.4
531.169	6056.11
531.535	6011.37
531.901	6040.29
532.267	6078.48
532.632	6142.89
532.998	6152.38
533.364	6157.13
533.73	6223.57
534.095	6260.17
534.461	6242.55
534.826	6318.48
535.192	6311.7
535.557	6368.19
535.923	6334.75
536.288	6438.93
536.653	6417.23
537.019	6435.54
537.384	6439.15
537.749	6479.83
538.114	6542.65
538.479	6541.75
538.845	6566.61
539.21	6573.39
539.575	6575.42
539.94	6661.29
540.305	6721.86
540.67	6721.18
541.034	6644.35
541.399	6778.58
541.764	6788.75
542.129	6774.74
542.494	6845.02
542.858	6927.73
543.223	6864.9
543.587	6910.55
543.952	6922.76
544.316	6957.78
544.681	6988.06
545.045	7007.27
545.41	7041.85
545.774	7044.56
546.138	7084.56
546.503	7106.71
546.867	7146.48
547.231	7224.67
547.595	7306.7
547.959	7329.3
548.324	7376.76
548.688	7318
549.052	7400.71
549.416	7465.79
549.779	7387.6
550.143	7466.24
550.507	7554.6
550.871	7603.19
551.235	7600.93
551.599	7649.06
551.962	7714.6
552.326	7762.28
552.689	7765.9
553.053	7814.03
553.417	7878.66
553.78	7901.71
554.143	7931.09
554.507	7999.56
554.87	8055.61
555.234	8160.69
555.597	8127.47
555.96	8198.88
556.323	8248.6
556.686	8282.27
557.05	8355.49
557.413	8414.69
557.776	8443.62
558.139	8528.14
558.502	8542.83
558.865	8637.51
559.228	8771.29
559.59	8797.96
559.953	8771.52
560.316	8945.3
560.679	8965.87
561.041	9042.93
561.404	9061.23
561.767	9203.6
562.129	9201.57
562.492	9284.95
562.854	9355.91
563.217	9440.2
563.579	9489.92
563.941	9583.48
564.304	9693.53
564.666	9826.41
565.028	9893.75
565.39	10026.63
565.753	10065.27
566.115	10161.99
566.477	10266.17
566.839	10378.48
567.201	10574.64
567.563	10580.29
567.925	10700.51
568.287	10801.52
568.648	10937.79
569.01	11015.08
569.372	11169.65
569.734	11292.36
570.095	11444.67
570.457	11642.63
570.819	11705.91
571.18	11822.51
571.542	11935.73
571.903	12141.38
572.265	12370.97
572.626	12479.45
572.987	12653.9
573.349	12844.41
573.71	12960.34
574.071	13203.04
574.432	13357.84
574.794	13626.76
575.155	13798.96
575.516	13852.74
575.877	14195.56
576.238	14347.19
576.599	14555.55
576.96	14799.16
577.32	15101.3
577.681	15288.41
578.042	15533.38
578.403	15795.06
578.763	16046.13
579.124	16318.67
579.485	16595.04
579.845	16924.98
580.206	17160.9
580.566	17511.4
580.927	17759.08
581.287	18223.02
581.648	18344.38
582.008	18817.58
582.368	19024.13
582.728	19385.48
583.089	19728.07
583.449	20101.62
583.809	20503.64
584.169	20912.44
584.529	21030.86
584.889	21776.83
585.249	21965.75
585.609	22304.72
585.969	22815.45
586.329	23066.06
586.688	23574.3
587.048	24026.71
587.408	24373.14
587.768	24805
588.127	25133.58
588.487	25712.54
588.846	26225.07
589.206	26419.64
589.565	26926.3
589.925	27583
590.284	27825.48
590.643	28332.59
591.003	28768.28
591.362	29289.63
591.721	29737.07
592.08	30231.3
592.44	30785.63
592.799	31119.18
593.158	31535.67
593.517	32101.53
593.876	32565.02
594.235	33026.25
594.593	33550.3
594.952	33989.16
595.311	34433.9
595.67	34960.89
596.029	35627.99
596.387	35991.6
596.746	36499.38
597.104	36864.79
597.463	37258
597.822	37825.67
598.18	38255.04
598.538	38579.55
598.897	39269.7
599.255	39332.07
599.613	40226.96
599.972	40447.3
600.33	41003.67
600.688	41120.27
601.046	41681.62
601.404	42248.15
601.762	42629.84
602.12	43113.44
602.478	43461.68
602.836	43835.68
603.194	44088.11
603.552	44392.05
603.91	44592.27
604.268	45291.24
604.625	45490.78
604.983	45841.73
605.341	46075.17
605.698	46588.83
606.056	46961.48
606.413	47088.03
606.771	47497.51
607.128	47834.22
607.485	47784.96
607.843	48183.37
608.2	48601.89
608.557	48843.69
608.914	48951.93
609.272	49390.11
609.629	49695.87
609.986	49932.25
610.343	49849.54
610.7	50305.57
611.057	50405.23
611.414	50590.08
611.771	50749.4
612.127	50975.38
612.484	51059
612.841	51364.3
613.198	51411.3
613.554	51583.5
613.911	51839.31
614.267	51927.22
614.624	51956.83
614.98	52223.71
615.337	52431.16
615.693	52394.33
616.05	52485.63
616.406	52771.27
616.762	52670.93
617.118	52747.54
617.475	52857.59
617.831	53113.18
618.187	53149.11
618.543	53250.13
618.899	53569.89
619.255	53604.69
619.611	53456.67
619.967	53776.44
620.323	53756.55
620.678	53756.55
621.034	53681.98
621.39	53769.66
621.746	53760.39
622.101	54083.32
622.457	53958.81
622.812	54027.73
623.168	54229.53
623.523	54199.7
623.879	54336.88
624.234	54112.25
624.589	54286.48
624.945	54443.54
625.3	54472.69
625.655	54335.07
626.01	54483.31
626.365	54608.06
626.72	54563.31
627.075	54528.74
627.43	54573.03
627.785	54569.41
628.14	54632.24
628.495	54636.08
628.85	54673.36
629.205	54554.05
629.559	54848.5
629.914	54654.38
630.269	54700.26
630.623	54686.25
630.978	54669.07
631.332	54816.19
631.687	54761.95
632.041	54698.45
632.396	54775.96
632.75	54714.04
633.104	54766.7
633.459	54653.7
633.813	54704.1
634.167	54678.11
634.521	54655.74
634.875	54647.83
635.229	54735.51
635.583	54541.62
635.937	54665.23
636.291	54616.19
636.645	54541.39
636.999	54506.14
637.352	54628.17
637.706	54433.37
638.06	54570.99
638.413	54509.3
638.767	54455.74
639.121	54546.59
639.474	54363.09
639.828	54439.25
640.181	54429.3
640.534	54485.35
640.888	54370.55
641.241	54165.58
641.594	54435.18
641.947	54467.72
642.301	54368.06
642.654	54405.12
643.007	54402.64
643.36	54322.87
643.713	54342.75
644.066	54433.37
644.419	54230.21
644.771	54066.37
645.124	53768.76
645.477	53713.84
645.83	53536.45
646.182	53433.17
646.535	53444.24
646.888	53526.73
647.24	53300.52
647.593	53592.94
647.945	53506.16
648.298	53352.5
648.65	53238.83
649.002	53224.59
649.355	53437.24
649.707	53309.78
650.059	53481.08
650.411	53757.46
650.763	53817.79
651.115	54079.48
651.467	53971.01
651.819	54014.85
652.171	53933.05
652.523	53898.47
652.875	53984.8
653.227	53804.01
653.578	53965.81
653.93	53908.41
654.282	53861.41
654.633	53762.43
654.985	53870.9
655.337	53926.72
655.688	53802.65
656.039	53967.85
656.391	53735.31
656.742	53789.32
657.094	53782.77
657.445	53891.01
657.796	53773.28
658.147	53828.87
658.498	53756.78
658.849	53774.86
659.2	53762.43
659.551	53702.09
659.902	53826.83
660.253	53709.55
660.604	53822.99
660.955	53621.87
661.306	53695.76
661.656	53761.75
662.007	53740.96
662.358	53698.93
662.708	53768.08
663.059	53679.72
663.409	53557.01
663.76	53725.82
664.11	53686.95
664.461	53697.8
664.811	53762.43
665.161	53676.1
665.511	53600.62
665.862	53647.4
666.212	53731.02
666.562	53727.63
666.912	53668.19
667.262	53581.87
667.612	53626.61
667.962	53656.89
668.312	53567.18
668.662	53665.71
669.011	53647.63
669.361	53512.49
669.711	53577.57
670.06	53498.25
670.41	53378.94
670.76	53352.04
671.109	53491.47
671.459	53446.96
671.808	53326.96
672.157	53412.61
672.507	53159.28
672.856	53303.01
673.205	53246.96
673.554	53316.34
673.904	53221.43
674.253	53399.73
674.602	53280.86
674.951	52881.77
675.3	52632.06
675.649	53147.98
675.998	53166.29
676.346	53123.35
676.695	53263.01
677.044	52969.91
677.393	52974.88
677.741	53186.62
678.09	52985.05
678.438	52962.68
678.787	52960.42
679.135	52968.32
679.484	52751.83
679.832	52886.97
680.181	52808.78
680.529	52867.76
680.877	52790.25
681.225	52733.3
681.573	52907.76
681.922	52643.14
682.27	52602.23
682.618	52593.65
682.966	52482.91
683.314	52566.75
683.661	52527.21
684.009	52264.39
684.357	52265.07
684.705	52205.86
685.053	52159.31
685.4	52261.22
685.748	52016.49
686.095	52041.12
686.443	51867.34
686.79	51993.21
687.138	51920.67
687.485	51883.61
687.832	51754.12
688.18	51795.47
688.527	51688.58
688.874	51669.6
689.221	51574.01
689.568	51504.86
689.915	51365.43
690.262	51383.06
690.609	51270.29
690.956	51200.69
691.303	51199.11
691.65	51000.92
691.997	50994.59
692.344	50699.23
692.69	50725.22
693.037	50744.2
693.383	50437.09
693.73	50657.88
694.077	50340.6
694.423	50301.28
694.769	50211.79
695.116	50165.01
695.462	50036.65
695.808	49940.38
696.155	49896.77
696.501	49740.61
696.847	49846.82
697.193	49494.52
697.539	49641.18
697.885	49431.69
698.231	49291.81
698.577	49140.18
698.923	49129.56
699.269	48983.57
699.614	48867.87
699.96	48758.04
700.306	48772.5
700.651	48491.38
700.997	48448.44
701.342	48329.12
701.688	48355.79
702.033	48190.6
702.379	48192.63
702.724	48029.25
703.069	48299.07
703.415	47577.28
703.76	47653.21
704.105	47639.88
704.45	47466.77
704.795	47379.09
705.14	47335.25
705.485	47246.44
705.83	47144.3
706.175	47108.59
706.52	47004.64
706.865	46837.64
707.209	46708.15
707.554	46580.02
707.899	46786.11
708.243	46413.24
708.588	46405.11
708.932	46146.58
709.277	46106.81
709.621	46158.56
709.966	45775.52
710.31	46047.83
710.654	45677.89
710.998	45799.25
711.342	45626.82
711.687	45602.64
712.031	45369.88
712.375	45303.44
712.719	45361.52
713.063	45261.86
713.407	45455.3
713.75	45162.43
714.094	45164.46
714.438	44943.68
714.782	44988.2
715.125	44784.59
715.469	44954.75
715.812	44644.93
716.156	44496.01
716.499	44468.44
716.843	44532.16
717.186	44238.61
717.53	44455.78
717.873	44450.13
718.216	44190.7
718.559	44068.67
718.902	43854.44
719.246	44002.68
719.589	43776.02
719.932	43654.22
720.275	43855.8
720.617	43635.46
720.96	43628.68
721.303	43513.21
721.646	43372.19
721.989	43305.53
722.331	43497.39
722.674	43463.94
723.016	43359.54
723.359	43194.12
723.701	43243.38
724.044	42970.17
724.386	42930.17
724.729	43116.83
725.071	42904.63
725.413	43005.2
725.755	42783.06
726.097	42612.44
726.439	42538.99
726.782	42540.8
727.124	42809.5
727.465	42601.37
727.807	42432.78
728.149	42513.68
728.491	42421.26
728.833	42346.91
729.175	42347.59
729.516	42234.37
729.858	42189.17
730.199	42198.21
730.541	42056.07
730.882	41959.57
731.224	42181.04
731.565	41819.69
731.906	41946.47
732.248	41925.23
732.589	41783.31
732.93	41772.91
733.271	41723.42
733.612	41816.53
733.953	41690.88
734.294	41362.08
734.635	41463.32
734.976	41621.96
735.317	41338.12
735.658	41392.13
735.999	41409.76
736.339	41369.76
736.68	41347.84
737.021	41181.52
737.361	41031.24
737.702	41328.86
738.042	41238.92
738.383	41128.41
738.723	41114.4
739.063	40948.53
739.404	41096.77
739.744	40945.36
740.084	40768.42
740.424	40861.3
740.764	40803.22
741.104	40854.29
741.444	40588.54
741.784	40476.45
742.124	40621.08
742.464	40588.99
742.804	40537.69
743.143	40444.81
743.483	40409.11
743.823	40220.41
744.162	40280.97
744.502	40320.75
744.841	40092.51
745.181	40258.38
745.52	40069.45
745.86	40161.2
746.199	39982.9
746.538	40037.59
746.877	40100.64
747.216	39999.85
747.556	40027.2
747.895	39964.6
748.234	39652.97
748.573	39728.22
748.911	39683.7
749.25	39746.75
749.589	39481.45
749.928	39481
750.267	39571.16
750.605	39497.27
750.944	39371.17
751.283	39290.27
751.621	39327.55
751.96	39177.5
752.298	39078.75
752.636	39055.24
752.975	38871.29
753.313	38669.72
753.651	39016.15
753.989	38591.3
754.327	38633.56
754.666	38608.02
755.004	38554.01
755.342	38616.84
755.679	38566.9
756.017	38201.71
756.355	38380.69
756.693	38161.93
757.031	38191.09
757.368	37880.81
757.706	37908.83
758.044	37847.14
758.381	37895.5
758.719	37721.27
759.056	37650.31
759.394	37631.33
759.731	37404.21
760.068	37377.77
760.405	37178.01
760.743	37167.38
761.08	37129.19
761.417	37034.73
761.754	36838.35
762.091	36888.07
762.428	36798.81
762.765	36464.13
763.102	36535.54
763.438	36373.96
763.775	36239.73
764.112	36232.27
764.449	36230.23
764.785	36087.19
765.122	35857.59
765.458	35783.92
765.795	35790.47
766.131	35631.61
766.467	35484.94
766.804	35408.11
767.14	35369.69
767.476	35185.97
767.812	35104.16
768.148	35212.63
768.485	34791.85
768.821	34727.22
769.157	34635.47
769.492	34562.48
769.828	34474.12
770.164	34209.72
770.5	34131.08
770.836	34184.86
771.171	33858.32
771.507	33953.91
771.842	33652.45
772.178	33692.45
772.513	33506.01
772.849	33394.6
773.184	33459.69
773.519	33280.03
773.855	33047.94
774.19	33114.16
774.525	32993.71
774.86	32894.73
775.195	32783.54
775.53	32704
775.865	32452.93
776.2	32299.72
776.535	32048.42
776.87	32003.9
777.205	32007.29
777.539	31791.71
777.874	31778.37
778.209	31526.85
778.543	31457.48
778.878	31252.06
779.212	31322.57
779.547	31089.35
779.881	31229.01
780.215	31043.48
780.55	31072.63
780.884	30784.73
781.218	30648.69
781.552	30684.16
781.886	30506.54
782.22	30354.46
782.554	30280.56
782.888	30026.78
783.222	29981.81
783.556	29759.44
783.889	29717.86
784.223	29497.3
784.557	29651.65
784.89	29591.99
785.224	29298.66
785.557	29384.54
785.891	29150.65
786.224	29120.82
786.558	29130.08
786.891	28773.25
787.224	28754.05
787.557	28724.89
787.891	28522.64
788.224	28584.11
788.557	28495.75
788.89	28298.69
789.223	28328.07
789.556	28136.21
789.888	28110
790.221	27966.04
790.554	27723.34
790.887	27810.34
791.219	27777.57
791.552	27591.59
791.884	27487.86
792.217	27406.51
792.549	27275.89
792.882	27052.85
793.214	27079.74
793.546	27020.08
793.879	26948.9
794.211	26690.37
794.543	26777.83
794.875	26632.75
795.207	26805.85
795.539	26631.16
795.871	26557.95
796.203	26261.68
796.535	26225.53
796.867	26191.63
797.198	26108.47
797.53	26085.19
797.862	25863.95
798.193	25948.7
798.525	25766.55
798.856	25829.15
799.188	25406.11
799.519	25425.32
799.85	25269.17
800.182	25411.99
800.513	25318.66
800.844	25053.8
801.175	25158.21
801.506	25190.52
801.837	24943.07
802.168	24931.1
802.499	24812.23
802.83	24764.77
803.161	24708.28
803.491	24667.37
803.822	24599.35
804.153	24473.71
804.483	24396.65
804.814	24225.13
805.145	24292.24
805.475	24136.54
805.805	24094.28
806.136	24078.46
806.466	24043.89
806.796	23963.66
807.126	23784.23
807.457	23703.33
807.787	23739.94
808.117	23777.23
808.447	23563.45
808.777	23669.21
809.107	23478.25
809.436	23367.75
809.766	23351.25
810.096	23327.52
810.426	23214.3
810.755	23126.4
811.085	23100.86
811.414	23104.93
811.744	22950.81
812.073	22874.88
812.403	22989.9
812.732	22731.38
813.061	22838.95
813.39	22571.61
813.719	22538.16
814.049	22610.03
814.378	22518.73
814.707	22367.1
815.036	22395.8
815.365	22239.19
815.693	22090.04
816.022	22042.13
816.351	21968.91
816.68	21879.65
817.008	22009.14
817.337	21864.96
817.665	21767.34
817.994	21784.51
818.322	21793.55
818.651	21644.18
818.979	21631.75
819.307	21685.31
819.636	21565.76
819.964	21521.47
820.292	21600.56
820.62	21454.13
820.948	21373.22
821.276	21419.32
821.604	21342.26
821.932	21481.7
822.259	21432.2
822.587	21400.34
822.915	21288.03
823.243	21508.81
823.57	21316.95
823.898	21358.31
824.225	21196.73
824.553	21372.55
824.88	21330.29
825.207	21351.3
825.535	21286.22
825.862	21429.27
826.189	21173.68
826.516	21357.4
826.843	21306.33
827.17	21386.1
827.497	21342.49
827.824	21324.19
828.151	21306.11
828.478	21358.99
828.805	21421.13
829.131	21209.84
829.458	21261.14
829.785	21216.39
830.111	21180.69
830.438	21295.03
830.764	21179.33
831.09	21301.36
831.417	21130.97
831.743	21326.44
832.069	21170.97
832.395	21115.83
832.722	21201.7
833.048	21078.32
833.374	21179.1
833.7	21069.95
834.026	21002.39
834.351	21155.6
834.677	21076.06
835.003	20970.52
835.329	21051.2
835.654	20997.19
835.98	20919.9
836.306	20868.15
836.631	20809.62
836.956	20954.03
837.282	20823.18
837.607	20761.04
837.932	20737.99
838.258	20683.75
838.583	20668.84
838.908	20549.74
839.233	20603.53
839.558	20537.54
839.883	20577.09
840.208	20475.85
840.533	20516.07
840.858	20465.68
841.182	20462.74
841.507	20352.91
841.832	20259.13
842.156	20234.72
842.481	20286.02
842.805	20144.33
843.13	20227.72
843.454	20084.9
843.778	20035.63
844.103	19949.53
844.427	19804.9
844.751	19987.95
845.075	19924.45
845.399	19847.84
845.723	19692.14
846.047	19780.95
846.371	19568.07
846.695	19573.95
847.019	19348.87
847.343	19296.44
847.666	19247.63
847.99	19222.32
848.313	19183.22
848.637	19051.25
848.96	19045.83
849.284	19036.56
849.607	18848.32
849.931	18865.04
850.254	18729.23
850.577	18601.54
850.9	18454.43
851.223	18425.96
851.546	18340.99
851.869	18254.66
852.192	18402.45
852.515	18139.64
852.838	18086.98
853.161	18070.71
853.483	17996.36
853.806	17865.52
854.129	17938.96
854.451	17885.63
854.774	17730.61
855.096	17706.2
855.419	17590.27
855.741	17509.82
856.063	17413.55
856.385	17409.03
856.708	17331.97
857.03	17249.72
857.352	17271.86
857.674	17246.1
857.996	17207.91
858.318	17090.17
858.64	17051.08
858.961	16963.17
859.283	17037.74
859.605	16807.02
859.926	16953.23
860.248	16826.68
860.57	16743.51
860.891	16760.69
861.212	16729.73
861.534	16695.15
861.855	16579.23
862.176	16659.45
862.498	16581.48
862.819	16656.96
863.14	16477.08
863.461	16462.39
863.782	16430.53
864.103	16467.59
864.424	16397.08
864.745	16391.43
865.065	16303.53
865.386	16272.11
865.707	16239.35
866.027	16280.02
866.348	16225.56
866.668	16207.03
866.989	16156.41
867.309	16040.26
867.63	16156.64
867.95	16160.03
868.27	16001.61
868.59	16103.08
868.91	15893.14
869.23	15922.97
869.55	15837.55
869.87	15884.78
870.19	15769.3
870.51	15886.81
870.83	15859.02
871.15	15688.63
871.469	15744.44
871.789	15809.08
872.109	15713.03
872.428	15587.16
872.748	15638.23
873.067	15738.34
873.386	15787.61
873.706	15604.34
874.025	15541.51
874.344	15434.62
874.663	15557.33
874.982	15540.83
875.301	15499.48
875.62	15456.09
875.939	15382.87
876.258	15438.69
876.577	15336.32
876.896	15252.71
877.214	15243.44
877.533	15248.86
877.852	15266.94
878.17	15225.59
878.489	15288.19
878.807	15156.44
879.125	15199.6
879.444	15115.99
879.762	15098.36
880.08	15013.39
880.398	15049.77
880.716	15039.15
881.034	14972.04
881.352	15068.98
881.67	14885.03
881.988	14957.57
882.306	14960.74
882.624	14767.07
882.941	14696.79
883.259	14641.65
883.577	14684.36
883.894	14604.36
884.212	14615.66
884.529	14661.99
884.846	14537.24
885.164	14533.63
885.481	14429.9
885.798	14490.24
886.115	14348.78
886.432	14335.89
886.75	14251.15
887.067	14327.31
887.383	14234.88
887.7	14311.94
888.017	14213.64
888.334	14220.87
888.651	14175.45
888.967	14109.01
889.284	14055
889.6	13980.65
889.917	13953.08
890.233	14047.54
890.55	13821.56
890.866	13918.5
891.182	13844.83
891.498	13845.29
891.815	13706.53
892.131	13679.87
892.447	13660.43
892.763	13660.66
893.079	13637.61
893.395	13598.29
893.71	13557.61
894.026	13468.35
894.342	13384.73
894.657	13327.33
894.973	13419.53
895.289	13289.59
895.604	13369.14
895.92	13248.24
896.235	13250.27
896.55	13193.78
896.865	13066.78
897.181	13026.32
897.496	13044.63
897.811	12968.92
898.126	12911.07
898.441	12929.15
898.756	12728.7
899.071	12815.93
899.386	12819.1
899.7	12707.24
900.015	12640.8
900.33	12560.8
900.644	12510.41
900.959	12544.98
901.273	12529.61
901.588	12424.76
901.902	12323.29
902.216	12297.76
902.531	12280.58
902.845	12254.14
903.159	12128.04
903.473	12119.46
903.787	12002.62
904.101	11866.58
904.415	11981.15
904.729	11863.42
905.042	11865
905.356	11833.14
905.67	11857.54
905.984	11821.84
906.297	11802.4
906.611	11670.88
906.924	11651.45
907.237	11645.57
907.551	11519.02
907.864	11473.6
908.177	11491.22
908.491	11429.53
908.804	11322.41
909.117	11418
909.43	11263.43
909.743	11241.74
910.056	11246.48
910.368	11140.27
910.681	11050.78
910.994	10959.49
911.307	10938.47
911.619	10935.76
911.932	10955.42
912.244	10831.13
912.557	10837.68
912.869	10828.87
913.181	10672.71
913.494	10679.95
913.806	10606.27
914.118	10623
914.43	10618.03
914.742	10488.54
915.054	10415.77
915.366	10364.47
915.678	10348.43
915.99	10317.92
916.302	10258.49
916.613	10214.19
916.925	10131.49
917.236	10211.93
917.548	10086.29
917.859	10114.99
918.171	10000.87
918.482	9982.79
918.794	9946.41
919.105	9886.97
919.416	9831.61
919.727	9809.46
920.038	9731.04
920.349	9755.68
920.66	9631.16
920.971	9644.04
921.282	9559.52
921.593	9572.86
921.903	9487.89
922.214	9516.59
922.525	9501.67
922.835	9437.27
923.146	9360.43
923.456	9277.95
923.767	9270.94
924.077	9228.23
924.387	9191.62
924.697	9144.39
925.008	9080.44
925.318	9091.29
925.628	9069.59
925.938	8993.21
926.248	8906.21
926.558	8852.65
926.867	8850.84
927.177	8808.81
927.487	8865.08
927.796	8714.57
928.106	8755.02
928.416	8647
928.725	8678.42
929.034	8593.22
929.344	8578.08
929.653	8563.39
929.962	8464.64
930.271	8423.73
930.581	8435.94
930.89	8341.25
931.199	8285.88
931.508	8344.64
931.817	8270.97
932.125	8253.34
932.434	8251.76
932.743	8173.34
933.051	8176.73
933.36	8096.96
933.669	8049.05
933.977	7993.24
934.286	8047.47
934.594	8054.25
934.902	7873.69
935.21	7861.26
935.519	7847.48
935.827	7903.97
936.135	7828.72
936.443	7785.33
936.751	7685.45
937.059	7694.49
937.367	7560.93
937.674	7602.51
937.982	7581.72
938.29	7505.79
938.597	7553.02
938.905	7452.01
939.213	7434.15
939.52	7343.08
939.827	7402.97
940.135	7352.8
940.442	7290.2
940.749	7262.18
941.056	7310.32
941.363	7229.41
941.67	7156.2
941.977	7141.06
942.284	7070.32
942.591	7085.01
942.898	7085.92
943.205	7001.62
943.511	7007.05
943.818	6944.9
944.125	6942.42
944.431	6930.67
944.738	6875.98
945.044	6856.77
945.35	6795.08
945.657	6745.59
945.963	6753.04
946.269	6698.81
946.575	6725.92
946.881	6699.03
947.187	6675.53
947.493	6642.31
947.799	6570.67
948.105	6573.61
948.41	6542.88
948.716	6513.95
949.022	6452.26
949.327	6471.02
949.633	6349.21
949.938	6397.57
950.244	6351.7
950.549	6318.93
950.854	6278.7
951.16	6258.37
951.465	6239.16
951.77	6175.88
952.075	6177.01
952.38	6177.24
952.685	6153.74
952.99	6042.78
953.294	6085.49
953.599	6046.17
953.904	6043.46
954.209	5989.45
954.513	6002.1
954.818	5921.43
955.122	5934.76
955.426	5869
955.731	5843.69
956.035	5750.36
956.339	5781.32
956.643	5779.74
956.948	5711.49
957.252	5735.44
957.556	5758.04
957.86	5667.42
958.163	5677.36
958.467	5640.76
958.771	5566.41
959.075	5595.33
959.378	5551.94
959.682	5541.1
959.985	5508.56
960.289	5495.9
960.592	5430.59
960.896	5421.1
961.199	5373.19
961.502	5385.62
961.805	5359.41
962.108	5309.92
962.411	5330.48
962.714	5267.21
963.017	5273.08
963.32	5287.32
963.623	5226.53
963.926	5199.64
964.228	5170.49
964.531	5116.02
964.833	5157.15
965.136	5092.07
965.438	5055.46
965.741	5065.86
966.043	4995.35
966.345	4991.06
966.648	5063.82
966.95	5008.23
967.252	4894.11
967.554	4922.13
967.856	4915.8
968.158	4888.69
968.46	4878.29
968.761	4820.21
969.063	4797.61
969.365	4791.29
969.666	4794.22
969.968	4726.88
970.269	4718.07
970.571	4698.41
970.872	4697.96
971.174	4683.94
971.475	4627.67
971.776	4652.76
972.077	4576.15
972.378	4583.83
972.679	4622.25
972.98	4550.61
973.281	4534.8
973.582	4518.98
973.883	4463.39
974.183	4446.21
974.484	4472.42
974.785	4412.99
975.085	4409.83
975.386	4407.34
975.686	4372.99
975.986	4341.81
976.287	4353.56
976.587	4269.94
976.887	4214.58
977.187	4273.79
977.487	4251.64
977.787	4211.19
978.087	4218.42
978.387	4198.76
978.687	4185.43
978.987	4150.85
979.286	4114.47
979.586	4094.13
979.885	4106.33
980.185	4025.43
980.484	4046
980.784	4028.37
981.083	3998.09
981.382	4001.93
981.682	4024.07
981.981	3923.96
982.28	3936.39
982.579	3916.51
982.878	3924.42
983.177	3911.76
983.475	3868.6
983.774	3873.12
984.073	3835.15
984.372	3780.47
984.67	3792.67
984.969	3802.39
985.267	3774.82
985.566	3787.7
985.864	3722.16
986.162	3690.3
986.461	3703.18
986.759	3716.51
987.057	3630.86
987.355	3618.66
987.653	3633.58
987.951	3608.27
988.249	3577.08
988.547	3580.47
988.844	3544.31
989.142	3567.82
989.44	3534.37
989.737	3498.89
990.035	3485.56
990.332	3501.6
990.63	3447.82
990.927	3464.77
991.224	3430.87
991.521	3408.5
991.819	3399.01
992.116	3411.44
992.413	3327.6
992.71	3304.32
993.006	3345.45
993.303	3300.03
993.6	3334.38
993.897	3289.86
994.193	3273.81
994.49	3231.55
994.787	3202.18
995.083	3153.14
995.379	3181.16
995.676	3158.11
995.972	3147.04
996.268	3187.94
996.565	3121.73
996.861	3121.95
997.157	3087.83
997.453	3069.75
997.749	3093.03
998.044	3062.97
998.34	3067.26
998.636	3026.36
998.932	3004.21
999.227	2958.79
999.523	2985.23
999.818	2906.59
1000.114	2927.61
1000.409	2912.47
1000.704	2889.42
1001	2863.43
1001.295	2857.78
1001.59	2843.32
1001.885	2823.2
1002.18	2830.43
1002.475	2810.55
1002.77	2791.79
1003.065	2803.32
1003.359	2748.63
1003.654	2724.22
1003.949	2757.89
1004.243	2700.49
1004.538	2686.94
1004.832	2685.35
1005.127	2676.77
1005.421	2638.57
1005.715	2621.4
1006.009	2637.22
1006.304	2626.37
1006.598	2556.77
1006.892	2587.05
1007.186	2554.96
1007.48	2550.89
1007.773	2519.26
1008.067	2549.99
1008.361	2475.42
1008.655	2472.93
1008.948	2486.04
1009.242	2477.45
1009.535	2463.21
1009.829	2421.63
1010.122	2411.01
1010.415	2412.82
1010.708	2399.71
1011.001	2377.11
1011.295	2350.45
1011.588	2347.73
1011.881	2348.86
1012.173	2329.2
1012.466	2316.55
1012.759	2296.89
1013.052	2302.31
1013.344	2238.59
1013.637	2254.86
1013.93	2238.13
1014.222	2226.38
1014.514	2220.96
1014.807	2198.36
1015.099	2161.53
1015.391	2110.45
1015.683	2154.75
1015.976	2135.31
1016.268	2140.73
1016.56	2112.94
1016.851	2116.33
1017.143	2084.69
1017.435	2083.56
1017.727	2070.45
1018.018	2025.26
1018.31	2026.39
1018.602	2027.52
1018.893	2000.85
1019.185	2015.77
1019.476	1970.8
1019.767	1951.36
1020.058	1937.12
1020.35	1927.18
1020.641	1920.85
1020.932	1887.86
1021.223	1888.31
1021.514	1902.55
1021.804	1877.69
1022.095	1869.56
1022.386	1810.57
1022.677	1812.83
1022.967	1823.91
1023.258	1821.87
1023.548	1774.42
1023.839	1780.74
1024.129	1750.69
1024.419	1757.47
1024.709	1738.49
1025	1731.93
1025.29	1710.24
1025.58	1721.76
1025.87	1645.83
1026.16	1686.96
1026.449	1688.54
1026.739	1645.38
1027.029	1669.33
1027.319	1639.28
1027.608	1621.65
1027.898	1613.29
1028.187	1578.94
1028.477	1602.9
1028.766	1599.28
1029.055	1566.74
1029.344	1541.65
1029.634	1545.72
1029.923	1518.6
1030.212	1513.41
1030.501	1521.09
1030.79	1536
1031.078	1486.29
1031.367	1482.67
1031.656	1488.55
1031.945	1480.64
1032.233	1456.46
1032.522	1457.36
1032.81	1455.55
1033.099	1427.76
1033.387	1406.52
1033.675	1389.34
1033.963	1400.42
1034.251	1380.3
1034.54	1387.76
1034.828	1377.82
1035.116	1321.55
1035.403	1345.05
1035.691	1338.5
1035.979	1319.06
1036.267	1332.17
1036.554	1329.91
1036.842	1262.11
1037.129	1273.86
1037.417	1262.79
1037.704	1268.67
1037.992	1243.36
1038.279	1238.61
1038.566	1271.83
1038.853	1271.83
1039.14	1271.83
