Data from orange_diffuse_book_FLMS001491_00051.txt Node
Date: Wed Feb 08 15:29:44 GMT 2017
User: dcchb
Spectrometer: FLMS00149
Trigger mode: 0
Integration Time (sec): 2.000000E-2
Scans to average: 10
Electric dark correction enabled: true
Nonlinearity correction enabled: false
Boxcar width: 0
XAxis mode: Wavelengths
Number of Pixels in Spectrum: 2048
>>>>>Begin Spectral Data<<<<<
341.393	-20.18
341.776	-20.18
342.16	-20.18
342.543	-79.62
342.927	-46.62
343.31	-70.35
343.693	-65.15
344.077	-68.32
344.46	-60.41
344.843	-60.63
345.226	-36
345.61	-40.52
345.993	-12.05
346.376	-4.14
346.759	10.32
347.142	17.56
347.525	46.26
347.908	57.55
348.291	79.25
348.674	99.14
349.057	107.5
349.44	132.58
349.823	143.2
350.206	161.28
350.588	206.25
350.971	204.44
351.354	230.88
351.737	246.48
352.119	261.17
352.502	279.7
352.884	289.19
353.267	291
353.65	310.66
354.032	321.73
354.414	311.56
354.797	297.1
355.179	347.26
355.562	342.75
355.944	342.29
356.326	342.29
356.709	359.47
357.091	348.85
357.473	347.26
357.855	350.65
358.238	349.98
358.62	362.41
359.002	336.64
359.384	345.46
359.766	356.98
360.148	334.84
360.53	345.91
360.912	366.93
361.294	363.54
361.676	337.1
362.057	328.73
362.439	344.78
362.821	348.17
363.203	345.68
363.584	332.8
363.966	329.41
364.348	348.39
364.729	348.39
365.111	333.48
365.493	344.1
365.874	344.78
366.256	338.23
366.637	343.2
367.019	328.73
367.4	340.26
367.781	343.42
368.163	343.42
368.544	332.58
368.925	319.47
369.306	338.45
369.688	316.08
370.069	326.93
370.45	347.72
370.831	318.34
371.212	319.24
371.593	309.75
371.974	326.47
372.355	336.87
372.736	338
373.117	342.75
373.498	333.03
373.879	333.25
374.26	322.18
374.641	320.15
375.021	349.75
375.402	317.89
375.783	344.1
376.163	353.14
376.544	321.95
376.925	338.9
377.305	357.43
377.686	350.2
378.066	351.33
378.447	328.73
378.827	346.36
379.208	325.34
379.588	344.33
379.968	350.65
380.349	339.36
380.729	345.68
381.109	367.15
381.489	361.05
381.87	345.91
382.25	346.36
382.63	355.4
383.01	359.47
383.39	382.07
383.77	329.64
384.15	348.39
384.53	360.82
384.91	336.64
385.29	351.33
385.67	370.77
386.049	359.92
386.429	361.28
386.809	360.82
387.189	368.06
387.568	351.33
387.948	355.4
388.328	373.48
388.707	358.79
389.087	370.09
389.466	389.75
389.846	354.27
390.225	376.19
390.605	384.55
390.984	384.33
391.363	381.39
391.743	383.2
392.122	393.59
392.501	369.41
392.881	399.47
393.26	396.53
393.639	381.16
394.018	389.52
394.397	364.44
394.776	391.33
395.155	393.59
395.534	393.14
395.913	389.52
396.292	395.4
396.671	409.86
397.05	414.16
397.429	413.25
397.808	398.56
398.186	405.79
398.565	426.36
398.944	396.08
399.323	403.31
399.701	407.83
400.08	394.5
400.458	424.55
400.837	404.66
401.215	426.13
401.594	420.48
401.972	416.19
402.351	415.29
402.729	415.29
403.107	421.84
403.486	429.75
403.864	426.81
404.242	429.75
404.62	412.12
404.999	426.58
405.377	425
405.755	443.08
406.133	441.95
406.511	446.25
406.889	432.91
407.267	441.27
407.645	451.67
408.023	445.12
408.401	467.04
408.779	465
409.156	463.65
409.534	441.05
409.912	456.87
410.29	479.69
410.667	487.6
411.045	496.87
411.422	471.1
411.8	473.59
412.178	494.61
412.555	454.38
412.933	506.58
413.31	503.19
413.687	503.19
414.065	502.74
414.442	506.13
414.819	500.71
415.197	499.58
415.574	507.71
415.951	507.03
416.328	533.7
416.705	527.37
417.082	546.13
417.46	550.88
417.837	533.93
418.214	541.84
418.591	530.31
418.967	540.48
419.344	531.67
419.721	527.37
420.098	552.68
420.475	554.49
420.852	560.37
421.228	546.81
421.605	544.55
421.982	556.3
422.358	544.77
422.735	563.3
423.111	558.33
423.488	563.08
423.864	564.66
424.241	592.91
424.617	590.42
424.994	601.72
425.37	583.19
425.746	594.72
426.123	604.89
426.499	610.76
426.875	622.06
427.251	594.94
427.627	614.38
428.003	627.94
428.379	631.78
428.756	621.16
429.132	627.26
429.507	652.57
429.883	657.09
430.259	660.7
430.635	644.66
431.011	664.09
431.387	678.56
431.763	674.49
432.138	678.33
432.514	711.1
432.89	694.37
433.265	707.26
433.641	705.22
434.016	724.66
434.392	734.37
434.767	723.53
435.143	741.83
435.518	715.84
435.894	751.55
436.269	706.35
436.644	718.78
437.02	783.64
437.395	747.71
437.77	751.1
438.145	783.86
438.52	783.19
438.895	778.44
439.271	777.54
439.646	770.3
440.021	780.93
440.395	818.66
440.77	794.48
441.145	801.72
441.52	809.4
441.895	827.03
442.27	812.56
442.645	827.03
443.019	830.87
443.394	804.43
443.769	839.23
444.143	827.93
444.518	826.35
444.892	829.51
445.267	836.07
445.641	837.65
446.016	854.37
446.39	855.73
446.764	855.73
447.139	828.61
447.513	871.32
447.887	868.38
448.262	884.65
448.636	864.99
449.01	867.03
449.384	897.08
449.758	891.43
450.132	887.59
450.506	886.69
450.88	911.09
451.254	897.31
451.628	900.7
452.002	912.9
452.376	922.62
452.75	943.86
453.123	929.85
453.497	926.01
453.871	975.27
454.244	969.4
454.618	961.03
454.992	966.68
455.365	974.37
455.739	969.62
456.112	997.87
456.486	1016.4
456.859	1024.08
457.232	1033.57
457.606	1034.25
457.979	1024.31
458.352	1046.46
458.725	1051.2
459.099	1050.52
459.472	1064.08
459.845	1083.74
460.218	1082.84
460.591	1094.14
460.964	1097.98
461.337	1108.83
461.71	1139.11
462.083	1117.87
462.456	1142.72
462.829	1138.66
463.201	1133.91
463.574	1141.14
463.947	1164.64
464.32	1194.93
464.692	1188.6
465.065	1168.03
465.438	1209.39
465.81	1251.65
466.183	1234.02
466.555	1223.17
466.928	1218.65
467.3	1236.06
467.672	1283.51
468.045	1305.66
468.417	1277.41
468.789	1275.6
469.161	1273.34
469.534	1308.6
469.906	1323.96
470.278	1339.1
470.65	1339.56
471.022	1375.71
471.394	1381.36
471.766	1381.81
472.138	1394.92
472.51	1412.77
472.882	1443.96
473.253	1444.19
473.625	1477.86
473.997	1496.61
474.369	1528.02
474.74	1477.63
475.112	1517.63
475.484	1563.96
475.855	1585.2
476.227	1559.89
476.598	1601.47
476.97	1641.69
477.341	1654.8
477.713	1687.12
478.084	1669.94
478.455	1736.61
478.827	1720.79
479.198	1784.06
479.569	1775.02
479.94	1844.17
480.311	1831.07
480.682	1836.94
481.053	1896.15
481.424	1923.49
481.795	1950.16
482.166	1965.75
482.537	1980.67
482.908	2034.45
483.279	2037.62
483.65	2077.39
484.021	2127.33
484.391	2139.31
484.762	2177.5
485.133	2187.89
485.503	2219.98
485.874	2231.96
486.244	2283.03
486.615	2298.63
486.985	2322.81
487.356	2369.81
487.726	2417.94
488.097	2426.98
488.467	2454.55
488.837	2525.06
489.207	2551.73
489.578	2590.37
489.948	2604.38
490.318	2629.46
490.688	2635.11
491.058	2688.9
491.428	2715.34
491.798	2779.97
492.168	2805.51
492.538	2791.27
492.908	2871.49
493.278	2908.78
493.648	2921.21
494.017	2931.15
494.387	2970.47
494.757	3024.48
495.126	3023.58
495.496	3069.23
495.866	3111.71
496.235	3109.23
496.605	3150.36
496.974	3182.22
497.344	3252.27
497.713	3262.89
498.082	3298.15
498.452	3334.53
498.821	3363.46
499.19	3381.54
499.559	3427.64
499.928	3472.15
500.298	3473.74
500.667	3466.96
501.036	3479.84
501.405	3556.67
501.774	3553.51
502.143	3606.61
502.512	3626.27
502.88	3654.75
503.249	3654.75
503.618	3690.91
503.987	3743.11
504.356	3748.31
504.724	3782.65
505.093	3814.97
505.462	3799.83
505.83	3868.75
506.199	3864.91
506.567	3907.62
506.936	3943.55
507.304	3983.33
507.672	3982.65
508.041	4054.74
508.409	4034.17
508.777	4060.84
509.145	4110.56
509.514	4168.18
509.882	4206.6
510.25	4173.6
510.618	4228.52
510.986	4209.54
511.354	4304.67
511.722	4298.12
512.09	4387.38
512.458	4324.79
512.826	4414.28
513.193	4405.69
513.561	4418.8
513.929	4477.78
514.297	4517.1
514.664	4532.01
515.032	4578.11
515.4	4654.72
515.767	4667.83
516.135	4660.6
516.502	4615.63
516.869	4762.29
517.237	4721.39
517.604	4780.59
517.972	4837.99
518.339	4821.27
518.706	4840.25
519.073	4924.32
519.44	4906.92
519.808	4970.19
520.175	5012
520.542	5047.25
520.909	5056.97
521.276	5059.91
521.643	5099.91
522.009	5162.51
522.376	5243.86
522.743	5211.32
523.11	5222.84
523.477	5334.7
523.843	5349.62
524.21	5446.79
524.577	5433.23
524.943	5461.48
525.31	5520.01
525.676	5557.3
526.043	5581.48
526.409	5574.92
526.776	5606.11
527.142	5646.33
527.508	5688.14
527.874	5723.85
528.241	5826.22
528.607	5806.1
528.973	5861.92
529.339	5823.51
529.705	5874.8
530.071	5901.92
530.437	5944.63
530.803	5997.29
531.169	6068.7
531.535	6025.99
531.901	6022.37
532.267	6110.28
532.632	6146.66
532.998	6139.65
533.364	6200.44
533.73	6224.62
534.095	6231.4
534.461	6233.66
534.826	6299.42
535.192	6303.27
535.557	6349.37
535.923	6380.55
536.288	6372.64
536.653	6430.04
537.019	6427.11
537.384	6476.14
537.749	6438.18
538.114	6500.32
538.479	6546.65
538.845	6629.81
539.21	6574.22
539.575	6590.04
539.94	6657.61
540.305	6645.63
540.67	6694.44
541.034	6737.15
541.399	6778.73
541.764	6763.37
542.129	6857.6
542.494	6857.38
542.858	6848.79
543.223	6894.66
543.587	6908.67
543.952	6995.68
544.316	6962.68
544.681	7016.47
545.045	7031.16
545.41	7046.07
545.774	7104.38
546.138	7140.53
546.503	7162.23
546.867	7128.78
547.231	7230.25
547.595	7287.87
547.959	7307.08
548.324	7326.74
548.688	7307.76
549.052	7410.36
549.416	7450.35
549.779	7465.27
550.143	7496
550.507	7508.43
550.871	7545.04
551.235	7534.19
551.599	7710.24
551.962	7668.88
552.326	7695.77
552.689	7800.18
553.053	7737.81
553.417	7769.89
553.78	7944.81
554.143	7890.8
554.507	8022.77
554.87	8071.13
555.234	8158.13
555.597	8127.63
555.96	8191.13
556.323	8249.88
556.686	8271.35
557.05	8392.7
557.413	8422.53
557.776	8479.48
558.139	8527.84
558.502	8603.32
558.865	8611.45
559.228	8650.32
559.59	8694.16
559.953	8803.77
560.316	8903.42
560.679	8962.86
561.041	9029.97
561.404	9087.15
561.767	9192.91
562.129	9232
562.492	9371.66
562.854	9377.54
563.217	9436.74
563.579	9460.02
563.941	9566.91
564.304	9657.98
564.666	9850.07
565.028	9845.55
565.39	9967.58
565.753	10043.28
566.115	10180.9
566.477	10322.82
566.839	10385.65
567.201	10522.14
567.563	10600.33
567.925	10750.16
568.287	10856.59
568.648	10907.44
569.01	11043.93
569.372	11145.63
569.734	11243.48
570.095	11482.11
570.457	11574.54
570.819	11730.02
571.18	11801.2
571.542	12033.74
571.903	12125.26
572.265	12224.47
572.626	12411.35
572.987	12680.05
573.349	12790.55
573.71	12943.54
574.071	13193.25
574.432	13318.9
574.794	13596.63
575.155	13755.5
575.516	13948.49
575.877	14245.2
576.238	14398.19
576.599	14631.64
576.96	14756.15
577.32	15053.77
577.681	15221.9
578.042	15488.56
578.403	15790.25
578.763	16099.17
579.124	16378.26
579.485	16718.13
579.845	16945.25
580.206	17221.4
580.566	17502.97
580.927	17833.81
581.287	18127.59
581.648	18420.46
582.008	18776.16
582.368	19081.91
582.728	19527.1
583.089	19682.58
583.449	20058.61
583.809	20393.52
584.169	20866.27
584.529	21129.09
584.889	21642.98
585.249	21945.34
585.609	22305.33
585.969	22786.45
586.329	23027.8
586.688	23624.17
587.048	23829.13
587.408	24416.91
587.768	24927.64
588.127	25206.72
588.487	25605.81
588.846	26241.95
589.206	26552.45
589.565	26867.47
589.925	27560.33
590.284	27796.94
590.643	28233.99
591.003	28887.98
591.362	29304.92
591.721	29787.62
592.08	30172.7
592.44	30816.52
592.799	31169.05
593.158	31696.05
593.517	32051.74
593.876	32630.48
594.235	32985.73
594.593	33457.13
594.952	34088.07
595.311	34381.17
595.67	34910.2
596.029	35539.79
596.387	36052.99
596.746	36527.78
597.104	36880.99
597.463	37219.06
597.822	37778.82
598.18	38105.82
598.538	38540.16
598.897	39273.7
599.255	39341.49
599.613	40300.56
599.972	40370.17
600.33	40898.06
600.688	41118.17
601.046	41775.78
601.404	42373.05
601.762	42544.57
602.12	43064.33
602.478	43441.27
602.836	43823.86
603.194	44052.33
603.552	44550.17
603.91	44707.45
604.268	45300.89
604.625	45389.02
604.983	45973.64
605.341	46118.49
605.698	46533.85
606.056	46962.31
606.413	47122.76
606.771	47535.63
607.128	47773.14
607.485	47857.2
607.843	48139.23
608.2	48644.53
608.557	48911.19
608.914	48950.96
609.272	49458.74
609.629	49514.56
609.986	49866.64
610.343	49847.43
610.7	50263.69
611.057	50485.38
611.414	50490.13
611.771	50757.46
612.127	51034.75
612.484	51104.57
612.841	51392.7
613.198	51456.66
613.554	51515.86
613.911	51742.07
614.267	51852.13
614.624	51995.62
614.98	52130.54
615.337	52359.23
615.693	52505.89
616.05	52413.01
616.406	52718.09
616.762	52764.19
617.118	52829.95
617.475	52898.43
617.831	53022.72
618.187	53235.14
618.543	53201.47
618.899	53527.11
619.255	53436.26
619.611	53522.36
619.967	53696.82
620.323	53823.82
620.678	53653.43
621.034	53678.29
621.39	53758.06
621.746	53880.55
622.101	54239.41
622.457	53911.51
622.812	54033.08
623.168	54246.19
623.523	54215.45
623.879	54252.06
624.234	54156.25
624.589	54355.34
624.945	54403.24
625.3	54454.54
625.655	54416.58
626.01	54426.75
626.365	54531.15
626.72	54497.48
627.075	54518.72
627.43	54512.39
627.785	54549.68
628.14	54640.98
628.495	54666.97
628.85	54708.1
629.205	54584.48
629.559	54856.57
629.914	54673.52
630.269	54696.57
630.623	54624.26
630.978	54614.09
631.332	54772.5
631.687	54743.57
632.041	54769.11
632.396	54869.22
632.75	54636.91
633.104	54799.84
633.459	54622.45
633.813	54625.84
634.167	54610.24
634.521	54628.55
634.875	54725.95
635.229	54658.15
635.583	54607.53
635.937	54589.45
636.291	54535.44
636.645	54551.04
636.999	54581.09
637.352	54678.94
637.706	54438.95
638.06	54561.66
638.413	54472.17
638.767	54468.78
639.121	54555.33
639.474	54375.45
639.828	54328.9
640.181	54482.56
640.534	54515.11
640.888	54386.75
641.241	54306.75
641.594	54425.84
641.947	54375.67
642.301	54347.2
642.654	54381.55
643.007	54360.53
643.36	54355.34
643.713	54342.91
644.066	54390.14
644.419	54201.89
644.771	54034.89
645.124	53730.72
645.477	53716.48
645.83	53606.66
646.182	53476.72
646.535	53400.11
646.888	53521.23
647.24	53339.54
647.593	53497.51
647.945	53462.93
648.298	53288.47
648.65	53271.3
649.002	53278.08
649.355	53366.44
649.707	53227.23
650.059	53479.43
650.411	53806.88
650.763	53823.82
651.115	54093.42
651.467	54053.88
651.819	53975.23
652.171	53977.95
652.523	53860.43
652.875	53944.27
653.227	53777.05
653.578	53986.08
653.93	53938.85
654.282	53783.37
654.633	53791.51
654.985	53868.12
655.337	53856.37
655.688	53794.67
656.039	54043.25
656.391	53674.68
656.742	53732.3
657.094	53785.86
657.445	53820.21
657.796	53853.2
658.147	53815.24
658.498	53793.32
658.849	53845.52
659.2	53795.35
659.551	53724.62
659.902	53843.26
660.253	53789.25
660.604	53827.89
660.955	53647.11
661.306	53786.09
661.656	53701.57
662.007	53669.93
662.358	53769.14
662.708	53709.03
663.059	53689.14
663.409	53545.64
663.76	53738.4
664.11	53711.96
664.461	53719.19
664.811	53674.68
665.161	53716.03
665.511	53588.35
665.862	53695.24
666.212	53694.56
666.562	53762.13
666.912	53612.98
667.262	53631.51
667.612	53594.9
667.962	53481.69
668.312	53541.35
668.662	53685.3
669.011	53644.17
669.361	53621.34
669.711	53466.32
670.06	53495.7
670.41	53319.88
670.76	53317.62
671.109	53442.37
671.459	53327.79
671.808	53314.01
672.157	53440.78
672.507	53133.45
672.856	53186.78
673.205	53303.61
673.554	53297.74
673.904	53251.64
674.253	53334.8
674.602	53256.38
674.951	52791.99
675.3	52643.97
675.649	53089.38
675.998	53122.37
676.346	53114.47
676.695	53198.3
677.044	52930.97
677.393	53052.77
677.741	53187.01
678.09	53060.68
678.438	52890.74
678.787	53025.88
679.135	52950.18
679.484	52775.04
679.832	52984.98
680.181	52719
680.529	52881.02
680.877	52688.94
681.225	52670.86
681.573	52881.48
681.922	52655.72
682.27	52486.01
682.618	52599.22
682.966	52532.11
683.314	52566
683.661	52464.99
684.009	52281.04
684.357	52238.1
684.705	52267.71
685.053	52309.29
685.4	52267.03
685.748	52056.41
686.095	51945.91
686.443	51883.54
686.79	51903.42
687.138	52025.23
687.485	51943.65
687.832	51733.48
688.18	51904.33
688.527	51610.78
688.874	51687.38
689.221	51495.52
689.568	51372.36
689.915	51320.16
690.262	51287.85
690.609	51215.08
690.956	51232.48
691.303	51176.89
691.65	50899.16
691.997	50854.41
692.344	50767.18
692.69	50632.95
693.037	50769.22
693.383	50507.75
693.73	50620.52
694.077	50384.37
694.423	50328.32
694.769	50268.66
695.116	50150.93
695.462	50083.13
695.808	49872.74
696.155	50029.12
696.501	49679.08
696.847	49772.41
697.193	49494.45
697.539	49570.38
697.885	49384.17
698.231	49275.92
698.577	49259.2
698.923	49210.16
699.269	48889.49
699.614	48881.58
699.96	48644.75
700.306	48705.09
700.651	48610.4
700.997	48377.87
701.342	48391.65
701.688	48407.92
702.033	48202.05
702.379	48205.89
702.724	48063.52
703.069	48119.12
703.415	47706.7
703.76	47730.88
704.105	47795.28
704.45	47512.8
704.795	47393.49
705.14	47286.14
705.485	47175.64
705.83	47191.23
706.175	47184.45
706.52	47055.42
706.865	46904.91
707.209	46719.83
707.554	46507.63
707.899	46629.21
708.243	46425.83
708.588	46358.26
708.932	46063.58
709.277	46213.4
709.621	46145.61
709.966	45893.86
710.31	45903.36
710.654	45623.36
710.998	45645.96
711.342	45728.44
711.687	45661.78
712.031	45363.71
712.375	45192.19
712.719	45425.85
713.063	45168.91
713.407	45415.91
713.75	45211.4
714.094	45133.21
714.438	44909.71
714.782	44866.09
715.125	44725.53
715.469	44927.11
715.812	44602.82
716.156	44430.17
716.499	44467.69
716.843	44598.53
717.186	44450.06
717.53	44409.38
717.873	44344.98
718.216	44267.01
718.559	44065.89
718.902	43892.11
719.246	44042.16
719.589	43860.7
719.932	43719.68
720.275	43725.33
720.617	43727.59
720.96	43509.75
721.303	43556.52
721.646	43529.63
721.989	43363.76
722.331	43403.99
722.674	43354.72
723.016	43317.89
723.359	43097.33
723.701	43327.83
724.044	43027.27
724.386	42862.31
724.729	43036.99
725.071	42965.13
725.413	42886.49
725.755	42825.92
726.097	42707.96
726.439	42421.41
726.782	42616.44
727.124	42707.96
727.465	42511.13
727.807	42427.29
728.149	42329.44
728.491	42460.06
728.833	42365.6
729.175	42208.09
729.516	42285.82
729.858	42151.82
730.199	42087.41
730.541	42071.37
730.882	42128.31
731.224	42164.92
731.565	41870.01
731.906	41936.91
732.248	41913.18
732.589	41778.04
732.93	41633.86
733.271	41693.75
733.612	41703.24
733.953	41721.77
734.294	41566.07
734.635	41463.7
734.976	41599.51
735.317	41440.42
735.658	41332.4
735.999	41269.8
736.339	41275.45
736.68	41340.99
737.021	41326.07
737.361	41041.11
737.702	41245.4
738.042	41166.98
738.383	40986.42
738.723	41090.15
739.063	40961.79
739.404	40988
739.744	40972.86
740.084	40712.31
740.424	40755.24
740.764	40772.87
741.104	40959.08
741.444	40632.31
741.784	40455.59
742.124	40626.66
742.464	40738.52
742.804	40493.78
743.143	40298.3
743.483	40466.89
743.823	40173.34
744.162	40322.03
744.502	40261.7
744.841	40193.45
745.181	40232.32
745.52	40088.82
745.86	40175.14
746.199	40000.01
746.538	39945.55
746.877	40049.72
747.216	40025.32
747.556	39761.6
747.895	39875.94
748.234	39753.23
748.573	39755.72
748.911	39702.39
749.25	39772.44
749.589	39545.33
749.928	39573.13
750.267	39545.78
750.605	39426.46
750.944	39358.89
751.283	39294.72
751.621	39336.07
751.96	39230.54
752.298	39058.56
752.636	39088.85
752.975	38925.69
753.313	38787.84
753.651	38947.15
753.989	38684.11
754.327	38701.06
754.666	38538.58
755.004	38605.02
755.342	38584.45
755.679	38489.76
756.017	38299.49
756.355	38426.04
756.693	38144.69
757.031	38194.41
757.368	38060.85
757.706	37865.83
758.044	37957.8
758.381	37802.78
758.719	37736.56
759.056	37778.82
759.394	37635.55
759.731	37291.83
760.068	37362.56
760.405	37087.09
760.743	37078.28
761.08	37143.13
761.417	37044.15
761.754	37018.62
762.091	36798.06
762.428	36679.64
762.765	36494.34
763.102	36765.06
763.438	36410.72
763.775	36094.57
764.112	36330.5
764.449	36278.52
764.785	36094.8
765.122	35787.91
765.458	35861.81
765.795	35816.84
766.131	35637.86
766.467	35508.15
766.804	35351.77
767.14	35161.49
767.476	35260.02
767.812	35156.29
768.148	35141.38
768.485	34843.98
768.821	34731.22
769.157	34693.71
769.492	34636.08
769.828	34562.86
770.164	34197.9
770.5	34231.35
770.836	34157.68
771.171	33955.87
771.507	33968.98
771.842	33593.4
772.178	33776.44
772.513	33604.7
772.849	33503.68
773.184	33234.76
773.519	33301.2
773.855	33085.39
774.19	32979.85
774.525	32941.44
774.86	32931.04
775.195	32787.99
775.53	32621.22
775.865	32491.05
776.2	32291.28
776.535	32020.1
776.87	32199.76
777.205	31885.42
777.539	31798.87
777.874	31872.76
778.209	31511.64
778.543	31544.64
778.878	31391.87
779.212	31240.46
779.547	31195.95
779.881	31283.17
780.215	30997.31
780.55	30981.49
780.884	30871.66
781.218	30794.37
781.552	30682.06
781.886	30414.95
782.22	30313.48
782.554	30310.77
782.888	30029.2
783.222	29996.2
783.556	29833.27
783.889	29729.77
784.223	29512.15
784.557	29574.74
784.89	29528.42
785.224	29502.2
785.557	29276.45
785.891	29309.67
786.224	29158.03
786.558	29093.85
786.891	28851.83
787.224	28753.75
787.557	28665.39
787.891	28544.94
788.224	28528.67
788.557	28576.35
788.89	28400.31
789.223	28318.05
789.556	28168.68
789.888	28045.52
790.221	28049.59
790.554	27797.62
790.887	27758.07
791.219	27743.15
791.552	27563.05
791.884	27523.27
792.217	27382.03
792.549	27257.52
792.882	27123.74
793.214	26972.33
793.546	27040.35
793.879	26761.26
794.211	26758.1
794.543	26846.91
794.875	26707.48
795.207	26790.64
795.539	26528.05
795.871	26508.16
796.203	26320.59
796.535	26232.46
796.867	26164.21
797.198	26076.08
797.53	26188.17
797.862	25840.61
798.193	25956.76
798.525	25761.96
798.856	25770.55
799.188	25454.4
799.519	25392.26
799.85	25376.89
800.182	25429.77
800.513	25392.93
800.844	25114.98
801.175	25183.45
801.506	25067.29
801.837	24988.2
802.168	24944.36
802.499	24731.48
802.83	24782.78
803.161	24726.06
803.491	24606.74
803.822	24658.72
804.153	24547.08
804.483	24217.15
804.814	24262.34
805.145	24114.55
805.475	24204.49
805.805	24025.51
806.136	24012.41
806.466	24013.54
806.796	23920.66
807.126	23731.73
807.457	23769.02
807.787	23714.79
808.117	23585.07
808.447	23573.09
808.777	23711.17
809.107	23558.41
809.436	23514.34
809.766	23361.12
810.096	23314.8
810.426	23287
810.755	23257.62
811.085	23073.45
811.414	23090.4
811.744	22868.48
812.073	22895.15
812.403	22935.37
812.732	22750.52
813.061	22686.34
813.39	22609.5
813.719	22538.77
814.049	22642.05
814.378	22493.35
814.707	22256.97
815.036	22414.48
815.365	22291.09
815.693	22144.21
816.022	22058.11
816.351	21988.05
816.68	21941.05
817.008	22043.42
817.337	21852.91
817.665	21852.01
817.994	21778.79
818.322	21781.05
818.651	21642.3
818.979	21512.58
819.307	21646.14
819.636	21513.49
819.964	21453.83
820.292	21542.41
820.62	21525.24
820.948	21430.55
821.276	21443.43
821.604	21382.42
821.932	21338.8
822.259	21362.31
822.587	21431
822.915	21429.2
823.243	21402.08
823.57	21345.58
823.898	21337
824.225	21214.51
824.553	21210.67
824.88	21268.97
825.207	21289.99
825.535	21297.9
825.862	21336.77
826.189	21328.63
826.516	21344.68
826.843	21364.34
827.17	21337.67
827.497	21348.29
827.824	21407.28
828.151	21313.04
828.478	21271.23
828.805	21353.49
829.131	21337.22
829.458	21268.3
829.785	21133.61
830.111	21150.11
830.438	21287.05
830.764	21314.17
831.09	21301.52
831.417	21137
831.743	21249.31
832.069	21231.69
832.395	21132.93
832.722	21212.48
833.048	21080.96
833.374	21113.72
833.7	20923.45
834.026	21155.53
834.351	21097.68
834.677	21064.69
835.003	21090
835.329	20920.74
835.654	20964.58
835.98	20864.01
836.306	20951.92
836.631	20757.12
836.956	20916.67
837.282	20866.73
837.607	20796.9
837.932	20769.78
838.258	20753.73
838.583	20700.85
838.908	20560.97
839.233	20618.82
839.558	20616.79
839.883	20481.42
840.208	20515.32
840.533	20452.95
840.858	20424.03
841.182	20414.76
841.507	20504.47
841.832	20218.83
842.156	20256.57
842.481	20228.78
842.805	20248.21
843.13	20119.63
843.454	20176.12
843.778	20053.64
844.103	19908.33
844.427	19854.1
844.751	19975.45
845.075	19898.62
845.399	19890.48
845.723	19707.21
846.047	19669.92
846.371	19625.85
846.695	19526.2
847.019	19360.32
847.343	19385.63
847.666	19247.11
847.99	19225.19
848.313	19217.28
848.637	19071.97
848.96	19065.19
849.284	18968.92
849.607	18902.94
849.931	18836.5
850.254	18708.59
850.577	18554.24
850.9	18458.43
851.223	18421.82
851.546	18395.15
851.869	18289.17
852.192	18301.6
852.515	18192.67
852.838	18142.05
853.161	18120.58
853.483	18015.5
853.806	17847.82
854.129	17848.5
854.451	17791.78
854.774	17682.4
855.096	17646.47
855.419	17611.9
855.741	17488.96
856.063	17476.53
856.385	17462.3
856.708	17390.66
857.03	17287.16
857.352	17297.1
857.674	17216.88
857.996	17201.96
858.318	17020.27
858.64	17025.92
858.961	17072.25
859.283	16986.6
859.605	16855.08
859.926	16797
860.248	16844.91
860.57	16788.19
860.891	16784.57
861.212	16768.3
861.534	16744.35
861.855	16625.93
862.176	16626.84
862.498	16628.19
862.819	16456.9
863.14	16482.21
863.461	16463.23
863.782	16461.64
864.103	16488.08
864.424	16461.19
864.745	16414.64
865.065	16283.12
865.386	16286.28
865.707	16209.45
866.027	16204.25
866.348	16120.41
866.668	16156.34
866.989	16115.21
867.309	16053.52
867.63	16076.34
867.95	16103.23
868.27	15958.61
868.59	16054.65
868.91	15929
869.23	15809.23
869.55	15715.67
869.87	15982.33
870.19	15885.16
870.51	15825.05
870.83	15884.48
871.15	15677.71
871.469	15791.38
871.789	15780.31
872.109	15765.62
872.428	15618.95
872.748	15710.25
873.067	15686.97
873.386	15710.7
873.706	15630.03
874.025	15545.28
874.344	15511.84
874.663	15530.37
874.982	15465.06
875.301	15492.86
875.62	15445.85
875.939	15421.67
876.258	15365.63
876.577	15347.32
876.896	15307.55
877.214	15274.56
877.533	15269.13
877.852	15301
878.17	15290.83
878.489	15214.22
878.807	15171.28
879.125	15154.56
879.444	15056.03
879.762	15093.77
880.08	15104.62
880.398	14972.19
880.716	15045.64
881.034	14905.98
881.352	15007.44
881.67	14956.15
881.988	14926.77
882.306	14858.75
882.624	14768.81
882.941	14736.27
883.259	14677.28
883.577	14707.79
883.894	14622.6
884.212	14543.95
884.529	14592.09
884.846	14608.58
885.164	14556.83
885.481	14418.31
885.798	14480.9
886.115	14362.26
886.432	14317.29
886.75	14326.56
887.067	14368.59
887.383	14252.89
887.7	14293.56
888.017	14261.48
888.334	14158.2
888.651	14202.49
888.967	14141.03
889.284	14038.88
889.6	14143.96
889.917	13977.64
890.233	13968.6
890.55	13969.28
890.866	13893.12
891.182	13822.84
891.498	13819.23
891.815	13755.05
892.131	13641.83
892.447	13714.6
892.763	13647.71
893.079	13665.78
893.395	13560.48
893.71	13594.37
894.026	13453.13
894.342	13482.74
894.657	13339.69
894.973	13355.96
895.289	13349.41
895.604	13301.05
895.92	13239.58
896.235	13182.41
896.55	13149.64
896.865	13070.55
897.181	13046.14
897.496	12997.78
897.811	12980.83
898.126	12881.17
898.441	12813.15
898.756	12836.43
899.071	12702.65
899.386	12749.2
899.7	12715.3
900.015	12546.94
900.33	12507.17
900.644	12540.16
900.959	12446.38
901.273	12437.57
901.588	12382.2
901.902	12358.47
902.216	12265.37
902.531	12323.9
902.845	12240.29
903.159	12148.08
903.473	12096.33
903.787	11997.81
904.101	11960.97
904.415	11984.25
904.729	11905.83
905.042	11869.45
905.356	11908.54
905.67	11855.21
905.984	11815.21
906.297	11808.21
906.611	11689.11
906.924	11612.51
907.237	11607.99
907.551	11615.22
907.864	11419.97
908.177	11422
908.491	11441.66
908.804	11397.37
909.117	11335.68
909.43	11281.44
909.743	11176.81
910.056	11183.59
910.368	11144.27
910.681	11064.27
910.994	11016.59
911.307	11011.17
911.619	10905.18
911.932	10906.08
912.244	10843.71
912.557	10785.63
912.869	10716.03
913.181	10768.91
913.494	10699.99
913.806	10621.8
914.118	10610.72
914.43	10488.47
914.742	10491.86
915.054	10474.46
915.366	10384.29
915.678	10347.23
915.99	10296.61
916.302	10281.47
916.613	10232.43
916.925	10230.85
917.236	10164.41
917.548	10115.37
917.859	10088.03
918.171	10027.46
918.482	9979.33
918.794	9984.07
919.105	9982.72
919.416	9844.42
919.727	9853
920.038	9851.2
920.349	9713.8
920.66	9688.04
920.971	9624.99
921.282	9667.02
921.593	9618.89
921.903	9425.9
922.214	9492.34
922.525	9480.81
922.835	9430.87
923.146	9294.83
923.456	9329.4
923.767	9277.65
924.077	9264.77
924.387	9243.53
924.697	9166.24
925.008	9144.1
925.318	9052.8
925.628	9038.79
925.938	9024.78
926.248	8905.68
926.558	8886.48
926.867	8916.31
927.177	8840.37
927.487	8825.01
927.796	8733.94
928.106	8752.47
928.416	8625.24
928.725	8657.55
929.034	8610.1
929.344	8573.94
929.653	8499.14
929.962	8457.56
930.271	8438.58
930.581	8435.41
930.89	8411.69
931.199	8370.33
931.508	8304.12
931.817	8256.89
932.125	8244.68
932.434	8250.56
932.743	8138.02
933.051	8118.36
933.36	8148.42
933.669	8031.36
933.977	7942.09
934.286	8000.17
934.594	7986.84
934.902	7982.32
935.21	7921.08
935.519	7833.4
935.827	7872.72
936.135	7781.19
936.443	7708.43
936.751	7738.26
937.059	7633.85
937.367	7604.7
937.674	7606.28
937.982	7628.66
938.29	7534.87
938.597	7551.6
938.905	7502.11
939.213	7442.67
939.52	7419.85
939.827	7408.77
940.135	7282
940.442	7311.83
940.749	7318.16
941.056	7324.48
941.363	7224.37
941.67	7188.89
941.977	7139.18
942.284	7080.2
942.591	7031.38
942.898	7020.99
943.205	7040.87
943.511	6989.35
943.818	6985.51
944.125	6878.17
944.431	6916.36
944.738	6877.26
945.044	6875.91
945.35	6824.16
945.657	6735.57
945.963	6762.69
946.269	6708.68
946.575	6726.76
946.881	6680.21
947.187	6618.96
947.493	6608.34
947.799	6603.15
948.105	6535.12
948.41	6529.02
948.716	6471.17
949.022	6454
949.327	6461.91
949.633	6354.79
949.938	6391.63
950.244	6344.17
950.549	6262.59
950.854	6333.77
951.16	6247.67
951.465	6286.54
951.77	6184.17
952.075	6171.07
952.38	6183.04
952.685	6163.16
952.99	6102.14
953.294	6085.42
953.599	6026.21
953.904	6012.65
954.209	5997.06
954.513	5967.46
954.818	5971.52
955.122	5904.63
955.426	5939.21
955.731	5866.67
956.035	5783.51
956.339	5813.79
956.643	5782.83
956.948	5760
957.252	5789.16
957.556	5660.35
957.86	5691.31
958.163	5661.7
958.467	5626.9
958.771	5651.98
959.075	5593.91
959.378	5533.57
959.682	5496.96
959.985	5519.33
960.289	5478.2
960.592	5467.36
960.896	5444.08
961.199	5364.31
961.502	5369.28
961.805	5366.34
962.108	5327.47
962.411	5297.87
962.714	5283.86
963.017	5256.06
963.32	5302.16
963.623	5215.61
963.926	5273.24
964.228	5215.61
964.531	5135.61
964.833	5110.3
965.136	5136.97
965.438	5116.18
965.741	5041.6
966.043	5054.94
966.345	5033.92
966.648	4970.65
966.95	4982.62
967.252	4936.07
967.554	4941.49
967.856	4896.52
968.158	4852.23
968.46	4884.32
968.761	4837.09
969.063	4812.91
969.365	4808.62
969.666	4745.57
969.968	4720.48
970.269	4714.83
970.571	4711.67
970.872	4678.45
971.174	4656.98
971.475	4645.91
971.776	4634.38
972.077	4586.48
972.378	4593.25
972.679	4555.06
972.98	4558.91
973.281	4498.79
973.582	4514.16
973.883	4481.39
974.183	4494.95
974.484	4438
974.785	4399.59
975.085	4409.98
975.386	4402.75
975.686	4388.51
975.986	4328.63
976.287	4315.52
976.587	4293.38
976.887	4272.13
977.187	4271.46
977.487	4212.25
977.787	4213.6
978.087	4181.74
978.387	4202.53
978.687	4180.16
978.987	4154.62
979.286	4113.95
979.586	4117.34
979.885	4116.88
980.185	4084.12
980.484	4001.86
980.784	4063.78
981.083	4020.39
981.382	4023.33
981.682	4004.34
981.981	3939.26
982.28	3967.51
982.579	3968.64
982.878	3918.47
983.177	3936.78
983.475	3848.87
983.774	3820.62
984.073	3813.84
984.372	3831.02
984.67	3798.02
984.969	3762.32
985.267	3789.66
985.566	3742.2
985.864	3749.89
986.162	3724.13
986.461	3691.36
986.759	3715.09
987.057	3659.27
987.355	3643.45
987.653	3622.88
987.951	3643.45
988.249	3603.68
988.547	3642.09
988.844	3561.19
989.142	3550.57
989.44	3526.62
989.737	3500.85
990.035	3522.55
990.332	3488.43
990.63	3444.36
990.927	3407.98
991.224	3441.19
991.521	3425.83
991.819	3414.75
992.116	3377.24
992.413	3364.13
992.71	3339.5
993.006	3321.65
993.303	3328.2
993.6	3337.47
993.897	3296.57
994.193	3252.27
994.49	3249.56
994.787	3236.45
995.083	3224.93
995.379	3204.36
995.676	3161.65
995.972	3157.59
996.268	3159.39
996.565	3183.57
996.861	3117.36
997.157	3133.86
997.453	3101.09
997.749	3074.42
998.044	3054.76
998.34	3042.56
998.636	3034.2
998.932	3017.03
999.227	3019.29
999.523	2990.13
999.818	2970.47
1000.114	2936.12
1000.409	2945.61
1000.704	2901.55
1001	2924.37
1001.295	2856.35
1001.59	2901.32
1001.885	2839.18
1002.18	2824.04
1002.475	2804.83
1002.77	2816.35
1003.065	2772.06
1003.359	2794.43
1003.654	2724.6
1003.949	2719.63
1004.243	2736.13
1004.538	2699.07
1004.832	2698.39
1005.127	2667.43
1005.421	2687.09
1005.715	2657.26
1006.009	2586.3
1006.304	2637.6
1006.598	2615
1006.892	2556.02
1007.186	2604.38
1007.48	2559.41
1007.773	2556.47
1008.067	2522.57
1008.361	2523.48
1008.655	2498.62
1008.948	2463.82
1009.242	2475.57
1009.535	2454.1
1009.829	2431.96
1010.122	2437.83
1010.415	2415.23
1010.708	2343.82
1011.001	2377.04
1011.295	2359.19
1011.588	2380.43
1011.881	2321.9
1012.173	2334.33
1012.466	2308.8
1012.759	2264.5
1013.052	2308.34
1013.344	2270.6
1013.637	2275.35
1013.93	2229.93
1014.222	2203.71
1014.514	2202.36
1014.807	2205.3
1015.099	2186.54
1015.391	2162.13
1015.683	2169.82
1015.976	2170.95
1016.268	2140.66
1016.56	2105.86
1016.851	2065.41
1017.143	2086.2
1017.435	2069.25
1017.727	2048.24
1018.018	2038.75
1018.31	2009.37
1018.602	2029.71
1018.893	2010.95
1019.185	1999.88
1019.476	1974.34
1019.767	1957.62
1020.058	1959.2
1020.35	1944.51
1020.641	1928.92
1020.932	1912.87
1021.223	1913.78
1021.514	1884.63
1021.804	1896.38
1022.095	1859.99
1022.386	1845.53
1022.677	1831.97
1022.967	1847.34
1023.258	1792.65
1023.548	1794.01
1023.839	1795.14
1024.129	1772.09
1024.419	1767.57
1024.709	1745.65
1025	1725.53
1025.29	1709.49
1025.58	1716.04
1025.87	1685.99
1026.16	1669.04
1026.449	1668.59
1026.739	1661.35
1027.029	1673.33
1027.319	1594.69
1027.608	1626.55
1027.898	1608.93
1028.187	1598.31
1028.477	1594.46
1028.766	1574.35
1029.055	1574.8
1029.344	1550.62
1029.634	1519.89
1029.923	1496.84
1030.212	1540.45
1030.501	1527.35
1030.79	1517.4
1031.078	1480.79
1031.367	1471.53
1031.656	1467.24
1031.945	1457.74
1032.233	1441.02
1032.522	1437.41
1032.81	1425.43
1033.099	1426.56
1033.387	1400.8
1033.675	1405.32
1033.963	1390.63
1034.251	1343.4
1034.54	1392.89
1034.828	1359.44
1035.116	1352.89
1035.403	1353.57
1035.691	1339.56
1035.979	1324.41
1036.267	1352.44
1036.554	1297.3
1036.842	1311.76
1037.129	1300.01
1037.417	1281.25
1037.704	1271.08
1037.992	1251.42
1038.279	1266.79
1038.566	1213.68
1038.853	1213.68
1039.14	1213.68
