Data from orange_diffuse_book_FLMS001491_00039.txt Node
Date: Wed Feb 08 15:29:29 GMT 2017
User: dcchb
Spectrometer: FLMS00149
Trigger mode: 0
Integration Time (sec): 2.000000E-2
Scans to average: 10
Electric dark correction enabled: true
Nonlinearity correction enabled: false
Boxcar width: 0
XAxis mode: Wavelengths
Number of Pixels in Spectrum: 2048
>>>>>Begin Spectral Data<<<<<
341.393	-19.36
341.776	-19.36
342.16	-19.36
342.543	-54.17
342.927	-94.39
343.31	-73.37
343.693	-69.53
344.077	-65.92
344.46	-63.43
344.843	-66.14
345.226	-40.15
345.61	-18.91
345.993	-13.49
346.376	-18.46
346.759	-11.45
347.142	15.21
347.525	39.84
347.908	70.58
348.291	103.34
348.674	102.67
349.057	109.22
349.44	111.48
349.823	153.51
350.206	168.2
350.588	203.91
350.971	235.54
351.354	240.74
351.737	249.1
352.119	274.41
352.502	281.65
352.884	292.49
353.267	279.61
353.65	319.16
354.032	295.88
354.414	302.66
354.797	313.73
355.179	316.22
355.562	332.94
355.944	345.37
356.326	343.79
356.709	353.51
357.091	339.95
357.473	344.69
357.855	336.33
358.238	358.71
358.62	361.42
359.002	351.47
359.384	373.62
359.766	355.54
360.148	358.03
360.53	345.82
360.912	350.12
361.294	334.98
361.676	334.75
362.057	344.47
362.439	342.43
362.821	345.82
363.203	337.24
363.584	334.98
363.966	330.01
364.348	315.99
364.729	332.27
365.111	336.56
365.493	317.35
365.874	327.29
366.256	299.72
366.637	332.04
367.019	340.85
367.4	352.38
367.781	323.23
368.163	330.46
368.544	326.16
368.925	320.29
369.306	325.94
369.688	328.65
370.069	334.3
370.45	309.44
370.831	323.9
371.212	327.97
371.593	325.03
371.974	333.4
372.355	318.25
372.736	329.55
373.117	325.94
373.498	325.26
373.879	333.17
374.26	338.14
374.641	344.69
375.021	343.79
375.402	327.75
375.783	344.24
376.163	334.75
376.544	330.91
376.925	333.17
377.305	361.42
377.686	349.44
378.066	356.9
378.447	355.32
378.827	341.98
379.208	342.89
379.588	367.52
379.968	352.83
380.349	351.7
380.729	362.32
381.109	344.02
381.489	349.21
381.87	351.47
382.25	353.06
382.63	364.81
383.01	355.32
383.39	380.85
383.77	373.39
384.15	380.63
384.53	354.41
384.91	351.7
385.29	355.09
385.67	374.3
386.049	355.32
386.429	376.33
386.809	374.52
387.189	381.76
387.568	359.84
387.948	361.64
388.328	383.34
388.707	410.23
389.087	375.43
389.466	387.18
389.846	381.76
390.225	378.37
390.605	390.57
390.984	395.77
391.363	375.43
391.743	404.81
392.122	391.02
392.501	405.48
392.881	385.82
393.26	400.06
393.639	378.14
394.018	415.88
394.397	407.29
394.776	409.1
395.155	423.79
395.534	426.95
395.913	412.94
396.292	398.48
396.671	403
397.05	407.52
397.429	419.72
397.808	437.35
398.186	413.17
398.565	417.46
398.944	440.51
399.323	432.15
399.701	430.57
400.08	426.05
400.458	440.51
400.837	435.54
401.215	443.45
401.594	428.99
401.972	442.32
402.351	458.59
402.729	433.05
403.107	424.24
403.486	455.43
403.864	442.32
404.242	449.55
404.62	465.6
404.999	453.39
405.377	478.25
405.755	475.54
406.133	458.36
406.511	473.5
406.889	462.88
407.267	483.22
407.645	477.8
408.023	498.59
408.401	487.29
408.779	488.42
409.156	504.46
409.534	497.01
409.912	501.53
410.29	502.2
410.667	510.57
411.045	497.68
411.422	507.18
411.8	516.22
412.178	523.22
412.555	531.58
412.933	523.22
413.31	516.89
413.687	543.56
414.065	530.68
414.442	560.51
414.819	559.38
415.197	545.14
415.574	545.59
415.951	555.31
416.328	559.15
416.705	562.77
417.082	599.6
417.46	589.43
417.837	579.72
418.214	559.6
418.591	591.24
418.967	562.77
419.344	587.85
419.721	578.59
420.098	605.03
420.475	602.77
420.852	625.59
421.228	626.27
421.605	596.67
421.982	619.49
422.358	621.75
422.735	619.49
423.111	663.1
423.488	615.2
423.864	615.65
424.241	645.03
424.617	648.64
424.994	655.87
425.37	681.63
425.746	682.09
426.123	678.24
426.499	672.82
426.875	675.31
427.251	681.41
427.627	714.4
428.003	707.4
428.379	694.52
428.756	714.18
429.132	708.3
429.507	702.43
429.883	747.4
430.259	753.72
430.635	731.8
431.011	774.51
431.387	731.58
431.763	779.03
432.138	740.62
432.514	785.59
432.89	763.89
433.265	777
433.641	767.06
434.016	803.67
434.392	801.18
434.767	822.42
435.143	823.55
435.518	828.98
435.894	837.11
436.269	865.58
436.644	841.63
437.02	843.21
437.395	875.08
437.77	872.14
438.145	890.67
438.52	905.13
438.895	891.8
439.271	868.3
439.646	940.16
440.021	892.93
440.395	934.28
440.77	912.81
441.145	927.73
441.52	945.81
441.895	938.35
442.27	938.8
442.645	943.1
443.019	967.05
443.394	947.84
443.769	942.64
444.143	985.13
444.518	949.2
444.892	932.93
445.267	986.94
445.641	1001.63
446.016	990.1
446.39	981.74
446.764	995.98
447.139	972.47
447.513	1018.12
447.887	1019.93
448.262	993.26
448.636	1020.16
449.01	1024.9
449.384	1046.37
449.758	1026.26
450.132	1041.17
450.506	1050.21
450.88	1050.44
451.254	1062.87
451.628	1079.36
452.002	1125.01
452.376	1079.36
452.75	1099.25
453.123	1104.9
453.497	1137.22
453.871	1139.48
454.244	1120.27
454.618	1163.2
454.992	1151
455.365	1151.23
455.739	1189.42
456.112	1178.8
456.486	1182.86
456.859	1223.32
457.232	1239.81
457.606	1191.68
457.979	1215.18
458.352	1256.08
458.725	1260.38
459.099	1260.38
459.472	1266.48
459.845	1297.44
460.218	1291.79
460.591	1318.23
460.964	1304.44
461.337	1320.49
461.71	1347.83
462.083	1388.06
462.456	1370.43
462.829	1382.41
463.201	1386.47
463.574	1406.36
463.947	1399.81
464.32	1438
464.692	1406.59
465.065	1470.77
465.438	1464.89
465.81	1462.86
466.183	1507.83
466.555	1500.6
466.928	1524.55
467.3	1528.62
467.672	1534.95
468.045	1554.38
468.417	1573.59
468.789	1575.4
469.161	1596.64
469.534	1631.44
469.906	1621.95
470.278	1633.93
470.65	1657.2
471.022	1709.63
471.394	1727.26
471.766	1717.31
472.138	1748.05
472.51	1769.97
472.882	1800.02
473.253	1789.85
473.625	1864.2
473.997	1852.9
474.369	1891.55
474.74	1864.88
475.112	1915.73
475.484	1949.4
475.855	1989.17
476.227	1994.59
476.598	2040.02
476.97	2038.66
477.341	2083.86
477.713	2113.91
478.084	2114.37
478.455	2176.06
478.827	2210.63
479.198	2259.45
479.569	2258.77
479.94	2306.9
480.311	2314.59
480.682	2344.19
481.053	2441.59
481.424	2462.15
481.795	2481.14
482.166	2521.59
482.537	2531.08
482.908	2592.77
483.279	2629.15
483.65	2675.71
484.021	2681.13
484.391	2737.85
484.762	2771.3
485.133	2792.99
485.503	2846.32
485.874	2874.35
486.244	2911.41
486.615	2949.6
486.985	3002.03
487.356	3027.79
487.726	3069.82
488.097	3110.5
488.467	3126.77
488.837	3248.8
489.207	3236.6
489.578	3282.02
489.948	3326.08
490.318	3396.14
490.688	3407.66
491.058	3473.88
491.428	3544.38
491.798	3542.12
492.168	3608.79
492.538	3664.38
492.908	3688.79
493.278	3743.02
493.648	3736.02
494.017	3815.56
494.387	3880.19
494.757	3922.91
495.126	3947.31
495.496	4025.05
495.866	3971.04
496.235	4070.92
496.605	4122
496.974	4132.84
497.344	4133.75
497.713	4189.11
498.082	4261.65
498.452	4319.05
498.821	4342.1
499.19	4339.39
499.559	4436.56
499.928	4434.08
500.298	4472.04
500.667	4509.56
501.036	4535.32
501.405	4600.63
501.774	4585.94
502.143	4647.86
502.512	4638.82
502.88	4746.84
503.249	4737.8
503.618	4774.86
503.987	4811.02
504.356	4845.82
504.724	4875.2
505.093	4915.2
505.462	4951.35
505.83	4952.93
506.199	5033.16
506.567	5152.48
506.936	5121.07
507.304	5198.13
507.672	5165.58
508.041	5234.51
508.409	5232.25
508.777	5325.35
509.145	5387.5
509.514	5388.18
509.882	5429.98
510.25	5418.69
510.618	5498.91
510.986	5518.12
511.354	5562.41
511.722	5628.85
512.09	5641.5
512.458	5642.86
512.826	5770.77
513.193	5787.72
513.561	5779.13
513.929	5820.93
514.297	5898.67
514.664	5981.38
515.032	5969.18
515.4	5977.31
515.767	6053.7
516.135	6090.76
516.502	6086.46
516.869	6149.29
517.237	6166.46
517.604	6172.11
517.972	6276.29
518.339	6325.33
518.706	6369.62
519.073	6360.13
519.44	6403.97
519.808	6496.4
520.175	6496.62
520.542	6543.63
520.909	6621.37
521.276	6629.73
521.643	6658.2
522.009	6747.46
522.376	6815.94
522.743	6798.76
523.11	6900.23
523.477	6937.74
523.843	6997.85
524.21	7049.38
524.577	7146.32
524.943	7153.1
525.31	7256.15
525.676	7256.6
526.043	7356.71
526.409	7303.16
526.776	7425.41
527.142	7437.84
527.508	7471.51
527.874	7558.06
528.241	7610.27
528.607	7597.61
528.973	7684.16
529.339	7663.82
529.705	7739.75
530.071	7801
530.437	7866.08
530.803	7923.03
531.169	7952.4
531.535	7947.21
531.901	7955.34
532.267	8024.72
532.632	8052.06
532.998	8064.27
533.364	8172.29
533.73	8121.89
534.095	8254.99
534.461	8331.6
534.826	8290.25
535.192	8336.35
535.557	8406.86
535.923	8479.17
536.288	8449.34
536.653	8464.48
537.019	8517.36
537.384	8514.87
537.749	8599.84
538.114	8621.54
538.479	8657.24
538.845	8675.32
539.21	8729.78
539.575	8781.08
539.94	8776.11
540.305	8839.61
540.67	8789.44
541.034	8870.35
541.399	8911.25
541.764	9030.12
542.129	9030.34
542.494	9062.21
542.858	9093.84
543.223	9086.39
543.587	9196.89
543.952	9169.1
544.316	9198.47
544.681	9274.63
545.045	9330.67
545.41	9417.22
545.774	9402.08
546.138	9376.32
546.503	9438.47
546.867	9457
547.231	9532.7
547.595	9621.96
547.959	9638.69
548.324	9642.3
548.688	9657.44
549.052	9802.52
549.416	9758.23
549.779	9822.86
550.143	9832.13
550.507	9914.39
550.871	9987.6
551.235	9960.94
551.599	10021.95
551.962	10084.55
552.326	10189.18
552.689	10162.52
553.053	10217.43
553.417	10295.39
553.78	10463.52
554.143	10410.64
554.507	10471.66
554.87	10583.52
555.234	10656.06
555.597	10631.66
555.96	10658.77
556.323	10846.57
556.686	10863.29
557.05	10959.56
557.413	10979.89
557.776	11018.99
558.139	11134.47
558.502	11220.34
558.865	11176.5
559.228	11303.28
559.59	11383.27
559.953	11475.7
560.316	11612.42
560.679	11607
561.041	11623.72
561.404	11760.67
561.767	11850.61
562.129	11994.56
562.492	12094.22
562.854	12094.89
563.217	12195
563.579	12285.85
563.941	12373.3
564.304	12523.36
564.666	12615.56
565.028	12682.45
565.39	12761.32
565.753	12986.62
566.115	13041.99
566.477	13087.64
566.839	13255.09
567.201	13409.21
567.563	13467.06
567.925	13637.23
568.287	13685.59
568.648	13873.6
569.01	13920.83
569.372	14181.39
569.734	14144.33
570.095	14342.52
570.457	14505.45
570.819	14612.34
571.18	14770.08
571.542	14948.83
571.903	15077.19
572.265	15198.99
572.626	15434.02
572.987	15557.63
573.349	15737.74
573.71	16033.1
574.071	16226.31
574.432	16377.49
574.794	16560.09
575.155	16793.08
575.516	16909.68
575.877	17245.04
576.238	17385.15
576.599	17631.92
576.96	17752.15
577.32	18040.27
577.681	18259.48
578.042	18674.83
578.403	18871.44
578.763	19113.47
579.124	19314.82
579.485	19644.3
579.845	19973.56
580.206	20164.06
580.566	20509.14
580.927	20856.47
581.287	21116.8
581.648	21337.14
582.008	21734.41
582.368	21979.38
582.728	22396.77
583.089	22661.17
583.449	22939.35
583.809	23333.47
584.169	23686.68
584.529	23920.8
584.889	24571.63
585.249	24890.94
585.609	25185.17
585.969	25643.46
586.329	25928.88
586.688	26303.33
587.048	26824.68
587.408	27092.69
587.768	27549.63
588.127	27979
588.487	28312.32
588.846	28840.22
589.206	29140.55
589.565	29538.73
589.925	30084.03
590.284	30474.07
590.643	30916.55
591.003	31458
591.362	31986.12
591.721	32325.32
592.08	32674.47
592.44	33243.72
592.799	33628.34
593.158	33960.53
593.517	34597.35
593.876	34979.72
594.235	35383.32
594.593	35874.83
594.952	36456.74
595.311	36651.76
595.67	37345.3
596.029	37842.69
596.387	38323.81
596.746	38881.08
597.104	39037.24
597.463	39594.74
597.822	40060.94
598.18	40388.39
598.538	40775.72
598.897	41410.96
599.255	41427
599.613	42246.64
599.972	42463.36
600.33	42977.25
600.688	43320.06
601.046	43726.15
601.404	44275.52
601.762	44423.76
602.12	44967.93
602.478	45360.91
602.836	45589.38
603.194	45863.95
603.552	46283.37
603.91	46422.58
604.268	47013.75
604.625	47129.68
604.983	47633.62
605.341	47746.61
605.698	48176.21
606.056	48441.06
606.413	48630.2
606.771	49044.66
607.128	49230.41
607.485	49461.14
607.843	49512.67
608.2	49892.09
608.557	50307.9
608.914	50375.24
609.272	50658.85
609.629	50899.52
609.986	51152.4
610.343	51174.09
610.7	51478.04
611.057	51614.31
611.414	51656.11
611.771	51874.64
612.127	52094.97
612.484	52225.82
612.841	52497.9
613.198	52417.45
613.554	52601.85
613.911	52787.16
614.267	52941.96
614.624	53014.04
614.98	53034.83
615.337	53342.62
615.693	53364.32
616.05	53502.39
616.406	53706.91
616.762	53686.12
617.118	53725.89
617.475	53818.77
617.831	54026.45
618.187	54031.64
618.543	54231.41
618.899	54297.85
619.255	54443.61
619.611	54397.96
619.967	54524.96
620.323	54632.98
620.678	54633.21
621.034	54599.09
621.39	54597.05
621.746	54640.44
622.101	55028
622.457	54810.83
622.812	54849.7
623.168	55010.83
623.523	55067.55
623.879	55151.84
624.234	54996.59
624.589	55145.74
624.945	55220.99
625.3	55261.67
625.655	55273.19
626.01	55308.67
626.365	55310.71
626.72	55270.26
627.075	55343.47
627.43	55333.08
627.785	55300.99
628.14	55423.7
628.495	55489.01
628.85	55497.82
629.205	55389.57
629.559	55581.89
629.914	55474.77
630.269	55594.99
630.623	55420.08
630.978	55438.61
631.332	55547.54
631.687	55504.83
632.041	55534.2
632.396	55525.84
632.75	55475.22
633.104	55506.63
633.459	55401.55
633.813	55415.56
634.167	55443.81
634.521	55367.88
634.875	55489.69
635.229	55453.3
635.583	55357.26
635.937	55344.83
636.291	55285.4
636.645	55345.28
636.999	55259.86
637.352	55391.83
637.706	55241.1
638.06	55385.06
638.413	55269.58
638.767	55185.06
639.121	55243.36
639.474	55123.37
639.828	55177.15
640.181	55195.46
640.534	55218.28
640.888	55263.7
641.241	55049.47
641.594	55123.59
641.947	55118.17
642.301	55070.04
642.654	55120.88
643.007	55266.41
643.36	55113.88
643.713	55083.14
644.066	55181.22
644.419	55035.69
644.771	54725.86
645.124	54541.24
645.477	54576.04
645.83	54328.13
646.182	54285.42
646.535	54263.5
646.888	54354.12
647.24	54248.81
647.593	54328.81
647.945	54229.61
648.298	54135.14
648.65	54100.57
649.002	54018.09
649.355	54152.09
649.707	54085.88
650.059	54237.97
650.411	54462.37
650.763	54637.28
651.115	54898.97
651.467	54786.2
651.819	54764.96
652.171	54758.86
652.523	54628.01
652.875	54762.47
653.227	54667.56
653.578	54863.26
653.93	54689.25
654.282	54653.77
654.633	54604.96
654.985	54638.63
655.337	54595.92
655.688	54662.81
656.039	54714.34
656.391	54514.34
656.742	54569.03
657.094	54524.51
657.445	54730.61
657.796	54560.67
658.147	54601.8
658.498	54537.85
658.849	54634.79
659.2	54630.72
659.551	54454.46
659.902	54567.22
660.253	54608.35
660.604	54610.84
660.955	54481.35
661.306	54529.94
661.656	54464.18
662.007	54564.29
662.358	54458.53
662.708	54436.61
663.059	54503.5
663.409	54276.61
663.76	54570.16
664.11	54449.49
664.461	54555.25
664.811	54544.17
665.161	54438.19
665.511	54385.31
665.862	54458.75
666.212	54440.45
666.562	54504.4
666.912	54426.21
667.262	54384.86
667.612	54366.32
667.962	54374.91
668.312	54305.54
668.662	54494
669.011	54355.93
669.361	54352.77
669.711	54353.22
670.06	54274.35
670.41	54194.35
670.76	54159.32
671.109	54318.87
671.459	54214.01
671.808	54125.43
672.157	54199.55
672.507	54029.16
672.856	54075.03
673.205	54134.24
673.554	54144.64
673.904	53988.71
674.253	54210.4
674.602	54080.91
674.951	53635.72
675.3	53478.21
675.649	54015.6
675.998	53925.66
676.346	53869.61
676.695	54069.16
677.044	53852.44
677.393	53901.7
677.741	53842.95
678.09	53777.87
678.438	53730.64
678.787	53888.6
679.135	53873.23
679.484	53604.54
679.832	53697.64
680.181	53525.44
680.529	53630.52
680.877	53548.27
681.225	53569.51
681.573	53663.29
681.922	53481.38
682.27	53420.59
682.618	53481.15
682.966	53339.23
683.314	53477.76
683.661	53242.74
684.009	53128.62
684.357	53099.92
684.705	53130.88
685.053	53112.8
685.4	53059.24
685.748	52890.43
686.095	52883.43
686.443	52772.92
686.79	52833.03
687.138	52819.92
687.485	52777.21
687.832	52584.22
688.18	52681.4
688.527	52422.42
688.874	52475.75
689.221	52393.95
689.568	52327.28
689.915	52249.32
690.262	52229.21
690.609	52092.94
690.956	52077.12
691.303	52072.6
691.65	51804.81
691.997	51832.83
692.344	51570.47
692.69	51600.07
693.037	51580.64
693.383	51307.65
693.73	51543.8
694.077	51297.48
694.423	51177.93
694.769	51148.33
695.116	51127.54
695.462	51038.5
695.808	50870.82
696.155	51007.54
696.501	50671.73
696.847	50724.16
697.193	50483.49
697.539	50600.32
697.885	50335.24
698.231	50240.78
698.577	50307.45
698.923	50097.06
699.269	50008.02
699.614	49762.6
699.96	49796.73
700.306	49741.14
700.651	49721.7
700.997	49495.49
701.342	49465.66
701.688	49446.68
702.033	49302.73
702.379	49248.49
702.724	49130.98
703.069	49099.12
703.415	48784.32
703.76	48800.37
704.105	48759.69
704.45	48502.07
704.795	48441.96
705.14	48352.7
705.485	48403.54
705.83	48080.61
706.175	48179.59
706.52	48088.75
706.865	47909.77
707.209	47873.39
707.554	47664.58
707.899	47827.29
708.243	47606.73
708.588	47569.67
708.932	47198.15
709.277	47097.82
709.621	47186.4
709.966	46916.13
710.31	47118.61
710.654	46719.07
710.998	46991.83
711.342	46973.98
711.687	46698.05
712.031	46531.95
712.375	46390.26
712.719	46561.33
713.063	46308.01
713.407	46568.56
713.75	46212.19
714.094	46338.51
714.438	46001.57
714.782	46121.12
715.125	45823.72
715.469	45993.66
715.812	45802.71
716.156	45569.49
716.499	45719.09
716.843	45712.77
717.186	45458.76
717.53	45587.57
717.873	45627.35
718.216	45386.9
718.559	45219.45
718.902	44938.1
719.246	45153.46
719.589	44890.87
719.932	44799.12
720.275	44811.77
720.617	44836.63
720.96	44818.1
721.303	44778.78
721.646	44813.13
721.989	44466.02
722.331	44746.69
722.674	44419.69
723.016	44431.22
723.359	44276.19
723.701	44374.72
724.044	44171.34
724.386	44056.77
724.729	44283.2
725.071	44116.42
725.413	44209.08
725.755	44062.64
726.097	43784
726.439	43617.91
726.782	43745.14
727.124	43964.11
727.465	43689.09
727.807	43577.23
728.149	43688.87
728.491	43548.3
728.833	43562.32
729.175	43357.12
729.516	43325.49
729.858	43394.18
730.199	43360.06
730.541	43218.82
730.882	43203.45
731.224	43337.01
731.565	43056.57
731.906	43003.01
732.248	43105.15
732.589	42839.85
732.93	42853.63
733.271	42891.6
733.612	42808.66
733.953	42819.28
734.294	42697.03
734.635	42532.96
734.976	42607.54
735.317	42422.68
735.658	42433.31
735.999	42403.7
736.339	42412.51
736.68	42452.29
737.021	42417.94
737.361	42134.56
737.702	42429.46
738.042	42116.03
738.383	42215.46
738.723	42159.87
739.063	42138.62
739.404	42242.8
739.744	42039.19
740.084	41939.08
740.424	42140.66
740.764	41906.99
741.104	41981.79
741.444	41761.68
741.784	41567.11
742.124	41771.18
742.464	41596.49
742.804	41694.79
743.143	41542.71
743.483	41607.56
743.823	41333
744.162	41480.56
744.502	41499.32
744.841	41259.1
745.181	41454.57
745.52	41128.03
745.86	41216.16
746.199	41069.95
746.538	41182.26
746.877	41200.12
747.216	41070.63
747.556	40927.58
747.895	41040.8
748.234	40796.06
748.573	40773.91
748.911	40708.83
749.25	40720.36
749.589	40592.45
749.928	40689.85
750.267	40631.09
750.605	40515.84
750.944	40520.81
751.283	40441.27
751.621	40383.87
751.96	40258.22
752.298	40368.5
752.636	40231.56
752.975	40117.21
753.313	39806.03
753.651	40027.94
753.989	39867.5
754.327	39933.71
754.666	39507.96
755.004	39648.52
755.342	39676.54
755.679	39586.15
756.017	39384.35
756.355	39551.8
756.693	39373.72
757.031	39312.26
757.368	39122.66
757.706	39020.29
758.044	38957.01
758.381	38921.53
758.719	38848.31
759.056	38860.97
759.394	38662.56
759.731	38441.09
760.068	38319.06
760.405	38300.98
760.743	38151.16
761.08	38244.71
761.417	37949.13
761.754	37996.59
762.091	37772.41
762.428	37735.35
762.765	37444.06
763.102	37722.47
763.438	37344.85
763.775	37198.19
764.112	37216.27
764.449	37344.4
764.785	37250.39
765.122	36870.51
765.458	36897.18
765.795	36767.47
766.131	36668.71
766.467	36563.4
766.804	36334.48
767.14	36245.9
767.476	36223.3
767.812	36085.45
768.148	36106.01
768.485	35901.73
768.821	35787.38
769.157	35681.39
769.492	35608.17
769.828	35623.99
770.164	35123.89
770.5	35186.72
770.836	35269.65
771.171	34975.42
771.507	34885.03
771.842	34571.36
772.178	34570.69
772.513	34453.4
772.849	34384.93
773.184	34290.02
773.519	34262.9
773.855	34078.04
774.19	33969.35
774.525	33827.66
774.86	33821.78
775.195	33722.57
775.53	33452.98
775.865	33345.41
776.2	33241.91
776.535	32955.81
776.87	32979.77
777.205	32815.25
777.539	32705.43
777.874	32775.93
778.209	32512.21
778.543	32422.49
778.878	32305.89
779.212	32230.64
779.547	31988.61
779.881	32058.44
780.215	31932.11
780.55	31930.98
780.884	31665
781.218	31598.34
781.552	31617.09
781.886	31445.57
782.22	31196.99
782.554	31139.59
782.888	30720.17
783.222	30732.82
783.556	30632.26
783.889	30605.37
784.223	30515.88
784.557	30367.63
784.89	30530.79
785.224	30258.71
785.557	30082.67
785.891	30037.7
786.224	29902.56
786.558	29848.78
786.891	29571.72
787.224	29442.23
787.557	29546.64
787.891	29384.83
788.224	29341.45
788.557	29501.89
788.89	29214.44
789.223	29283.59
789.556	28955.24
789.888	28950.04
790.221	28778.52
790.554	28643.39
790.887	28508.47
791.219	28563.39
791.552	28381.7
791.884	28345.31
792.217	28073.91
792.549	28058.54
792.882	27903.74
793.214	27822.16
793.546	27791.43
793.879	27594.15
794.211	27528.84
794.543	27503.3
794.875	27463.98
795.207	27520.93
795.539	27305.12
795.871	27315.51
796.203	27091.34
796.535	26941.28
796.867	26942.87
797.198	26771.8
797.53	26836.2
797.862	26731.57
798.193	26591.91
798.525	26541.29
798.856	26497
799.188	26257.46
799.519	26066.28
799.85	26115.09
800.182	26224.92
800.513	26038.26
800.844	25724.14
801.175	25929.33
801.506	25773.86
801.837	25614.09
802.168	25711.03
802.499	25550.81
802.83	25497.93
803.161	25374.54
803.491	25412.51
803.822	25328.67
804.153	25135
804.483	24939.98
804.814	24960.09
805.145	24857.95
805.475	24971.62
805.805	24833.09
806.136	24875.35
806.466	24743.37
806.796	24744.28
807.126	24410.28
807.457	24512.42
807.787	24445.53
808.117	24348.36
808.447	24283.73
808.777	24354.68
809.107	24228.81
809.436	24189.72
809.766	24160.57
810.096	23946.11
810.426	23783.17
810.755	23973.23
811.085	23819.78
811.414	23763.51
811.744	23598.32
812.073	23629.05
812.403	23539.34
812.732	23336.41
813.061	23417.31
813.39	23231.32
813.719	23172.34
814.049	23413.92
814.378	23126.69
814.707	23072.46
815.036	23086.47
815.365	22934.61
815.693	22672.47
816.022	22706.37
816.351	22705.24
816.68	22569.42
817.008	22681.28
817.337	22384.34
817.665	22533.49
817.994	22538.01
818.322	22431.8
818.651	22329.65
818.979	22160.62
819.307	22351.57
819.636	22265.7
819.964	22079.72
820.292	22183.22
820.62	22072.94
820.948	22121.52
821.276	22043.11
821.604	22012.83
821.932	22022.99
822.259	22063.9
822.587	21969.21
822.915	22015.31
823.243	22090.79
823.57	22014.63
823.898	22041.07
824.225	21871.81
824.553	21952.49
824.88	21947.74
825.207	22006.72
825.535	21880.63
825.862	22022.54
826.189	21821.87
826.516	21986.16
826.843	22062.99
827.17	21971.47
827.497	21986.61
827.824	22056.21
828.151	22008.31
828.478	22013.5
828.805	22056.44
829.131	21924.92
829.458	21887.4
829.785	21834.75
830.111	21796.11
830.438	21954.52
830.764	21858.7
831.09	21985.03
831.417	21816.67
831.743	22004.24
832.069	21737.58
832.395	21768.31
832.722	21844.47
833.048	21746.17
833.374	21752.72
833.7	21648.99
834.026	21589.79
834.351	21594.53
834.677	21745.94
835.003	21753.17
835.329	21644.02
835.654	21638.6
835.98	21489.45
836.306	21539.62
836.631	21482.44
836.956	21413.07
837.282	21586.4
837.607	21369.23
837.932	21410.58
838.258	21423.24
838.583	21404.25
838.908	21204.03
839.233	21286.97
839.558	21147.54
839.883	21143.24
840.208	21119.06
840.533	21071.38
840.858	21186.18
841.182	21132.17
841.507	20973.98
841.832	20806.53
842.156	20895.11
842.481	20825.96
842.805	20836.81
843.13	20839.07
843.454	20750.71
843.778	20679.53
844.103	20635.01
844.427	20563.37
844.751	20664.61
845.075	20484.28
845.399	20465.97
845.723	20314.34
846.047	20404.05
846.371	20140.33
846.695	20187.56
847.019	19987.57
847.343	19958.64
847.666	19842.49
847.99	19862.15
848.313	19833.67
848.637	19650.4
848.96	19614.47
849.284	19544.64
849.607	19361.14
849.931	19336.51
850.254	19286.34
850.577	19141.04
850.9	19034.15
851.223	19001.38
851.546	18885.68
851.869	18860.59
852.192	18878.44
852.515	18756.41
852.838	18610.2
853.161	18691.78
853.483	18499.25
853.806	18442.3
854.129	18348.74
854.451	18227.39
854.774	18240.27
855.096	18195.52
855.419	18145.36
855.741	18081.86
856.063	18051.12
856.385	17904.91
856.708	17905.14
857.03	17794.4
857.352	17767.97
857.674	17727.51
857.996	17703.56
858.318	17739.94
858.64	17602.77
858.961	17523.68
859.283	17505.6
859.605	17407.97
859.926	17531.36
860.248	17425.15
860.57	17340.18
860.891	17306.06
861.212	17291.82
861.534	17256.34
861.855	17261.54
862.176	17105.16
862.498	17143.8
862.819	17179.05
863.14	16927.76
863.461	17014.76
863.782	16932.96
864.103	16948.33
864.424	16964.14
864.745	17012.05
865.065	16893.19
865.386	16741.33
865.707	16728.22
866.027	16750.82
866.348	16633.98
866.668	16712.4
866.989	16693.87
867.309	16546.08
867.63	16570.48
867.95	16615
868.27	16414.55
868.59	16436.93
868.91	16443.25
869.23	16386.53
869.55	16324.61
869.87	16401.67
870.19	16292.75
870.51	16376.82
870.83	16380.88
871.15	16214.56
871.469	16283.94
871.789	16335.46
872.109	16105.86
872.428	16103.15
872.748	16131.62
873.067	16057.05
873.386	16069.93
873.706	16074.22
874.025	16071.06
874.344	15995.81
874.663	15897.05
874.982	15918.07
875.301	15982.02
875.62	15865.64
875.939	15888.47
876.258	15869.94
876.577	15768.02
876.896	15784.06
877.214	15725.98
877.533	15693.44
877.852	15662.94
878.17	15726.66
878.489	15698.87
878.807	15683.5
879.125	15608.93
879.444	15635.37
879.762	15547.68
880.08	15612.77
880.398	15431.76
880.716	15454.58
881.034	15389.95
881.352	15381.81
881.67	15420.23
881.988	15323.28
882.306	15359.89
882.624	15244.19
882.941	15194.93
883.259	15174.36
883.577	15061.37
883.894	15122.38
884.212	15080.58
884.529	15055.49
884.846	14985.44
885.164	15076.51
885.481	14936.18
885.798	14910.64
886.115	14871.32
886.432	14871.77
886.75	14719.01
887.067	14744.32
887.383	14611.89
887.7	14716.52
888.017	14628.84
888.334	14639.01
888.651	14632.45
888.967	14627.26
889.284	14410.31
889.6	14536.41
889.917	14381.61
890.233	14417.54
890.55	14345.68
890.866	14317.21
891.182	14248.06
891.498	14225.69
891.815	14147.04
892.131	14138.46
892.447	14055.75
892.763	14067.27
893.079	14024.11
893.395	13905.92
893.71	13887.62
894.026	13916.54
894.342	13896.2
894.657	13684.91
894.973	13732.36
895.289	13745.7
895.604	13733.95
895.92	13625.7
896.235	13563.1
896.55	13649.2
896.865	13486.04
897.181	13404.92
897.496	13406.72
897.811	13318.82
898.126	13191.59
898.441	13292.6
898.756	13194.07
899.071	13104.13
899.386	13218.71
899.7	13084.7
900.015	12957.47
900.33	12909.34
900.644	12898.49
900.959	12939.39
901.273	12856
901.588	12825.27
901.902	12669.34
902.216	12671.83
902.531	12632.73
902.845	12588.67
903.159	12549.35
903.473	12473.64
903.787	12404.72
904.101	12411.5
904.415	12433.87
904.729	12432.29
905.042	12211.73
905.356	12310.93
905.67	12199.52
905.984	12182.58
906.297	12147.77
906.611	11998.4
906.924	12031.17
907.237	12065.97
907.551	11931.06
907.864	11845.18
908.177	11818.52
908.491	11741.23
908.804	11725.19
909.117	11715.69
909.43	11671.63
909.743	11617.62
910.056	11579.43
910.368	11492.2
910.681	11471.86
910.994	11395.03
911.307	11302.37
911.619	11164.52
911.932	11310.06
912.244	11185.77
912.557	11178.08
912.869	11075.71
913.181	11029.84
913.494	10955.26
913.806	10945.32
914.118	10902.83
914.43	10783.97
914.742	10835.27
915.054	10776.51
915.366	10774.02
915.678	10684.31
915.99	10618.77
916.302	10610.41
916.613	10522.73
916.925	10523.41
917.236	10444.99
917.548	10358.89
917.859	10447.71
918.171	10380.36
918.482	10306.69
918.794	10228.5
919.105	10144.89
919.416	10058.11
919.727	10105.34
920.038	10054.95
920.349	9986.7
920.66	9906.93
920.971	9948.74
921.282	9933.37
921.593	9863.54
921.903	9850.43
922.214	9791.9
922.525	9799.13
922.835	9704.22
923.146	9633.26
923.456	9631.68
923.767	9590.78
924.077	9584.45
924.387	9504.68
924.697	9483.89
925.008	9390.11
925.318	9280.05
925.628	9348.07
925.938	9303.78
926.248	9160.96
926.558	9239.38
926.867	9103.11
927.177	9144.24
927.487	9120.73
927.796	8976.11
928.106	9017.69
928.416	8895.2
928.725	8935.65
929.034	8874.41
929.344	8897.69
929.653	8831.7
929.962	8787.18
930.271	8735.89
930.581	8621.31
930.89	8668.32
931.199	8586.51
931.508	8567.75
931.817	8600.52
932.125	8605.95
932.434	8537.02
932.743	8395.78
933.051	8358.95
933.36	8374.31
933.669	8383.13
933.977	8289.12
934.286	8260.87
934.594	8251.15
934.902	8149.91
935.21	8193.75
935.519	8147.43
935.827	8121.44
936.135	8078.73
936.443	7963.7
936.751	7922.12
937.059	7890.94
937.367	7816.59
937.674	7843.93
937.982	7839.19
938.29	7794.89
938.597	7772.52
938.905	7658.63
939.213	7652.75
939.52	7618.4
939.827	7590.15
940.135	7566.43
940.442	7589.48
940.749	7548.57
941.056	7519.42
941.363	7439.42
941.67	7424.06
941.977	7366.43
942.284	7318.97
942.591	7269.48
942.898	7273.33
943.205	7253.44
943.511	7231.52
943.818	7262.93
944.125	7193.78
944.431	7132.09
944.738	7124.18
945.044	7045.76
945.35	7057.96
945.657	6986.78
945.963	6956.5
946.269	6950.4
946.575	6921.24
946.881	6863.62
947.187	6825.65
947.493	6864.52
947.799	6791.76
948.105	6805.77
948.41	6716.5
948.716	6710.63
949.022	6639.67
949.327	6675.15
949.633	6610.52
949.938	6577.98
950.244	6571.2
950.549	6502.95
950.854	6469.05
951.16	6457.75
951.465	6406.23
951.77	6427.25
952.075	6394.03
952.38	6360.13
952.685	6313.35
952.99	6319.45
953.294	6314.03
953.599	6193.13
953.904	6182.96
954.209	6190.42
954.513	6203.3
954.818	6141.83
955.122	6154.71
955.426	6062.51
955.731	6066.13
956.035	6010.53
956.339	6014.6
956.643	6016.41
956.948	5926.69
957.252	5919.01
957.556	5882.85
957.86	5819.58
958.163	5862.52
958.467	5785.91
958.771	5822.74
959.075	5788.39
959.378	5727.38
959.682	5679.92
959.985	5702.52
960.289	5617.55
960.592	5636.53
960.896	5591.11
961.199	5533.71
961.502	5534.84
961.805	5505.46
962.108	5459.14
962.411	5495.29
962.714	5490.55
963.017	5449.42
963.32	5445.8
963.623	5407.61
963.926	5395.86
964.228	5310.44
964.531	5300.27
964.833	5304.79
965.136	5273.38
965.438	5201.29
965.741	5226.15
966.043	5213.27
966.345	5134.4
966.648	5138.01
966.95	5140.73
967.252	5095.98
967.554	5092.14
967.856	5035.19
968.158	4991.13
968.46	5014.85
968.761	5010.56
969.063	4995.42
969.365	4912.48
969.666	4889.66
969.968	4906.38
970.269	4887.4
970.571	4879.26
970.872	4886.04
971.174	4824.58
971.475	4761.75
971.776	4774.18
972.077	4757.01
972.378	4696.9
972.679	4731.7
972.98	4686.95
973.281	4697.35
973.582	4662.32
973.883	4650.8
974.183	4580.52
974.484	4592.72
974.785	4564.47
975.085	4566.28
975.386	4563.34
975.686	4504.13
975.986	4509.1
976.287	4500.52
976.587	4432.5
976.887	4411.93
977.187	4419.84
977.487	4385.04
977.787	4399.5
978.087	4381.88
978.387	4311.14
978.687	4300.3
978.987	4287.19
979.286	4281.99
979.586	4222.33
979.885	4245.83
980.185	4222.56
980.484	4183.01
980.784	4160.64
981.083	4155.89
981.382	4128.78
981.682	4070.7
981.981	4099.4
982.28	4065.73
982.579	4023.24
982.878	4067.31
983.177	3983.02
983.475	4023.47
983.774	3954.54
984.073	3959.74
984.372	3896.69
984.67	3888.33
984.969	3899.4
985.267	3895.79
985.566	3840.2
985.864	3858.27
986.162	3833.42
986.461	3786.41
986.759	3766.98
987.057	3755
987.355	3719.07
987.653	3747.99
987.951	3722.01
988.249	3703.48
988.547	3716.13
988.844	3700.54
989.142	3689.01
989.44	3670.48
989.737	3617.15
990.035	3629.58
990.332	3598.85
990.63	3600.2
990.927	3553.65
991.224	3506.65
991.521	3486.76
991.819	3495.12
992.116	3473.65
992.413	3469.36
992.71	3405.63
993.006	3438.17
993.303	3374.9
993.6	3381
993.897	3373.99
994.193	3383.94
994.49	3339.19
994.787	3348.46
995.083	3323.15
995.379	3316.82
995.676	3275.01
995.972	3276.37
996.268	3231.4
996.565	3237.73
996.861	3231.4
997.157	3216.94
997.453	3193.21
997.749	3161.57
998.044	3160.21
998.34	3160.89
998.636	3142.13
998.932	3084.06
999.227	3078.86
999.523	3073.21
999.818	3041.35
1000.114	2980.11
1000.409	3024.17
1000.704	2998.41
1001	3009.93
1001.295	2952.99
1001.59	2947.11
1001.885	2927.23
1002.18	2915.02
1002.475	2877.96
1002.77	2892.2
1003.065	2880.67
1003.359	2852.65
1003.654	2848.36
1003.949	2821.92
1004.243	2823.27
1004.538	2767.23
1004.832	2768.59
1005.127	2776.95
1005.421	2731.52
1005.715	2708.47
1006.009	2730.62
1006.304	2720.68
1006.598	2708.93
1006.892	2669.6
1007.186	2623.28
1007.48	2638.65
1007.773	2613.11
1008.067	2549.38
1008.361	2546.9
1008.655	2597.52
1008.948	2551.87
1009.242	2552.55
1009.535	2525.65
1009.829	2473.23
1010.122	2455.6
1010.415	2465.99
1010.708	2454.24
1011.001	2447.69
1011.295	2472.32
1011.588	2423.28
1011.881	2364.3
1012.173	2402.27
1012.466	2373.57
1012.759	2324.08
1013.052	2374.7
1013.344	2359.33
1013.637	2345.09
1013.93	2321.14
1014.222	2301.03
1014.514	2285.89
1014.807	2261.71
1015.099	2236.62
1015.391	2234.36
1015.683	2202.27
1015.976	2203.85
1016.268	2207.47
1016.56	2206.34
1016.851	2157.75
1017.143	2155.95
1017.435	2092.44
1017.727	2103.97
1018.018	2115.04
1018.31	2087.93
1018.602	2089.96
1018.893	2055.61
1019.185	2081.82
1019.476	2061.94
1019.767	2041.82
1020.058	2043.18
1020.35	2000.7
1020.641	1990.98
1020.932	1960.7
1021.223	1955.5
1021.514	1928.38
1021.804	1918.21
1022.095	1910.75
1022.386	1881.38
1022.677	1894.48
1022.967	1881.6
1023.258	1870.76
1023.548	1821.04
1023.839	1810.19
1024.129	1831.43
1024.419	1798.22
1024.709	1779.46
1025	1766.35
1025.29	1753.47
1025.58	1720.48
1025.87	1718.9
1026.16	1745.34
1026.449	1723.19
1026.739	1678.44
1027.029	1682.51
1027.319	1695.62
1027.608	1688.61
1027.898	1635.96
1028.187	1651.1
1028.477	1652.46
1028.766	1609.52
1029.055	1623.3
1029.344	1568.16
1029.634	1565.45
1029.923	1575.4
1030.212	1543.53
1030.501	1548.96
1030.79	1550.99
1031.078	1520.48
1031.367	1503.31
1031.656	1525
1031.945	1511.22
1032.233	1467.15
1032.522	1488.85
1032.81	1453.14
1033.099	1456.08
1033.387	1427.83
1033.675	1460.37
1033.963	1452.91
1034.251	1444.1
1034.54	1385.57
1034.828	1379.02
1035.116	1412.69
1035.403	1401.39
1035.691	1365.68
1035.979	1392.8
1036.267	1350.54
1036.554	1354.84
1036.842	1321.84
1037.129	1300.83
1037.417	1321.17
1037.704	1302.18
1037.992	1317.78
1038.279	1248.63
1038.566	1283.65
1038.853	1283.65
1039.14	1283.65
