Data from orange_diffuse_book_FLMS001491_00024.txt Node
Date: Wed Feb 08 15:29:20 GMT 2017
User: dcchb
Spectrometer: FLMS00149
Trigger mode: 0
Integration Time (sec): 2.000000E-2
Scans to average: 10
Electric dark correction enabled: true
Nonlinearity correction enabled: false
Boxcar width: 0
XAxis mode: Wavelengths
Number of Pixels in Spectrum: 2048
>>>>>Begin Spectral Data<<<<<
341.393	-28.59
341.776	-28.59
342.16	-28.59
342.543	-61.58
342.927	-64.29
343.31	-65.2
343.693	-56.83
344.077	-67.91
344.46	-50.73
344.843	-62.71
345.226	-33.11
345.61	-53.9
345.993	-28.36
346.376	-13.9
346.759	8.7
347.142	12.54
347.525	38.76
347.908	60
348.291	91.41
348.674	95.7
349.057	125.53
349.44	133.44
349.823	135.48
350.206	141.58
350.588	198.07
350.971	231.75
351.354	220.67
351.737	259.09
352.119	277.62
352.502	255.7
352.884	284.17
353.267	276.04
353.65	303.16
354.032	302.25
354.414	314.46
354.797	312.42
355.179	330.05
355.562	333.66
355.944	347.67
356.326	327.34
356.709	354
357.091	355.58
357.473	352.42
357.855	340.22
358.238	359.2
358.62	355.81
359.002	346.54
359.384	350.16
359.766	344.28
360.148	366.88
360.53	354
360.912	337.73
361.294	342.25
361.676	343.15
362.057	341.12
362.439	342.93
362.821	368.24
363.203	339.54
363.584	331.4
363.966	353.55
364.348	331.18
364.729	342.48
365.111	323.04
365.493	342.25
365.874	351.74
366.256	343.61
366.637	327.11
367.019	329.6
367.4	313.55
367.781	333.89
368.163	324.17
368.544	329.37
368.925	313.78
369.306	348.13
369.688	317.39
370.069	328.92
370.45	312.42
370.831	307.45
371.212	331.86
371.593	322.82
371.974	331.86
372.355	326.88
372.736	323.27
373.117	330.05
373.498	323.27
373.879	327.79
374.26	307.9
374.641	311.97
375.021	319.65
375.402	320.78
375.783	337.73
376.163	347.9
376.544	353.78
376.925	337.05
377.305	328.69
377.686	349.71
378.066	334.12
378.447	324.62
378.827	339.31
379.208	334.79
379.588	336.83
379.968	358.3
380.349	368.69
380.729	345.64
381.109	337.96
381.489	347.45
381.87	358.75
382.25	352.87
382.63	354.68
383.01	371.85
383.39	354.68
383.77	369.82
384.15	354.68
384.53	352.65
384.91	354.23
385.29	366.21
385.67	350.84
386.049	367.33
386.429	377.96
386.809	393.55
387.189	368.24
387.568	376.6
387.948	381.8
388.328	362.36
388.707	385.87
389.087	352.19
389.466	370.5
389.846	384.51
390.225	366.88
390.605	379.54
390.984	380.44
391.363	389.93
391.743	375.02
392.122	392.42
392.501	394
392.881	404.62
393.26	393.77
393.639	387
394.018	372.31
394.397	411.18
394.776	388.58
395.155	378.86
395.534	379.54
395.913	383.15
396.292	396.71
396.671	408.01
397.05	403.27
397.429	392.42
397.808	421.57
398.186	384.51
398.565	427.22
398.944	405.75
399.323	381.8
399.701	407.11
400.08	388.58
400.458	442.14
400.837	413.44
401.215	402.81
401.594	413.44
401.972	420.44
402.351	433.1
402.729	415.92
403.107	424.51
403.486	432.64
403.864	451.85
404.242	424.73
404.62	432.64
404.999	437.84
405.377	458.41
405.755	440.33
406.133	448.69
406.511	441.68
406.889	439.65
407.267	450.5
407.645	443.27
408.023	450.27
408.401	459.99
408.779	440.33
409.156	457.28
409.534	470.61
409.912	493.21
410.29	474.22
410.667	469.48
411.045	464.28
411.422	503.38
411.8	496.6
412.178	484.62
412.555	510.83
412.933	495.24
413.31	501.12
413.687	523.04
414.065	502.47
414.442	519.65
414.819	511.06
415.197	495.02
415.574	519.65
415.951	557.39
416.328	530.72
416.705	533.66
417.082	544.28
417.46	540.66
417.837	528.01
418.214	544.96
418.591	546.09
418.967	525.3
419.344	555.8
419.721	561.91
420.098	553.54
420.475	569.36
420.852	561.45
421.228	558.52
421.605	585.41
421.982	576.14
422.358	586.99
422.735	585.63
423.111	579.98
423.488	592.64
423.864	614.56
424.241	601.23
424.617	602.81
424.994	629.02
425.37	611.85
425.746	602.81
426.123	633.77
426.499	622.47
426.875	620.44
427.251	641.23
427.627	624.5
428.003	652.07
428.379	663.6
428.756	668.8
429.132	657.5
429.507	650.27
429.883	659.98
430.259	668.12
430.635	692.3
431.011	673.54
431.387	681.23
431.763	724.61
432.138	695.46
432.514	706.31
432.89	688
433.265	713.54
433.641	704.73
434.016	720.32
434.392	736.36
434.767	752.64
435.143	749.25
435.518	760.77
435.894	751.28
436.269	775.91
436.644	771.62
437.02	776.36
437.395	769.13
437.77	768.91
438.145	815.01
438.52	788.34
438.895	805.29
439.271	812.52
439.646	820.2
440.021	819.07
440.395	826.76
440.77	821.33
441.145	845.51
441.52	829.24
441.895	858.85
442.27	833.99
442.645	843.48
443.019	862.69
443.394	859.98
443.769	862.69
444.143	851.39
444.518	839.64
444.892	868.11
445.267	854.78
445.641	895.23
446.016	886.64
446.39	880.09
446.764	889.13
447.139	904.04
447.513	915.34
447.887	909.02
448.262	860.2
448.636	899.07
449.01	902.24
449.384	916.25
449.758	924.83
450.132	935.91
450.506	932.97
450.88	948.79
451.254	956.92
451.628	954.66
452.002	933.42
452.376	993.76
452.75	975.23
453.123	986.98
453.497	975
453.871	971.16
454.244	1001.89
454.618	1013.65
454.992	1003.48
455.365	991.27
455.739	1019.52
456.112	1040.31
456.486	1026.3
456.859	1058.39
457.232	1058.39
457.606	1043.02
457.979	1057.49
458.352	1076.69
458.725	1091.84
459.099	1111.72
459.472	1100.2
459.845	1099.07
460.218	1124.83
460.591	1120.08
460.964	1129.12
461.337	1151.72
461.71	1162.12
462.083	1187.2
462.456	1177.26
462.829	1200.53
463.201	1168.9
463.574	1197.82
463.947	1217.03
464.32	1241.21
464.692	1226.75
465.065	1231.49
465.438	1251.83
465.81	1271.72
466.183	1301.55
466.555	1280.98
466.928	1295.22
467.3	1295.67
467.672	1321.43
468.045	1322.34
468.417	1326.86
468.789	1326.41
469.161	1342
469.534	1342
469.906	1370.7
470.278	1396.69
470.65	1397.14
471.022	1426.29
471.394	1467.65
471.766	1476.23
472.138	1483.46
472.51	1495.44
472.882	1525.72
473.253	1532.05
473.625	1521.88
473.997	1549.9
474.369	1559.62
474.74	1593.29
475.112	1612.95
475.484	1644.14
475.855	1639.39
476.227	1662.67
476.598	1687.07
476.97	1702.44
477.341	1726.62
477.713	1733.4
478.084	1742.21
478.455	1795.55
478.827	1798.26
479.198	1862.89
479.569	1857.47
479.94	1873.28
480.311	1912.83
480.682	1896.56
481.053	1993.28
481.424	2023.56
481.795	2045.26
482.166	2025.37
482.537	2073.5
482.908	2112.83
483.279	2144.24
483.65	2190.11
484.021	2223.56
484.391	2239.83
484.762	2258.81
485.133	2280.73
485.503	2356.66
485.874	2362.99
486.244	2392.59
486.615	2447.96
486.985	2481.86
487.356	2502.87
487.726	2546.71
488.097	2576.09
488.467	2575.86
488.837	2613.38
489.207	2651.79
489.578	2716.65
489.948	2746.93
490.318	2761.4
490.688	2793.71
491.058	2855.18
491.428	2837.78
491.798	2888.85
492.168	2962.07
492.538	2990.77
492.908	3008.62
493.278	3056.76
493.648	3084.33
494.017	3098.79
494.387	3174.27
494.757	3173.59
495.126	3277.99
495.496	3277.09
495.866	3324.77
496.235	3317.54
496.605	3356.41
496.974	3381.72
497.344	3447.25
497.713	3455.84
498.082	3477.08
498.452	3548.49
498.821	3584.2
499.19	3543.07
499.559	3623.75
499.928	3652.45
500.298	3699.9
500.667	3720.69
501.036	3752.56
501.405	3794.36
501.774	3793.23
502.143	3836.85
502.512	3831.2
502.88	3898.77
503.249	3878.88
503.618	3936.28
503.987	4024.41
504.356	4000.01
504.724	4025.77
505.093	4066.22
505.462	4083.85
505.83	4089.27
506.199	4115.49
506.567	4221.7
506.936	4211.75
507.304	4262.37
507.672	4244.07
508.041	4308.47
508.409	4294.46
508.777	4365.2
509.145	4413.56
509.514	4441.35
509.882	4421.69
510.25	4438.41
510.618	4488.58
510.986	4551.41
511.354	4567.9
511.722	4628.24
512.09	4609.94
512.458	4629.37
512.826	4696.26
513.193	4681.57
513.561	4734.9
513.929	4746.2
514.297	4812.87
514.664	4863.49
515.032	4860.32
515.4	4899.19
515.767	4929.7
516.135	4983.26
516.502	4986.87
516.869	5001.79
517.237	5064.39
517.604	5082.24
517.972	5152.29
518.339	5147.77
518.706	5194.55
519.073	5234.1
519.44	5259.18
519.808	5339.41
520.175	5302.57
520.542	5379.63
520.909	5423.7
521.276	5365.85
521.643	5490.59
522.009	5497.37
522.376	5617.14
522.743	5633.86
523.11	5626.63
523.477	5679.74
523.843	5753.18
524.21	5730.81
524.577	5769.23
524.943	5859.39
525.31	5898.26
525.676	5962.67
526.043	5958.6
526.409	5988.2
526.776	5990.92
527.142	6038.15
527.508	6101.2
527.874	6161.31
528.241	6178.03
528.607	6169.89
528.973	6257.12
529.339	6252.38
529.705	6355.2
530.071	6372.15
530.437	6392.94
530.803	6456.21
531.169	6469.32
531.535	6405.82
531.901	6497.34
532.267	6501.18
532.632	6539.83
532.998	6589.54
533.364	6607.4
533.73	6580.5
534.095	6654.4
534.461	6715.19
534.826	6758.35
535.192	6792.93
535.557	6781.63
535.923	6796.09
536.288	6800.39
536.653	6916.32
537.019	6869.76
537.384	6917.9
537.749	6923.55
538.114	6986.6
538.479	7016.65
538.845	7038.57
539.21	6963.77
539.575	7045.8
539.94	7063.2
540.305	7139.81
540.67	7108.17
541.034	7189.75
541.399	7292.8
541.764	7251.22
542.129	7260.49
542.494	7345
542.858	7364.89
543.223	7332.8
543.587	7388.62
543.952	7404.66
544.316	7470.2
544.681	7472.23
545.045	7529.63
545.41	7635.84
545.774	7594.72
546.138	7646.92
546.503	7653.7
546.867	7737.76
547.231	7766.69
547.595	7735.05
547.959	7825.9
548.324	7829.51
548.688	7888.49
549.052	7908.38
549.416	7969.17
549.779	8002.61
550.143	8010.75
550.507	8100.24
550.871	8124.65
551.235	8143.85
551.599	8241.7
551.962	8210.74
552.326	8326.9
552.689	8305.21
553.053	8351.98
553.417	8358.31
553.78	8547.91
554.143	8500.23
554.507	8632.2
554.87	8582.03
555.234	8648.7
555.597	8643.28
555.96	8744.52
556.323	8793.33
556.686	8888.01
557.05	8940.89
557.413	8995.81
557.776	9048.91
558.139	9111.29
558.502	9145.41
558.865	9189.7
559.228	9255.91
559.59	9391.73
559.953	9326.42
560.316	9545.85
560.679	9600.31
561.041	9611.16
561.404	9705.17
561.767	9784.94
562.129	9847.31
562.492	10030.81
562.854	10086.63
563.217	10103.8
563.579	10203.69
563.941	10286.85
564.304	10349.9
564.666	10492.04
565.028	10578.82
565.39	10598.03
565.753	10736.78
566.115	10853.39
566.477	10937.9
566.839	11017.22
567.201	11182.87
567.563	11277.78
567.925	11404.11
568.287	11537.44
568.648	11620.15
569.01	11720.26
569.372	11896.75
569.734	11949.18
570.095	12193.24
570.457	12336.96
570.819	12439.56
571.18	12529.95
571.542	12771.3
571.903	12900.79
572.265	13119.32
572.626	13262.36
572.987	13363.15
573.349	13520.44
573.71	13722.69
574.071	13962.68
574.432	14160.87
574.794	14343.69
575.155	14549.11
575.516	14706.84
575.877	14946.39
576.238	15178.02
576.599	15444.68
576.96	15677.89
577.32	15931.22
577.681	16112.46
578.042	16406.01
578.403	16658.88
578.763	16897.07
579.124	17118.98
579.485	17528.47
579.845	17789.93
580.206	18117.38
580.566	18430.36
580.927	18702.67
581.287	19130.01
581.648	19290
582.008	19718.01
582.368	20003.88
582.728	20427.82
583.089	20652.68
583.449	20943.52
583.809	21375.82
584.169	21765.42
584.529	22035.69
584.889	22552.29
585.249	22907.53
585.609	23226.62
585.969	23815.31
586.329	24051.23
586.688	24530.77
587.048	24866.8
587.408	25356.51
587.768	25674.47
588.127	26172.76
588.487	26536.36
588.846	27174.09
589.206	27370.24
589.565	27982.43
589.925	28511.45
590.284	28923.19
590.643	29358.44
591.003	29798.43
591.362	30319.99
591.721	30731.51
592.08	31303.92
592.44	31776
592.799	32302.31
593.158	32708.63
593.517	33174.61
593.876	33714.93
594.235	34116.28
594.593	34586.77
594.952	35108.79
595.311	35489.12
595.67	36053.85
596.029	36662.2
596.387	37129.53
596.746	37552.35
597.104	37765
597.463	38340.35
597.822	38910.95
598.18	39368.34
598.538	39757.26
598.897	40261.65
599.255	40435.21
599.613	41347.95
599.972	41510.21
600.33	42008.95
600.688	42241.71
601.046	42848.93
601.404	43292.53
601.762	43709.7
602.12	44240.76
602.478	44502.45
602.836	45034.64
603.194	45101.3
603.552	45538.12
603.91	45683.21
604.268	46321.61
604.625	46528.61
604.983	47004.3
605.341	47206.33
605.698	47647.45
606.056	47979.87
606.413	48121.56
606.771	48543.02
607.128	48807.87
607.485	48878.38
607.843	49120.18
608.2	49439.49
608.557	49857.79
608.914	49900.04
609.272	50248.51
609.629	50473.14
609.986	50765.78
610.343	50701.38
610.7	51065.89
611.057	51329.61
611.414	51406.67
611.771	51592.2
612.127	51814.57
612.484	51971.63
612.841	52194.22
613.198	52262.24
613.554	52325.97
613.911	52578.17
614.267	52695
614.624	52793.75
614.98	52930.02
615.337	53133.63
615.693	53305.6
616.05	53285.94
616.406	53584.01
616.762	53569.78
617.118	53551.93
617.475	53654.75
617.831	53759.15
618.187	53900.39
618.543	54039.82
618.899	54156.88
619.255	54253.6
619.611	54242.75
619.967	54410.66
620.323	54549.41
620.678	54409.76
621.034	54339.48
621.39	54487.49
621.746	54542.41
622.101	54812.23
622.457	54700.37
622.812	54749.86
623.168	54853.36
623.523	54874.6
623.879	55007.93
624.234	54907.6
624.589	55004.32
624.945	55041.83
625.3	55095.61
625.655	55069.17
626.01	55183.52
626.365	55237.76
626.72	55210.19
627.075	55203.63
627.43	55246.8
627.785	55195.95
628.14	55327.92
628.495	55346.45
628.85	55341.03
629.205	55273.91
629.559	55506.45
629.914	55288.38
630.269	55456.96
630.623	55384.65
630.978	55365.21
631.332	55439.56
631.687	55513.91
632.041	55371.99
632.396	55477.3
632.75	55362.05
633.104	55419.9
633.459	55291.77
633.813	55334.25
634.167	55352.33
634.521	55345.32
634.875	55451.31
635.229	55382.39
635.583	55230.3
635.937	55297.42
636.291	55242.5
636.645	55280.24
636.999	55266.91
637.352	55369.73
637.706	55206.35
638.06	55322.27
638.413	55236.17
638.767	55182.16
639.121	55197.76
639.474	55022.17
639.828	55153.69
640.181	55214.03
640.534	55130.64
640.888	55107.59
641.241	55021.94
641.594	55069.85
641.947	55111.43
642.301	55057.2
642.654	55085.44
643.007	55080.25
643.36	55064.88
643.713	54962.74
644.066	55104.65
644.419	54948.72
644.771	54765.23
645.124	54459.7
645.477	54477.78
645.83	54347.16
646.182	54183.1
646.535	54098.58
646.888	54328.63
647.24	54118.01
647.593	54290.89
647.945	54200.95
648.298	54160.27
648.65	54029.65
649.002	53941.07
649.355	54082.76
649.707	54021.29
650.059	54124.57
650.411	54479.58
650.763	54499.7
651.115	54836.86
651.467	54653.59
651.819	54711.22
652.171	54641.16
652.523	54623.08
652.875	54636.19
653.227	54561.16
653.578	54729.3
653.93	54664.66
654.282	54606.81
654.633	54534.05
654.985	54550.32
655.337	54597.1
655.688	54548.74
656.039	54705.12
656.391	54489.75
656.742	54475.29
657.094	54540.15
657.445	54583.99
657.796	54509.19
658.147	54459.02
658.498	54508.51
658.849	54549.87
659.2	54527.27
659.551	54393.49
659.902	54607.72
660.253	54456.99
660.604	54561.16
660.955	54391.68
661.306	54505.12
661.656	54367.72
662.007	54405.69
662.358	54506.93
662.708	54507.83
663.059	54506.25
663.409	54243.66
663.76	54405.46
664.11	54423.09
664.461	54436.2
664.811	54449.53
665.161	54441.17
665.511	54326.14
665.862	54414.5
666.212	54398
666.562	54449.98
666.912	54357.33
667.262	54422.18
667.612	54343.32
667.962	54361.62
668.312	54222.64
668.662	54477.1
669.011	54364.33
669.361	54352.81
669.711	54293.15
670.06	54333.83
670.41	54139.03
670.76	54119.82
671.109	54308.29
671.459	54131.12
671.808	54096.54
672.157	54156.66
672.507	53975.64
672.856	54031.01
673.205	54046.15
673.554	54141.06
673.904	53911.46
674.253	54057.67
674.602	54045.7
674.951	53557.12
675.3	53450.68
675.649	53953.04
675.998	53922.31
676.346	53968.19
676.695	54032.36
677.044	53712.37
677.393	53756.21
677.741	53837.34
678.09	53764.8
678.438	53736.1
678.787	53749.66
679.135	53854.97
679.484	53648.87
679.832	53712.6
680.181	53521.64
680.529	53616.1
680.877	53564.81
681.225	53493.62
681.573	53591.02
681.922	53451.81
682.27	53319.16
682.618	53276.68
682.966	53334.08
683.314	53262.67
683.661	53254.08
684.009	53059.28
684.357	53052.28
684.705	53045.05
685.053	53096.8
685.4	52959.62
685.748	52791.27
686.095	52836.69
686.443	52758.73
686.79	52755.79
687.138	52809.35
687.485	52708.56
687.832	52573.65
688.18	52538.84
688.527	52479.86
688.874	52413.88
689.221	52291.17
689.568	52273.31
689.915	52179.76
690.262	52122.58
690.609	52110.83
690.956	51977.28
691.303	51980.44
691.65	51822.25
691.997	51859.54
692.344	51598.3
692.69	51655.93
693.037	51547.01
693.383	51294.58
693.73	51454.13
694.077	51207.35
694.423	51264.3
694.769	51109.28
695.116	51006.91
695.462	51032.67
695.808	50943.86
696.155	50819.34
696.501	50684.88
696.847	50618.22
697.193	50342.07
697.539	50559.46
697.885	50244.89
698.231	50174.16
698.577	50178.91
698.923	50148.4
699.269	49896.2
699.614	49827.96
699.96	49703.66
700.306	49712.03
700.651	49526.04
700.997	49437.23
701.342	49328.53
701.688	49335.76
702.033	49295.31
702.379	49122.21
702.724	49032.95
703.069	49022.55
703.415	48806.29
703.76	48737.59
704.105	48678.61
704.45	48610.81
704.795	48362.46
705.14	48298.05
705.485	48180.77
705.83	48016.48
706.175	48056.48
706.52	47961.79
706.865	47828.69
707.209	47871.85
707.554	47627.56
707.899	47734.45
708.243	47408.81
708.588	47416.72
708.932	47150.96
709.277	47132.21
709.621	47148.93
709.966	46870.29
710.31	47011.53
710.654	46686.34
710.998	46746.23
711.342	46772.22
711.687	46612.45
712.031	46428.72
712.375	46267.6
712.719	46338.1
713.063	46367.71
713.407	46389.4
713.75	46088.84
714.094	46084.78
714.438	45973.14
714.782	45925.69
715.125	45883.65
715.469	45964.55
715.812	45682.08
716.156	45597.11
716.499	45492.02
716.843	45586.03
717.186	45270.34
717.53	45417.9
717.873	45444.57
718.216	45400.05
718.559	45094.52
718.902	44868.99
719.246	45104.01
719.589	44935.88
719.932	44809.78
720.275	44833.06
720.617	44711.48
720.96	44461.32
721.303	44564.36
721.646	44596.23
721.989	44266.29
722.331	44444.82
722.674	44340.42
723.016	44372.05
723.359	44343.13
723.701	44313.75
724.044	44003.48
724.386	43872.41
724.729	44055.23
725.071	43947.66
725.413	43958.05
725.755	43960.77
726.097	43708.79
726.439	43439.87
726.782	43646.2
727.124	43764.16
727.465	43573.43
727.807	43542.92
728.149	43387.9
728.491	43422.02
728.833	43410.5
729.175	43321.69
729.516	43219.77
729.858	43250.5
730.199	43242.14
730.541	43128.7
730.882	42938.42
731.224	43243.04
731.565	42905.65
731.906	42946.33
732.248	43035.14
732.589	42873.11
732.93	42758.31
733.271	42782.04
733.612	42780.91
733.953	42763.28
734.294	42590.41
734.635	42466.34
734.976	42536.85
735.317	42498.88
735.658	42464.08
735.999	42323.75
736.339	42420.47
736.68	42495.72
737.021	42372.33
737.361	42172.34
737.702	42387.02
738.042	42183.86
738.383	42116.97
738.723	42098.67
739.063	42074.03
739.404	42068.16
739.744	42055.28
740.084	41848.28
740.424	41871.33
740.764	41758.79
741.104	41858.22
741.444	41693.71
741.784	41581.62
742.124	41755.63
742.464	41614.16
742.804	41492.36
743.143	41453.71
743.483	41527.61
743.823	41246.94
744.162	41202.87
744.502	41458.01
744.841	41180.73
745.181	41313.83
745.52	41117.9
745.86	41268.63
746.199	41061.41
746.538	41047.85
746.877	41049.66
747.216	41037
747.556	40937.79
747.895	40957.68
748.234	40714.75
748.573	40710.23
748.911	40753.17
749.25	40582.32
749.589	40548.43
749.928	40601.76
750.267	40662.09
750.605	40427.3
750.944	40453.29
751.283	40238.83
751.621	40391.59
751.96	40182.79
752.298	40119.74
752.636	40101.66
752.975	39956.58
753.313	39936.69
753.651	39980.98
753.989	39761.1
754.327	39778.5
754.666	39534.21
755.004	39745.06
755.342	39615.79
755.679	39522.46
756.017	39334.67
756.355	39490.15
756.693	39233.21
757.031	39257.16
757.368	38991.4
757.706	39136.71
758.044	38934.91
758.381	39019.65
758.719	38762.48
759.056	38718.42
759.394	38692.88
759.731	38316.85
760.068	38424.87
760.405	38241.82
760.743	38156.62
761.08	38216.28
761.417	37920.02
761.754	38049.06
762.091	37936.74
762.428	37742.85
762.765	37532.91
763.102	37730.87
763.438	37428.96
763.775	37416.76
764.112	37321.39
764.449	37213.15
764.785	37068.52
765.122	36822.2
765.458	36918.24
765.795	36727.28
766.131	36766.83
766.467	36565.25
766.804	36374.52
767.14	36257.92
767.476	36293.85
767.812	36162.1
768.148	36100.41
768.485	35942.22
768.821	35716.91
769.157	35750.36
769.492	35487.54
769.828	35453.42
770.164	35104.05
770.5	35100.66
770.836	35134.56
771.171	34938.18
771.507	34821.12
771.842	34710.16
772.178	34669.03
772.513	34547.91
772.849	34380.23
773.184	34297.29
773.519	34253.68
773.855	34083.96
774.19	33880.8
774.525	33892.78
774.86	33789.96
775.195	33697.53
775.53	33484.43
775.865	33371.21
776.2	33095.97
776.535	33073.59
776.87	33001.96
777.205	32929.64
777.539	32765.58
777.874	32738.91
778.209	32408.3
778.543	32449.66
778.878	32231.58
779.212	32285.14
779.547	32077.46
779.881	32040.4
780.215	31850.8
780.55	31896.22
780.884	31708.88
781.218	31707.75
781.552	31619.17
781.886	31367.88
782.22	31192.06
782.554	31171.27
782.888	30859.41
783.222	30799.76
783.556	30664.39
783.889	30555.92
784.223	30428.01
784.557	30389.14
784.89	30393.44
785.224	30187.57
785.557	30146.66
785.891	30160.45
786.224	30034.58
786.558	29874.13
786.891	29610.63
787.224	29478.89
787.557	29554.82
787.891	29408.83
788.224	29495.38
788.557	29333.58
788.89	29237.54
789.223	29147.37
789.556	28768.85
789.888	28943.31
790.221	28760.71
790.554	28606.59
790.887	28614.5
791.219	28479.82
791.552	28351.46
791.884	28283.89
792.217	28265.13
792.549	28086.38
792.882	27742.21
793.214	27799.16
793.546	27949.21
793.879	27585.6
794.211	27530.24
794.543	27578.14
794.875	27443.01
795.207	27558.26
795.539	27343.57
795.871	27240.98
796.203	27037.82
796.535	26932.51
796.867	26892.97
797.198	26868.33
797.53	26826.07
797.862	26650.03
798.193	26571.17
798.525	26555.35
798.856	26436.93
799.188	26156.26
799.519	26104.06
799.85	26034.68
800.182	26144.06
800.513	25892.54
800.844	25783.39
801.175	25862.03
801.506	25858.64
801.837	25740.23
802.168	25592.21
802.499	25471.31
802.83	25371.88
803.161	25363.74
803.491	25373.46
803.822	25358.99
804.153	25162.62
804.483	25003.98
804.814	24892.11
805.145	24916.52
805.475	24898.44
805.805	24774.83
806.136	24765.56
806.466	24672.23
806.796	24791.78
807.126	24503.65
807.457	24409.64
807.787	24425.01
808.117	24282.64
808.447	24245.13
808.777	24229.76
809.107	24172.13
809.436	24053.04
809.766	24044.9
810.096	23865.02
810.426	23910.9
810.755	23935.75
811.085	23779.37
811.414	23759.26
811.744	23650.56
812.073	23507.52
812.403	23605.82
812.732	23469.78
813.061	23460.74
813.39	23208.32
813.719	23194.98
814.049	23314.75
814.378	23288.09
814.707	23126.51
815.036	22989.34
815.365	22925.84
815.693	22829.12
816.022	22764.03
816.351	22749.35
816.68	22639.74
817.008	22720.65
817.337	22401.33
817.665	22509.35
817.994	22471.84
818.322	22427.09
818.651	22370.15
818.979	22179.64
819.307	22387.77
819.636	22204.73
819.964	22130.83
820.292	22097.61
820.62	22080.89
820.948	22001.12
821.276	22073.43
821.604	21913.66
821.932	22110.27
822.259	22137.61
822.587	22021.23
822.915	21921.12
823.243	22120.66
823.57	21927.67
823.898	22040.89
824.225	21938.29
824.553	21983.04
824.88	21856.71
825.207	21985.98
825.535	21951.85
825.862	22045.86
826.189	21944.39
826.516	22014.68
826.843	22009.25
827.17	22056.26
827.497	21998.86
827.824	21909.82
828.151	21983.04
828.478	21958.41
828.805	21984.39
829.131	21923.15
829.458	21859.2
829.785	21718.19
830.111	21850.39
830.438	21871.63
830.764	21757.06
831.09	22055.8
831.417	21761.8
831.743	21881.57
832.069	21876.15
832.395	21686.32
832.722	21791.4
833.048	21797.96
833.374	21727.68
833.7	21743.04
834.026	21707.34
834.351	21737.85
834.677	21696.04
835.003	21685.19
835.329	21678.41
835.654	21569.72
835.98	21549.15
836.306	21568.81
836.631	21523.61
836.956	21580.34
837.282	21436.61
837.607	21361.81
837.932	21346.22
838.258	21418.76
838.583	21357.07
838.908	21381.25
839.233	21255.6
839.558	21148.71
839.883	21084.3
840.208	21075.04
840.533	21021.48
840.858	21077.75
841.182	21036.85
841.507	21039.11
841.832	20821.49
842.156	20826.91
842.481	20865.1
842.805	20704.2
843.13	20682.73
843.454	20674.82
843.778	20647.93
844.103	20605.9
844.427	20518.44
844.751	20643.86
845.075	20395.73
845.399	20432.12
845.723	20274.83
846.047	20359.8
846.371	20101.51
846.695	20186.02
847.019	20008.4
847.343	19952.13
847.666	19821.51
847.99	19665.13
848.313	19771.8
848.637	19738.58
848.96	19613.38
849.284	19614.96
849.607	19419.49
849.931	19336.55
850.254	19284.35
850.577	19212.49
850.9	19092.94
851.223	19038.48
851.546	19023.57
851.869	18816.12
852.192	18914.64
852.515	18748.77
852.838	18659.06
853.161	18586.74
853.483	18513.07
853.806	18452.96
854.129	18336.35
854.451	18371.61
854.774	18191.27
855.096	18094.55
855.419	18074.44
855.741	18086.42
856.063	18013.65
856.385	17851.62
856.708	17885.52
857.03	17832.41
857.352	17743.83
857.674	17658.18
857.996	17663.15
858.318	17549.71
858.64	17656.37
858.961	17521.46
859.283	17495.92
859.605	17391.97
859.926	17368.7
860.248	17387.23
860.57	17237.17
860.891	17317.85
861.212	17191.75
861.534	17196.27
861.855	17144.29
862.176	17154.24
862.498	17146.33
862.819	17031.76
863.14	17028.14
863.461	16942.72
863.782	16874.25
864.103	16940.46
864.424	16876.96
864.745	16927.35
865.065	16832.66
865.386	16732.33
865.707	16657.08
866.027	16727.81
866.348	16721.26
866.668	16663.4
866.989	16593.8
867.309	16592.22
867.63	16585.44
867.95	16616.17
868.27	16494.14
868.59	16496.85
868.91	16392.22
869.23	16269.29
869.55	16343.19
869.87	16410.75
870.19	16311.32
870.51	16321.94
870.83	16380.7
871.15	16240.82
871.469	16198.11
871.789	16281.27
872.109	16201.72
872.428	16074.94
872.748	16118.79
873.067	16097.99
873.386	16126.24
873.706	16158.56
874.025	15962.18
874.344	15959.47
874.663	15952.69
874.982	15925.57
875.301	15942.52
875.62	15839.92
875.939	15829.75
876.258	15825.69
876.577	15806.03
876.896	15788.4
877.214	15725.12
877.533	15700.72
877.852	15754.28
878.17	15674.05
878.489	15684.9
878.807	15619.82
879.125	15567.16
879.444	15596.99
879.762	15507.95
880.08	15508.86
880.398	15417.56
880.716	15458.46
881.034	15408.52
881.352	15361.74
881.67	15367.39
881.988	15393.38
882.306	15304.57
882.624	15205.14
882.941	15169.66
883.259	15154.52
883.577	15125.37
883.894	15075.42
884.212	15049.66
884.529	15004.69
884.846	15044.69
885.164	15039.49
885.481	14883.56
885.798	14939.38
886.115	14843.11
886.432	14781.65
886.75	14753.62
887.067	14887.18
887.383	14741.65
887.7	14777.58
888.017	14681.99
888.334	14629.78
888.651	14659.16
888.967	14486.51
889.284	14480.18
889.6	14470.47
889.917	14365.61
890.233	14377.81
890.55	14306.18
890.866	14279.06
891.182	14300.98
891.498	14098.95
891.815	14089.91
892.131	14122.23
892.447	14077.71
892.763	13965.17
893.079	14038.16
893.395	13997.94
893.71	13949.35
894.026	13862.8
894.342	13832.97
894.657	13583.26
894.973	13639.3
895.289	13734.89
895.604	13685.85
895.92	13627.78
896.235	13589.13
896.55	13508.91
896.865	13517.05
897.181	13437.5
897.496	13385.98
897.811	13331.29
898.126	13280.89
898.441	13255.81
898.756	13282.48
899.071	13130.16
899.386	13155.7
899.7	13045.42
900.015	12999.77
900.33	12910.51
900.644	13006.55
900.959	12796.39
901.273	12851.07
901.588	12765.65
901.902	12782.6
902.216	12687.91
902.531	12619.67
902.845	12609.5
903.159	12518.2
903.473	12397.98
903.787	12362.5
904.101	12320.24
904.415	12330.86
904.729	12346.68
905.042	12217.64
905.356	12228.27
905.67	12104.88
905.984	12189.62
906.297	12121.38
906.611	12096.07
906.924	12106.01
907.237	11966.35
907.551	11961.15
907.864	11800.25
908.177	11805.9
908.491	11779.01
908.804	11698.79
909.117	11675.06
909.43	11652.91
909.743	11571.56
910.056	11576.76
910.368	11514.84
910.681	11417.21
910.994	11382.64
911.307	11320.49
911.619	11203.21
911.932	11269.65
912.244	11119.14
912.557	11152.14
912.869	11024.68
913.181	11036.66
913.494	10980.62
913.806	10908.07
914.118	10916.66
914.43	10854.52
914.742	10773.16
915.054	10799.15
915.366	10758.47
915.678	10648.42
915.99	10556.67
916.302	10541.08
916.613	10548.99
916.925	10544.47
917.236	10469.89
917.548	10358.26
917.859	10438.71
918.171	10262.22
918.482	10257.47
918.794	10277.13
919.105	10240.3
919.416	10136.12
919.727	10128.89
920.038	10087.98
920.349	10029.68
920.66	9981.55
920.971	9951.94
921.282	9899.74
921.593	9879.18
921.903	9891.6
922.214	9795.56
922.525	9729.35
922.835	9618.39
923.146	9612.29
923.456	9654.77
923.767	9574.78
924.077	9495.91
924.387	9489.36
924.697	9375.91
925.008	9366.65
925.318	9356.48
925.628	9294.78
925.938	9264.05
926.248	9171.4
926.558	9146.77
926.867	9205.52
927.177	9094.56
927.487	9054.56
927.796	8958.3
928.106	9055.24
928.416	8868.58
928.725	8879.43
929.034	8783.16
929.344	8855.02
929.653	8810.28
929.962	8728.47
930.271	8728.25
930.581	8699.09
930.89	8638.08
931.199	8614.35
931.508	8549.27
931.817	8551.53
932.125	8540.68
932.434	8502.04
932.743	8442.6
933.051	8370.51
933.36	8442.38
933.669	8298.2
933.977	8229.28
934.286	8215.72
934.594	8162.38
934.902	8169.62
935.21	8121.93
935.519	8121.48
935.827	8075.61
936.135	8026.79
936.443	7898.44
936.751	7933.24
937.059	7997.19
937.367	7860.02
937.674	7831.09
937.982	7853.69
938.29	7789.29
938.597	7749.97
938.905	7671.55
939.213	7631.55
939.52	7629.52
939.827	7634.26
940.135	7500.25
940.442	7515.85
940.749	7515.85
941.056	7519.92
941.363	7468.84
941.67	7356.53
941.977	7322.41
942.284	7302.97
942.591	7243.99
942.898	7161.96
943.205	7170.55
943.511	7165.35
943.818	7210.32
944.125	7112.02
944.431	7022.08
944.738	7091
945.044	7045.35
945.35	6954.51
945.657	6970.55
945.963	6940.72
946.269	6851.91
946.575	6930.55
946.881	6839.71
947.187	6860.05
947.493	6803.78
947.799	6787.73
948.105	6752.7
948.41	6705.93
948.716	6693.5
949.022	6653.27
949.327	6597.23
949.633	6583.22
949.938	6557
950.244	6539.38
950.549	6478.81
950.854	6442.43
951.16	6478.36
951.465	6467.06
951.77	6412.6
952.075	6350.68
952.38	6363.34
952.685	6362.88
952.99	6267.29
953.294	6272.49
953.599	6226.84
953.904	6211.25
954.209	6182.1
954.513	6186.39
954.818	6155.43
955.122	6077.69
955.426	6047.41
955.731	6037.69
956.035	5994.98
956.339	5995.66
956.643	5989.79
956.948	5956.34
957.252	5910.69
957.556	5864.82
957.86	5864.59
958.163	5847.87
958.467	5828.89
958.771	5780.3
959.075	5766.29
959.378	5702.34
959.682	5707.99
959.985	5679.29
960.289	5649.46
960.592	5626.86
960.896	5569.46
961.199	5528.1
961.502	5536.69
961.805	5500.76
962.108	5454.43
962.411	5491.04
962.714	5440.65
963.017	5464.38
963.32	5423.02
963.623	5391.16
963.926	5320.43
964.228	5361.78
964.531	5277.49
964.833	5319.52
965.136	5243.82
965.438	5197.26
965.741	5173.31
966.043	5179.86
966.345	5157.27
966.648	5119.53
966.95	5130.6
967.252	5066.19
967.554	5030.26
967.856	5012.86
968.158	5002.47
968.46	4988.23
968.761	4985.52
969.063	4930.38
969.365	4880.21
969.666	4899.65
969.968	4860.1
970.269	4881.79
970.571	4858.29
970.872	4821.68
971.174	4753.43
971.475	4743.27
971.776	4778.07
972.077	4721.34
972.378	4708.24
972.679	4675.24
972.98	4682.02
973.281	4662.36
973.582	4637.51
973.883	4599.77
974.183	4563.16
974.484	4571.29
974.785	4552.54
975.085	4531.75
975.386	4509.37
975.686	4517.96
975.986	4456.27
976.287	4473.44
976.587	4415.82
976.887	4383.73
977.187	4393.22
977.487	4374.46
977.787	4330.62
978.087	4318.19
978.387	4283.84
978.687	4336.95
978.987	4235.03
979.286	4206.56
979.586	4255.14
979.885	4208.36
980.185	4176.73
980.484	4175.14
980.784	4145.99
981.083	4115.71
981.382	4129.72
981.682	4077.29
981.981	4105.09
982.28	4020.8
982.579	4029.16
982.878	4014.02
983.177	4026.45
983.475	3989.61
983.774	3955.26
984.073	3959.78
984.372	3903.74
984.67	3919.78
984.969	3927.24
985.267	3878.2
985.566	3889.05
985.864	3805.44
986.162	3837.98
986.461	3791.43
986.759	3767.47
987.057	3773.8
987.355	3760.69
987.653	3713.24
987.951	3746.91
988.249	3687.93
988.547	3636.63
988.844	3665.33
989.142	3695.38
989.44	3622.16
989.737	3571.09
990.035	3565.67
990.332	3546.01
990.63	3545.33
990.927	3543.3
991.224	3494.71
991.521	3490.42
991.819	3473.47
992.116	3478.67
992.413	3448.61
992.71	3432.11
993.006	3405.9
993.303	3395.96
993.6	3400.48
993.897	3394.6
994.193	3325
994.49	3344.66
994.787	3321.38
995.083	3272.8
995.379	3292.23
995.676	3249.75
995.972	3246.36
996.268	3231.67
996.565	3207.49
996.861	3205.9
997.157	3164.1
997.453	3157.09
997.749	3159.35
998.044	3155.74
998.34	3102.4
998.636	3143.53
998.932	3099.69
999.227	3043.2
999.523	3071.9
999.818	3057.21
1000.114	2997.77
1000.409	2997.77
1000.704	2987.83
1001	2948.74
1001.295	2988.28
1001.59	2972.24
1001.885	2927.72
1002.18	2935.63
1002.475	2910.32
1002.77	2886.59
1003.065	2831.68
1003.359	2848.4
1003.654	2815.41
1003.949	2796.42
1004.243	2814.73
1004.538	2754.39
1004.832	2792.58
1005.127	2773.15
1005.421	2718.46
1005.715	2717.56
1006.009	2698.35
1006.304	2680.04
1006.598	2648.63
1006.892	2647.05
1007.186	2653.6
1007.48	2613.83
1007.773	2625.35
1008.067	2615.19
1008.361	2562.31
1008.655	2558.24
1008.948	2545.36
1009.242	2539.93
1009.535	2506.49
1009.829	2479.82
1010.122	2444.79
1010.415	2487.05
1010.708	2473.27
1011.001	2438.24
1011.295	2407.28
1011.588	2391.24
1011.881	2404.57
1012.173	2366.83
1012.466	2353.95
1012.759	2343.33
1013.052	2330
1013.344	2318.24
1013.637	2299.26
1013.93	2279.15
1014.222	2277.34
1014.514	2262.88
1014.807	2250.68
1015.099	2213.84
1015.391	2228.75
1015.683	2220.17
1015.976	2164.12
1016.268	2200.06
1016.56	2182.65
1016.851	2131.36
1017.143	2151.02
1017.435	2135.2
1017.727	2134.75
1018.018	2120.74
1018.31	2082.32
1018.602	2047.06
1018.893	2069.21
1019.185	2014.07
1019.476	2019.95
1019.767	2016.11
1020.058	2010.46
1020.35	1972.49
1020.641	1953.96
1020.932	1977.01
1021.223	1937.46
1021.514	1907.86
1021.804	1898.82
1022.095	1895.66
1022.386	1869.67
1022.677	1873.96
1022.967	1861.08
1023.258	1820.63
1023.548	1808.88
1023.839	1810.46
1024.129	1825.15
1024.419	1821.76
1024.709	1776.11
1025	1762.55
1025.29	1778.37
1025.58	1726.4
1025.87	1751.25
1026.16	1702.67
1026.449	1694.31
1026.739	1712.84
1027.029	1724.36
1027.319	1682.55
1027.608	1678.71
1027.898	1676.68
1028.187	1639.17
1028.477	1620.41
1028.766	1618.15
1029.055	1615.21
1029.344	1617.7
1029.634	1591.94
1029.923	1589.9
1030.212	1576.79
1030.501	1554.2
1030.79	1514.2
1031.078	1506.29
1031.367	1513.75
1031.656	1504.93
1031.945	1505.38
1032.233	1481.88
1032.522	1474.88
1032.81	1471.49
1033.099	1479.17
1033.387	1467.42
1033.675	1432.17
1033.963	1422.45
1034.251	1432.39
1034.54	1429
1034.828	1379.29
1035.116	1374.09
1035.403	1381.09
1035.691	1332.28
1035.979	1348.55
1036.267	1345.84
1036.554	1360.53
1036.842	1346.97
1037.129	1324.82
1037.417	1293.41
1037.704	1280.53
1037.992	1282.79
1038.279	1279.85
1038.566	1290.93
1038.853	1290.93
1039.14	1290.93
