Data from orange_diffuse_book_FLMS001491_00034.txt Node
Date: Wed Feb 08 15:29:28 GMT 2017
User: dcchb
Spectrometer: FLMS00149
Trigger mode: 0
Integration Time (sec): 2.000000E-2
Scans to average: 10
Electric dark correction enabled: true
Nonlinearity correction enabled: false
Boxcar width: 0
XAxis mode: Wavelengths
Number of Pixels in Spectrum: 2048
>>>>>Begin Spectral Data<<<<<
341.393	-20.78
341.776	-20.78
342.16	-20.78
342.543	-50.38
342.927	-49.93
343.31	-72.3
343.693	-69.59
344.077	-52.87
344.46	-56.03
344.843	-46.76
345.226	-58.52
345.61	-35.69
345.993	-22.58
346.376	-7.9
346.759	2.27
347.142	14.93
347.525	71.2
347.908	57.87
348.291	82.05
348.674	87.47
349.057	106.45
349.44	115.49
349.823	136.73
350.206	149.61
350.588	202.04
350.971	223.74
351.354	225.09
351.737	253.34
352.119	273.91
352.502	263.96
352.884	284.98
353.267	300.57
353.65	292.44
354.032	315.71
354.414	316.84
354.797	328.82
355.179	319.78
355.562	357.74
355.944	336.05
356.326	360
356.709	357.07
357.091	354.58
357.473	347.58
357.855	389.83
358.238	361.81
358.62	362.49
359.002	336.28
359.384	353
359.766	340.12
360.148	338.08
360.53	345.09
360.912	327.46
361.294	339.21
361.676	350.97
362.057	330.17
362.439	342.83
362.821	338.31
363.203	320.01
363.584	349.61
363.966	367.01
364.348	321.14
364.729	313.9
365.111	331.76
365.493	346.9
365.874	333.11
366.256	318.65
366.637	324.3
367.019	333.34
367.4	329.05
367.781	329.05
368.163	328.14
368.544	324.3
368.925	309.16
369.306	346.9
369.688	318.2
370.069	306.22
370.45	334.69
370.831	344.64
371.212	336.95
371.593	330.4
371.974	314.81
372.355	329.95
372.736	322.27
373.117	328.37
373.498	339.21
373.879	334.69
374.26	322.27
374.641	312.55
375.021	331.53
375.402	330.85
375.783	345.99
376.163	336.28
376.544	337.18
376.925	340.34
377.305	333.79
377.686	350.74
378.066	360.23
378.447	349.38
378.827	358.65
379.208	339.44
379.588	335.15
379.968	355.71
380.349	348.71
380.729	347.12
381.109	374.47
381.489	353.23
381.87	328.14
382.25	350.74
382.63	371.08
383.01	374.92
383.39	371.3
383.77	383.51
384.15	371.3
384.53	376.05
384.91	362.26
385.29	380.12
385.67	358.87
386.049	374.02
386.429	357.74
386.809	398.65
387.189	380.12
387.568	371.76
387.948	398.65
388.328	386.9
388.707	385.99
389.087	368.82
389.466	376.05
389.846	399.33
390.225	401.13
390.605	376.5
390.984	396.39
391.363	374.24
391.743	384.64
392.122	395.03
392.501	403.39
392.881	411.75
393.26	395.71
393.639	407.69
394.018	404.3
394.397	411.98
394.776	404.52
395.155	395.26
395.534	412.66
395.913	420.57
396.292	407.91
396.671	429.16
397.05	429.38
397.429	421.92
397.808	416.95
398.186	414.47
398.565	419.89
398.944	434.58
399.323	431.64
399.701	449.72
400.08	418.31
400.458	440.45
400.837	449.72
401.215	437.29
401.594	430.74
401.972	454.24
402.351	465.54
402.729	448.59
403.107	453.56
403.486	441.36
403.864	468.7
404.242	482.26
404.62	454.47
404.999	458.76
405.377	480.91
405.755	475.71
406.133	480.68
406.511	464.41
406.889	475.03
407.267	474.35
407.645	463.96
408.023	489.72
408.401	486.56
408.779	470.96
409.156	481.13
409.534	505.54
409.912	482.26
410.29	509.15
410.667	499.44
411.045	512.54
411.422	504.41
411.8	506.67
412.178	512.09
412.555	560.45
412.933	524.97
413.31	557.97
413.687	528.59
414.065	552.54
414.442	521.58
414.819	541.92
415.197	560.45
415.574	560.23
415.951	550.73
416.328	561.81
416.705	582.82
417.082	586.67
417.46	579.21
417.837	573.33
418.214	607.23
418.591	601.35
418.967	607.46
419.344	596.83
419.721	587.12
420.098	588.7
420.475	600.45
420.852	616.27
421.228	616.95
421.605	619.66
421.982	645.42
422.358	614.91
422.735	631.41
423.111	653.1
423.488	639.55
423.864	666.66
424.241	675.25
424.617	677.28
424.994	662.82
425.37	665.31
425.746	660.79
426.123	710.73
426.499	659.88
426.875	680.45
427.251	691.07
427.627	717.51
428.003	703.27
428.379	716.83
428.756	716.61
429.132	711.86
429.507	720
429.883	727.23
430.259	724.06
430.635	724.06
431.011	758.64
431.387	760.9
431.763	778.75
432.138	774.01
432.514	783.5
432.89	785.08
433.265	808.13
433.641	785.3
434.016	805.42
434.392	826.43
434.767	840.9
435.143	823.5
435.518	822.14
435.894	832.08
436.269	841.57
436.644	862.14
437.02	858.07
437.395	838.18
437.77	897.84
438.145	884.51
438.52	901.01
438.895	908.69
439.271	908.01
439.646	935.58
440.021	906.43
440.395	906.88
440.77	927.67
441.145	919.99
441.52	947.79
441.895	948.46
442.27	945.3
442.645	947.33
443.019	936.26
443.394	966.09
443.769	963.6
444.143	932.87
444.518	946.2
444.892	978.52
445.267	994.79
445.641	980.33
446.016	985.98
446.39	987.56
446.764	990.95
447.139	1009.03
447.513	1016.71
447.887	1023.26
448.262	1017.61
448.636	1004.28
449.01	1033.21
449.384	1076.37
449.758	1025.52
450.132	1073.66
450.506	1070.04
450.88	1078.18
451.254	1047.44
451.628	1062.81
452.002	1081.79
452.376	1084.28
452.75	1129.7
453.123	1101.68
453.497	1098.06
453.871	1140.78
454.244	1134.9
454.618	1141
454.992	1152.53
455.365	1160.89
455.739	1174.22
456.112	1210.83
456.486	1189.36
456.859	1204.5
457.232	1217.84
457.606	1239.98
457.979	1227.78
458.352	1256.93
458.725	1267.55
459.099	1274.56
459.472	1325.4
459.845	1262.58
460.218	1288.34
460.591	1298.06
460.964	1314.1
461.337	1375.57
461.71	1379.86
462.083	1358.17
462.456	1380.77
462.829	1395.91
463.201	1366.53
463.574	1430.48
463.947	1405.63
464.32	1444.27
464.692	1437.04
465.065	1452.41
465.438	1469.81
465.81	1447.89
466.183	1494.66
466.555	1540.31
466.928	1517.04
467.3	1497.38
467.672	1557.94
468.045	1571.72
468.417	1598.16
468.789	1566.07
469.161	1596.13
469.534	1647.2
469.906	1617.82
470.278	1664.15
470.65	1660.54
471.022	1691.27
471.394	1722
471.766	1725.84
472.138	1747.31
472.51	1777.37
472.882	1833.64
473.253	1836.8
473.625	1837.71
473.997	1851.49
474.369	1884.71
474.74	1890.36
475.112	1929.68
475.484	1942.79
475.855	1978.04
476.227	2006.97
476.598	2025.95
476.97	2048.55
477.341	2081.99
477.713	2119.28
478.084	2128.77
478.455	2196.57
478.827	2195.21
479.198	2256.23
479.569	2258.26
479.94	2328.54
480.311	2326.05
480.682	2356.11
481.053	2437.01
481.424	2455.32
481.795	2490.8
482.166	2498.93
482.537	2576.9
482.908	2597.01
483.279	2590
483.65	2670.68
484.021	2707.51
484.391	2749.09
484.762	2776.21
485.133	2794.29
485.503	2799.71
485.874	2884.01
486.244	2910.22
486.615	2968.52
486.985	3014.4
487.356	3069.09
487.726	3079.71
488.097	3164.45
488.467	3145.69
488.837	3260.95
489.207	3287.39
489.578	3292.36
489.948	3324.45
490.318	3394.95
490.688	3393.6
491.058	3457.78
491.428	3552.01
491.798	3549.75
492.168	3630.65
492.538	3662.52
492.908	3742.74
493.278	3759.24
493.648	3781.38
494.017	3844.43
494.387	3871.55
494.757	3838.11
495.126	3952.9
495.496	3978.21
495.866	4011.43
496.235	4077.42
496.605	4099.34
496.974	4147.48
497.344	4206.23
497.713	4230.86
498.082	4250.75
498.452	4334.59
498.821	4285.33
499.19	4322.39
499.559	4446.9
499.928	4433.34
500.298	4456.39
500.667	4544.98
501.036	4575.94
501.405	4591.98
501.774	4614.36
502.143	4660
502.512	4658.42
502.88	4705.43
503.249	4743.17
503.618	4795.14
503.987	4832.43
504.356	4858.64
504.724	4896.38
505.093	4916.27
505.462	4965.53
505.83	4963.73
506.199	5076.04
506.567	5081.69
506.936	5099.54
507.304	5154.68
507.672	5233.32
508.041	5203.49
508.409	5259.08
508.777	5343.83
509.145	5392.87
509.514	5383.6
509.882	5448.01
510.25	5442.36
510.618	5513.77
510.986	5510.83
511.354	5620.88
511.722	5626.53
512.09	5680.99
512.458	5676.25
512.826	5719.41
513.193	5740.88
513.561	5841.22
513.929	5848.22
514.297	5887.77
514.664	5904.72
515.032	5966.86
515.4	6032.62
515.767	6069.01
516.135	6128.89
516.502	6016.81
516.869	6177.93
517.237	6237.82
517.604	6199.17
517.972	6273.75
518.339	6345.16
518.706	6357.59
519.073	6426.74
519.44	6452.05
519.808	6472.16
520.175	6501.54
520.542	6585.15
520.909	6555.77
521.276	6613.17
521.643	6632.38
522.009	6777.01
522.376	6751.7
522.743	6880.29
523.11	6887.06
523.477	6943.56
523.843	7018.59
524.21	7083.22
524.577	7130.45
524.943	7113.73
525.31	7192.37
525.676	7250.44
526.043	7355.98
526.409	7357.56
526.776	7436.65
527.142	7419.03
527.508	7466.94
527.874	7587.16
528.241	7552.81
528.607	7637.33
528.973	7687.72
529.339	7690.89
529.705	7770.21
530.071	7785.12
530.437	7908.51
530.803	7971.78
531.169	7939.69
531.535	7954.16
531.901	7998.22
532.267	8011.78
532.632	8140.82
532.998	8089.74
533.364	8195.96
533.73	8176.52
534.095	8296.52
534.461	8280.02
534.826	8395.95
535.192	8361.83
535.557	8444.76
535.923	8440.24
536.288	8454.71
536.653	8501.71
537.019	8518.21
537.384	8581.03
537.749	8566.34
538.114	8660.58
538.479	8652.89
538.845	8738.09
539.21	8681.14
539.575	8756.17
539.94	8804.3
540.305	8840.46
540.67	8889.95
541.034	8906.9
541.399	8933.11
541.764	8960
542.129	9006.33
542.494	9101.02
542.858	9089.04
543.223	9105.31
543.587	9215.14
543.952	9200.9
544.316	9217.85
544.681	9222.14
545.045	9295.59
545.41	9362.93
545.774	9361.35
546.138	9444.96
546.503	9459.43
546.867	9462.59
547.231	9630.04
547.595	9633.21
547.959	9674.79
548.324	9657.61
548.688	9732.87
549.052	9739.65
549.416	9733.32
549.779	9857.61
550.143	9889.25
550.507	9928.79
550.871	9953.65
551.235	9985.06
551.599	10112.74
551.962	10121.33
552.326	10093.53
552.689	10318.84
553.053	10249.24
553.417	10275.22
553.78	10357.48
554.143	10363.58
554.507	10475.67
554.87	10520.19
555.234	10610.81
555.597	10581.88
555.96	10766.28
556.323	10814.42
556.686	10817.36
557.05	11016.67
557.413	10954.75
557.776	11011.93
558.139	11157.46
558.502	11154.07
558.865	11190.68
559.228	11367.17
559.59	11384.35
559.953	11368.08
560.316	11580.5
560.679	11620.73
561.041	11649.2
561.404	11783.89
561.767	11912.47
562.129	11912.24
562.492	12132.58
562.854	12133.71
563.217	12191.56
563.579	12248.51
563.941	12407.82
564.304	12542.06
564.666	12640.36
565.028	12758.32
565.39	12856.17
565.753	12930.75
566.115	13065.89
566.477	13078.31
566.839	13232.66
567.201	13386.55
567.563	13477.17
567.925	13619.99
568.287	13732.76
568.648	13766.21
569.01	13965.97
569.372	14170.26
569.734	14239.64
570.095	14348.79
570.457	14515.79
570.819	14714.2
571.18	14756.91
571.542	14909
571.903	15047.75
572.265	15286.39
572.626	15400.06
572.987	15621.75
573.349	15787.4
573.71	16078.24
574.071	16217.89
574.432	16411.79
574.794	16668.73
575.155	16738.56
575.516	16977.19
575.877	17159.56
576.238	17414.92
576.599	17754.58
576.96	17818.75
577.32	18135.36
577.681	18342.58
578.042	18618.06
578.403	18781.44
578.763	19059.63
579.124	19366.96
579.485	19706.84
579.845	20009.21
580.206	20248.07
580.566	20523.32
580.927	20864.78
581.287	21168.72
581.648	21464.31
582.008	21826.56
582.368	22039.66
582.728	22371.86
583.089	22744.5
583.449	22893.2
583.809	23296.35
584.169	23753.97
584.529	24028.53
584.889	24502.87
585.249	24735.86
585.609	25090.65
585.969	25634.59
586.329	25895.83
586.688	26404.74
587.048	26717.73
587.408	27136.02
587.768	27610.81
588.127	27966.28
588.487	28357.69
588.846	28941.4
589.206	28994.73
589.565	29649.63
589.925	30198.77
590.284	30530.06
590.643	30979.76
591.003	31411.39
591.362	31917.82
591.721	32391.03
592.08	32704.69
592.44	33257.22
592.799	33793.02
593.158	34047.93
593.517	34526.34
593.876	35064.63
594.235	35382.59
594.593	35838.17
594.952	36454.65
595.311	36657.81
595.67	37299.37
596.029	37956.98
596.387	38273.13
596.746	38853.46
597.104	39182.26
597.463	39512.2
597.822	40156.92
598.18	40358.05
598.538	40705.16
598.897	41351.02
599.255	41399.15
599.613	42391.67
599.972	42513.7
600.33	43031.65
600.688	43224.41
601.046	43615.36
601.404	44242.69
601.762	44420.54
602.12	45026.85
602.478	45363.79
602.836	45646.27
603.194	45889.88
603.552	46327.61
603.91	46558.56
604.268	46997.87
604.625	47110.64
604.983	47599.44
605.341	47690.96
605.698	48219.54
606.056	48528.46
606.413	48653.2
606.771	49037.14
607.128	49311.71
607.485	49364.14
607.843	49600.52
608.2	49980.39
608.557	50185.81
608.914	50329.09
609.272	50682.52
609.629	50887.72
609.986	51204.32
610.343	51215.84
610.7	51546.46
611.057	51583.74
611.414	51649.28
611.771	51869.38
612.127	52077.29
612.484	52173.56
612.841	52460.78
613.198	52465.53
613.554	52536.94
613.911	52861.9
614.267	52913.65
614.624	52986.42
614.98	53032.52
615.337	53421.66
615.693	53346.86
616.05	53543.47
616.406	53652.16
616.762	53688.77
617.118	53762.67
617.475	53837.47
617.831	54015.77
618.187	54097.35
618.543	54193.84
618.899	54412.59
619.255	54384.8
619.611	54369.21
619.967	54646.03
620.323	54690.33
620.678	54560.39
621.034	54574.62
621.39	54682.64
621.746	54675.19
622.101	55025.91
622.457	54857.33
622.812	54916.99
623.168	55010.77
623.523	55050.32
623.879	55194.04
624.234	54987.27
624.589	55179.58
624.945	55149.52
625.3	55205.57
625.655	55241.05
626.01	55174.16
626.365	55223.87
626.72	55230.88
627.075	55379.12
627.43	55356.52
627.785	55326.47
628.14	55478.1
628.495	55488.95
628.85	55458.22
629.205	55397.65
629.559	55621.38
629.914	55485.56
630.269	55551.55
630.623	55493.92
630.978	55443.53
631.332	55582.06
631.687	55567.59
632.041	55491.66
632.396	55602.85
632.75	55407.82
633.104	55538.21
633.459	55374.6
633.813	55434.04
634.167	55394.26
634.521	55462.51
634.875	55531.21
635.229	55457.09
635.583	55336.41
635.937	55398.11
636.291	55346.58
636.645	55345.9
636.999	55348.84
637.352	55432.45
637.706	55205.34
638.06	55423.19
638.413	55297.32
638.767	55167.6
639.121	55265
639.474	55116.08
639.828	55190.43
640.181	55239.01
640.534	55178.22
640.888	55177.09
641.241	55146.36
641.594	55164.89
641.947	55205.34
642.301	55188.17
642.654	55155.4
643.007	55154.95
643.36	55152.24
643.713	55095.97
644.066	55207.6
644.419	54959.7
644.771	54900.04
645.124	54600.84
645.477	54557.9
645.83	54338.02
646.182	54268.19
646.535	54203.79
646.888	54318.81
647.24	54229.77
647.593	54360.62
647.945	54272.03
648.298	54213.73
648.65	54055.99
649.002	54053.51
649.355	54170.34
649.707	54096.67
650.059	54196.1
650.411	54654.17
650.763	54651.68
651.115	54960.38
651.467	54807.16
651.819	54794.05
652.171	54779.36
652.523	54707.28
652.875	54697.33
653.227	54657.79
653.578	54789.08
653.93	54712.93
654.282	54581.18
654.633	54589.77
654.985	54668.63
655.337	54645.58
655.688	54538.24
656.039	54676.54
656.391	54492.37
656.742	54491.24
657.094	54569.65
657.445	54741.4
657.796	54671.12
658.147	54550.9
658.498	54539.82
658.849	54619.37
659.2	54557.68
659.551	54442.65
659.902	54574.85
660.253	54469.32
660.604	54646.49
660.955	54386.15
661.306	54533.95
661.656	54421.63
662.007	54480.39
662.358	54509.99
662.708	54544.34
663.059	54544.12
663.409	54285.37
663.76	54554.51
664.11	54487.4
664.461	54532.59
664.811	54483.55
665.161	54526.72
665.511	54397.91
665.862	54414.4
666.212	54437.68
666.562	54517
666.912	54445.36
667.262	54310.22
667.612	54393.16
667.962	54399.49
668.312	54331.01
668.662	54409.88
669.011	54385.25
669.361	54330.34
669.711	54362.88
670.06	54292.6
670.41	54222.32
670.76	54135.77
671.109	54335.99
671.459	54221.41
671.808	54239.04
672.157	54212.15
672.507	54070.68
672.856	54006.96
673.205	54103.68
673.554	54225.26
673.904	54040.4
674.253	54165.37
674.602	54054.19
674.951	53640.86
675.3	53503.47
675.649	54014.87
675.998	53935.55
676.346	53930.57
676.695	54009.44
677.044	53782.55
677.393	53827.98
677.741	53865.49
678.09	53801.31
678.438	53767.64
678.787	53745.72
679.135	53864.59
679.484	53632.5
679.832	53723.12
680.181	53539.4
680.529	53673.63
680.877	53585.27
681.225	53578.04
681.573	53681.54
681.922	53497.82
682.27	53364.49
682.618	53450.59
682.966	53384.83
683.314	53429.34
683.661	53423.47
684.009	53222.8
684.357	53145.51
684.705	53007.89
685.053	53028.45
685.4	53071.16
685.748	52883.6
686.095	52989.36
686.443	52906.87
686.79	52806.08
687.138	52735.12
687.485	52809.7
687.832	52649.93
688.18	52670.04
688.527	52497.39
688.874	52518.41
689.221	52315.02
689.568	52397.28
689.915	52180.79
690.262	52161.58
690.609	52132.65
690.956	52011.75
691.303	52005.2
691.65	51862.15
691.997	51800.46
692.344	51663.29
692.69	51694.7
693.037	51690.41
693.383	51372.9
693.73	51476.17
694.077	51237.54
694.423	51229.85
694.769	51257.88
695.116	51116.18
695.462	51032.34
695.808	50988.73
696.155	50911.9
696.501	50759.58
696.847	50780.15
697.193	50466.48
697.539	50512.36
697.885	50350.78
698.231	50289.77
698.577	50310.78
698.923	50135.42
699.269	50013.61
699.614	49810.68
699.96	49801.64
700.306	49729.78
700.651	49633.06
700.997	49615.43
701.342	49356
701.688	49420.86
702.033	49228.1
702.379	49216.12
702.724	49108.78
703.069	49239.62
703.415	48798.28
703.76	48737.94
704.105	48798.28
704.45	48583.6
704.795	48466.54
705.14	48371.4
705.485	48352.87
705.83	48310.38
706.175	48196.94
706.52	48166.88
706.865	47792.88
707.209	47864.52
707.554	47843.73
707.899	47822.26
708.243	47615.71
708.588	47539.33
708.932	47320.13
709.277	47221.82
709.621	47269.51
709.966	47114.26
710.31	47125.1
710.654	46607.6
710.998	46856.64
711.342	46933.92
711.687	46612.12
712.031	46700.93
712.375	46363.09
712.719	46526.25
713.063	46362.64
713.407	46476.08
713.75	46353.37
714.094	46222.08
714.438	46058.24
714.782	46229.31
715.125	45806.04
715.469	46015.75
715.812	45847.4
716.156	45664.8
716.499	45597.69
716.843	45683.33
717.186	45434.98
717.53	45669.32
717.873	45561.98
718.216	45452.83
718.559	45259.62
718.902	44955.44
719.246	45076.12
719.589	44955.67
719.932	44851.04
720.275	44887.2
720.617	44857.59
720.96	44823.47
721.303	44772.62
721.646	44794.54
721.989	44531.27
722.331	44734.66
722.674	44578.28
723.016	44530.59
723.359	44342.13
723.701	44467.09
724.044	44221.9
724.386	44063.26
724.729	44162.92
725.071	44136.25
725.413	44042.7
725.755	43996.15
726.097	43835.7
726.439	43667.34
726.782	43740.33
727.124	43864.17
727.465	43688.58
727.807	43738.75
728.149	43596.38
728.491	43586.44
728.833	43674.8
729.175	43423.51
729.516	43443.84
729.858	43386.22
730.199	43405.88
730.541	43340.34
730.882	43210.18
731.224	43260.12
731.565	42993.01
731.906	43092.89
732.248	43157.98
732.589	42857.64
732.93	42732.9
733.271	42741.72
733.612	42709.17
733.953	42835.95
734.294	42596.18
734.635	42544.21
734.976	42687.03
735.317	42433.25
735.658	42429.63
735.999	42460.59
736.339	42416.53
736.68	42600.48
737.021	42357.77
737.361	42270.54
737.702	42371.56
738.042	42281.61
738.383	42160.71
738.723	42063.99
739.063	42147.61
739.404	42188.28
739.744	42039.36
740.084	41894.96
740.424	41891.34
740.764	41885.24
741.104	42026.48
741.444	41772.25
741.784	41754.17
742.124	41801.63
742.464	41685.7
742.804	41739.48
743.143	41562.76
743.483	41622.65
743.823	41314.41
744.162	41266.95
744.502	41458.36
744.841	41252.94
745.181	41467.4
745.52	41279.38
745.86	41294.07
746.199	41149.67
746.538	41121.19
746.877	41198.7
747.216	41118.48
747.556	40996.22
747.895	40991.7
748.234	40824.93
748.573	40942.89
748.911	40856.34
749.25	40778.38
749.589	40714.88
749.928	40666.06
750.267	40680.07
750.605	40570.7
750.944	40534.99
751.283	40417.03
751.621	40393.53
751.96	40168.9
752.298	40227.88
752.636	40130.03
752.975	40057.04
753.313	40012.3
753.651	40107.21
753.989	39859.08
754.327	39793.54
754.666	39555.81
755.004	39682.59
755.342	39658.41
755.679	39597.17
756.017	39459.54
756.355	39543.38
756.693	39344.74
757.031	39403.72
757.368	39120.12
757.706	39084.64
758.044	38858.88
758.381	38956.05
758.719	38737.3
759.056	38866.11
759.394	38718.32
759.731	38469.06
760.068	38312
760.405	38230.87
760.743	38162.85
761.08	38166.69
761.417	37862.75
761.754	38056.64
762.091	37925.57
762.428	37691.23
762.765	37513.83
763.102	37693.03
763.438	37362.65
763.775	37246.04
764.112	37335.08
764.449	37256.44
764.785	37139.83
765.122	36866.84
765.458	36841.53
765.795	36716.11
766.131	36656.68
766.467	36636.56
766.804	36427.3
767.14	36321.77
767.476	36378.94
767.812	36123.81
768.148	36237.71
768.485	35887.43
768.821	35675.91
769.157	35691.96
769.492	35661.45
769.828	35466.2
770.164	35371.06
770.5	35178.3
770.836	35214.68
771.171	35010.62
771.507	34981.47
771.842	34641.59
772.178	34533.12
772.513	34598.2
772.849	34430.07
773.184	34188.49
773.519	34398.43
773.855	34065.56
774.19	33907.6
774.525	33865.11
774.86	33934.26
775.195	33824.21
775.53	33619.7
775.865	33501.05
776.2	33128.86
776.535	32877.79
776.87	33094.51
777.205	32797.57
777.539	32744.24
777.874	32691.81
778.209	32485.49
778.543	32382.44
778.878	32311.48
779.212	32288.2
779.547	32001.43
779.881	32073.97
780.215	31874.66
780.55	32035.78
780.884	31802.34
781.218	31647.09
781.552	31617.71
781.886	31444.84
782.22	31191.06
782.554	31150.38
782.888	30843.72
783.222	30792.42
783.556	30684.41
783.889	30658.19
784.223	30380.23
784.557	30440.12
784.89	30454.81
785.224	30230.86
785.557	30119.45
785.891	30156.06
786.224	29991.54
786.558	29978.43
786.891	29660.93
787.224	29452.8
787.557	29541.61
787.891	29533.93
788.224	29486.02
788.557	29317.21
788.89	29188.63
789.223	29203.09
789.556	28897.56
789.888	28822.53
790.221	28765.13
790.554	28494.41
790.887	28578.92
791.219	28469.32
791.552	28367.4
791.884	28209.44
792.217	28239.5
792.549	28040.86
792.882	27906.62
793.214	27712.05
793.546	27933.29
793.879	27753.18
794.211	27525.17
794.543	27658.27
794.875	27483.59
795.207	27511.83
795.539	27340.76
795.871	27273.87
796.203	26948.68
796.535	26975.35
796.867	26867.1
797.198	26917.5
797.53	26771.97
797.862	26697.84
798.193	26573.1
798.525	26489.71
798.856	26569.03
799.188	26156.16
799.519	26138.08
799.85	26153.9
800.182	26188.93
800.513	26142.83
800.844	25814.7
801.175	25912.1
801.506	25796.85
801.837	25767.02
802.168	25520.7
802.499	25555.5
802.83	25466.01
803.161	25422.4
803.491	25350.99
803.822	25318.67
804.153	25192.8
804.483	25034.16
804.814	24960.49
805.145	24915.97
805.475	24904.44
805.805	24905.12
806.136	24926.59
806.466	24713.04
806.796	24649.54
807.126	24530.89
807.457	24407.96
807.787	24454.06
808.117	24398.92
808.447	24269.21
808.777	24336.1
809.107	24289.09
809.436	24084.58
809.766	24183.11
810.096	23966.16
810.426	23915.77
810.755	23961.42
811.085	23740.63
811.414	23759.62
811.744	23597.81
812.073	23528.44
812.403	23593.97
812.732	23340.19
813.061	23479.17
813.39	23266.75
813.719	23241.89
814.049	23292.06
814.378	23228.78
814.707	23115.11
815.036	23083.7
815.365	22871.05
815.693	22685.75
816.022	22738.63
816.351	22768.46
816.68	22561.68
817.008	22695.01
817.337	22451.85
817.665	22510.16
817.994	22464.51
818.322	22432.64
818.651	22289.15
818.979	22202.37
819.307	22351.97
819.636	22219.99
819.964	22107.68
820.292	22105.87
820.62	22098.64
820.948	22087.57
821.276	22146.55
821.604	22139.32
821.932	22043.28
822.259	22061.13
822.587	22008.02
822.915	21963.5
823.243	22095.25
823.57	21983.39
823.898	22053.22
824.225	21942.94
824.553	21941.58
824.88	21986.1
825.207	22005.09
825.535	22011.19
825.862	22020.45
826.189	21935.93
826.516	22056.84
826.843	22065.2
827.17	22051.86
827.497	22012.54
827.824	21889.61
828.151	22075.37
828.478	21973.45
828.805	21960.79
829.131	21999.66
829.458	21954.47
829.785	21725.09
830.111	21712.89
830.438	21979.55
830.764	21981.81
831.09	21931.19
831.417	21784.53
831.743	21989.94
832.069	21923.96
832.395	21736.84
832.722	21785.88
833.048	21764.64
833.374	21804.41
833.7	21694.13
834.026	21766.45
834.351	21778.42
834.677	21683.29
835.003	21696.62
835.329	21688.71
835.654	21713.34
835.98	21569.62
836.306	21589.95
836.631	21644.42
836.956	21586.34
837.282	21533.01
837.607	21411.88
837.932	21464.53
838.258	21315.39
838.583	21366.23
838.908	21151.32
839.233	21214.6
839.558	21220.25
839.883	21215.28
840.208	21067.48
840.533	21198.55
840.858	21133.7
841.182	21077.65
841.507	21026.81
841.832	20844.44
842.156	20932.35
842.481	20900.71
842.805	20903.87
843.13	20747.27
843.454	20772.35
843.778	20662.07
844.103	20563.32
844.427	20555.63
844.751	20587.04
845.075	20473.15
845.399	20415.3
845.723	20345.02
846.047	20350.44
846.371	20241.06
846.695	20211.23
847.019	20008.08
847.343	19961.52
847.666	19848.76
847.99	19768.08
848.313	19792.94
848.637	19672.49
848.96	19762.43
849.284	19497.35
849.607	19346.62
849.931	19333.29
850.254	19215.33
850.577	19202.9
850.9	19054.65
851.223	18954.32
851.546	18866.86
851.869	18788.9
852.192	18888.11
852.515	18718.62
852.838	18672.52
853.161	18622.35
853.483	18535.57
853.806	18421
854.129	18379.19
854.451	18375.58
854.774	18222.59
855.096	18165.64
855.419	18105.98
855.741	18106.43
856.063	18007.68
856.385	18005.19
856.708	17857.4
857.03	17860.34
857.352	17800.9
857.674	17736.27
857.996	17701.24
858.318	17543.96
858.64	17692.2
858.961	17503.06
859.283	17511.87
859.605	17450.18
859.926	17430.52
860.248	17352.1
860.57	17301.03
860.891	17401.59
861.212	17256.74
861.534	17188.49
861.855	17150.98
862.176	17232.56
862.498	17209.05
862.819	17091.77
863.14	17001.6
863.461	16978.78
863.782	16945.33
864.103	16997.31
864.424	16952.56
864.745	17010.87
865.065	16892.9
865.386	16727.71
865.707	16671.67
866.027	16664.43
866.348	16694.94
866.668	16658.11
866.989	16728.16
867.309	16599.8
867.63	16670.08
867.95	16656.98
868.27	16437.77
868.59	16477.1
868.91	16393.26
869.23	16420.37
869.55	16250.43
869.87	16406.59
870.19	16331.11
870.51	16319.13
870.83	16364.56
871.15	16214.73
871.469	16241.17
871.789	16275.52
872.109	16276.42
872.428	16069.2
872.748	16156.88
873.067	16101.29
873.386	16122.98
873.706	16109.65
874.025	16034.62
874.344	15987.39
874.663	16001.85
874.982	15913.72
875.301	15942.65
875.62	15833.5
875.939	15901.97
876.258	15869.43
876.577	15845.02
876.896	15812.03
877.214	15756.44
877.533	15701.52
877.852	15660.85
878.17	15718.02
878.489	15765.48
878.807	15662.2
879.125	15658.36
879.444	15676.44
879.762	15529.55
880.08	15503.79
880.398	15445.26
880.716	15454.52
881.034	15474.41
881.352	15412.72
881.67	15344.24
881.988	15405.26
882.306	15361.64
882.624	15285.04
882.941	15207.98
883.259	15053.4
883.577	15269.67
883.894	15162.78
884.212	15111.71
884.529	15085.27
884.846	15014.31
885.164	15036.68
885.481	14951.94
885.798	14977.02
886.115	14873.97
886.432	14828.78
886.75	14794.65
887.067	14813.86
887.383	14676.69
887.7	14772.73
888.017	14629.01
888.334	14737.48
888.651	14509.24
888.967	14576.13
889.284	14534.55
889.6	14488.9
889.917	14390.14
890.233	14445.96
890.55	14295.01
890.866	14344.27
891.182	14258.4
891.498	14161.68
891.815	14159.64
892.131	14092.52
892.447	14130.49
892.763	14065.18
893.079	13997.16
893.395	13963.04
893.71	13947.22
894.026	13840.33
894.342	13851.85
894.657	13720.33
894.973	13723.27
895.289	13761.01
895.604	13765.75
895.92	13644.18
896.235	13582.26
896.55	13583.61
896.865	13485.31
897.181	13367.57
897.496	13410.06
897.811	13388.14
898.126	13321.47
898.441	13325.09
898.756	13232.66
899.071	13207.12
899.386	13230.63
899.7	13118.99
900.015	13084.19
900.33	12938.43
900.644	12956.28
900.959	12925.55
901.273	12939.11
901.588	12813.91
901.902	12764.65
902.216	12722.62
902.531	12677.19
902.845	12645.33
903.159	12535.28
903.473	12436.07
903.787	12471.1
904.101	12379.12
904.415	12354.72
904.729	12313.14
905.042	12277.43
905.356	12240.37
905.67	12170.32
905.984	12223.65
906.297	12128.28
906.611	12068.85
906.924	12064.1
907.237	12026.82
907.551	11902.75
907.864	11801.06
908.177	11789.99
908.491	11762.64
908.804	11698.92
909.117	11789.76
909.43	11656.66
909.743	11589.09
910.056	11573.04
910.368	11544.12
910.681	11452.82
910.994	11314.07
911.307	11401.97
911.619	11250.34
911.932	11243.33
912.244	11188.65
912.557	11212.6
912.869	11068.42
913.181	11082.43
913.494	11053.28
913.806	10880.86
914.118	10968.77
914.43	10822.33
914.742	10859.16
915.054	10765.61
915.366	10722.67
915.678	10734.87
915.99	10682.67
916.302	10649.23
916.613	10631.82
916.925	10531.71
917.236	10513.41
917.548	10417.37
917.859	10385.05
918.171	10365.39
918.482	10283.81
918.794	10283.59
919.105	10261.67
919.416	10184.15
919.727	10209.24
920.038	10107.09
920.349	9976.25
920.66	10001.33
920.971	10020.54
921.282	9953.88
921.593	9868.46
921.903	9887.21
922.214	9795.01
922.525	9739.19
922.835	9701.45
923.146	9685.18
923.456	9598.18
923.767	9580.55
924.077	9586.65
924.387	9509.37
924.697	9462.82
925.008	9459.2
925.318	9393.21
925.628	9369.26
925.938	9321.35
926.248	9188.47
926.558	9193.9
926.867	9237.96
927.177	9207.23
927.487	9111.86
927.796	9082.26
928.106	9039.32
928.416	8886.33
928.725	8984.86
929.034	8865.32
929.344	8858.76
929.653	8884.98
929.962	8807.24
930.271	8711.88
930.581	8675.04
930.89	8650.86
931.199	8635.27
931.508	8623.52
931.817	8610.18
932.125	8559.56
932.434	8518.89
932.743	8405.44
933.051	8409.06
933.36	8387.36
933.669	8314.37
933.977	8294.94
934.286	8213.58
934.594	8193.25
934.902	8183.75
935.21	8127.94
935.519	8130.87
935.827	8114.83
936.135	8095.39
936.443	7999.13
936.751	7944.21
937.059	7882.97
937.367	7887.72
937.674	7812.92
937.982	7836.64
938.29	7807.94
938.597	7791.22
938.905	7658.12
939.213	7675.29
939.52	7616.31
939.827	7618.57
940.135	7528.63
940.442	7486.37
940.749	7488.63
941.056	7550.55
941.363	7417.45
941.67	7438.69
941.977	7384.68
942.284	7343.78
942.591	7362.08
942.898	7267.39
943.205	7270.78
943.511	7253.61
943.818	7197.79
944.125	7160.05
944.431	7126.15
944.738	7148.75
945.044	7077.79
945.35	7007.06
945.657	6942.43
945.963	6991.47
946.269	6932.94
946.575	6918.25
946.881	6872.6
947.187	6880.74
947.493	6831.47
947.799	6774.53
948.105	6797.12
948.41	6790.34
948.716	6749.89
949.022	6669.9
949.327	6683.23
949.633	6565.72
949.938	6595.09
950.244	6590.8
950.549	6508.09
950.854	6488.21
951.16	6475.55
951.465	6467.64
951.77	6395.1
952.075	6398.94
952.38	6341.09
952.685	6360.75
952.99	6281.2
953.294	6242.11
953.599	6276.69
953.904	6183.81
954.209	6161.89
954.513	6227.42
954.818	6194.43
955.122	6103.13
955.426	6153.98
955.731	6065.84
956.035	6021.78
956.339	6000.76
956.643	5928.45
956.948	5958.28
957.252	5952.85
957.556	5870.14
957.86	5898.39
958.163	5783.82
958.467	5811.61
958.771	5807.77
959.075	5756.47
959.378	5750.6
959.682	5732.74
959.985	5666.98
960.289	5659.3
960.592	5593.99
960.896	5611.62
961.199	5526.42
961.502	5542.92
961.805	5513.32
962.108	5462.92
962.411	5480.55
962.714	5461.79
963.017	5407.1
963.32	5463.15
963.623	5401.91
963.926	5360.55
964.228	5318.52
964.531	5307.9
964.833	5254.34
965.136	5246.43
965.438	5224.28
965.741	5235.13
966.043	5166.21
966.345	5189.71
966.648	5099.32
966.95	5140.9
967.252	5127.34
967.554	5102.7
967.856	5047.79
968.158	4985.87
968.46	4992.43
968.761	4993.33
969.063	4965.08
969.365	4971.86
969.666	4931.41
969.968	4910.62
970.269	4888.02
970.571	4872.88
970.872	4834.46
971.174	4801.47
971.475	4804.63
971.776	4817.97
972.077	4738.19
972.378	4714.47
972.679	4714.47
972.98	4709.95
973.281	4667.46
973.582	4704.75
973.883	4632.43
974.183	4630.85
974.484	4626.56
974.785	4521.7
975.085	4534.81
975.386	4546.34
975.686	4544.3
975.986	4450.07
976.287	4498.2
976.587	4432.89
976.887	4380.92
977.187	4415.27
977.487	4352.44
977.787	4347.47
978.087	4311.09
978.387	4354.7
978.687	4318.77
978.987	4305.44
979.286	4239.68
979.586	4257.98
979.885	4222.95
980.185	4189.28
980.484	4216.4
980.784	4165.55
981.083	4146.57
981.382	4157.87
981.682	4085.78
981.981	4108.83
982.28	4077.42
982.579	4028.38
982.878	4078.1
983.177	4014.37
983.475	4009.63
983.774	3986.35
984.073	3961.27
984.372	3936.41
984.67	3901.38
984.969	3931.44
985.267	3900.02
985.566	3862.96
985.864	3846.69
986.162	3862.51
986.461	3769.86
986.759	3834.04
987.057	3773.25
987.355	3742.97
987.653	3766.24
987.951	3734.61
988.249	3724.66
988.547	3682.18
988.844	3667.94
989.142	3642.18
989.44	3602.41
989.737	3641.05
990.035	3607.6
990.332	3588.85
990.63	3583.65
990.927	3525.12
991.224	3551.33
991.521	3508.4
991.819	3501.84
992.116	3497.1
992.413	3483.31
992.71	3439.7
993.006	3430.66
993.303	3437.44
993.6	3443.54
993.897	3363.54
994.193	3378.68
994.49	3343.2
994.787	3316.99
995.083	3322.64
995.379	3282.19
995.676	3302.53
995.972	3262.3
996.268	3276.31
996.565	3218.01
996.861	3216.88
997.157	3209.65
997.453	3167.84
997.749	3194.28
998.044	3149.31
998.34	3133.49
998.636	3132.36
998.932	3130.33
999.227	3085.13
999.523	3079.48
999.818	3051.23
1000.114	3021.86
1000.409	3027.28
1000.704	2973.27
1001	2990.9
1001.295	2962.42
1001.59	2947.06
1001.885	2943.44
1002.18	2905.02
1002.475	2915.19
1002.77	2895.08
1003.065	2851.69
1003.359	2866.38
1003.654	2827.51
1003.949	2833.61
1004.243	2839.04
1004.538	2769.21
1004.832	2784.8
1005.127	2750.9
1005.421	2743.22
1005.715	2698.02
1006.009	2721.52
1006.304	2660.06
1006.598	2680.85
1006.892	2691.02
1007.186	2628.65
1007.48	2647.18
1007.773	2626.84
1008.067	2613.5
1008.361	2534.41
1008.655	2576.44
1008.948	2513.85
1009.242	2547.97
1009.535	2524.02
1009.829	2504.58
1010.122	2481.76
1010.415	2488.76
1010.708	2443.79
1011.001	2419.16
1011.295	2435.88
1011.588	2389.78
1011.881	2380.52
1012.173	2398.82
1012.466	2399.27
1012.759	2333.29
1013.052	2391.59
1013.344	2345.26
1013.637	2301.42
1013.93	2303.23
1014.222	2290.8
1014.514	2297.81
1014.807	2251.25
1015.099	2239.05
1015.391	2246.73
1015.683	2195.44
1015.976	2187.3
1016.268	2184.36
1016.56	2192.05
1016.851	2157.47
1017.143	2176.23
1017.435	2122.44
1017.727	2106.4
1018.018	2098.94
1018.31	2104.37
1018.602	2078.83
1018.893	2070.24
1019.185	2065.5
1019.476	2052.62
1019.767	2027.53
1020.058	2023.92
1020.35	1986.4
1020.641	1969.23
1020.932	1955.44
1021.223	1951.83
1021.514	1949.34
1021.804	1932.84
1022.095	1933.52
1022.386	1877.93
1022.677	1872.73
1022.967	1879.74
1023.258	1841.55
1023.548	1831.6
1023.839	1825.73
1024.129	1847.42
1024.419	1785.5
1024.709	1766.07
1025	1763.36
1025.29	1749.12
1025.58	1740.76
1025.87	1729.46
1026.16	1718.39
1026.449	1730.36
1026.739	1698.05
1027.029	1673.42
1027.319	1665.96
1027.608	1714.32
1027.898	1655.34
1028.187	1649.46
1028.477	1647.88
1028.766	1621.44
1029.055	1615.11
1029.344	1602.46
1029.634	1604.04
1029.923	1573.53
1030.212	1560.2
1030.501	1567.66
1030.79	1573.08
1031.078	1519.75
1031.367	1513.87
1031.656	1535.79
1031.945	1540.99
1032.233	1484.49
1032.522	1489.01
1032.81	1456.92
1033.099	1433.2
1033.387	1463.93
1033.675	1434.1
1033.963	1430.71
1034.251	1417.15
1034.54	1425.51
1034.828	1381.45
1035.116	1418.96
1035.403	1383.71
1035.691	1352.29
1035.979	1332.86
1036.267	1350.26
1036.554	1364.95
1036.842	1305.74
1037.129	1345.29
1037.417	1337.38
1037.704	1273.43
1037.992	1309.36
1038.279	1263.03
1038.566	1293.77
1038.853	1293.77
1039.14	1293.77
