Data from orange_diffuse_book_FLMS001491_00093.txt Node
Date: Wed Feb 08 15:30:18 GMT 2017
User: dcchb
Spectrometer: FLMS00149
Trigger mode: 0
Integration Time (sec): 2.000000E-2
Scans to average: 10
Electric dark correction enabled: true
Nonlinearity correction enabled: false
Boxcar width: 0
XAxis mode: Wavelengths
Number of Pixels in Spectrum: 2048
>>>>>Begin Spectral Data<<<<<
341.393	-23.22
341.776	-23.22
342.16	-23.22
342.543	-71.35
342.927	-60.28
343.31	-74.07
343.693	-53.28
344.077	-55.54
344.46	-59.6
344.843	-55.99
345.226	-59.38
345.61	-41.07
345.993	-10.79
346.376	-8.98
346.759	22.88
347.142	30.34
347.525	42.09
347.908	56.55
348.291	78.25
348.674	67.63
349.057	120.96
349.44	130
349.823	132.03
350.206	160.5
350.588	201.63
350.971	259.48
351.354	216.77
351.737	247.06
352.119	271.01
352.502	273.95
352.884	280.5
353.267	289.99
353.65	298.35
354.032	324.79
354.414	314.4
354.797	320.05
355.179	345.36
355.562	352.36
355.944	338.8
356.326	353.95
356.709	371.35
357.091	332.7
357.473	356.21
357.855	358.01
358.238	361.18
358.62	351.69
359.002	341.74
359.384	353.27
359.766	353.04
360.148	349.43
360.53	370.22
360.912	355.75
361.294	347.39
361.676	360.05
362.057	345.58
362.439	320.73
362.821	346.49
363.203	341.06
363.584	331.35
363.966	338.35
364.348	335.41
364.729	324.34
365.111	316.66
365.493	344
365.874	336.09
366.256	332.7
366.637	329.31
367.019	346.49
367.4	350.1
367.781	315.98
368.163	341.06
368.544	321.63
368.925	322.31
369.306	348.3
369.688	328.18
370.069	320.95
370.45	322.76
370.831	318.47
371.212	331.57
371.593	329.31
371.974	325.02
372.355	322.53
372.736	336.77
373.117	331.8
373.498	314.4
373.879	322.53
374.26	335.19
374.641	339.03
375.021	334.06
375.402	345.13
375.783	325.92
376.163	321.4
376.544	331.57
376.925	350.1
377.305	349.65
377.686	346.04
378.066	331.35
378.447	355.08
378.827	352.59
379.208	333.61
379.588	345.81
379.968	334.96
380.349	347.62
380.729	355.08
381.109	345.36
381.489	350.56
381.87	355.08
382.25	348.07
382.63	348.97
383.01	358.47
383.39	383.32
383.77	340.16
384.15	365.02
384.53	369.99
384.91	348.75
385.29	370.67
385.67	367.96
386.049	379.93
386.429	367.96
386.809	365.92
387.189	367.5
387.568	363.21
387.948	356.21
388.328	361.4
388.707	383.55
389.087	367.96
389.466	386.71
389.846	359.82
390.225	367.28
390.605	389.88
390.984	382.42
391.363	372.48
391.743	367.28
392.122	390.1
392.501	394.17
392.881	395.53
393.26	416.99
393.639	418.12
394.018	420.84
394.397	384
394.776	394.85
395.155	409.09
395.534	408.18
395.913	391.46
396.292	402.76
396.671	400.5
397.05	407.05
397.429	422.87
397.808	393.94
398.186	416.32
398.565	413.6
398.944	405.24
399.323	415.19
399.701	395.53
400.08	409.31
400.458	416.09
400.837	419.25
401.215	434.85
401.594	420.84
401.972	410.22
402.351	451.8
402.729	453.6
403.107	430.33
403.486	431.01
403.864	419.93
404.242	450.21
404.62	435.07
404.999	455.86
405.377	447.05
405.755	456.09
406.133	469.2
406.511	442.53
406.889	469.65
407.267	464.9
407.645	455.64
408.023	458.12
408.401	467.61
408.779	480.27
409.156	475.07
409.534	479.59
409.912	466.94
410.29	476.65
410.667	483.21
411.045	486.82
411.422	500.38
411.8	510.55
412.178	508.52
412.555	519.59
412.933	521.4
413.31	520.72
413.687	520.49
414.065	530.66
414.442	525.24
414.819	549.87
415.197	562.53
415.574	543.77
415.951	543.55
416.328	541.51
416.705	538.57
417.082	554.62
417.46	549.65
417.837	571.34
418.214	555.97
418.591	581.74
418.967	556.65
419.344	581.51
419.721	580.83
420.098	566.37
420.475	574.73
420.852	587.61
421.228	600.49
421.605	608.18
421.982	591.91
422.358	616.09
422.735	600.04
423.111	596.42
423.488	631
423.864	606.82
424.241	618.12
424.617	621.51
424.994	632.36
425.37	638.68
425.746	630.77
426.123	629.19
426.499	638.91
426.875	643.43
427.251	652.69
427.627	617.89
428.003	667.84
428.379	677.55
428.756	659.7
429.132	692.24
429.507	694.28
429.883	709.42
430.259	720.49
430.635	712.35
431.011	699.47
431.387	697.21
431.763	735.18
432.138	736.99
432.514	734.27
432.89	749.64
433.265	750.77
433.641	768.4
434.016	784.67
434.392	776.76
434.767	771.56
435.143	769.53
435.518	806.59
435.894	814.05
436.269	817.44
436.644	812.01
437.02	820.37
437.395	821.05
437.77	820.6
438.145	839.58
438.52	833.03
438.895	846.36
439.271	832.35
439.646	845.23
440.021	861.95
440.395	868.06
440.77	855.85
441.145	873.03
441.52	858.34
441.895	863.76
442.27	894.5
442.645	891.78
443.019	887.49
443.394	895.4
443.769	902.86
444.143	923.2
444.518	924.1
444.892	910.54
445.267	936.76
445.641	934.04
446.016	929.52
446.39	936.08
446.764	940.14
447.139	940.37
447.513	932.24
447.887	930.88
448.262	962.29
448.636	971.56
449.01	950.09
449.384	964.1
449.758	960.03
450.132	972.23
450.506	968.62
450.88	974.27
451.254	960.48
451.628	998.67
452.002	1038.67
452.376	996.41
452.75	1012.91
453.123	1015.4
453.497	1019.46
453.871	1028.96
454.244	1038
454.618	1062.18
454.992	1057.2
455.365	1048.39
455.739	1049.97
456.112	1087.49
456.486	1090.2
456.859	1089.07
457.232	1117.77
457.606	1111.67
457.979	1107.82
458.352	1121.61
458.725	1139.69
459.099	1154.83
459.472	1162.74
459.845	1158.44
460.218	1167.03
460.591	1157.09
460.964	1181.04
461.337	1221.72
461.71	1223.3
462.083	1235.28
462.456	1215.17
462.829	1228.05
463.201	1242.96
463.574	1236.86
463.947	1263.53
464.32	1298.78
464.692	1291.77
465.065	1327.93
465.438	1320.47
465.81	1293.13
466.183	1314.82
466.555	1345.56
466.928	1327.71
467.3	1310.98
467.672	1339
468.045	1375.84
468.417	1372.45
468.789	1381.72
469.161	1391.88
469.534	1395.5
469.906	1450.41
470.278	1433.92
470.65	1457.65
471.022	1435.5
471.394	1482.28
471.766	1474.59
472.138	1507.36
472.51	1527.7
472.882	1554.37
473.253	1592.33
473.625	1586.23
473.997	1597.08
474.369	1573.12
474.74	1622.16
475.112	1653.8
475.484	1665.55
475.855	1718.88
476.227	1709.39
476.598	1723.63
476.97	1775.83
477.341	1761.82
477.713	1813.57
478.084	1794.59
478.455	1849.27
478.827	1877.07
479.198	1889.95
479.569	1907.12
479.94	1935.37
480.311	1972.21
480.682	2012.21
481.053	2032.55
481.424	2062.6
481.795	2094.01
482.166	2101.24
482.537	2165.88
482.908	2174.01
483.279	2188.47
483.65	2218.76
484.021	2263.27
484.391	2280.45
484.762	2319.54
485.133	2369.49
485.503	2345.08
485.874	2391.18
486.244	2432.08
486.615	2453.78
486.985	2502.14
487.356	2555.24
487.726	2576.03
488.097	2632.53
488.467	2634.34
488.837	2679.31
489.207	2704.39
489.578	2762.24
489.948	2793.88
490.318	2820.55
490.688	2831.62
491.058	2893.77
491.428	2938.06
491.798	2944.39
492.168	3011.5
492.538	3032.75
492.908	3079.98
493.278	3096.7
493.648	3137.38
494.017	3181.89
494.387	3220.76
494.757	3216.7
495.126	3263.7
495.496	3299.86
495.866	3355
496.235	3364.49
496.605	3418.5
496.974	3433.19
497.344	3484.94
497.713	3504.37
498.082	3547.08
498.452	3575.78
498.821	3629.79
499.19	3606.97
499.559	3677.93
499.928	3687.19
500.298	3725.16
500.667	3764.03
501.036	3789.56
501.405	3823.23
501.774	3837.24
502.143	3888.32
502.512	3921.76
502.88	3947.52
503.249	3963.57
503.618	3992.04
503.987	3990.69
504.356	4067.07
504.724	4031.59
505.093	4091.93
505.462	4121.53
505.83	4115.88
506.199	4186.84
506.567	4243.79
506.936	4292.82
507.304	4284.69
507.672	4328.76
508.041	4340.96
508.409	4376.44
508.777	4451.46
509.145	4476.77
509.514	4433.61
509.882	4549.32
510.25	4527.4
510.618	4528.52
510.986	4622.99
511.354	4631.35
511.722	4702.31
512.09	4678.35
512.458	4741.4
512.826	4785.02
513.193	4797.44
513.561	4868.18
513.929	4822.98
514.297	4927.61
514.664	4917.89
515.032	4975.29
515.4	5006.93
515.767	5070.43
516.135	5016.87
516.502	5025.69
516.869	5161.5
517.237	5128.96
517.604	5131.22
517.972	5236.53
518.339	5257.55
518.706	5257.55
519.073	5317.66
519.44	5307.71
519.808	5424.55
520.175	5395.17
520.542	5479.23
520.909	5445.11
521.276	5482.4
521.643	5538.44
522.009	5571.21
522.376	5662.96
522.743	5654.82
523.11	5731.21
523.477	5790.19
523.843	5837.19
524.21	5880.81
524.577	5895.49
524.943	5909.51
525.31	5980.24
525.676	6017.98
526.043	6062.04
526.409	6058.65
526.776	6108.37
527.142	6175.71
527.508	6127.13
527.874	6271.53
528.241	6248.48
528.607	6269.27
528.973	6306.78
529.339	6372.54
529.705	6465.65
530.071	6421.81
530.437	6418.42
530.803	6459.1
531.169	6544.74
531.535	6519.21
531.901	6618.64
532.267	6610.73
532.632	6649.15
532.998	6704.74
533.364	6705.64
533.73	6717.39
534.095	6728.47
534.461	6805.75
534.826	6848.92
535.192	6826.54
535.557	6853.66
535.923	6927.56
536.288	6947.44
536.653	7016.82
537.019	6998.97
537.384	6984.28
537.749	7023.6
538.114	7063.37
538.479	7119.42
538.845	7138.4
539.21	7143.6
539.575	7177.95
539.94	7214.1
540.305	7255.68
540.67	7280.77
541.034	7347.66
541.399	7382.24
541.764	7411.61
542.129	7405.51
542.494	7433.08
542.858	7498.84
543.223	7476.7
543.587	7539.97
543.952	7565.28
544.316	7534.77
544.681	7594.66
545.045	7692.28
545.41	7708.33
545.774	7707.2
546.138	7826.74
546.503	7810.25
546.867	7814.77
547.231	7875.1
547.595	7897.25
547.959	7943.8
548.324	8029.9
548.688	7964.14
549.052	8026.96
549.416	8088.66
549.779	8093.85
550.143	8212.04
550.507	8183.8
550.871	8264.02
551.235	8245.72
551.599	8325.71
551.962	8364.81
552.326	8411.59
552.689	8508.08
553.053	8504.01
553.417	8543.79
553.78	8614.75
554.143	8566.16
554.507	8662.88
554.87	8700.17
555.234	8863.78
555.597	8835.08
555.96	8879.82
556.323	8949.88
556.686	8970.89
557.05	9038.24
557.413	9141.74
557.776	9166.14
558.139	9216.99
558.502	9287.5
558.865	9341.73
559.228	9436.19
559.59	9524.1
559.953	9534.04
560.316	9690.42
560.679	9667.15
561.041	9794.83
561.404	9861.49
561.767	9893.36
562.129	9982.17
562.492	10104.65
562.854	10129.28
563.217	10222.61
563.579	10281.59
563.941	10381.25
564.304	10477.07
564.666	10642.49
565.028	10685.88
565.39	10734.24
565.753	10875.93
566.115	10932.65
566.477	11089.48
566.839	11178.07
567.201	11305.75
567.563	11334.45
567.925	11488.57
568.287	11611.95
568.648	11684.72
569.01	11822.8
569.372	12039.06
569.734	12089.68
570.095	12282.22
570.457	12406.74
570.819	12509.33
571.18	12675.66
571.542	12784.81
571.903	12948.87
572.265	13098.7
572.626	13326.26
572.987	13461.62
573.349	13665.46
573.71	13887.15
574.071	14047.37
574.432	14291.43
574.794	14508.6
575.155	14643.74
575.516	14782.27
575.877	15020
576.238	15321.69
576.599	15475.58
576.96	15733.88
577.32	15832.18
577.681	16200.99
578.042	16466.06
578.403	16813.17
578.763	16900.86
579.124	17268.75
579.485	17590.1
579.845	18011.79
580.206	18162.97
580.566	18503.3
580.927	18785.1
581.287	19213.79
581.648	19390.96
582.008	19797.28
582.368	20084.73
582.728	20389.8
583.089	20769.23
583.449	21041.09
583.809	21427.74
584.169	21857.79
584.529	22176.87
584.889	22838.33
585.249	23071.09
585.609	23361.48
585.969	23914.23
586.329	24155.81
586.688	24691.84
587.048	25003.92
587.408	25564.81
587.768	25896.1
588.127	26319.36
588.487	26846.36
588.846	27311.65
589.206	27615.83
589.565	28006.78
589.925	28777.6
590.284	28955
590.643	29510.92
591.003	29987.97
591.362	30455.07
591.721	30999.02
592.08	31491.21
592.44	31947.92
592.799	32436.04
593.158	32862.02
593.517	33271.72
593.876	33879.39
594.235	34243.9
594.593	34743.55
594.952	35425.34
595.311	35743.3
595.67	36241.36
596.029	36914.79
596.387	37351.84
596.746	37747.54
597.104	38027.08
597.463	38564.01
597.822	39122.19
598.18	39432.01
598.538	39839.69
598.897	40674.92
599.255	40656.84
599.613	41653.2
599.972	41850.93
600.33	42263.13
600.688	42517.81
601.046	43092.03
601.404	43670.55
601.762	43866.47
602.12	44554.37
602.478	44837.3
602.836	45294.68
603.194	45345.3
603.552	45778.06
603.91	45994.78
604.268	46470.47
604.625	46719.73
604.983	47259.6
605.341	47279.94
605.698	47785.92
606.056	48167.83
606.413	48345.9
606.771	48730.98
607.128	48952.22
607.485	49059.11
607.843	49353.11
608.2	49672.65
608.557	49999.42
608.914	50204.16
609.272	50478.5
609.629	50644.83
609.986	50996.23
610.343	51028.32
610.7	51281.65
611.057	51479.15
611.414	51685.93
611.771	51785.14
612.127	51936.32
612.484	52168.18
612.841	52320.94
613.198	52322.97
613.554	52475.29
613.911	52755.28
614.267	52750.76
614.624	52909.17
614.98	52983.97
615.337	53285.66
615.693	53463.06
616.05	53395.04
616.406	53690.4
616.762	53604.75
617.118	53790.05
617.475	53746.67
617.831	53879.32
618.187	54035.25
618.543	54195.47
618.899	54408.57
619.255	54322.47
619.611	54372.19
619.967	54589.81
620.323	54618.06
620.678	54597.94
621.034	54557.72
621.39	54635.91
621.746	54680.43
622.101	54937.37
622.457	54763.59
622.812	54839.07
623.168	55058.04
623.523	55019.63
623.879	55194.09
624.234	54989.8
624.589	55129.91
624.945	55216.01
625.3	55229.34
625.655	55236.12
626.01	55293.52
626.365	55350.69
626.72	55333.06
627.075	55246.51
627.43	55365.15
627.785	55394.08
628.14	55458.71
628.495	55463.91
628.85	55468.2
629.205	55439.5
629.559	55693.96
629.914	55462.78
630.269	55515.88
630.623	55491.25
630.978	55410.35
631.332	55618.03
631.687	55653.73
632.041	55457.81
632.396	55549.56
632.75	55425.04
633.104	55519.27
633.459	55398.15
633.813	55463
634.167	55444.02
634.521	55522.21
634.875	55544.13
635.229	55454.19
635.583	55338.49
635.937	55383.46
636.291	55368.54
636.645	55346.17
636.999	55336.45
637.352	55465.94
637.706	55247.19
638.06	55384.14
638.413	55318.38
638.767	55291.48
639.121	55348.88
639.474	55192.28
639.828	55186.63
640.181	55318.38
640.534	55285.61
640.888	55138.72
641.241	55201.09
641.594	55244.03
641.947	55266.4
642.301	55176.01
642.654	55172.84
643.007	55213.97
643.36	55168.78
643.713	55192.73
644.066	55199.96
644.419	55096.69
644.771	54875.68
645.124	54692.4
645.477	54644.27
645.83	54443.82
646.182	54279.76
646.535	54273.21
646.888	54404.28
647.24	54228.46
647.593	54409.25
647.945	54316.37
648.298	54206.09
648.65	54178.74
649.002	54082.7
649.355	54274.56
649.707	54184.39
650.059	54277.05
650.411	54692.86
650.763	54669.13
651.115	54962
651.467	54933.98
651.819	54837.26
652.171	54820.31
652.523	54714.55
652.875	54804.27
653.227	54747.32
653.578	54849.69
653.93	54829.12
654.282	54711.16
654.633	54573.99
654.985	54671.61
655.337	54747.77
655.688	54762.46
656.039	54802.23
656.391	54542.13
656.742	54634.33
657.094	54652.18
657.445	54818.95
657.796	54693.99
658.147	54712.74
658.498	54668.45
658.849	54710.03
659.2	54644.04
659.551	54604.95
659.902	54671.61
660.253	54548.23
660.604	54673.65
660.955	54509.81
661.306	54628.45
661.656	54554.78
662.007	54647.43
662.358	54564.72
662.708	54627.32
663.059	54556.59
663.409	54386.65
663.76	54670.94
664.11	54672.74
664.461	54614.21
664.811	54555.68
665.161	54580.77
665.511	54534.44
665.862	54580.54
666.212	54583.71
666.562	54649.92
666.912	54483.82
667.262	54421.22
667.612	54499.64
667.962	54435.01
668.312	54429.13
668.662	54533.99
669.011	54458.29
669.361	54412.41
669.711	54412.19
670.06	54333.77
670.41	54344.39
670.76	54256.93
671.109	54343.71
671.459	54351.17
671.808	54235.24
672.157	54366.99
672.507	54055.81
672.856	54121.57
673.205	54204.73
673.554	54179.65
673.904	54130.61
674.253	54346.2
674.602	54150.27
674.951	53743.73
675.3	53620.34
675.649	54052.65
675.998	54001.35
676.346	54015.59
676.695	54200.21
677.044	53847.45
677.393	53968.35
677.741	54013.1
678.09	53843.61
678.438	53870.73
678.787	53928.36
679.135	53876.38
679.484	53654.92
679.832	53839.09
680.181	53617.18
680.529	53690.4
680.877	53705.09
681.225	53668.48
681.573	53763.84
681.922	53480.91
682.27	53432.1
682.618	53514.36
682.966	53462.38
683.314	53415.83
683.661	53335.38
684.009	53244.31
684.357	53184.19
684.705	53128.6
685.053	53127.7
685.4	53188.04
685.748	53007.48
686.095	52909.63
686.443	52887.71
686.79	52915.73
687.138	52940.13
687.485	52931.55
687.832	52738.1
688.18	52775.17
688.527	52474.16
688.874	52591.67
689.221	52545.12
689.568	52412.92
689.915	52329.75
690.262	52336.53
690.609	52276.42
690.956	52098.35
691.303	52137.22
691.65	51936.77
691.997	52009.08
692.344	51758.24
692.69	51697.91
693.037	51713.05
693.383	51510.79
693.73	51611.35
694.077	51393.06
694.423	51344.02
694.769	51346.05
695.116	51199.84
695.462	51207.98
695.808	50961.65
696.155	51156.9
696.501	50793.07
696.847	50864.93
697.193	50515.34
697.539	50758.5
697.885	50422.23
698.231	50319.41
698.577	50278.73
698.923	50332.97
699.269	50079.64
699.614	49884.85
699.96	49893.43
700.306	49889.37
700.651	49702.93
700.997	49649.82
701.342	49552.2
701.688	49591.29
702.033	49340.91
702.379	49354.46
702.724	49193.34
703.069	49269.5
703.415	48819.56
703.76	48864.08
704.105	48908.83
704.45	48762.84
704.795	48531.66
705.14	48405.11
705.485	48321.05
705.83	48218.9
706.175	48288.5
706.52	48116.31
706.865	47991.11
707.209	47883.54
707.554	47708.18
707.899	47910.89
708.243	47557.22
708.588	47491.01
708.932	47345.93
709.277	47279.94
709.621	47291.02
709.966	47070.01
710.31	47230
710.654	46771.93
710.998	46997.24
711.342	46882.44
711.687	46796.34
712.031	46640.64
712.375	46517.25
712.719	46636.57
713.063	46468.89
713.407	46492.62
713.75	46325.84
714.094	46267.54
714.438	46115.68
714.782	46225.06
715.125	46039.75
715.469	46178.73
715.812	45778.51
716.156	45715.46
716.499	45671.85
716.843	45690.61
717.186	45405.87
717.53	45733.54
717.873	45619.2
718.216	45369.71
718.559	45270.5
718.902	45157.06
719.246	45130.4
719.589	45043.17
719.932	44920.68
720.275	44894.24
720.617	44861.93
720.96	44789.39
721.303	44760.01
721.646	44838.2
721.989	44516.17
722.331	44790.97
722.674	44621.03
723.016	44686.34
723.359	44573.12
723.701	44480.69
724.044	44210.42
724.386	44055.4
724.729	44438.44
725.071	44128.61
725.413	44259.46
725.755	44057.43
726.097	43833.03
726.439	43780.6
726.782	43903.99
727.124	44044.77
727.465	43878.45
727.807	43784.22
728.149	43708.06
728.491	43613.82
728.833	43621.73
729.175	43558.23
729.516	43417.67
729.858	43458.35
730.199	43488.18
730.541	43291.12
730.882	43261.97
731.224	43393.72
731.565	43145.36
731.906	43198.02
732.248	43151.01
732.589	43006.16
732.93	42856.33
733.271	42890.45
733.612	42901.3
733.953	42965.25
734.294	42823.79
734.635	42756.45
734.976	42930.91
735.317	42596.68
735.658	42484.14
735.999	42674.19
736.339	42576.11
736.68	42662.44
737.021	42595.32
737.361	42427.87
737.702	42487.3
738.042	42389.22
738.383	42297.25
738.723	42411.82
739.063	42250.7
739.404	42209.57
739.744	42183.58
740.084	42103.13
740.424	42143.81
740.764	41899.52
741.104	42045.28
741.444	41803.03
741.784	41880.99
742.124	42013.87
742.464	41822.01
742.804	41611.17
743.143	41621.11
743.483	41721.22
743.823	41474.67
744.162	41460.66
744.502	41568.23
744.841	41465.41
745.181	41587.21
745.52	41425.63
745.86	41444.16
746.199	41308.12
746.538	41245.98
746.877	41378.18
747.216	41394
747.556	41105.87
747.895	41278.07
748.234	41041.24
748.573	40951.52
748.911	40874.24
749.25	40811.86
749.589	40742.49
749.928	40868.81
750.267	40861.58
750.605	40711.98
750.944	40718.76
751.283	40445.77
751.621	40486.9
751.96	40370.97
752.298	40344.31
752.636	40342.72
752.975	40095.73
753.313	40102.28
753.651	40174.82
753.989	39922.62
754.327	39935.96
754.666	39851.89
755.004	39786.81
755.342	39938.44
755.679	39708.84
756.017	39456.19
756.355	39679.92
756.693	39497.78
757.031	39524.89
757.368	39279.7
757.706	39259.82
758.044	39116.32
758.381	39130.1
758.719	39104.79
759.056	39018.47
759.394	38799.49
759.731	38563.11
760.068	38606.72
760.405	38375.32
760.743	38350.23
761.08	38381.87
761.417	38093.74
761.754	38087.42
762.091	38115.21
762.428	37919.51
762.765	37632.51
763.102	37806.07
763.438	37687.2
763.775	37501.67
764.112	37425.74
764.449	37359.3
764.785	37383.03
765.122	37171.96
765.458	36991.85
765.795	36901.46
766.131	36648.36
766.467	36662.14
766.804	36542.37
767.14	36303.73
767.476	36444.07
767.812	36139.67
768.148	36360.91
768.485	36017.19
768.821	35897.64
769.157	35792.11
769.492	35707.37
769.828	35662.85
770.164	35339.24
770.5	35325.46
770.836	35345.34
771.171	35078.91
771.507	34999.81
771.842	34852.93
772.178	34785.58
772.513	34681.18
772.849	34567.51
773.184	34421.75
773.519	34549.2
773.855	34275.77
774.19	34146.96
774.525	34036.22
774.86	34045.71
775.195	33926.17
775.53	33642.11
775.865	33594.65
776.2	33310.82
776.535	33172.52
776.87	33134.55
777.205	32927.1
777.539	32812.08
777.874	32859.53
778.209	32703.83
778.543	32605.07
778.878	32314.24
779.212	32310.17
779.547	32240.34
779.881	32355.14
780.215	31975.71
780.55	32177.52
780.884	31853.46
781.218	31741.14
781.552	31729.17
781.886	31582.28
782.22	31399.68
782.554	31242.62
782.888	31121.72
783.222	31094.15
783.556	30905.46
783.889	30695.07
784.223	30584.79
784.557	30608.29
784.89	30677.67
785.224	30386.15
785.557	30150.9
785.891	30155.87
786.224	30133.95
786.558	30074.07
786.891	29729.22
787.224	29669.78
787.557	29624.36
787.891	29621.2
788.224	29619.84
788.557	29474.76
788.89	29400.64
789.223	29244.71
789.556	29139.63
789.888	28945.74
790.221	28946.87
790.554	28733.54
790.887	28771.96
791.219	28670.72
791.552	28522.92
791.884	28439.08
792.217	28251.52
792.549	28054.46
792.882	27943.5
793.214	27920.68
793.546	28010.85
793.879	27789.83
794.211	27647.92
794.543	27694.92
794.875	27585.55
795.207	27608.14
795.539	27416.74
795.871	27331.99
796.203	27198.21
796.535	26960.03
796.867	27064.2
797.198	26940.82
797.53	26891.33
797.862	26684.55
798.193	26747.38
798.525	26557.32
798.856	26533.37
799.188	26328.86
799.519	26206.83
799.85	26097.45
800.182	26105.13
800.513	26232.81
800.844	25799.6
801.175	26084.57
801.506	26033.27
801.837	25770.9
802.168	25737.01
802.499	25687.74
802.83	25567.29
803.161	25543.57
803.491	25428.77
803.822	25396
804.153	25382.89
804.483	25075.1
804.814	25087.08
805.145	24989.46
805.475	25108.77
805.805	24898.16
806.136	24890.7
806.466	24800.99
806.796	24874.43
807.126	24605.06
807.457	24466.08
807.787	24553.54
808.117	24433.09
808.447	24410.71
808.777	24540.43
809.107	24316.25
809.436	24271.28
809.766	24144.05
810.096	24099.76
810.426	23921.01
810.755	24029.03
811.085	23936.38
811.414	23872.88
811.744	23673.56
812.073	23665.42
812.403	23617.06
812.732	23425.43
813.061	23504.75
813.39	23313.34
813.719	23280.12
814.049	23376.62
814.378	23368.26
814.707	23167.58
815.036	23114.25
815.365	23055.72
815.693	22824.32
816.022	22925.33
816.351	22733.02
816.68	22682.4
817.008	22681.27
817.337	22610.76
817.665	22519.46
817.994	22660.25
818.322	22564.89
818.651	22400.37
818.979	22365.57
819.307	22409.41
819.636	22322.41
819.964	22155.63
820.292	22317.21
820.62	22185.46
820.948	22075.86
821.276	22194.28
821.604	22102.53
821.932	22189.98
822.259	22151.79
822.587	22116.09
822.915	21955.64
823.243	22137.55
823.57	22035.41
823.898	22154.73
824.225	22012.81
824.553	21965.58
824.88	22022.08
825.207	22182.52
825.535	21980.5
825.862	22059.14
826.189	21945.92
826.516	22083.77
826.843	22161.28
827.17	22053.26
827.497	21982.53
827.824	22011.46
828.151	22118.34
828.478	21979.37
828.805	22135.52
829.131	21933.49
829.458	21893.49
829.785	21884.45
830.111	21937.56
830.438	22033.38
830.764	21980.95
831.09	21990.44
831.417	21883.55
831.743	21979.59
832.069	21800.61
832.395	21843.1
832.722	21957.22
833.048	21787.73
833.374	21879.71
833.7	21769.43
834.026	21703.67
834.351	21806.04
834.677	21654.4
835.003	21783.89
835.329	21790.44
835.654	21709.54
835.98	21519.04
836.306	21584.8
836.631	21530.56
836.956	21717.45
837.282	21666.15
837.607	21504.58
837.932	21454.86
838.258	21483.11
838.583	21406.5
838.908	21224.13
839.233	21314.52
839.558	21294.86
839.883	21216.22
840.208	21154.3
840.533	21159.95
840.858	21207.18
841.182	21136.45
841.507	21107.07
841.832	20992.5
842.156	20995.21
842.481	20928.77
842.805	20882.45
843.13	20835.44
843.454	20849.45
843.778	20773.07
844.103	20625.28
844.427	20650.13
844.751	20709.57
845.075	20671.83
845.399	20538.05
845.723	20453.08
846.047	20380.99
846.371	20163.82
846.695	20319.75
847.019	19979.64
847.343	20070.49
847.666	19988.68
847.99	19819.42
848.313	19860.33
848.637	19703.27
848.96	19766.54
849.284	19593.67
849.607	19486.1
849.931	19520
850.254	19386.21
850.577	19202.72
850.9	19066.45
851.223	19065.09
851.546	19018.54
851.869	18912.55
852.192	18963.85
852.515	18812.44
852.838	18723.18
853.161	18725.89
853.483	18670.98
853.806	18520.02
854.129	18480.25
854.451	18491.77
854.774	18312.34
855.096	18231.89
855.419	18205.91
855.741	18153.7
856.063	18003.42
856.385	17990.32
856.708	17885.24
857.03	17868.06
857.352	17829.87
857.674	17756.2
857.996	17769.08
858.318	17659.71
858.64	17687.28
858.961	17614.51
859.283	17577.22
859.605	17467.39
859.926	17545.58
860.248	17509.2
860.57	17351.24
860.891	17431.46
861.212	17269.21
861.534	17255.65
861.855	17255.65
862.176	17215.42
862.498	17108.31
862.819	17160.51
863.14	17099.72
863.461	17010
863.782	16920.06
864.103	16979.95
864.424	16995.09
864.745	17113.73
865.065	16950.8
865.386	16842.55
865.707	16806.39
866.027	16754.19
866.348	16757.58
866.668	16715.1
866.989	16689.79
867.309	16596.23
867.63	16645.72
867.95	16667.64
868.27	16552.16
868.59	16471.04
868.91	16413.86
869.23	16389
869.55	16288.67
869.87	16424.94
870.19	16379.96
870.51	16307.42
870.83	16352.39
871.15	16221.78
871.469	16254.32
871.789	16280.76
872.109	16276.24
872.428	16159.18
872.748	16175.22
873.067	16122.8
873.386	16158.95
873.706	16174.32
874.025	15996.92
874.344	16052.29
874.663	16027.66
874.982	15907.66
875.301	15952.18
875.62	15806.65
875.939	15899.3
876.258	15866.53
876.577	15779.08
876.896	15780.88
877.214	15781.56
877.533	15768.23
877.852	15734.33
878.17	15727.33
878.489	15798.96
878.807	15673.32
879.125	15692.75
879.444	15584.28
879.762	15556.26
880.08	15531.85
880.398	15518.29
880.716	15423.15
881.034	15477.16
881.352	15452.98
881.67	15485.3
881.988	15484.4
882.306	15381.8
882.624	15325.08
882.941	15229.49
883.259	15161.24
883.577	15146.55
883.894	15129.38
884.212	15115.37
884.529	15142.48
884.846	15105.42
885.164	14973
885.481	14954.47
885.798	14991.53
886.115	14863.85
886.432	14914.24
886.75	14758.31
887.067	14837.86
887.383	14758.76
887.7	14774.81
888.017	14726.22
888.334	14705.66
888.651	14672.67
888.967	14539.11
889.284	14486.91
889.6	14485.1
889.917	14425.21
890.233	14425.67
890.55	14412.56
890.866	14426.8
891.182	14279.91
891.498	14237.65
891.815	14103.41
892.131	14152.68
892.447	14100.25
892.763	14009.86
893.079	14080.14
893.395	14014.38
893.71	14014.38
894.026	13929.18
894.342	13863.87
894.657	13810.77
894.973	13787.04
895.289	13776.87
895.604	13740.03
895.92	13655.97
896.235	13609.87
896.55	13580.49
896.865	13516.76
897.181	13492.58
897.496	13467.72
897.811	13411.23
898.126	13271.57
898.441	13239.71
898.756	13326.26
899.071	13151.8
899.386	13192.25
899.7	13037.68
900.015	13010.34
900.33	12926.04
900.644	12919.72
900.959	12967.63
901.273	12895.76
901.588	12819.15
901.902	12746.84
902.216	12731.93
902.531	12718.37
902.845	12596.56
903.159	12566.96
903.473	12507.98
903.787	12479.5
904.101	12430.46
904.415	12415.55
904.729	12430.01
905.042	12232.73
905.356	12242.45
905.67	12245.84
905.984	12207.87
906.297	12195.67
906.611	12092.85
906.924	12059.17
907.237	11931.27
907.551	11980.98
907.864	11913.87
908.177	11750.93
908.491	11811.27
908.804	11721.33
909.117	11702.8
909.43	11636.13
909.743	11559.98
910.056	11563.82
910.368	11470.49
910.681	11393.88
910.994	11417.84
911.307	11357.05
911.619	11312.75
911.932	11281.12
912.244	11209.48
912.557	11189.82
912.869	11093.32
913.181	11063.27
913.494	11120.22
913.806	10956.38
914.118	10908.47
914.43	10868.47
914.742	10847.23
915.054	10759.77
915.366	10827.34
915.678	10701.02
915.99	10735.14
916.302	10628.48
916.613	10575.82
916.925	10499.22
917.236	10552.55
917.548	10411.53
917.859	10496.73
918.171	10324.08
918.482	10288.6
918.794	10199.56
919.105	10230.3
919.416	10161.37
919.727	10148.49
920.038	10082.96
920.349	9981.04
920.66	10042.5
920.971	10024.65
921.282	9957.53
921.593	9918.89
921.903	9842.74
922.214	9853.58
922.525	9824.88
922.835	9716.86
923.146	9623.98
923.456	9646.58
923.767	9532.69
924.077	9552.12
924.387	9509.41
924.697	9461.95
925.008	9420.37
925.318	9381.28
925.628	9283.43
925.938	9307.38
926.248	9234.16
926.558	9235.29
926.867	9158.46
927.177	9077.56
927.487	9059.25
927.796	8992.59
928.106	8976.32
928.416	9025.36
928.725	8961.18
929.034	8867.39
929.344	8842.54
929.653	8900.16
929.962	8773.84
930.271	8774.52
930.581	8699.94
930.89	8630.56
931.199	8585.59
931.508	8572.94
931.817	8570.68
932.125	8559.38
932.434	8506.27
932.743	8471.92
933.051	8393.51
933.36	8432.38
933.669	8284.13
933.977	8271.03
934.286	8261.53
934.594	8265.83
934.902	8202.55
935.21	8139.28
935.519	8139.5
935.827	8079.62
936.135	8010.69
936.443	7953.07
936.751	7930.92
937.059	7885.05
937.367	7841.88
937.674	7916.46
937.982	7833.75
938.29	7829.68
938.597	7847.53
938.905	7708.55
939.213	7614.77
939.52	7660.42
939.827	7630.82
940.135	7555.11
940.442	7502.68
940.749	7541.33
941.056	7547.2
941.363	7407.77
941.67	7429.92
941.977	7376.59
942.284	7300.66
942.591	7314.89
942.898	7220.66
943.205	7225.63
943.511	7214.1
943.818	7192.86
944.125	7165.29
944.431	7122.36
944.738	7124.84
945.044	7015.69
945.35	7084.16
945.657	7024.28
945.963	6965.75
946.269	6940.21
946.575	6918.07
946.881	6903.15
947.187	6950.16
947.493	6830.84
947.799	6831.97
948.105	6721.46
948.41	6735.25
948.716	6705.42
949.022	6709.26
949.327	6662.03
949.633	6625.64
949.938	6585.42
950.244	6556.04
950.549	6502.03
950.854	6455.93
951.16	6491.41
951.465	6430.17
951.77	6405.99
952.075	6351.53
952.38	6392.2
952.685	6348.82
952.99	6282.83
953.294	6297.52
953.599	6277.41
953.904	6210.29
954.209	6208.03
954.513	6192.89
954.818	6138.43
955.122	6133.23
955.426	6090.07
955.731	6024.98
956.035	6047.58
956.339	6026.56
956.643	5921.93
956.948	5941.6
957.252	5937.98
957.556	5892.33
957.86	5903.86
958.163	5852.33
958.467	5819.56
958.771	5734.14
959.075	5808.94
959.378	5736.4
959.682	5686.91
959.985	5688.04
960.289	5639
960.592	5615.73
960.896	5628.61
961.199	5608.72
961.502	5535.5
961.805	5513.58
962.108	5476.97
962.411	5504.32
962.714	5413.7
963.017	5435.85
963.32	5419.8
963.623	5330.99
963.926	5329.86
964.228	5323.76
964.531	5347.26
964.833	5292.12
965.136	5280.6
965.438	5189.52
965.741	5190.65
966.043	5191.11
966.345	5124.89
966.648	5133.03
966.95	5096.87
967.252	5104.1
967.554	5062.52
967.856	5075.4
968.158	5017.78
968.46	5048.96
968.761	4931
969.063	4979.13
969.365	4913.15
969.666	4933.49
969.968	4888.74
970.269	4853.49
970.571	4856.88
970.872	4853.26
971.174	4799.25
971.475	4791.34
971.776	4784.56
972.077	4743.21
972.378	4765.13
972.679	4734.17
972.98	4695.75
973.281	4680.61
973.582	4644
973.883	4625.7
974.183	4589.54
974.484	4632.7
974.785	4557
975.085	4495.53
975.386	4589.31
975.686	4531.01
975.986	4470
976.287	4455.98
976.587	4397
976.887	4396.1
977.187	4386.38
977.487	4394.97
977.787	4353.61
978.087	4297.12
978.387	4326.95
978.687	4321.07
978.987	4282.2
979.286	4263.45
979.586	4223.45
979.885	4203.11
980.185	4177.12
980.484	4173.28
980.784	4170.79
981.083	4105.03
981.382	4129.44
981.682	4119.04
981.981	4085.6
982.28	4076.79
982.579	3989.1
982.878	4043.11
983.177	3997.24
983.475	4019.39
983.774	3944.59
984.073	3947.98
984.372	3931.48
984.67	3945.72
984.969	3875.66
985.267	3893.06
985.566	3858.26
985.864	3806.51
986.162	3823.46
986.461	3786.85
986.759	3773.29
987.057	3757.92
987.355	3755.44
987.653	3751.82
987.951	3675.67
988.249	3714.76
988.547	3684.25
988.844	3686.29
989.142	3647.42
989.44	3658.49
989.737	3606.97
990.035	3627.31
990.332	3562.67
990.63	3592.96
990.927	3570.13
991.224	3518.16
991.521	3517.03
991.819	3477.25
992.116	3460.76
992.413	3476.8
992.71	3406.75
993.006	3385.05
993.303	3414.2
993.6	3407.65
993.897	3365.39
994.193	3371.72
994.49	3311.83
994.787	3319.07
995.083	3340.08
995.379	3309.35
995.676	3284.72
995.972	3267.09
996.268	3229.35
996.565	3234.77
996.861	3212.4
997.157	3192.97
997.453	3183.7
997.749	3164.27
998.044	3095.34
998.34	3138.05
998.636	3108.45
998.932	3109.35
999.227	3061.44
999.523	3075.23
999.818	3059.41
1000.114	3013.08
1000.409	2996.14
1000.704	2971.05
1001	2986.42
1001.295	2969.02
1001.59	2964.72
1001.885	2954.1
1002.18	2885.63
1002.475	2882.24
1002.77	2858.06
1003.065	2861.45
1003.359	2811.96
1003.654	2855.57
1003.949	2799.3
1004.243	2801.34
1004.538	2794.79
1004.832	2801.11
1005.127	2734.45
1005.421	2755.01
1005.715	2729.02
1006.009	2726.76
1006.304	2675.24
1006.598	2662.36
1006.892	2665.52
1007.186	2635.47
1007.48	2644.28
1007.773	2608.58
1008.067	2601.8
1008.361	2556.83
1008.655	2546.88
1008.948	2552.31
1009.242	2506.21
1009.535	2504.85
1009.829	2529.71
1010.122	2465.53
1010.415	2482.25
1010.708	2443.38
1011.001	2432.53
1011.295	2421.01
1011.588	2432.31
1011.881	2413.33
1012.173	2379.65
1012.466	2387.56
1012.759	2381.91
1013.052	2340.33
1013.344	2343.95
1013.637	2284.52
1013.93	2276.83
1014.222	2292.2
1014.514	2297.4
1014.807	2267.57
1015.099	2216.95
1015.391	2224.18
1015.683	2221.69
1015.976	2205.42
1016.268	2171.98
1016.56	2149.83
1016.851	2157.06
1017.143	2121.81
1017.435	2101.02
1017.727	2117.06
1018.018	2101.24
1018.31	2074.58
1018.602	2060.57
1018.893	2062.15
1019.185	2044.3
1019.476	2017.4
1019.767	2018.08
1020.058	1985.99
1020.35	2005.88
1020.641	1959.33
1020.932	1969.72
1021.223	1959.78
1021.514	1920.01
1021.804	1902.15
1022.095	1920.46
1022.386	1901.93
1022.677	1893.34
1022.967	1872.32
1023.258	1853.34
1023.548	1844.3
1023.839	1803.62
1024.129	1818.77
1024.419	1787.58
1024.709	1789.39
1025	1786
1025.29	1742.84
1025.58	1761.14
1025.87	1740.12
1026.16	1716.62
1026.449	1755.26
1026.739	1698.09
1027.029	1705.1
1027.319	1679.33
1027.608	1674.36
1027.898	1680.69
1028.187	1668.71
1028.477	1609.28
1028.766	1624.19
1029.055	1588.72
1029.344	1590.52
1029.634	1566.12
1029.923	1555.27
1030.212	1588.04
1030.501	1573.8
1030.79	1535.38
1031.078	1531.32
1031.367	1523.63
1031.656	1506.68
1031.945	1511.88
1032.233	1489.28
1032.522	1489.51
1032.81	1461.94
1033.099	1456.52
1033.387	1460.81
1033.675	1442.5
1033.963	1436.85
1034.251	1429.4
1034.54	1424.65
1034.828	1403.18
1035.116	1395.5
1035.403	1357.53
1035.691	1347.37
1035.979	1355.05
1036.267	1341.72
1036.554	1336.52
1036.842	1301.94
1037.129	1328.16
1037.417	1344.65
1037.704	1279.34
1037.992	1303.07
1038.279	1298.33
1038.566	1257.2
1038.853	1257.2
1039.14	1257.2
