Data from orange_diffuse_book_FLMS001491_00100.txt Node
Date: Wed Feb 08 15:30:20 GMT 2017
User: dcchb
Spectrometer: FLMS00149
Trigger mode: 0
Integration Time (sec): 2.000000E-2
Scans to average: 10
Electric dark correction enabled: true
Nonlinearity correction enabled: false
Boxcar width: 0
XAxis mode: Wavelengths
Number of Pixels in Spectrum: 2048
>>>>>Begin Spectral Data<<<<<
341.393	-9.46
341.776	-9.46
342.16	-9.46
342.543	-38.61
342.927	-68.67
343.31	-52.85
343.693	-69.12
344.077	-67.99
344.46	-72.06
344.843	-51.27
345.226	-38.61
345.61	-32.51
345.993	-11.5
346.376	-16.24
346.759	8.16
347.142	21.5
347.525	47.48
347.908	57.43
348.291	65.56
348.674	99.46
349.057	112.57
349.44	138.56
349.823	172
350.206	159.57
350.588	207.48
350.971	237.54
351.354	234.37
351.737	246.58
352.119	276.41
352.502	277.31
352.884	285.9
353.267	298.55
353.65	296.07
354.032	346.91
354.414	332.67
354.797	364.09
355.179	347.59
355.562	334.03
355.944	339.91
356.326	343.52
356.709	368.61
357.091	353.01
357.473	346.23
357.855	362.73
358.238	369.51
358.62	356.63
359.002	352.79
359.384	350.3
359.766	355.95
360.148	362.28
360.53	358.44
360.912	362.96
361.294	364.31
361.676	350.3
362.057	327.48
362.439	353.47
362.821	341.94
363.203	344.65
363.584	352.34
363.966	354.37
364.348	361.37
364.729	367.93
365.111	340.13
365.493	331.77
365.874	329.51
366.256	353.47
366.637	331.54
367.019	328.16
367.4	332.67
367.781	322.51
368.163	331.54
368.544	331.32
368.925	319.12
369.306	327.48
369.688	346.01
370.069	328.61
370.45	330.64
370.831	337.65
371.212	330.19
371.593	319.12
371.974	353.69
372.355	343.3
372.736	339.45
373.117	332
373.498	309.4
373.879	334.71
374.26	334.03
374.641	321.6
375.021	329.74
375.402	345.78
375.783	366.12
376.163	354.37
376.544	362.73
376.925	358.44
377.305	350.98
377.686	342.62
378.066	325.67
378.447	355.73
378.827	354.37
379.208	363.63
379.588	344.2
379.968	368.61
380.349	366.35
380.729	357.08
381.109	353.01
381.489	349.4
381.87	361.15
382.25	362.28
382.63	355.5
383.01	379.68
383.39	348.95
383.77	369.74
384.15	378.1
384.53	381.26
384.91	360.92
385.29	361.15
385.67	358.66
386.049	362.73
386.429	382.17
386.809	380.36
387.189	378.78
387.568	398.66
387.948	385.78
388.328	366.8
388.707	378.32
389.087	371.32
389.466	367.25
389.846	382.17
390.225	387.36
390.605	392.11
390.984	394.82
391.363	409.51
391.743	425.55
392.122	392.56
392.501	388.94
392.881	389.85
393.26	402.96
393.639	406.57
394.018	403.63
394.397	416.74
394.776	395.72
395.155	409.06
395.534	395.27
395.913	396.63
396.292	409.06
396.671	419.23
397.05	410.86
397.429	427.14
397.808	410.41
398.186	421.49
398.565	419.68
398.944	413.58
399.323	426.23
399.701	418.55
400.08	431.2
400.458	427.59
400.837	444.08
401.215	422.16
401.594	435.27
401.972	446.57
402.351	431.43
402.729	444.99
403.107	452.9
403.486	432.56
403.864	427.81
404.242	458.77
404.62	463.74
404.999	459.68
405.377	459.9
405.755	448.83
406.133	456.74
406.511	455.38
406.889	475.72
407.267	466.91
407.645	482.95
408.023	473.01
408.401	467.81
408.779	484.08
409.156	479.79
409.534	471.43
409.912	484.08
410.29	478.43
410.667	514.14
411.045	515.04
411.422	495.38
411.8	511.43
412.178	511.2
412.555	510.75
412.933	540.58
413.31	514.59
413.687	528.15
414.065	524.31
414.442	529.51
414.819	541.03
415.197	526.34
415.574	544.87
415.951	545.1
416.328	544.65
416.705	562.73
417.082	566.12
417.46	558.66
417.837	560.92
418.214	558.66
418.591	562.27
418.967	562.5
419.344	561.6
419.721	586.91
420.098	583.06
420.475	581.93
420.852	557.3
421.228	632.55
421.605	599.11
421.982	596.4
422.358	596.62
422.735	615.61
423.111	616.74
423.488	642.5
423.864	616.51
424.241	630.07
424.617	626.23
424.994	618.54
425.37	639.79
425.746	647.24
426.123	641.37
426.499	646.56
426.875	642.27
427.251	659.22
427.627	674.13
428.003	665.1
428.379	673.23
428.756	681.59
429.132	697.64
429.507	686.79
429.883	690.18
430.259	709.39
430.635	717.52
431.011	713
431.387	723.63
431.763	740.12
432.138	742.16
432.514	755.04
432.89	748.48
433.265	773.57
433.641	771.31
434.016	769.5
434.392	768.6
434.767	781.93
435.143	791.87
435.518	795.26
435.894	800.01
436.269	799.78
436.644	798.65
437.02	823.74
437.395	817.63
437.77	828.03
438.145	840.23
438.52	840.23
438.895	863.73
439.271	850.85
439.646	873.9
440.021	868.25
440.395	854.47
440.77	858.99
441.145	897.41
441.52	887.91
441.895	870.97
442.27	894.69
442.645	905.77
443.019	937.63
443.394	910.51
443.769	901.25
444.143	892.66
444.518	907.8
444.892	896.5
445.267	937.18
445.641	939.44
446.016	922.04
446.39	939.44
446.764	934.69
447.139	976.73
447.513	948.48
447.887	922.72
448.262	950.51
448.636	931.98
449.01	966.33
449.384	985.54
449.758	972.66
450.132	988.25
450.506	965.43
450.88	994.58
451.254	1009.04
451.628	1003.39
452.002	989.38
452.376	995.48
452.75	1013.33
453.123	1036.16
453.497	1014.46
453.871	1054.92
454.244	1039.32
454.618	1049.94
454.992	1065.54
455.365	1071.64
455.739	1075.71
456.112	1112.54
456.486	1077.97
456.859	1103.5
457.232	1109.38
457.606	1123.39
457.979	1153.44
458.352	1143.73
458.725	1160
459.099	1155.03
459.472	1182.82
459.845	1159.32
460.218	1176.72
460.591	1175.59
460.964	1195.48
461.337	1172.65
461.71	1213.56
462.083	1218.98
462.456	1236.15
462.829	1223.27
463.201	1236.83
463.574	1256.72
463.947	1288.58
464.32	1252.42
464.692	1270.05
465.065	1262.14
465.438	1319.32
465.81	1362.93
466.183	1322.25
466.555	1343.72
466.928	1358.64
467.3	1353.89
467.672	1364.74
468.045	1391.4
468.417	1380.78
468.789	1394.79
469.161	1395.7
469.534	1388.92
469.906	1437.28
470.278	1475.24
470.65	1449.26
471.022	1476.83
471.394	1503.49
471.766	1491.29
472.138	1511.63
472.51	1564.51
472.882	1575.35
473.253	1585.75
473.625	1575.13
473.997	1647.22
474.369	1613.55
474.74	1626.2
475.112	1651.74
475.484	1700.77
475.855	1706.42
476.227	1710.94
476.598	1678.85
476.97	1753.88
477.341	1769.25
477.713	1802.47
478.084	1814.67
478.455	1827.32
478.827	1863.71
479.198	1907.1
479.569	1921.11
479.94	1972.41
480.311	1965.63
480.682	1998.62
481.053	2032.52
481.424	2043.36
481.795	2070.26
482.166	2119.29
482.537	2148.9
482.908	2187.54
483.279	2230.48
483.65	2277.48
484.021	2259.63
484.391	2273.87
484.762	2303.47
485.133	2349.8
485.503	2383.24
485.874	2411.49
486.244	2424.6
486.615	2460.3
486.985	2516.35
487.356	2554.76
487.726	2559.28
488.097	2605.84
488.467	2627.98
488.837	2701.2
489.207	2710.01
489.578	2773.29
489.948	2801.08
490.318	2848.77
490.688	2868.43
491.058	2888.77
491.428	2913.85
491.798	2974.19
492.168	3057.35
492.538	3049.44
492.908	3088.53
493.278	3148.65
493.648	3151.58
494.017	3159.72
494.387	3220.96
494.757	3266.16
495.126	3287.63
495.496	3299.83
495.866	3353.61
496.235	3425.47
496.605	3403.33
496.974	3424.12
497.344	3474.51
497.713	3540.5
498.082	3575.98
498.452	3538.92
498.821	3595.19
499.19	3646.94
499.559	3660.05
499.928	3746.37
500.298	3749.99
500.667	3764.45
501.036	3794.73
501.405	3843.09
501.774	3860.27
502.143	3907.5
502.512	3891
502.88	3945.01
503.249	3933.48
503.618	4010.09
503.987	4046.7
504.356	4021.62
504.724	4108.39
505.093	4115.17
505.462	4152.01
505.83	4196.75
506.199	4247.15
506.567	4283.08
506.936	4259.8
507.304	4326.69
507.672	4320.82
508.041	4372.57
508.409	4403.98
508.777	4432.91
509.145	4460.48
509.514	4493.92
509.882	4498.44
510.25	4553.35
510.618	4583.41
510.986	4599
511.354	4641.04
511.722	4673.13
512.09	4761.03
512.458	4730.75
512.826	4749.96
513.193	4803.29
513.561	4828.15
513.929	4863.86
514.297	4929.16
514.664	4915.15
515.032	4972.78
515.4	5030.86
515.767	5060.91
516.135	5076.73
516.502	5061.14
516.869	5114.02
517.237	5167.12
517.604	5170.51
517.972	5193.11
518.339	5244.41
518.706	5278.99
519.073	5276.5
519.44	5371.19
519.808	5392.65
520.175	5433.33
520.542	5438.76
520.909	5507.68
521.276	5516.04
521.643	5577.06
522.009	5599.88
522.376	5627.68
522.743	5647.11
523.11	5726.88
523.477	5774.79
523.843	5826.09
524.21	5830.38
524.577	5912.64
524.943	5920.1
525.31	5986.31
525.676	6019.76
526.043	6021.11
526.409	6038.74
526.776	6177.49
527.142	6169.58
527.508	6174.1
527.874	6199.41
528.241	6276.93
528.607	6287.55
528.973	6301.56
529.339	6325.74
529.705	6406.64
530.071	6444.15
530.437	6473.53
530.803	6502.46
531.169	6563.47
531.535	6520.76
531.901	6577.93
532.267	6597.37
532.632	6619.52
532.998	6637.14
533.364	6655.67
533.73	6771.38
534.095	6779.74
534.461	6770.92
534.826	6838.27
535.192	6873.75
535.557	6905.38
535.923	6881.88
536.288	6934.31
536.653	6973.86
537.019	7003.23
537.384	7076.9
537.749	7003.91
538.114	7097.92
538.479	7172.72
538.845	7115.77
539.21	7149.67
539.575	7247.52
539.94	7170.46
540.305	7259.95
540.67	7299.5
541.034	7345.37
541.399	7403.22
541.764	7411.81
542.129	7397.57
542.494	7489.1
542.858	7415.43
543.223	7509.89
543.587	7553.5
543.952	7528.19
544.316	7564.12
544.681	7591.47
545.045	7620.84
545.41	7742.42
545.774	7766.38
546.138	7797.56
546.503	7832.59
546.867	7801.18
547.231	7882.08
547.595	7893.38
547.959	7947.84
548.324	7997.11
548.688	8035.52
549.052	8088.4
549.416	8080.72
549.779	8066.03
550.143	8128.85
550.507	8229.42
550.871	8285.46
551.235	8253.14
551.599	8362.07
551.962	8408.17
552.326	8426.02
552.689	8478
553.053	8472.12
553.417	8573.14
553.78	8663.76
554.143	8576.07
554.507	8661.72
554.87	8761.38
555.234	8842.28
555.597	8800.47
555.96	8924.31
556.323	8977.65
556.686	8938.78
557.05	9023.52
557.413	9141.48
557.776	9163.4
558.139	9212.67
558.502	9263.51
558.865	9416.05
559.228	9409.95
559.59	9503.28
559.953	9506.44
560.316	9659.66
560.679	9704.86
561.041	9812.88
561.404	9802.03
561.767	9971.74
562.129	9917.96
562.492	10152.08
562.854	10149.82
563.217	10196.37
563.579	10318.85
563.941	10419.87
564.304	10438.85
564.666	10589.13
565.028	10677.49
565.39	10755.23
565.753	10849.46
566.115	10989.34
566.477	10988.21
566.839	11205.16
567.201	11293.97
567.563	11365.83
567.925	11636.78
568.287	11640.17
568.648	11738.48
569.01	11838.36
569.372	12053.5
569.734	12105.25
570.095	12231.8
570.457	12405.35
570.819	12616.65
571.18	12623.43
571.542	12833.14
571.903	12952.68
572.265	13199.46
572.626	13385.89
572.987	13499.33
573.349	13700.46
573.71	13827.91
574.071	13989.26
574.432	14192.42
574.794	14523.04
575.155	14701.11
575.516	14760.09
575.877	15030.59
576.238	15245.28
576.599	15549.22
576.96	15710.8
577.32	15815.43
577.681	16240.28
578.042	16427.84
578.403	16742.86
578.763	16955.29
579.124	17232.8
579.485	17602.96
579.845	18030.97
580.206	18224.86
580.566	18481.8
580.927	18832.75
581.287	19140.99
581.648	19372.17
582.008	19788.43
582.368	20021.42
582.728	20372.83
583.089	20690.11
583.449	21137.55
583.809	21466.13
584.169	21917.64
584.529	22158.99
584.889	22762.37
585.249	22982.25
585.609	23349.92
585.969	23855.45
586.329	24255.66
586.688	24684.12
587.048	25105.81
587.408	25564.1
587.768	25861.5
588.127	26372.67
588.487	26658.54
588.846	27369.7
589.206	27549.13
589.565	28036.81
589.925	28743.45
590.284	29019.83
590.643	29429.76
591.003	30029.52
591.362	30559
591.721	30905.43
592.08	31494.34
592.44	32005.97
592.799	32375.22
593.158	32852.72
593.517	33283.67
593.876	33972.24
594.235	34303.53
594.593	34758.44
594.952	35330.4
595.311	35763.61
595.67	36276.14
596.029	36898.04
596.387	37416.22
596.746	37822.76
597.104	38119.25
597.463	38575.96
597.822	39259.33
598.18	39438.99
598.538	39895.93
598.897	40609.36
599.255	40529.36
599.613	41575.43
599.972	41750.79
600.33	42195.3
600.688	42501.06
601.046	43155.28
601.404	43715.94
601.762	43849.04
602.12	44557.05
602.478	44895.57
602.836	45121.1
603.194	45363.13
603.552	45890.35
603.91	46079.49
604.268	46581.63
604.625	46674.51
604.983	47147.72
605.341	47390.42
605.698	47871.99
606.056	48008.26
606.413	48368.7
606.771	48719.65
607.128	48996.03
607.485	49030.15
607.843	49368.9
608.2	49815.22
608.557	49960.75
608.914	50230.35
609.272	50565.7
609.629	50688.64
609.986	50895.19
610.343	51020.16
610.7	51422.63
611.057	51522.06
611.414	51595.96
611.771	51750.31
612.127	51966.57
612.484	52057.87
612.841	52345.09
613.198	52315.26
613.554	52455.37
613.911	52692.43
614.267	52786.21
614.624	52969.26
614.98	53000.89
615.337	53341.68
615.693	53363.82
616.05	53444.72
616.406	53682.23
616.762	53665.96
617.118	53712.74
617.475	53775.11
617.831	53927.65
618.187	53985.28
618.543	54113.86
618.899	54416.68
619.255	54390.46
619.611	54397.69
619.967	54495.54
620.323	54617.35
620.678	54625.94
621.034	54599.5
621.39	54610.8
621.746	54672.71
622.101	54957.68
622.457	54845.59
622.812	54944.8
623.168	54987.06
623.523	55029.54
623.879	55177.33
624.234	55001.29
624.589	55087.17
624.945	55194.06
625.3	55216.88
625.655	55201.29
626.01	55326.94
626.365	55323.09
626.72	55330.55
627.075	55311.79
627.43	55366.71
627.785	55291
628.14	55490.55
628.495	55527.16
628.85	55461.17
629.205	55451
629.559	55559.92
629.914	55487.61
630.269	55478.12
630.623	55457.1
630.978	55410.1
631.332	55551.56
631.687	55627.27
632.041	55563.99
632.396	55586.14
632.75	55496.42
633.104	55606.7
633.459	55399.93
633.813	55476.99
634.167	55452.13
634.521	55460.72
634.875	55573.93
635.229	55474.95
635.583	55314.51
635.937	55362.41
636.291	55422.75
636.645	55380.49
636.999	55352.02
637.352	55389.98
637.706	55314.51
638.06	55439.02
638.413	55325.81
638.767	55257.11
639.121	55366.48
639.474	55167.62
639.828	55293.72
640.181	55373.26
640.534	55256.2
640.888	55279.7
641.241	55087.85
641.594	55210.33
641.947	55201.29
642.301	55199.25
642.654	55263.89
643.007	55201.97
643.36	55158.13
643.713	55135.75
644.066	55229.99
644.419	55040.39
644.771	54891.24
645.124	54596.78
645.477	54537.35
645.83	54473.85
646.182	54312.72
646.535	54391.37
646.888	54360.86
647.24	54201.54
647.593	54448.31
647.945	54390.01
648.298	54148.21
648.65	54225.04
649.002	54101.88
649.355	54275.89
649.707	54166.51
650.059	54260.52
650.411	54629.78
650.763	54742.77
651.115	55008.3
651.467	54918.58
651.819	54856.44
652.171	54801.07
652.523	54761.07
652.875	54788.64
653.227	54703.22
653.578	54893.27
653.93	54783.45
654.282	54686.5
654.633	54591.14
654.985	54747.52
655.337	54763.33
655.688	54745.03
656.039	54815.31
656.391	54519.27
656.742	54636.11
657.094	54629.78
657.445	54712.94
657.796	54684.69
658.147	54700.96
658.498	54650.34
658.849	54670
659.2	54682.43
659.551	54575.09
659.902	54728.31
660.253	54606.28
660.604	54672.94
660.955	54577.35
661.306	54666.39
661.656	54596.78
662.007	54643.56
662.358	54597.69
662.708	54599.95
663.059	54629.1
663.409	54410.12
663.76	54645.37
664.11	54658.93
664.461	54694.18
664.811	54573.28
665.161	54589.1
665.511	54528.99
665.862	54512.27
666.212	54617.58
666.562	54587.75
666.912	54498.48
667.262	54467.52
667.612	54497.58
667.962	54522.21
668.312	54385.72
668.662	54593.4
669.011	54480.86
669.361	54422.33
669.711	54455.32
670.06	54363.34
670.41	54476.79
670.76	54279.28
671.109	54429.78
671.459	54317.02
671.808	54237.25
672.157	54301.2
672.507	54133.07
672.856	54234.31
673.205	54115.44
673.554	54285.61
673.904	54095.33
674.253	54281.54
674.602	54194.54
674.951	53723.81
675.3	53558.62
675.649	54100.07
675.998	54033.41
676.346	54079.06
676.695	54106.4
677.044	53954.77
677.393	53985.73
677.741	54014.43
678.09	53966.74
678.438	53855.56
678.787	53936.24
679.135	53943.24
679.484	53706.64
679.832	53889.46
680.181	53641.1
680.529	53757.03
680.877	53580.54
681.225	53569.92
681.573	53801.78
681.922	53519.3
682.27	53553.2
682.618	53461.67
682.966	53482.69
683.314	53379.87
683.661	53411.05
684.009	53141.46
684.357	53231.62
684.705	53146.2
685.053	53155.47
685.4	53081.34
685.748	52964.74
686.095	52987.11
686.443	52927
686.79	52876.83
687.138	52856.27
687.485	52876.6
687.832	52734.69
688.18	52790.73
688.527	52601.36
688.874	52573.34
689.221	52497.18
689.568	52501.02
689.915	52363.85
690.262	52340.12
690.609	52205.66
690.956	52222.16
691.303	52169.05
691.65	51928.61
691.997	51982.39
692.344	51668.27
692.69	51694.94
693.037	51807.71
693.383	51432.12
693.73	51580.82
694.077	51407.26
694.423	51398.68
694.769	51378.79
695.116	51216.53
695.462	51221.51
695.808	50965.47
696.155	51090.21
696.501	50807.73
696.847	50751.91
697.193	50653.61
697.539	50633.95
697.885	50279.16
698.231	50350.12
698.577	50343.34
698.923	50138.14
699.269	50052.95
699.614	49926.63
699.96	49867.64
700.306	49897.93
700.651	49763.01
700.997	49575.45
701.342	49519.4
701.688	49471.72
702.033	49293.2
702.379	49323.93
702.724	49230.82
703.069	49286.42
703.415	48825.19
703.76	48814.34
704.105	48835.58
704.45	48800.33
704.795	48409.6
705.14	48233.56
705.485	48341.36
705.83	48262.49
706.175	48235.14
706.52	48052.1
706.865	48111.53
707.209	47954.93
707.554	47647.36
707.899	47864.08
708.243	47606.46
708.588	47512.68
708.932	47333.7
709.277	47359.46
709.621	47374.38
709.966	47139.35
710.31	47070.43
710.654	46858.46
710.998	47015.06
711.342	47032.24
711.687	46708.63
712.031	46631.57
712.375	46469.99
712.719	46702.08
713.063	46536.43
713.407	46624.57
713.75	46401.29
714.094	46314.74
714.438	46159.27
714.782	46145.71
715.125	46080.85
715.469	46166.72
715.812	45897.13
716.156	45687.87
716.499	45649.68
716.843	45764.93
717.186	45432.96
717.53	45757.02
717.873	45623.91
718.216	45498.27
718.559	45330.81
718.902	45021.9
719.246	45159.74
719.589	45097.37
719.932	44936.25
720.275	44940.99
720.617	44879.98
720.96	44896.02
721.303	44767.89
721.646	44721.34
721.989	44551.85
722.331	44668.46
722.674	44616.03
723.016	44614.22
723.359	44609.93
723.701	44368.81
724.044	44245.19
724.386	44058.76
724.729	44260.56
725.071	44229.15
725.413	44087
725.755	44047.01
726.097	43986.22
726.439	43781.93
726.782	43852.43
727.124	43874.81
727.465	43805.2
727.807	43749.84
728.149	43748.03
728.491	43639.11
728.833	43720.46
729.175	43412.67
729.516	43462.61
729.858	43362.5
730.199	43405.44
730.541	43423.97
730.882	43277.76
731.224	43356.63
731.565	43154.83
731.906	43225.33
732.248	43233.92
732.589	42983.08
732.93	42942.4
733.271	42850.65
733.612	42931.1
733.953	42861.27
734.294	42928.39
734.635	42736.76
734.976	42808.17
735.317	42585.12
735.658	42621.51
735.999	42671.22
736.339	42494.28
736.68	42526.37
737.021	42434.39
737.361	42197.79
737.702	42485.24
738.042	42430.33
738.383	42534.73
738.723	42419.7
739.063	42111.24
739.404	42355.07
739.744	42375.19
740.084	42101.07
740.424	42162.54
740.764	42045.48
741.104	42222.19
741.444	41999.15
741.784	41816.33
742.124	41887.74
742.464	41765.94
742.804	41884.35
743.143	41584.47
743.483	41813.17
743.823	41514.87
744.162	41568.88
744.502	41567.75
744.841	41341.31
745.181	41567.75
745.52	41330.92
745.86	41410.24
746.199	41219.74
746.538	41343.57
746.877	41388.54
747.216	41273.29
747.556	41101.09
747.895	41088.21
748.234	40927.54
748.573	40858.61
748.911	40900.87
749.25	41025.39
749.589	40903.81
749.928	40858.61
750.267	40709.69
750.605	40660.65
750.944	40563.26
751.283	40384.73
751.621	40555.57
751.96	40440.55
752.298	40385.41
752.636	40296.6
752.975	40158.07
753.313	40122.59
753.651	40273.77
753.989	39991.29
754.327	40087.56
754.666	39785.87
755.004	39789.94
755.342	39773.67
755.679	39887.34
756.017	39568.48
756.355	39662.04
756.693	39386.34
757.031	39405.09
757.368	39252.56
757.706	39254.36
758.044	39159.22
758.381	39182.05
758.719	39035.39
759.056	39165.78
759.394	38871.55
759.731	38649.18
760.068	38579.35
760.405	38514.72
760.743	38194.96
761.08	38353.14
761.417	38275.63
761.754	38112.25
762.091	38085.13
762.428	37883.55
762.765	37715.87
763.102	37728.98
763.438	37712.93
763.775	37391.14
764.112	37451.47
764.449	37425.71
764.785	37339.61
765.122	37156.57
765.458	36930.58
765.795	36982.56
766.131	36883.8
766.467	36564.26
766.804	36639.52
767.14	36435.91
767.476	36559.74
767.812	36109.59
768.148	36307.32
768.485	36060.77
768.821	35900.55
769.157	35789.82
769.492	35685.87
769.828	35682.93
770.164	35360
770.5	35287.69
770.836	35329.04
771.171	34960.69
771.507	35019.67
771.842	34810.64
772.178	34893.57
772.513	34792.11
772.849	34661.04
773.184	34485.45
773.519	34336.53
773.855	34231.22
774.19	34119.36
774.525	33953.03
774.86	34048.85
775.195	33841.17
775.53	33760.72
775.865	33605.47
776.2	33369.77
776.535	33148.54
776.87	33153.28
777.205	32955.77
777.539	32878.26
777.874	32855.66
778.209	32618.83
778.543	32590.13
778.878	32302
779.212	32391.94
779.547	32247.09
779.881	32333.42
780.215	31963.93
780.55	32118.96
780.884	31793.99
781.218	31694.56
781.552	31795.8
781.886	31483.72
782.22	31470.61
782.554	31316.94
782.888	31058.87
783.222	30909.05
783.556	30735.94
783.889	30693.68
784.223	30521.03
784.557	30489.17
784.89	30593.57
785.224	30437.42
785.557	30212.34
785.891	30190.65
786.224	30176.86
786.558	30133.93
786.891	29728.51
787.224	29744.1
787.557	29639.93
787.891	29591.79
788.224	29522.64
788.557	29595.63
788.89	29342.99
789.223	29467.95
789.556	29081.52
789.888	29065.7
790.221	28914.52
790.554	28789.1
790.887	28676.56
791.219	28641.54
791.552	28638.6
791.884	28459.39
792.217	28349.79
792.549	28093.75
792.882	28031.16
793.214	27961.55
793.546	27995
793.879	27817.83
794.211	27661
794.543	27689.47
794.875	27585.29
795.207	27635.23
795.539	27555.01
795.871	27531.96
796.203	27159.31
796.535	27093.55
796.867	27037.74
797.198	27004.74
797.53	26905.31
797.862	26807.01
798.193	26829.15
798.525	26606.33
798.856	26605.43
799.188	26305.55
799.519	26225.1
799.85	26185.33
800.182	26185.33
800.513	26182.39
800.844	25926.35
801.175	25984.88
801.506	25876.86
801.837	25809.52
802.168	25682.29
802.499	25682.52
802.83	25553.93
803.161	25533.37
803.491	25491.34
803.822	25483.2
804.153	25319.81
804.483	25206.15
804.814	25104.68
805.145	25062.65
805.475	24962.31
805.805	24965.93
806.136	24877.57
806.466	24908.07
806.796	24771.58
807.126	24641.41
807.457	24485.71
807.787	24605.26
808.117	24548.99
808.447	24406.84
808.777	24464.47
809.107	24377.92
809.436	24225.61
809.766	24287.75
810.096	24184.93
810.426	23952.62
810.755	23928.44
811.085	23871.26
811.414	23778.61
811.744	23735
812.073	23501.56
812.403	23617.49
812.732	23499.3
813.061	23480.54
813.39	23279.64
813.719	23433.99
814.049	23386.98
814.378	23258.85
814.707	23118.74
815.036	23129.36
815.365	23015.69
815.693	22809.6
816.022	22800.11
816.351	22735.93
816.68	22633.11
817.008	22762.82
817.337	22579.32
817.665	22615.48
817.994	22611.41
818.322	22563.5
818.651	22368.25
818.979	22317.63
819.307	22378.2
819.636	22361.7
819.964	22265.88
820.292	22207.58
820.62	22208.94
820.948	22059.79
821.276	22233.57
821.604	22183.85
821.932	22235.6
822.259	22151.31
822.587	22120.12
822.915	22093.91
823.243	22059.79
823.57	22119.22
823.898	22196.28
824.225	22030.41
824.553	21995.61
824.88	22116.51
825.207	22183.4
825.535	22031.99
825.862	22100.24
826.189	21998.09
826.516	22091.2
826.843	22158.77
827.17	22112.67
827.497	22071.99
827.824	22093.91
828.151	22186.11
828.478	21966.23
828.805	22083.74
829.131	22017.53
829.458	21924.42
829.785	21875.61
830.111	21855.5
830.438	22049.39
830.764	22029.28
831.09	21927.36
831.417	21884.65
831.743	21893.46
832.069	21930.98
832.395	21870.87
832.722	21864.09
833.048	21845.33
833.374	21961.03
833.7	21767.14
834.026	21870.87
834.351	21863.18
834.677	21762.85
835.003	21777.76
835.329	21650.76
835.654	21652.34
835.98	21609.63
836.306	21640.59
836.631	21529.18
836.956	21689.18
837.282	21678.78
837.607	21451.89
837.932	21443.98
838.258	21466.58
838.583	21360.6
838.908	21353.37
839.233	21321.95
839.558	21236.76
839.883	21241.5
840.208	21171.67
840.533	21237.21
840.858	21221.39
841.182	21203.76
841.507	21097.55
841.832	20997.67
842.156	20897.11
842.481	20959.93
842.805	20902.3
843.13	20864.11
843.454	20790.22
843.778	20692.59
844.103	20706.38
844.427	20651.46
844.751	20606.49
845.075	20597.23
845.399	20597.68
845.723	20431.58
846.047	20454.86
846.371	20208.31
846.695	20272.94
847.019	20029.11
847.343	20098.71
847.666	19881.99
847.99	19793.63
848.313	19748.66
848.637	19732.39
848.96	19680.87
849.284	19582.11
849.607	19391.83
849.931	19482.45
850.254	19293.53
850.577	19183.03
850.9	19072.52
851.223	19094.67
851.546	19006.53
851.869	18910.94
852.192	19018.06
852.515	18781.46
852.838	18680.22
853.161	18719.08
853.483	18553.44
853.806	18561.35
854.129	18500.33
854.451	18300.79
854.774	18245.42
855.096	18277.06
855.419	18145.31
855.741	18213.33
856.063	18048.59
856.385	18038.65
856.708	17917.52
857.03	17826.9
857.352	17874.59
857.674	17819.67
857.996	17649.73
858.318	17709.39
858.64	17607.02
858.961	17530.64
859.283	17559.57
859.605	17456.29
859.926	17504.88
860.248	17427.14
860.57	17324.09
860.891	17359.57
861.212	17312.57
861.534	17266.01
861.855	17193.7
862.176	17239.8
862.498	17185.11
862.819	17153.02
863.14	16991.45
863.461	17055.85
863.782	16999.13
864.103	16996.42
864.424	16998.45
864.745	16986.47
865.065	16934.27
865.386	16866.25
865.707	16791.68
866.027	16722.98
866.348	16756.42
866.668	16664.22
866.989	16688.4
867.309	16523.89
867.63	16702.19
867.95	16628.52
868.27	16525.92
868.59	16585.13
868.91	16515.75
869.23	16476.43
869.55	16353.95
869.87	16401.86
870.19	16313.95
870.51	16413.16
870.83	16339.71
871.15	16309.2
871.469	16342.65
871.789	16388.75
872.109	16286.83
872.428	16148.98
872.748	16202.54
873.067	16161.64
873.386	16146.04
873.706	16119.83
874.025	16059.94
874.344	16003.9
874.663	15953.96
874.982	15957.35
875.301	15944.69
875.62	15911.02
875.939	15877.35
876.258	15861.08
876.577	15858.37
876.896	15817.47
877.214	15780.18
877.533	15835.09
877.852	15802.32
878.17	15795.09
878.489	15691.37
878.807	15745.83
879.125	15695.66
879.444	15609.79
879.762	15591.03
880.08	15570.69
880.398	15539.28
880.716	15546.74
881.034	15455.89
881.352	15497.7
881.67	15407.53
881.988	15396.69
882.306	15465.38
882.624	15310.81
882.941	15272.85
883.259	15215.45
883.577	15179.52
883.894	15175
884.212	15072.63
884.529	15136.58
884.846	15178.16
885.164	15101.1
885.481	15045.51
885.798	14988.11
886.115	14867.89
886.432	14885.74
886.75	14829.69
887.067	14831.5
887.383	14715.12
887.7	14812.29
888.017	14712.86
888.334	14677.16
888.651	14626.99
888.967	14572.3
889.284	14542.7
889.6	14559.65
889.917	14428.58
890.233	14390.16
890.55	14387.67
890.866	14375.02
891.182	14246.89
891.498	14262.25
891.815	14171.86
892.131	14138.41
892.447	14147.68
892.763	14110.17
893.079	14007.8
893.395	14036.5
893.71	13958.76
894.026	13946.1
894.342	13821.36
894.657	13801.02
894.973	13761.25
895.289	13686
895.604	13748.37
895.92	13634.92
896.235	13537.98
896.55	13574.36
896.865	13548.6
897.181	13517.19
897.496	13450.3
897.811	13396.06
898.126	13290.98
898.441	13250.08
898.756	13317.42
899.071	13198.33
899.386	13176.4
899.7	13114.49
900.015	13039.23
900.33	12994.04
900.644	12966.02
900.959	12919.69
901.273	12939.8
901.588	12769.41
901.902	12656.87
902.216	12687.83
902.531	12681.5
902.845	12698.23
903.159	12521.51
903.473	12525.35
903.787	12438.57
904.101	12381.62
904.415	12389.98
904.729	12417.1
905.042	12271.12
905.356	12300.27
905.67	12199.03
905.984	12218.01
906.297	12156.54
906.611	12087.39
906.924	11992.93
907.237	12061.41
907.551	11941.64
907.864	11872.03
908.177	11855.54
908.491	11791.81
908.804	11734.18
909.117	11624.81
909.43	11640.17
909.743	11600.85
910.056	11579.84
910.368	11528.99
910.681	11463.46
910.994	11440.86
911.307	11380.29
911.619	11322.44
911.932	11263.23
912.244	11220.3
912.557	11159.73
912.869	11096.01
913.181	11098.95
913.494	11097.14
913.806	10908.22
914.118	10899.4
914.43	10785.51
914.742	10836.13
915.054	10822.12
915.366	10737.6
915.678	10716.58
915.99	10679.75
916.302	10668
916.613	10545.29
916.925	10545.51
917.236	10504.61
917.548	10406.53
917.859	10406.76
918.171	10348.23
918.482	10272.75
918.794	10209.48
919.105	10257.84
919.416	10140.33
919.727	10168.35
920.038	10164.51
920.349	10004.06
920.66	10038.41
920.971	10023.04
921.282	9950.73
921.593	9894.23
921.903	9853.78
922.214	9821.69
922.525	9794.8
922.835	9669.83
923.146	9701.92
923.456	9618.76
923.767	9589.38
924.077	9562.04
924.387	9497.18
924.697	9466.9
925.008	9473.68
925.318	9363.85
925.628	9259.67
925.938	9282.04
926.248	9183.97
926.558	9226.45
926.867	9237.98
927.177	9153.46
927.487	9129.51
927.796	9001.37
928.106	8998.21
928.416	8976.97
928.725	8928.83
929.034	8884.54
929.344	8930.41
929.653	8807.48
929.962	8797.99
930.271	8807.71
930.581	8713.92
930.89	8654.94
931.199	8593.7
931.508	8587.37
931.817	8560.03
932.125	8559.35
932.434	8518.9
932.743	8418.79
933.051	8398
933.36	8383.76
933.669	8309.64
933.977	8305.57
934.286	8212.02
934.594	8225.57
934.902	8217.89
935.21	8155.07
935.519	8163.2
935.827	8102.19
936.135	8068.06
936.443	8048.4
936.751	7922.76
937.059	7956.66
937.367	7884.11
937.674	7848.64
937.982	7859.93
938.29	7778.81
938.597	7759.37
938.905	7690.67
939.213	7739.26
939.52	7623.56
939.827	7633.27
940.135	7586.72
940.442	7570.22
940.749	7539.49
941.056	7512.6
941.363	7396.9
941.67	7453.84
941.977	7368.42
942.284	7342.66
942.591	7281.19
942.898	7252.49
943.205	7224.25
943.511	7204.36
943.818	7231.25
944.125	7194.64
944.431	7108.09
944.738	7078.26
945.044	7104.02
945.35	7086.17
945.657	7018.83
945.963	6984.93
946.269	6946.06
946.575	6938.6
946.881	6910.81
947.187	6868.55
947.493	6834.88
947.799	6812.05
948.105	6778.38
948.41	6689.34
948.716	6706.74
949.022	6676.91
949.327	6624.03
949.633	6626.52
949.938	6555.79
950.244	6587.88
950.549	6473.08
950.854	6506.75
951.16	6459.07
951.465	6459.75
951.77	6397.83
952.075	6376.58
952.38	6374.78
952.685	6382.01
952.99	6267.89
953.294	6289.35
953.599	6167.1
953.904	6211.16
954.209	6149.25
954.513	6205.74
954.818	6139.3
955.122	6131.84
955.426	6128.23
955.731	6043.94
956.035	6043.94
956.339	6022.69
956.643	6007.1
956.948	5950.61
957.252	5916.93
957.556	5958.06
957.86	5871.51
958.163	5850.5
958.467	5849.37
958.771	5763.72
959.075	5758.97
959.378	5719.65
959.682	5753.78
959.985	5695.25
960.289	5662.93
960.592	5637.17
960.896	5608.92
961.199	5545.87
961.502	5561.92
961.805	5521.01
962.108	5495.25
962.411	5488.7
962.714	5445.99
963.017	5470.84
963.32	5436.95
963.623	5405.76
963.926	5375.71
964.228	5413.45
964.531	5307.01
964.833	5309.27
965.136	5254.81
965.438	5272.43
965.741	5238.08
966.043	5193.11
966.345	5162.83
966.648	5132.55
966.95	5127.35
967.252	5089.61
967.554	5115.37
967.856	5113.11
968.158	5025.21
968.46	4994.93
968.761	4977.52
969.063	5014.13
969.365	4961.71
969.666	4897.07
969.968	4867.92
970.269	4868.15
970.571	4852.1
970.872	4782.73
971.174	4815.95
971.475	4820.24
971.776	4809.85
972.077	4726.46
972.378	4761.26
972.679	4726.01
972.98	4743.18
973.281	4664.99
973.582	4617.99
973.883	4643.97
974.183	4560.36
974.484	4580.47
974.785	4539.8
975.085	4591.77
975.386	4553.13
975.686	4504.99
975.986	4454.37
976.287	4505.22
976.587	4415.05
976.887	4364.21
977.187	4387.48
977.487	4343.19
977.787	4357.65
978.087	4349.52
978.387	4315.4
978.687	4288.28
978.987	4295.73
979.286	4195.4
979.586	4255.74
979.885	4213.7
980.185	4186.13
980.484	4167.83
980.784	4140.71
981.083	4143.65
981.382	4123.08
981.682	4135.29
981.981	4085.12
982.28	4066.36
982.579	4025.23
982.878	4037.44
983.177	4010.32
983.475	3996.53
983.774	3978.91
984.073	3907.27
984.372	3917.89
984.67	3946.14
984.969	3921.51
985.267	3911.11
985.566	3825.01
985.864	3834.28
986.162	3847.16
986.461	3799.93
986.759	3749.76
987.057	3741.17
987.355	3749.76
987.653	3723.77
987.951	3698.01
988.249	3717.9
988.547	3708.18
988.844	3708.63
989.142	3670.21
989.44	3654.85
989.737	3617.11
990.035	3594.28
990.332	3575.3
990.63	3558.8
990.927	3575.98
991.224	3539.14
991.521	3526.04
991.819	3492.37
992.116	3540.27
992.413	3486.94
992.71	3437.45
993.006	3455.53
993.303	3369.43
993.6	3403.55
993.897	3366.72
994.193	3379.15
994.49	3332.14
994.787	3357.45
995.083	3341.18
995.379	3301.86
995.676	3262.54
995.972	3285.37
996.268	3249.43
996.565	3205.82
996.861	3222.99
997.157	3179.61
997.453	3177.57
997.749	3184.13
998.044	3134.18
998.34	3141.19
998.636	3133.73
998.932	3099.38
999.227	3043.79
999.523	3046.95
999.818	3058.93
1000.114	3015.99
1000.409	3051.47
1000.704	2959.72
1001	2973.51
1001.295	2963.34
1001.59	2992.94
1001.885	2950.46
1002.18	2921.53
1002.475	2844.47
1002.77	2880.4
1003.065	2850.8
1003.359	2843.34
1003.654	2848.09
1003.949	2838.15
1004.243	2829.78
1004.538	2792.05
1004.832	2789.33
1005.127	2751.82
1005.421	2777.36
1005.715	2768.54
1006.009	2689.22
1006.304	2699.84
1006.598	2695.32
1006.892	2664.36
1007.186	2646.96
1007.48	2604.71
1007.773	2613.74
1008.067	2612.61
1008.361	2565.84
1008.655	2578.27
1008.948	2538.94
1009.242	2547.76
1009.535	2543.46
1009.829	2489.68
1010.122	2474.31
1010.415	2454.65
1010.708	2451.04
1011.001	2461.43
1011.295	2427.99
1011.588	2411.04
1011.881	2409.68
1012.173	2388.67
1012.466	2390.7
1012.759	2377.59
1013.052	2352.06
1013.344	2350.7
1013.637	2326.29
1013.93	2307.54
1014.222	2271.61
1014.514	2301.44
1014.807	2262.57
1015.099	2243.36
1015.391	2213.76
1015.683	2189.8
1015.976	2169.46
1016.268	2192.51
1016.56	2185.51
1016.851	2162.01
1017.143	2143.47
1017.435	2151.16
1017.727	2114.77
1018.018	2096.47
1018.31	2112.74
1018.602	2045.62
1018.893	2072.29
1019.185	2070.93
1019.476	2047.43
1019.767	2019.64
1020.058	1996.13
1020.35	1991.61
1020.641	1963.82
1020.932	1971.95
1021.223	1954.1
1021.514	1952.75
1021.804	1922.69
1022.095	1908.23
1022.386	1861
1022.677	1885.63
1022.967	1890.83
1023.258	1863.71
1023.548	1839.3
1023.839	1802.92
1024.129	1809.92
1024.419	1832.75
1024.709	1774.9
1025	1776.25
1025.29	1775.12
1025.58	1782.35
1025.87	1727.89
1026.16	1754.78
1026.449	1747.1
1026.739	1721.34
1027.029	1681.11
1027.319	1657.61
1027.608	1664.17
1027.898	1686.09
1028.187	1650.15
1028.477	1651.74
1028.766	1611.74
1029.055	1605.86
1029.344	1606.99
1029.634	1590.04
1029.923	1573.09
1030.212	1583.49
1030.501	1578.29
1030.79	1554.11
1031.078	1531.74
1031.367	1527.45
1031.656	1533.77
1031.945	1529.71
1032.233	1474.34
1032.522	1460.33
1032.81	1458.52
1033.099	1482.7
1033.387	1468.01
1033.675	1434.11
1033.963	1414.91
1034.251	1425.53
1034.54	1385.08
1034.828	1404.96
1035.116	1400.44
1035.403	1379.88
1035.691	1355.02
1035.979	1353.21
1036.267	1357.51
1036.554	1354.57
1036.842	1317.51
1037.129	1333.33
1037.417	1316.83
1037.704	1311.41
1037.992	1296.27
1038.279	1287.9
1038.566	1255.81
1038.853	1255.81
1039.14	1255.81
