Data from orange_diffuse_book_FLMS001491_00031.txt Node
Date: Wed Feb 08 15:29:27 GMT 2017
User: dcchb
Spectrometer: FLMS00149
Trigger mode: 0
Integration Time (sec): 2.000000E-2
Scans to average: 10
Electric dark correction enabled: true
Nonlinearity correction enabled: false
Boxcar width: 0
XAxis mode: Wavelengths
Number of Pixels in Spectrum: 2048
>>>>>Begin Spectral Data<<<<<
341.393	1.78
341.776	1.78
342.16	1.78
342.543	-57.88
342.927	-47.48
343.31	-59.69
343.693	-74.6
344.077	-62.63
344.46	-49.74
344.843	-40.71
345.226	-62.4
345.61	-25.79
345.993	-11.55
346.376	5.85
346.759	-10.65
347.142	11.5
347.525	36.35
347.908	63.47
348.291	74.55
348.674	101.21
349.057	104.83
349.44	111.38
349.823	151.15
350.206	167.2
350.588	209.91
350.971	206.52
351.354	244.26
351.737	254.43
352.119	253.07
352.502	290.81
352.884	284.26
353.267	317.25
353.65	312.96
354.032	310.02
354.414	322
354.797	341.66
355.179	332.39
355.562	355.67
355.944	319.74
356.326	344.82
356.709	336.46
357.091	338.72
357.473	348.66
357.855	359.51
358.238	370.36
358.62	357.93
359.002	352.96
359.384	377.14
359.766	374.43
360.148	361.77
360.53	347.99
360.912	338.95
361.294	333.52
361.676	353.41
362.057	333.52
362.439	353.41
362.821	336.46
363.203	340.98
363.584	346.86
363.966	352.73
364.348	338.27
364.729	340.53
365.111	321.55
365.493	342.56
365.874	314.77
366.256	338.04
366.637	335.78
367.019	320.64
367.4	340.08
367.781	319.96
368.163	325.16
368.544	346.4
368.925	327.87
369.306	322.9
369.688	338.72
370.069	338.95
370.45	337.59
370.831	352.96
371.212	340.98
371.593	346.86
371.974	342.79
372.355	353.41
372.736	341.66
373.117	341.21
373.498	325.84
373.879	324.26
374.26	333.07
374.641	313.41
375.021	336.23
375.402	336.23
375.783	318.38
376.163	347.53
376.544	348.44
376.925	332.62
377.305	332.84
377.686	343.47
378.066	336.69
378.447	341.43
378.827	324.26
379.208	338.27
379.588	352.28
379.968	345.5
380.349	361.77
380.729	358.15
381.109	351.37
381.489	362.67
381.87	368.32
382.25	365.84
382.63	371.49
383.01	350.92
383.39	352.73
383.77	357.93
384.15	373.75
384.53	357.48
384.91	353.86
385.29	376.69
385.67	364.48
386.049	379.62
386.429	379.17
386.809	357.93
387.189	354.99
387.568	389.79
387.948	380.98
388.328	374.2
388.707	387.31
389.087	371.94
389.466	378.27
389.846	395.89
390.225	397.93
390.605	388.66
390.984	399.74
391.363	409.23
391.743	388.66
392.122	403.58
392.501	403.8
392.881	415.55
393.26	399.06
393.639	378.94
394.018	399.74
394.397	399.06
394.776	409.23
395.155	422.33
395.534	407.42
395.913	401.09
396.292	423.46
396.671	439.06
397.05	414.65
397.429	437.02
397.808	435.21
398.186	431.6
398.565	430.47
398.944	422.56
399.323	425.5
399.701	434.76
400.08	410.36
400.458	437.25
400.837	450.58
401.215	464.82
401.594	452.39
401.972	454.2
402.351	451.94
402.729	453.75
403.107	441.09
403.486	467.76
403.864	452.16
404.242	460.98
404.62	455.78
404.999	462.33
405.377	474.99
405.755	455.55
406.133	471.15
406.511	505.95
406.889	467.98
407.267	493.07
407.645	472.5
408.023	481.99
408.401	512.05
408.779	516.57
409.156	500.3
409.534	490.13
409.912	510.01
410.29	499.85
410.667	502.78
411.045	516.12
411.422	540.07
411.8	512.95
412.178	522.67
412.555	517.92
412.933	536.23
413.31	525.38
413.687	543.69
414.065	555.66
414.442	540.3
414.819	556.12
415.197	541.65
415.574	561.54
415.951	565.83
416.328	548.66
416.705	563.12
417.082	562.89
417.46	567.87
417.837	573.74
418.214	585.04
418.591	596.11
418.967	590.24
419.344	600.41
419.721	605.61
420.098	604.48
420.475	623.46
420.852	601.99
421.228	611.26
421.605	613.29
421.982	644.93
422.358	619.16
422.735	636.79
423.111	634.31
423.488	648.99
423.864	646.73
424.241	648.32
424.617	650.12
424.994	684.02
425.37	671.82
425.746	635.21
426.123	658.71
426.499	690.12
426.875	685.38
427.251	704.36
427.627	704.13
428.003	700.07
428.379	703.46
428.756	716.79
429.132	723.57
429.507	704.59
429.883	717.47
430.259	743
430.635	753.62
431.011	742.1
431.387	773.06
431.763	778.26
432.138	769.22
432.514	779.61
432.89	797.01
433.265	789.78
433.641	811.7
434.016	800.4
434.392	835.2
434.767	826.84
435.143	822.1
435.518	819.39
435.894	842.89
436.269	857.12
436.644	837.92
437.02	837.46
437.395	880.4
437.77	863
438.145	874.75
438.52	891.25
438.895	886.95
439.271	915.88
439.646	920.4
440.021	886.5
440.395	907.52
440.77	909.55
441.145	922.66
441.52	942.55
441.895	937.8
442.27	942.55
442.645	945.71
443.019	960.17
443.394	963.56
443.769	952.26
444.143	963.34
444.518	975.99
444.892	985.26
445.267	965.82
445.641	995.43
446.016	1004.92
446.39	1018.02
446.764	1005.14
447.139	1007.4
447.513	1011.02
447.887	1025.71
448.262	1009.66
448.636	1040.62
449.01	1026.84
449.384	1053.05
449.758	1062.77
450.132	1066.84
450.506	1052.15
450.88	1055.31
451.254	1055.54
451.628	1090.79
452.002	1065.03
452.376	1081.98
452.75	1107.06
453.123	1083.79
453.497	1129.21
453.871	1099.15
454.244	1130.11
454.618	1131.02
454.992	1150.9
455.365	1174.86
455.739	1198.81
456.112	1193.84
456.486	1196.78
456.859	1220.5
457.232	1235.87
457.606	1210.79
457.979	1217.57
458.352	1256.66
458.725	1243.78
459.099	1268.86
459.472	1303.44
459.845	1287.4
460.218	1320.84
460.591	1302.31
460.964	1299.37
461.337	1355.64
461.71	1338.92
462.083	1361.07
462.456	1383.66
462.829	1381.18
463.201	1404.91
463.574	1393.38
463.947	1436.32
464.32	1450.78
464.692	1441.97
465.065	1435.87
465.438	1480.16
465.81	1479.71
466.183	1475.41
466.555	1522.19
466.928	1534.85
467.3	1547.28
467.672	1547.73
468.045	1540.04
468.417	1576.88
468.789	1592.47
469.161	1604.68
469.534	1616.2
469.906	1608.07
470.278	1648.52
470.65	1662.75
471.022	1693.71
471.394	1749.98
471.766	1765.12
472.138	1753.6
472.51	1760.6
472.882	1804.44
473.253	1776.65
473.625	1821.84
473.997	1881.73
474.369	1888.06
474.74	1916.76
475.112	1934.38
475.484	1923.54
475.855	1972.12
476.227	2037.66
476.598	2043.53
476.97	2060.48
477.341	2078.11
477.713	2144.55
478.084	2125.34
478.455	2201.5
478.827	2203.3
479.198	2228.39
479.569	2276.3
479.94	2310.19
480.311	2356.29
480.682	2384.32
481.053	2409.4
481.424	2432.9
481.795	2483.3
482.166	2493.92
482.537	2575.95
482.908	2595.16
483.279	2636.96
483.65	2660.92
484.021	2711.99
484.391	2744.98
484.762	2740.01
485.133	2777.07
485.503	2834.02
485.874	2889.16
486.244	2898.2
486.615	2958.09
486.985	2973.9
487.356	3071.98
487.726	3049.16
488.097	3142.26
488.467	3199.89
488.837	3259.55
489.207	3266.55
489.578	3296.83
489.948	3324.18
490.318	3398.3
490.688	3422.93
491.058	3472.2
491.428	3546.32
491.798	3584.06
492.168	3668.35
492.538	3650.05
492.908	3723.26
493.278	3754.9
493.648	3779.31
494.017	3832.64
494.387	3866.08
494.757	3933.2
495.126	3946.76
495.496	3990.15
495.866	3999.64
496.235	4022.24
496.605	4059.53
496.974	4133.42
497.344	4209.13
497.713	4194.89
498.082	4264.72
498.452	4253.19
498.821	4332.51
499.19	4336.81
499.559	4409.57
499.928	4433.08
500.298	4443.24
500.667	4527.54
501.036	4502.9
501.405	4587.65
501.774	4611.38
502.143	4666.97
502.512	4679.17
502.88	4767.98
503.249	4760.75
503.618	4825.38
503.987	4840.52
504.356	4871.71
504.724	4901.76
505.093	4938.15
505.462	4941.08
505.83	5006.17
506.199	5077.13
506.567	5130.91
506.936	5067.18
507.304	5192.38
507.672	5199.38
508.041	5229.89
508.409	5284.13
508.777	5336.78
509.145	5302.66
509.514	5344.24
509.882	5410.68
510.25	5439.83
510.618	5508.75
510.986	5553.95
511.354	5577
511.722	5618.58
512.09	5650.67
512.458	5684.12
512.826	5692.93
513.193	5717.79
513.561	5770.89
513.929	5859.7
514.297	5896.99
514.664	5964.11
515.032	6007.5
515.4	6006.14
515.767	6110.77
516.135	6105.57
516.502	6080.26
516.869	6135.86
517.237	6167.49
517.604	6228.51
517.972	6229.19
518.339	6369.75
518.706	6352.35
519.073	6382.63
519.44	6415.4
519.808	6506.02
520.175	6488.84
520.542	6582.85
520.909	6593.47
521.276	6624.66
521.643	6695.39
522.009	6745.11
522.376	6794.14
522.743	6823.52
523.11	6855.38
523.477	6985.32
523.843	7005.21
524.21	7057.41
524.577	7153.68
524.943	7115.04
525.31	7144.64
525.676	7315.49
526.043	7325.2
526.409	7348.25
526.776	7449.27
527.142	7451.3
527.508	7501.7
527.874	7503.05
528.241	7604.74
528.607	7587.79
528.973	7711.63
529.339	7677.28
529.705	7786.89
530.071	7828.69
530.437	7819.88
530.803	7900.1
531.169	7949.14
531.535	7989.82
531.901	7992.08
532.267	8063.04
532.632	8140.55
532.998	8115.01
533.364	8161.57
533.73	8162.02
534.095	8253.77
534.461	8271.62
534.826	8355.46
535.192	8324.27
535.557	8428
535.923	8466.64
536.288	8424.38
536.653	8503.93
537.019	8413.54
537.384	8558.62
537.749	8609.24
538.114	8643.81
538.479	8685.17
538.845	8716.35
539.21	8720.87
539.575	8752.28
539.94	8834.77
540.305	8811.49
540.67	8906.63
541.034	8891.49
541.399	8936.69
541.764	8952.73
542.129	9015.78
542.494	9039.96
542.858	9037.02
543.223	9090.35
543.587	9139.62
543.952	9159.96
544.316	9208.54
544.681	9251.25
545.045	9323.79
545.41	9310.46
545.774	9344.36
546.138	9444.92
546.503	9421.64
546.867	9472.27
547.231	9613.96
547.595	9588.19
547.959	9647.18
548.324	9658.7
548.688	9667.29
549.052	9765.82
549.416	9801.75
549.779	9820.28
550.143	9902.08
550.507	10000.84
550.871	10018.01
551.235	10061.63
551.599	10061.4
551.962	10107.28
552.326	10109.76
552.689	10240.61
553.053	10299.59
553.417	10272.02
553.78	10437.66
554.143	10369.87
554.507	10501.84
554.87	10534.84
555.234	10693.02
555.597	10682.4
555.96	10720.14
556.323	10773.47
556.686	10818.67
557.05	10905.67
557.413	10943.64
557.776	11093.69
558.139	11110.41
558.502	11213.91
558.865	11206.23
559.228	11353.8
559.59	11381.82
559.953	11359
560.316	11631.53
560.679	11587.24
561.041	11664.98
561.404	11815.25
561.767	11889.38
562.129	11927.57
562.492	12071.74
562.854	12039.43
563.217	12171.86
563.579	12403.49
563.941	12403.26
564.304	12511.73
564.666	12585.18
565.028	12725.74
565.39	12813.87
565.753	12873.98
566.115	12988.56
566.477	13135.45
566.839	13196.01
567.201	13420.86
567.563	13438.04
567.925	13639.84
568.287	13731.36
568.648	13847.52
569.01	14000.06
569.372	14165.7
569.734	14205.93
570.095	14408.18
570.457	14549.42
570.819	14734.05
571.18	14783.54
571.542	15045
571.903	15059.46
572.265	15309.85
572.626	15502.39
572.987	15590.3
573.349	15826.67
573.71	16005.43
574.071	16113.67
574.432	16349.6
574.794	16595.02
575.155	16856.7
575.516	16943.93
575.877	17212.17
576.238	17454.88
576.599	17609.45
576.96	17849.45
577.32	18104.35
577.681	18370.56
578.042	18528.75
578.403	18766.03
578.763	19067.27
579.124	19360.59
579.485	19800.36
579.845	19963.29
580.206	20318.31
580.566	20392.66
580.927	20766.21
581.287	21221.79
581.648	21405.06
582.008	21819.96
582.368	22042.33
582.728	22333.17
583.089	22679.15
583.449	23033.04
583.809	23299.02
584.169	23696.75
584.529	23989.62
584.889	24554.81
585.249	24754.58
585.609	25120.67
585.969	25714.1
586.329	25821.67
586.688	26425.72
587.048	26699.61
587.408	26963.56
587.768	27548.4
588.127	27958.56
588.487	28282.84
588.846	28884.41
589.206	29019.32
589.565	29671.96
589.925	30109.69
590.284	30418.83
590.643	30831.03
591.003	31447.28
591.362	31913.26
591.721	32241.38
592.08	32703.07
592.44	33232.77
592.799	33647.22
593.158	34065.29
593.517	34519.97
593.876	35096.45
594.235	35376.22
594.593	35852.81
594.952	36388.85
595.311	36666.8
595.67	37190.86
596.029	37905.19
596.387	38217.72
596.746	38912.85
597.104	39174.53
597.463	39437.35
597.822	40046.83
598.18	40452.02
598.538	40689.75
598.897	41292.67
599.255	41433.23
599.613	42396.37
599.972	42503.49
600.33	42936.02
600.688	43191.83
601.046	43827.97
601.404	44206.27
601.762	44446.94
602.12	44876.31
602.478	45247.14
602.836	45759.9
603.194	45721.48
603.552	46328.92
603.91	46413.67
604.268	46906.54
604.625	47158.05
604.983	47608.44
605.341	47742.67
605.698	48195.31
606.056	48509.2
606.413	48696.54
606.771	48966.59
607.128	49226.7
607.485	49364.55
607.843	49631.21
608.2	49888.38
608.557	50303.73
608.914	50371.75
609.272	50688.58
609.629	50796.83
609.986	51113.43
610.343	51105.07
610.7	51599.97
611.057	51477.49
611.414	51702.34
611.771	51829.34
612.127	52078.15
612.484	52192.72
612.841	52448.54
613.198	52412.6
613.554	52511.13
613.911	52791.8
614.267	52879.71
614.624	52930.78
614.98	53148.18
615.337	53362.64
615.693	53375.97
616.05	53368.96
616.406	53779.8
616.762	53720.37
617.118	53757.88
617.475	53835.84
617.831	53910.42
618.187	54130.75
618.543	54115.61
618.899	54353.57
619.255	54359.9
619.611	54378.43
619.967	54555.37
620.323	54605.09
620.678	54544.98
621.034	54509.72
621.39	54611.64
621.746	54645.09
622.101	54927.57
622.457	54793.79
622.812	54918.08
623.168	55039.65
623.523	55050.73
623.879	55104.29
624.234	54989.71
624.589	55067.9
624.945	55121.01
625.3	55248.24
625.655	55229.03
626.01	55262.7
626.365	55302.02
626.72	55311.74
627.075	55259.08
627.43	55314.45
627.785	55403.49
628.14	55440.55
628.495	55418.4
628.85	55428.57
629.205	55400.77
629.559	55617.27
629.914	55394.9
630.269	55514.9
630.623	55405.07
630.978	55383.37
631.332	55505.63
631.687	55632.86
632.041	55506.99
632.396	55505.86
632.75	55474.67
633.104	55542.47
633.459	55398.52
633.813	55389.93
634.167	55418.18
634.521	55416.37
634.875	55403.26
635.229	55398.52
635.583	55305.64
635.937	55349.7
636.291	55273.55
636.645	55306.77
636.999	55246.43
637.352	55368.46
637.706	55202.81
638.06	55372.3
638.413	55220.44
638.767	55211.4
639.121	55249.82
639.474	55163.72
639.828	55151.74
640.181	55257.05
640.534	55256.37
640.888	55151.74
641.241	55058.64
641.594	55160.33
641.947	55223.83
642.301	55092.99
642.654	55160.33
643.007	55152.19
643.36	55119.43
643.713	55022.48
644.066	55101.57
644.419	54905.87
644.771	54781.58
645.124	54512.89
645.477	54504.75
645.83	54387.47
646.182	54247.81
646.535	54156.74
646.888	54300.46
647.24	54134.37
647.593	54380.46
647.945	54205.55
648.298	54103.86
648.65	53995.39
649.002	54028.38
649.355	54212.56
649.707	54097.31
650.059	54213.69
650.411	54549.95
650.763	54554.7
651.115	54862.03
651.467	54765.99
651.819	54826.1
652.171	54740.91
652.523	54714.92
652.875	54664.52
653.227	54563.28
653.578	54731.64
653.93	54676.27
654.282	54609.61
654.633	54553.79
654.985	54607.8
655.337	54565.32
655.688	54604.64
656.039	54673.56
656.391	54443.29
656.742	54423.4
657.094	54546.56
657.445	54623.39
657.796	54639.44
658.147	54504.98
658.498	54550.4
658.849	54599.44
659.2	54481.25
659.551	54491.42
659.902	54622.26
660.253	54571.19
660.604	54558.76
660.955	54343.85
661.306	54532.32
661.656	54429.28
662.007	54553.79
662.358	54510.85
662.708	54526.67
663.059	54456.39
663.409	54299.79
663.76	54564.19
664.11	54442.83
664.461	54533.68
664.811	54405.32
665.161	54477.86
665.511	54324.87
665.862	54415.72
666.212	54487.8
666.562	54472.89
666.912	54406
667.262	54424.08
667.612	54281.71
667.962	54322.16
668.312	54358.32
668.662	54518.76
669.011	54293.23
669.361	54235.61
669.711	54308.37
670.06	54267.25
670.41	54174.59
670.76	54079.68
671.109	54268.83
671.459	54265.21
671.808	54112
672.157	54254.14
672.507	53952.23
672.856	53951.32
673.205	54090.75
673.554	54198.77
673.904	54032.9
674.253	54164.65
674.602	54114.93
674.951	53569.18
675.3	53437.21
675.649	53957.65
675.998	53864.54
676.346	53891.21
676.695	53983.64
677.044	53715.4
677.393	53881.72
677.741	53878.56
678.09	53741.84
678.438	53734.6
678.787	53879.01
679.135	53804.88
679.484	53630.88
679.832	53686.02
680.181	53544.1
680.529	53674.72
680.877	53585.23
681.225	53499.36
681.573	53652.12
681.922	53414.39
682.27	53344.33
682.618	53362.18
682.966	53286.48
683.314	53425.01
683.661	53244
684.009	53215.07
684.357	53083.1
684.705	53036.32
685.053	53158.35
685.4	53025.24
685.748	52898.24
686.095	52905.47
686.443	52810.79
686.79	52752.71
687.138	52797.91
687.485	52710.9
687.832	52687.4
688.18	52644.46
688.527	52529.21
688.874	52403.11
689.221	52415.77
689.568	52242.67
689.915	52204.7
690.262	52131.26
690.609	52062.78
690.956	51993.41
691.303	51983.92
691.65	51803.36
691.997	51737.14
692.344	51616.92
692.69	51579.86
693.037	51600.87
693.383	51330.83
693.73	51556.36
694.077	51263.03
694.423	51284.05
694.769	51131.28
695.116	51214.9
695.462	51098.06
695.808	50888.8
696.155	50975.35
696.501	50673.44
696.847	50645.87
697.193	50471.41
697.539	50598.42
697.885	50313
698.231	50285.66
698.577	50105.55
698.923	50072.78
699.269	49943.52
699.614	49865.33
699.96	49827.81
700.306	49822.16
700.651	49614.26
700.997	49475.28
701.342	49346.47
701.688	49342.63
702.033	49325.45
702.379	49191.22
702.724	49151.45
703.069	49112.58
703.415	48642.99
703.76	48760.27
704.105	48729.76
704.45	48577.45
704.795	48318.7
705.14	48306.95
705.485	48210.91
705.83	48032.61
706.175	48076.67
706.52	47970.91
706.865	47930.46
707.209	47760.3
707.554	47655.22
707.899	47805.95
708.243	47497.71
708.588	47485.73
708.932	47291.61
709.277	47153.08
709.621	47099.98
709.966	46986.98
710.31	47210.03
710.654	46809.59
710.998	46868.34
711.342	46788.12
711.687	46713.32
712.031	46486.89
712.375	46348.58
712.719	46517.84
713.063	46416.83
713.407	46518.52
713.75	46348.81
714.094	46194.46
714.438	46020.46
714.782	46007.8
715.125	45933
715.469	45981.81
715.812	45838.77
716.156	45569.85
716.499	45634.48
716.843	45547.02
717.186	45297.54
717.53	45589.73
717.873	45492.11
718.216	45454.82
718.559	45368.5
718.902	44966.25
719.246	45084.89
719.589	44892.8
719.932	44885.8
720.275	44791.34
720.617	44763.09
720.96	44716.99
721.303	44780.26
721.646	44748.63
721.989	44373.49
722.331	44648.06
722.674	44617.33
723.016	44476.77
723.359	44297.56
723.701	44315.42
724.044	44085.82
724.386	44037.91
724.729	44102.99
725.071	43974.41
725.413	44014.41
725.755	43961.75
726.097	43863.45
726.439	43730.12
726.782	43645.15
727.124	43810.57
727.465	43658.03
727.807	43712.04
728.149	43545.49
728.491	43435.44
728.833	43552.05
729.175	43451.03
729.516	43272.05
729.858	43255.56
730.199	43290.81
730.541	43268.66
730.882	43225.28
731.224	43226.86
731.565	42915.91
731.906	42999.29
732.248	43069.57
732.589	42791.84
732.93	42716.59
733.271	42745.29
733.612	42875.91
733.953	42736.48
734.294	42656.7
734.635	42539.87
734.976	42676.59
735.317	42395.69
735.658	42582.13
735.999	42401.34
736.339	42434.11
736.68	42444.96
737.021	42380.55
737.361	42094.68
737.702	42459.65
738.042	42193.44
738.383	42154.8
738.723	42328.58
739.063	42032.09
739.404	42127.23
739.744	41991.64
740.084	41911.41
740.424	41925.42
740.764	41755.94
741.104	41892.66
741.444	41705.09
741.784	41683.85
742.124	41745.54
742.464	41749.61
742.804	41653.34
743.143	41619.89
743.483	41528.82
743.823	41437.53
744.162	41327.47
744.502	41235.5
744.841	41178.55
745.181	41333.35
745.52	41158.66
745.86	41101.26
746.199	41152.34
746.538	41140.13
746.877	41089.06
747.216	41081.6
747.556	40950.31
747.895	40990.76
748.234	40779.69
748.573	40730.88
748.911	40859.24
749.25	40739.47
749.589	40617.43
749.928	40630.09
750.267	40503.99
750.605	40546.25
750.944	40451.11
751.283	40288.4
751.621	40554.39
751.96	40184.23
752.298	40179.71
752.636	40132.25
752.975	40090.22
753.313	39834.4
753.651	39950.33
753.989	39802.32
754.327	39653.17
754.666	39486.62
755.004	39626.95
755.342	39693.17
755.679	39562.32
756.017	39351.03
756.355	39513.96
756.693	39287.98
757.031	39269.45
757.368	39061.54
757.706	38971.15
758.044	38802.79
758.381	38883.02
758.719	38826.07
759.056	38806.18
759.394	38627.88
759.731	38349.47
760.068	38319.87
760.405	38246.2
760.743	38149.48
761.08	38292.52
761.417	37876.49
761.754	37855.7
762.091	37735.93
762.428	37763.5
762.765	37533.22
763.102	37656.16
763.438	37362.83
763.775	37190.63
764.112	37199.9
764.449	37392.66
764.785	37014.14
765.122	36801.72
765.458	36736.41
765.795	36729.4
766.131	36797.65
766.467	36496.41
766.804	36377.09
767.14	36254.16
767.476	36057.33
767.812	36033.15
768.148	36055.29
768.485	35876.32
768.821	35688.52
769.157	35652.37
769.492	35533.27
769.828	35508.19
770.164	35154.53
770.5	35146.84
770.836	35096.68
771.171	34940.97
771.507	34885.16
771.842	34565.39
772.178	34621.66
772.513	34397.26
772.849	34342.12
773.184	34286.53
773.519	34208.79
773.855	34089.02
774.19	33933.32
774.525	33785.07
774.86	33837.95
775.195	33640.67
775.53	33473.89
775.865	33374.24
776.2	33095.82
776.535	33023.51
776.87	33039.55
777.205	32989.39
777.539	32783.97
777.874	32732.67
778.209	32430.08
778.543	32355.05
778.878	32169.07
779.212	32140.82
779.547	32054.04
779.881	32194.15
780.215	31782.64
780.55	31907.16
780.884	31728.4
781.218	31587.39
781.552	31507.17
781.886	31326.38
782.22	31354.85
782.554	31095.43
782.888	30817.92
783.222	30810.91
783.556	30620.86
783.889	30588.32
784.223	30542.67
784.557	30297.71
784.89	30446.18
785.224	30236.46
785.557	30131.83
785.891	30158.27
786.224	29945.85
786.558	29874.44
786.891	29619.53
787.224	29520.33
787.557	29526.65
787.891	29478.52
788.224	29440.78
788.557	29428.35
788.89	29268.81
789.223	29122.6
789.556	29052.99
789.888	28796.95
790.221	28739.1
790.554	28681.48
790.887	28595.38
791.219	28475.61
791.552	28452.33
791.884	28286.23
792.217	28172.11
792.549	28074.49
792.882	27795.4
793.214	27780.94
793.546	27759.69
793.879	27668.62
794.211	27519.25
794.543	27524.45
794.875	27355.86
795.207	27374.62
795.539	27345.24
795.871	27244.68
796.203	26982.31
796.535	26862.54
796.867	26913.39
797.198	26810.57
797.53	26859.15
797.862	26591.36
798.193	26639.72
798.525	26415.1
798.856	26497.81
799.188	26164.26
799.519	26113.86
799.85	25981.66
800.182	26106.86
800.513	26033.86
800.844	25831.38
801.175	25941.66
801.506	25744.83
801.837	25573.76
802.168	25564.5
802.499	25537.83
802.83	25380.77
803.161	25352.98
803.491	25431.17
803.822	25356.14
804.153	25167.22
804.483	24982.82
804.814	24955.93
805.145	24822.14
805.475	24817.85
805.805	24884.52
806.136	24779.43
806.466	24711.64
806.796	24604.75
807.126	24455.37
807.457	24411.99
807.787	24399.33
808.117	24318.65
808.447	24249.5
808.777	24307.81
809.107	24075.72
809.436	24097.19
809.766	24056.74
810.096	23878.67
810.426	23908.04
810.755	23852.9
811.085	23808.84
811.414	23783.3
811.744	23532.46
812.073	23459.92
812.403	23540.37
812.732	23339.47
813.061	23390.09
813.39	23195.97
813.719	23171.79
814.049	23295.18
814.378	23176.76
814.707	23053.83
815.036	22973.6
815.365	22981.74
815.693	22680.28
816.022	22777.9
816.351	22613.39
816.68	22502.88
817.008	22668.08
817.337	22474.41
817.665	22344.47
817.994	22536.78
818.322	22436.22
818.651	22219.95
818.979	22133.63
819.307	22268.31
819.636	22244.58
819.964	22047.3
820.292	22188.54
820.62	22145.83
820.948	22064.48
821.276	22099.28
821.604	21953.97
821.932	21970.02
822.259	22006.85
822.587	22055.66
822.915	21942.22
823.243	22032.84
823.57	22009.79
823.898	22038.94
824.225	21852.05
824.553	21975.21
824.88	21990.58
825.207	21992.84
825.535	21953.07
825.862	21996.91
826.189	21894.09
826.516	21965.72
826.843	21968.89
827.17	22035.1
827.497	22015.44
827.824	22041.65
828.151	22092.5
828.478	21879.4
828.805	21899.28
829.131	22062.22
829.458	21876.23
829.785	21696.12
830.111	21911.03
830.438	21913.75
830.764	21878.04
831.09	21871.94
831.417	21815.44
831.743	21900.19
832.069	21862
832.395	21885.72
832.722	21878.27
833.048	21721.43
833.374	21820.19
833.7	21641.89
834.026	21693.41
834.351	21699.29
834.677	21632.85
835.003	21631.95
835.329	21672.62
835.654	21687.99
835.98	21520.31
836.306	21556.92
836.631	21371.61
836.956	21478.96
837.282	21448.67
837.607	21401.89
837.932	21247.1
838.258	21333.42
838.583	21292.75
838.908	21264.05
839.233	21199.87
839.558	21186.99
839.883	21132.75
840.208	21119.42
840.533	21127.55
840.858	21059.31
841.182	21170.94
841.507	21058.18
841.832	20897.05
842.156	21022.24
842.481	20858.18
842.805	20807.11
843.13	20852.76
843.454	20691.41
843.778	20651.18
844.103	20579.09
844.427	20558.75
844.751	20534.12
845.075	20495.25
845.399	20360.11
845.723	20292.55
846.047	20334.13
846.371	20119.89
846.695	20184.3
847.019	19977.98
847.343	19941.59
847.666	19803.97
847.99	19833.35
848.313	19745.44
848.637	19662.96
848.96	19734.14
849.284	19619.34
849.607	19367.37
849.931	19298
850.254	19182.29
850.577	19147.94
850.9	18932.81
851.223	19036.53
851.546	18812.36
851.869	18795.86
852.192	18971.9
852.515	18620.27
852.838	18561.97
853.161	18605.36
853.483	18568.75
853.806	18421.41
854.129	18345.7
854.451	18245.14
854.774	18200.85
855.096	18135.09
855.419	18116.56
855.741	18070.01
856.063	17960.4
856.385	17999.95
856.708	17853.06
857.03	17825.49
857.352	17790.24
857.674	17713.18
857.996	17727.87
858.318	17557.7
858.64	17601.99
858.961	17579.62
859.283	17462.11
859.605	17458.5
859.926	17496.23
860.248	17407.88
860.57	17303.92
860.891	17305.73
861.212	17309.57
861.534	17317.93
861.855	17170.59
862.176	17100.09
862.498	17201.55
862.819	17126.53
863.14	17073.2
863.461	16982.58
863.782	16943.71
864.103	16906.87
864.424	16973.08
864.745	16985.51
865.065	16916.59
865.386	16771.73
865.707	16671.17
866.027	16781
866.348	16611.29
866.668	16619.87
866.989	16702.13
867.309	16541.01
867.63	16660.78
867.95	16642.47
868.27	16496.49
868.59	16461.46
868.91	16468.69
869.23	16354.12
869.55	16270.05
869.87	16389.82
870.19	16305.76
870.51	16359.54
870.83	16392.08
871.15	16190.73
871.469	16219.21
871.789	16274.12
872.109	16218.08
872.428	16038.19
872.748	16157.96
873.067	16151.86
873.386	16174.46
873.706	16135.82
874.025	16008.82
874.344	16004.75
874.663	15974.47
874.982	15947.12
875.301	15805.88
875.62	15859.44
875.939	15867.35
876.258	15882.49
876.577	15804.53
876.896	15816.73
877.214	15674.59
877.533	15767.69
877.852	15688.6
878.17	15679.79
878.489	15717.75
878.807	15689.05
879.125	15602.05
879.444	15583.52
879.762	15602.73
880.08	15562.27
880.398	15436.63
880.716	15453.12
881.034	15462.39
881.352	15445.67
881.67	15387.59
881.988	15313.69
882.306	15313.47
882.624	15331.77
882.941	15173.13
883.259	15160.48
883.577	15127.48
883.894	15077.09
884.212	15111.44
884.529	15010.88
884.846	15093.13
885.164	14988.28
885.481	14935.4
885.798	14934.72
886.115	14816.76
886.432	14788.74
886.75	14821.73
887.067	14790.54
887.383	14704.67
887.7	14732.69
888.017	14620.15
888.334	14611.11
888.651	14589.42
888.967	14648.17
889.284	14472.13
889.6	14484.79
889.917	14411.8
890.233	14356.88
890.55	14274.85
890.866	14325.24
891.182	14217.68
891.498	14249.99
891.815	14158.92
892.131	14032.82
892.447	14069.66
892.763	13943.79
893.079	14068.08
893.395	13975.42
893.71	14002.77
894.026	13839.61
894.342	13917.8
894.657	13766.84
894.973	13753.28
895.289	13712.15
895.604	13687.75
895.92	13634.42
896.235	13659.05
896.55	13585.38
896.865	13433.29
897.181	13411.14
897.496	13444.82
897.811	13350.81
898.126	13248.44
898.441	13238.95
898.756	13277.81
899.071	13213.18
899.386	13192.39
899.7	13077.59
900.015	13017.03
900.33	12923.25
900.644	12899.75
900.959	12896.58
901.273	12822.01
901.588	12731.39
901.902	12697.04
902.216	12615.23
902.531	12654.55
902.845	12605.74
903.159	12502.92
903.473	12476.71
903.787	12433.09
904.101	12376.82
904.415	12447.55
904.729	12316.26
905.042	12331.4
905.356	12207.33
905.67	12251.18
905.984	12189.93
906.297	12147
906.611	12094.12
906.924	12031.29
907.237	11946.1
907.551	11894.57
907.864	11864.29
908.177	11795.37
908.491	11724.18
908.804	11744.52
909.117	11643.73
909.43	11575.71
909.743	11616.84
910.056	11528.03
910.368	11522.15
910.681	11417.52
910.994	11328.94
911.307	11328.26
911.619	11227.47
911.932	11248.26
912.244	11257.75
912.557	11136.4
912.869	11050.08
913.181	11069.74
913.494	11012.34
913.806	10872.91
914.118	10911.1
914.43	10838.33
914.742	10828.39
915.054	10794.04
915.366	10768.5
915.678	10740.03
915.99	10632.69
916.302	10568.06
916.613	10563.08
916.925	10503.65
917.236	10450.54
917.548	10435.4
917.859	10473.14
918.171	10335.52
918.482	10327.61
918.794	10247.61
919.105	10243.77
919.416	10130.55
919.727	10169.87
920.038	10075.19
920.349	10022.53
920.66	9997.45
920.971	9917.45
921.282	9899.37
921.593	9857.57
921.903	9865.48
922.214	9853.05
922.525	9775.76
922.835	9683.78
923.146	9623.9
923.456	9604.01
923.767	9636.1
924.077	9610.11
924.387	9461.19
924.697	9517.24
925.008	9411.93
925.318	9354.08
925.628	9282.89
925.938	9302.33
926.248	9198.83
926.558	9219.16
926.867	9155.44
927.177	9106.62
927.487	9107.75
927.796	8967.87
928.106	9046.29
928.416	8915.22
928.725	8959.28
929.034	8816.24
929.344	8873.86
929.653	8799.29
929.962	8768.1
930.271	8762.23
930.581	8691.95
930.89	8659.86
931.199	8572.85
931.508	8599.97
931.817	8634.55
932.125	8581.44
932.434	8485.85
932.743	8408.11
933.051	8395.91
933.36	8350.03
933.669	8296.25
933.977	8274.1
934.286	8249.02
934.594	8229.81
934.902	8123.37
935.21	8185.52
935.519	8102.81
935.827	8111.4
936.135	8037.5
936.443	8003.38
936.751	7903.72
937.059	7901.68
937.367	7845.87
937.674	7860.33
937.982	7809.48
938.29	7709.37
938.597	7755.7
938.905	7644.97
939.213	7601.35
939.52	7561.81
939.827	7554.35
940.135	7566.55
940.442	7526.78
940.749	7534.46
941.056	7561.13
941.363	7412.66
941.67	7443.17
941.977	7344.19
942.284	7333.56
942.591	7288.59
942.898	7260.12
943.205	7253.11
943.511	7236.17
943.818	7211.76
944.125	7090.63
944.431	7129.73
944.738	7115.26
945.044	7070.07
945.35	6968.6
945.657	6984.65
945.963	6972.9
946.269	6892.9
946.575	6954.14
946.881	6846.35
947.187	6856.51
947.493	6810.19
947.799	6838.66
948.105	6758.44
948.41	6674.6
948.716	6759.57
949.022	6644.32
949.327	6679.57
949.633	6525.9
949.938	6607.71
950.244	6530.87
950.549	6518.67
950.854	6480.03
951.16	6461.04
951.465	6447.03
951.77	6373.82
952.075	6325
952.38	6390.31
952.685	6347.38
952.99	6238.68
953.294	6213.82
953.599	6223.54
953.904	6200.26
954.209	6168.17
954.513	6195.97
954.818	6192.8
955.122	6183.76
955.426	6051.34
955.731	6025.35
956.035	5993.03
956.339	5973.15
956.643	5965.01
956.948	5951
957.252	5918.46
957.556	5904.22
957.86	5869.87
958.163	5869.87
958.467	5809.54
958.771	5814.06
959.075	5731.57
959.378	5663.33
959.682	5705.13
959.985	5690.9
960.289	5637.79
960.592	5648.64
960.896	5549.66
961.199	5542.42
961.502	5528.19
961.805	5492.03
962.108	5494.97
962.411	5496.55
962.714	5411.35
963.017	5406.84
963.32	5439.6
963.623	5352.15
963.926	5359.83
964.228	5312.6
964.531	5276.9
964.833	5297.23
965.136	5263.34
965.438	5250.23
965.741	5169.1
966.043	5207.74
966.345	5154.64
966.648	5132.04
966.95	5140.85
967.252	5146.96
967.554	5075.32
967.856	5053.4
968.158	5003
968.46	5019.27
968.761	4975.21
969.063	4901.99
969.365	4941.99
969.666	4930.01
969.968	4869.45
970.269	4928.66
970.571	4909.22
970.872	4824.7
971.174	4803.69
971.475	4789.68
971.776	4798.04
972.077	4693.63
972.378	4765.27
972.679	4737.93
972.98	4702.9
973.281	4696.8
973.582	4673.3
973.883	4621.32
974.183	4582.68
974.484	4543.81
974.785	4572.28
975.085	4555.33
975.386	4576.57
975.686	4525.73
975.986	4489.8
976.287	4450.02
976.587	4415.22
976.887	4389.69
977.187	4415.22
977.487	4391.72
977.787	4350.37
978.087	4362.12
978.387	4308.56
978.687	4320.54
978.987	4245.74
979.286	4284.15
979.586	4258.16
979.885	4183.14
980.185	4185.17
980.484	4145.17
980.784	4158.28
981.083	4174.1
981.382	4126.64
981.682	4107.21
981.981	3993.31
982.28	4066.31
982.579	4070.83
982.878	4055.91
983.177	4015.91
983.475	3963.94
983.774	3988.12
984.073	3962.35
984.372	3930.72
984.67	3931.85
984.969	3920.77
985.267	3909.02
985.566	3886.65
985.864	3860.21
986.162	3860.66
986.461	3805.75
986.759	3805.52
987.057	3727.33
987.355	3765.75
987.653	3699.54
987.951	3743.6
988.249	3664.96
988.547	3721.91
988.844	3693.66
989.142	3673.32
989.44	3592.42
989.737	3607.33
990.035	3610.95
990.332	3583.61
990.63	3548.58
990.927	3552.65
991.224	3524.62
991.521	3537.05
991.819	3487.79
992.116	3505.42
992.413	3471.07
992.71	3481.46
993.006	3471.07
993.303	3430.39
993.6	3435.36
993.897	3408.47
994.193	3372.31
994.49	3336.83
994.787	3338.19
995.083	3310.39
995.379	3304.97
995.676	3245.31
995.972	3265.65
996.268	3258.19
996.565	3225.2
996.861	3234.01
997.157	3211.64
997.453	3192.66
997.749	3155.82
998.044	3193.33
998.34	3094.81
998.636	3089.83
998.932	3074.24
999.227	3109.04
999.523	3060.23
999.818	3076.95
1000.114	3005.09
1000.409	3010.74
1000.704	3017.52
1001	2983.85
1001.295	2951.98
1001.59	2966.67
1001.885	2935.71
1002.18	2914.02
1002.475	2909.73
1002.77	2921.25
1003.065	2907.24
1003.359	2875.83
1003.654	2856.85
1003.949	2830.18
1004.243	2835.6
1004.538	2777.98
1004.832	2823.17
1005.127	2755.15
1005.421	2743.18
1005.715	2734.59
1006.009	2708.83
1006.304	2655.27
1006.598	2688.71
1006.892	2636.51
1007.186	2617.08
1007.48	2630.41
1007.773	2624.99
1008.067	2602.16
1008.361	2600.36
1008.655	2563.52
1008.948	2547.25
1009.242	2543.18
1009.535	2502.5
1009.829	2491.66
1010.122	2467.48
1010.415	2467.93
1010.708	2469.96
1011.001	2446.24
1011.295	2427.25
1011.588	2420.25
1011.881	2412.11
1012.173	2383.19
1012.466	2359.91
1012.759	2368.05
1013.052	2385.22
1013.344	2361.49
1013.637	2326.92
1013.93	2284.21
1014.222	2264.09
1014.514	2271.1
1014.807	2264.09
1015.099	2233.59
1015.391	2205.79
1015.683	2213.47
1015.976	2246.24
1016.268	2183.87
1016.56	2190.87
1016.851	2195.85
1017.143	2164.89
1017.435	2146.36
1017.727	2123.31
1018.018	2096.19
1018.31	2083.76
1018.602	2080.6
1018.893	2066.58
1019.185	2041.27
1019.476	2046.7
1019.767	2047.6
1020.058	2014.38
1020.35	1999.69
1020.641	1969.41
1020.932	1937.32
1021.223	1962.63
1021.514	1935.51
1021.804	1930.99
1022.095	1914.95
1022.386	1900.94
1022.677	1901.16
1022.967	1857.55
1023.258	1845.57
1023.548	1834.5
1023.839	1834.73
1024.129	1806.25
1024.419	1825.91
1024.709	1794.95
1025	1783.65
1025.29	1783.2
1025.58	1738.23
1025.87	1721.96
1026.16	1766.7
1026.449	1720.83
1026.739	1704.79
1027.029	1690.32
1027.319	1690.1
1027.608	1677.67
1027.898	1659.14
1028.187	1634.28
1028.477	1654.84
1028.766	1628.63
1029.055	1626.14
1029.344	1607.61
1029.634	1625.92
1029.923	1551.34
1030.212	1575.3
1030.501	1560.16
1030.79	1582.3
1031.078	1509.54
1031.367	1529.42
1031.656	1513.83
1031.945	1499.37
1032.233	1508.86
1032.522	1472.7
1032.81	1479.48
1033.099	1451.23
1033.387	1448.52
1033.675	1439.93
1033.963	1406.49
1034.251	1413.27
1034.54	1409.88
1034.828	1404.45
1035.116	1383.66
1035.403	1393.83
1035.691	1359.26
1035.979	1345.47
1036.267	1387.28
1036.554	1344.8
1036.842	1323.55
1037.129	1313.16
1037.417	1293.27
1037.704	1307.96
1037.992	1300.05
1038.279	1283.78
1038.566	1271.12
1038.853	1271.12
1039.14	1271.12
