Data from orange_diffuse_book_FLMS001491_00067.txt Node
Date: Wed Feb 08 15:29:54 GMT 2017
User: dcchb
Spectrometer: FLMS00149
Trigger mode: 0
Integration Time (sec): 2.000000E-2
Scans to average: 10
Electric dark correction enabled: true
Nonlinearity correction enabled: false
Boxcar width: 0
XAxis mode: Wavelengths
Number of Pixels in Spectrum: 2048
>>>>>Begin Spectral Data<<<<<
341.393	-15.62
341.776	-15.62
342.16	-15.62
342.543	-70.53
342.927	-76.18
343.31	-66.24
343.693	-75.51
344.077	-54.72
344.46	-50.42
344.843	-51.78
345.226	-38.9
345.61	-37.77
345.993	-15.62
346.376	-11.1
346.759	11.5
347.142	35.9
347.525	37.48
347.908	54.89
348.291	65.73
348.674	96.24
349.057	100.31
349.44	121.1
349.823	157.93
350.206	152.51
350.588	200.42
350.971	216.24
351.354	232.06
351.737	234.77
352.119	250.81
352.502	257.82
352.884	294.2
353.267	279.06
353.65	290.13
354.032	310.02
354.414	313.64
354.797	306.18
355.179	336.69
355.562	324.93
355.944	340.08
356.326	349.79
356.709	358.38
357.091	348.89
357.473	354.54
357.855	344.14
358.238	344.6
358.62	340.98
359.002	319.29
359.384	346.63
359.766	338.49
360.148	329
360.53	350.92
360.912	357.02
361.294	324.26
361.676	325.61
362.057	339.17
362.439	326.74
362.821	341.43
363.203	313.86
363.584	330.81
363.966	341.66
364.348	338.04
364.729	307.31
365.111	319.06
365.493	324.71
365.874	310.25
366.256	340.98
366.637	326.52
367.019	344.82
367.4	326.29
367.781	332.39
368.163	327.42
368.544	322
368.925	326.06
369.306	314.09
369.688	322.45
370.069	321.77
370.45	313.86
370.831	316.12
371.212	324.03
371.593	331.71
371.974	338.49
372.355	313.86
372.736	330.58
373.117	310.92
373.498	333.07
373.879	329.68
374.26	326.97
374.641	318.38
375.021	337.59
375.402	346.4
375.783	317.48
376.163	331.71
376.544	369
376.925	325.61
377.305	341.21
377.686	328.32
378.066	357.48
378.447	329.68
378.827	345.95
379.208	362.9
379.588	363.35
379.968	334.2
380.349	338.27
380.729	356.8
381.109	329.68
381.489	344.37
381.87	368.1
382.25	343.01
382.63	337.36
383.01	362.67
383.39	364.03
383.77	354.76
384.15	340.3
384.53	366.97
384.91	371.94
385.29	369.68
385.67	367.42
386.049	350.7
386.429	363.13
386.809	366.29
387.189	351.15
387.568	355.22
387.948	363.13
388.328	372.39
388.707	364.48
389.087	350.47
389.466	357.48
389.846	378.49
390.225	380.98
390.605	377.59
390.984	376.69
391.363	362.45
391.743	379.4
392.122	382.56
392.501	379.85
392.881	393.86
393.26	405.38
393.639	376.46
394.018	371.94
394.397	409
394.776	370.81
395.155	386.18
395.534	392.28
395.913	377.14
396.292	388.21
396.671	387.76
397.05	408.32
397.429	394.54
397.808	402.67
398.186	385.05
398.565	402.9
398.944	382.56
399.323	415.33
399.701	402.67
400.08	395.44
400.458	411.26
400.837	400.64
401.215	393.18
401.594	412.39
401.972	406.51
402.351	406.51
402.729	429.79
403.107	416.91
403.486	416.91
403.864	423.92
404.242	438.83
404.62	437.7
404.999	432.05
405.377	423.92
405.755	442.45
406.133	453.29
406.511	439.96
406.889	432.73
407.267	450.81
407.645	454.2
408.023	449.45
408.401	450.36
408.779	464.14
409.156	439.06
409.534	474.54
409.912	477.02
410.29	479.51
410.667	456.23
411.045	486.96
411.422	508.88
411.8	475.89
412.178	485.38
412.555	505.5
412.933	474.54
413.31	489
413.687	509.34
414.065	484.7
414.442	515.66
414.819	514.53
415.197	506.4
415.574	510.47
415.951	544.82
416.328	513.4
416.705	528.32
417.082	507.98
417.46	517.02
417.837	526.74
418.214	556.12
418.591	538.49
418.967	509.11
419.344	546.85
419.721	558.15
420.098	561.99
420.475	538.49
420.852	561.54
421.228	568.54
421.605	583.01
421.982	575.55
422.358	576
422.735	570.35
423.111	576.45
423.488	587.07
423.864	602.67
424.241	588.88
424.617	602.22
424.994	609.9
425.37	609.45
425.746	618.26
426.123	599.5
426.499	616.68
426.875	618.94
427.251	628.2
427.627	640.63
428.003	623.46
428.379	627.75
428.756	646.06
429.132	644.25
429.507	633.4
429.883	642.89
430.259	676.56
430.635	681.31
431.011	681.08
431.387	696.9
431.763	692.61
432.138	695.77
432.514	687.19
432.89	693.06
433.265	723.57
433.641	702.55
434.016	709.78
434.392	729.44
434.767	735.77
435.143	756.79
435.518	726.51
435.894	745.26
436.269	747.52
436.644	759.27
437.02	777.8
437.395	782.32
437.77	779.84
438.145	793.62
438.52	762.66
438.895	793.17
439.271	789.33
439.646	810.35
440.021	801.76
440.395	797.92
440.77	839.05
441.145	818.93
441.52	834.53
441.895	824.81
442.27	849.67
442.645	839.27
443.019	849.44
443.394	815.77
443.769	835.43
444.143	829.78
444.518	882.89
444.892	851.7
445.267	868.65
445.641	889.44
446.016	852.6
446.39	868.65
446.764	856.67
447.139	870.23
447.513	883.34
447.887	897.35
448.262	882.66
448.636	888.54
449.01	910.46
449.384	893.96
449.758	909.78
450.132	928.53
450.506	905.26
450.88	905.03
451.254	924.02
451.628	941.87
452.002	929.44
452.376	946.16
452.75	933.51
453.123	946.39
453.497	962.66
453.871	971.47
454.244	973.05
454.618	993.84
454.992	995.88
455.365	1014.18
455.739	1013.05
456.112	1004.69
456.486	1015.76
456.859	1019.38
457.232	1018.7
457.606	1028.19
457.979	1044.46
458.352	1090.56
458.725	1050.79
459.099	1082.2
459.472	1094.63
459.845	1121.3
460.218	1088.3
460.591	1111.35
460.964	1111.58
461.337	1125.14
461.71	1141.86
462.083	1156.55
462.456	1148.42
462.829	1206.27
463.201	1185.93
463.574	1189.09
463.947	1152.71
464.32	1202.43
464.692	1197.45
465.065	1193.61
465.438	1213.05
465.81	1233.16
466.183	1227.28
466.555	1233.84
466.928	1278.13
467.3	1245.81
467.672	1277.68
468.045	1307.51
468.417	1285.14
468.789	1306.15
469.161	1316.77
469.534	1311.35
469.906	1345.25
470.278	1353.38
470.65	1357.9
471.022	1373.72
471.394	1404.68
471.766	1416.43
472.138	1406.26
472.51	1451.91
472.882	1454.62
473.253	1483.55
473.625	1486.26
473.997	1505.02
474.369	1473.61
474.74	1543.89
475.112	1540.5
475.484	1546.15
475.855	1567.84
476.227	1615.75
476.598	1631.57
476.97	1672.24
477.341	1697.33
477.713	1705.24
478.084	1709.08
478.455	1737.78
478.827	1767.61
479.198	1788.4
479.569	1818.91
479.94	1841.05
480.311	1854.84
480.682	1906.59
481.053	1947.27
481.424	1960.6
481.795	1948.85
482.166	2039.92
482.537	2032.01
482.908	2027.72
483.279	2061.61
483.65	2102.29
484.021	2137.32
484.391	2163.3
484.762	2182.51
485.133	2205.56
485.503	2221.61
485.874	2265.22
486.244	2285.34
486.615	2363.07
486.985	2404.88
487.356	2419.57
487.726	2448.95
488.097	2502.73
488.467	2518.78
488.837	2533.24
489.207	2562.16
489.578	2609.17
489.948	2687.13
490.318	2657.53
490.688	2695.95
491.058	2768.49
491.428	2749.28
491.798	2782.05
492.168	2876.96
492.538	2885.77
492.908	2945.21
493.278	2958.99
493.648	2992.89
494.017	3034.47
494.387	3055.03
494.757	3104.97
495.126	3180
495.496	3156.05
495.866	3184.97
496.235	3212.77
496.605	3260.68
496.974	3285.54
497.344	3335.25
497.713	3316.95
498.082	3383.16
498.452	3443.05
498.821	3465.64
499.19	3467.9
499.559	3491.41
499.928	3525.08
500.298	3562.36
500.667	3621.12
501.036	3639.2
501.405	3631.74
501.774	3682.13
502.143	3697.73
502.512	3716.26
502.88	3776.14
503.249	3763.49
503.618	3845.52
503.987	3801.45
504.356	3915.12
504.724	3881.23
505.093	3901.56
505.462	3941.56
505.83	4004.61
506.199	4021.11
506.567	4071.5
506.936	4086.19
507.304	4123.03
507.672	4127.32
508.041	4170.94
508.409	4200.54
508.777	4224.04
509.145	4272.18
509.514	4267.2
509.882	4318.5
510.25	4333.19
510.618	4380.87
510.986	4370.03
511.354	4430.36
511.722	4484.83
512.09	4501.1
512.458	4518.95
512.826	4566.18
513.193	4580.87
513.561	4635.56
513.929	4652.05
514.297	4715.1
514.664	4719.17
515.032	4692.05
515.4	4771.15
515.767	4824.48
516.135	4849.79
516.502	4836.23
516.869	4925.94
517.237	4929.56
517.604	4909.45
517.972	4996.9
518.339	5015.43
518.706	5035.09
519.073	5056.11
519.44	5149.21
519.808	5194.41
520.175	5145.15
520.542	5216.11
520.909	5267.63
521.276	5262.43
521.643	5265.82
522.009	5363.45
522.376	5385.59
522.743	5423.56
523.11	5469.88
523.477	5498.13
523.843	5518.92
524.21	5629.2
524.577	5644.57
524.943	5635.3
525.31	5684.57
525.676	5727.73
526.043	5797.33
526.409	5812.7
526.776	5823.55
527.142	5856.54
527.508	5905.35
527.874	5939.48
528.241	5989.87
528.607	6004.79
528.973	6068.51
529.339	6118
529.705	6135.86
530.071	6151.22
530.437	6148.74
530.803	6229.86
531.169	6272.12
531.535	6252.91
531.901	6258.79
532.267	6331.78
532.632	6313.48
532.998	6402.74
533.364	6400.93
533.73	6402.52
534.095	6524.77
534.461	6511.21
534.826	6500.59
535.192	6591.89
535.557	6650.19
535.923	6624.2
536.288	6619.46
536.653	6678.21
537.019	6666.69
537.384	6729.51
537.749	6787.14
538.114	6783.97
538.479	6772.22
538.845	6842.28
539.21	6795.05
539.575	6835.27
539.94	6910.07
540.305	6926.34
540.67	6932.67
541.034	6981.26
541.399	7026.68
541.764	7038.43
542.129	7059.22
542.494	7096.73
542.858	7156.39
543.223	7140.35
543.587	7213.57
543.952	7229.84
544.316	7211.99
544.681	7328.14
545.045	7350.74
545.41	7403.84
545.774	7390.06
546.138	7368.14
546.503	7418.76
546.867	7462.83
547.231	7504.63
547.595	7547.57
547.959	7569.04
548.324	7618.53
548.688	7580.56
549.052	7689.94
549.416	7717.28
549.779	7750.28
550.143	7783.95
550.507	7854.68
550.871	7864.62
551.235	7924.51
551.599	7968.8
551.962	8000.89
552.326	8084.96
552.689	8150.49
553.053	8069.14
553.417	8157.27
553.78	8279.53
554.143	8243.6
554.507	8344.16
554.87	8367.21
555.234	8458.05
555.597	8484.27
555.96	8550.26
556.323	8618.5
556.686	8603.59
557.05	8795.9
557.413	8774.2
557.776	8798.16
558.139	8851.26
558.502	8886.97
558.865	9021.66
559.228	9097.59
559.59	9093.29
559.953	9161.54
560.316	9318.14
560.679	9318.6
561.041	9410.8
561.404	9470.91
561.767	9632.03
562.129	9583.9
562.492	9766.27
562.854	9702.32
563.217	9792.48
563.579	9933.27
563.941	10006.94
564.304	10127.16
564.666	10215.75
565.028	10302.3
565.39	10315.41
565.753	10460.04
566.115	10567.15
566.477	10688.73
566.839	10768.73
567.201	10922.62
567.563	11009.17
567.925	11123.52
568.287	11246.23
568.648	11328.71
569.01	11472.44
569.372	11654.35
569.734	11641.47
570.095	11888.92
570.457	11982.71
570.819	12075.81
571.18	12231.29
571.542	12521
571.903	12649.13
572.265	12727.55
572.626	12962.79
572.987	13098.61
573.349	13238.27
573.71	13448.43
574.071	13606.85
574.432	13816.56
574.794	14101.3
575.155	14196.89
575.516	14338.58
575.877	14651.79
576.238	14880.94
576.599	15119.57
576.96	15260.14
577.32	15485.67
577.681	15658.32
578.042	16002.49
578.403	16291.75
578.763	16574.9
579.124	16811.96
579.485	17220.76
579.845	17548.21
580.206	17747.75
580.566	18028.65
580.927	18323.78
581.287	18615.08
581.648	18938
582.008	19295.51
582.368	19585.67
582.728	19882.61
583.089	20220.68
583.449	20652.08
583.809	20968.91
584.169	21350.14
584.529	21696.12
584.889	22177.92
585.249	22532.26
585.609	22821.07
585.969	23280.49
586.329	23691.78
586.688	24192.78
587.048	24520.91
587.408	24937.85
587.768	25380.32
588.127	25819.18
588.487	26269.79
588.846	26791.58
589.206	27009.88
589.565	27512.47
589.925	28191.32
590.284	28423.86
590.643	28930.28
591.003	29407.56
591.362	29899.98
591.721	30323.47
592.08	30777.47
592.44	31395.76
592.799	31787.16
593.158	32242.51
593.517	32852.89
593.876	33275.71
594.235	33614.23
594.593	34234.55
594.952	34834.08
595.311	35156.11
595.67	35563.56
596.029	36181.39
596.387	36562.17
596.746	37177.53
597.104	37397.18
597.463	37951.29
597.822	38426.53
598.18	38862.9
598.538	39236.91
598.897	39998.47
599.255	39902.2
599.613	40849.75
599.972	41075.05
600.33	41592.32
600.688	41825.54
601.046	42396.37
601.404	43000.87
601.762	43296.69
602.12	43757.01
602.478	44114.97
602.836	44593.6
603.194	44772.35
603.552	45078.33
603.91	45291.89
604.268	45775.04
604.625	46046.67
604.983	46591.74
605.341	46732.08
605.698	47215.23
606.056	47495.22
606.413	47713.75
606.771	47973.4
607.128	48363.22
607.485	48388.98
607.843	48584.91
608.2	48997.33
608.557	49431.89
608.914	49497.2
609.272	49910.75
609.629	50059.22
609.986	50262.83
610.343	50398.65
610.7	50751.41
611.057	50897.39
611.414	50966.99
611.771	51219.42
612.127	51526.98
612.484	51567.66
612.841	51776.24
613.198	51800.87
613.554	51970.36
613.911	52206.96
614.267	52248.99
614.624	52377.58
614.98	52537.57
615.337	52693.73
615.693	52865.93
616.05	52810.79
616.406	53127.39
616.762	53085.81
617.118	53148.86
617.475	53227.95
617.831	53406.93
618.187	53512.46
618.543	53643.53
618.899	53853.02
619.255	53801.72
619.611	53916.97
619.967	54038.78
620.323	54206.46
620.678	54052.34
621.034	54062.28
621.39	54145.44
621.746	54174.37
622.101	54460.69
622.457	54271.99
622.812	54395.6
623.168	54476.73
623.523	54504.53
623.879	54688.48
624.234	54458.88
624.589	54601.7
624.945	54695.03
625.3	54673.56
625.655	54703.84
626.01	54800.11
626.365	54792.43
626.72	54795.37
627.075	54908.36
627.43	54790.85
627.785	54769.61
628.14	54923.5
628.495	54944.29
628.85	54969.37
629.205	54898.87
629.559	55089.14
629.914	55034.23
630.269	55087.79
630.623	54983.16
630.978	54881.92
631.332	55089.82
631.687	55154.68
632.041	54982.71
632.396	55050.73
632.75	55022.48
633.104	55053.44
633.459	54902.03
633.813	54936.61
634.167	54964.4
634.521	54927.12
634.875	55075.81
635.229	54927.57
635.583	54850.05
635.937	54867.46
636.291	54852.09
636.645	54950.84
636.999	54810.06
637.352	54919.88
637.706	54746.78
638.06	54824.29
638.413	54843.5
638.767	54781.36
639.121	54818.64
639.474	54700.23
639.828	54716.27
640.181	54714.24
640.534	54839.89
640.888	54706.1
641.241	54583.85
641.594	54737.97
641.947	54746.55
642.301	54669.49
642.654	54756.05
643.007	54734.13
643.36	54706.56
643.713	54591.53
644.066	54760.57
644.419	54496.62
644.771	54317.64
645.124	54098.89
645.477	54023.64
645.83	53860.93
646.182	53830.87
646.535	53793.13
646.888	53865.45
647.24	53708.84
647.593	53905.45
647.945	53873.81
648.298	53603.53
648.65	53713.14
649.002	53551.33
649.355	53721.72
649.707	53641.73
650.059	53791.78
650.411	54086.69
650.763	54133.46
651.115	54497.52
651.467	54399.45
651.819	54303.4
652.171	54290.75
652.523	54307.7
652.875	54289.17
653.227	54189.51
653.578	54408.71
653.93	54277.87
654.282	54136.4
654.633	54106.12
654.985	54163.97
655.337	54279.9
655.688	54149.73
656.039	54243.97
656.391	54051.66
656.742	54120.81
657.094	54170.98
657.445	54242.16
657.796	54232.22
658.147	54126.68
658.498	54163.97
658.849	54187.7
659.2	54092.56
659.551	54048.72
659.902	54132.11
660.253	54084.43
660.604	54149.28
660.955	53975.95
661.306	54104.99
661.656	53987.25
662.007	54077.87
662.358	54061.15
662.708	54074.48
663.059	54004.2
663.409	53876.75
663.76	54034.26
664.11	54078.1
664.461	54058.21
664.811	53995.61
665.161	54074.71
665.511	54029.06
665.862	54123.29
666.212	54138.66
666.562	54064.31
666.912	53987.03
667.262	54001.26
667.612	53873.81
667.962	53960.59
668.312	53903.87
668.662	54016.86
669.011	53922.4
669.361	53892.57
669.711	53864.09
670.06	53792.91
670.41	53764.89
670.76	53685.34
671.109	53883.75
671.459	53684.89
671.808	53786.81
672.157	53798.56
672.507	53592.01
672.856	53624.1
673.205	53581.16
673.554	53715.85
673.904	53538.68
674.253	53757.2
674.602	53531.9
674.951	53167.39
675.3	53069.54
675.649	53588.39
675.998	53522.41
676.346	53533.25
676.695	53600.6
677.044	53380.26
677.393	53420.49
677.741	53482.18
678.09	53449.64
678.438	53314.5
678.787	53420.04
679.135	53452.13
679.484	53213.71
679.832	53254.39
680.181	53078.12
680.529	53222.98
680.877	53145.24
681.225	53142.53
681.573	53233.37
681.922	53002.19
682.27	53028.63
682.618	53032.48
682.966	52891.46
683.314	53001.52
683.661	52792.48
684.009	52682.43
684.357	52650.34
684.705	52646.95
685.053	52639.72
685.4	52574.86
685.748	52351.36
686.095	52419.16
686.443	52331.03
686.79	52283.57
687.138	52317.24
687.485	52311.59
687.832	52224.36
688.18	52313.85
688.527	52062.56
688.874	52060.3
689.221	51952.05
689.568	51922
689.915	51813.3
690.262	51718.61
690.609	51582.34
690.956	51679.97
691.303	51543.93
691.65	51286.98
691.997	51335.12
692.344	51171.06
692.69	51174.9
693.037	51113.2
693.383	50945.52
693.73	50955.92
694.077	50807.9
694.423	50699.2
694.769	50767.68
695.116	50606.1
695.462	50632.76
695.808	50402.94
696.155	50451.98
696.501	50215.15
696.847	50248.82
697.193	49939.9
697.539	50002.05
697.885	49790.53
698.231	49705.11
698.577	49779.91
698.923	49546.01
699.269	49445.23
699.614	49273.25
699.96	49230.32
700.306	49214.5
700.651	49030.55
700.997	48982.64
701.342	48900.61
701.688	48775.41
702.033	48735.87
702.379	48644.34
702.724	48635.76
703.069	48638.69
703.415	48272.15
703.76	48250.45
704.105	48197.12
704.45	48010.46
704.795	47963
705.14	47738.15
705.485	47759.17
705.83	47579.96
706.175	47589.91
706.52	47468.55
706.865	47396.69
707.209	47259.29
707.554	47157.38
707.899	47125.74
708.243	46858.4
708.588	46821.79
708.932	46684.62
709.277	46591.97
709.621	46571.4
709.966	46296.61
710.31	46540.67
710.654	46095.03
710.998	46333.44
711.342	46166.67
711.687	46095.93
712.031	45866.34
712.375	45805.77
712.719	45979.1
713.063	45746.57
713.407	45886
713.75	45662.95
714.094	45471.32
714.438	45440.36
714.782	45445.33
715.125	45321.04
715.469	45318.78
715.812	45208.27
716.156	44912.92
716.499	45013.03
716.843	45053.48
717.186	44783.88
717.53	44973.03
717.873	44908.85
718.216	44815.06
718.559	44591.12
718.902	44267.06
719.246	44539.37
719.589	44434.28
719.932	44205.14
720.275	44189.77
720.617	44062.99
720.96	44081.75
721.303	44023.9
721.646	44142.09
721.989	43797.69
722.331	44013.5
722.674	43899.16
723.016	43825.26
723.359	43678.15
723.701	43809.89
724.044	43447.64
724.386	43378.94
724.729	43712.04
725.071	43326.52
725.413	43495.78
725.755	43278.38
726.097	43213.75
726.439	43107.99
726.782	43076.81
727.124	43269.79
727.465	42995
727.807	43078.39
728.149	42889.47
728.491	42890.6
728.833	42850.82
729.175	42754.1
729.516	42767.43
729.858	42685.86
730.199	42715.91
730.541	42813.76
730.882	42650.15
731.224	42577.16
731.565	42442.02
731.906	42470.72
732.248	42538.29
732.589	42322.93
732.93	42212.87
733.271	42173.1
733.612	42240.44
733.953	42185.98
734.294	42082.03
734.635	41965.42
734.976	42060.79
735.317	41795.26
735.658	41873.9
735.999	41861.92
736.339	41666.45
736.68	41873.9
737.021	41755.94
737.361	41645.88
737.702	41710.29
738.042	41567.92
738.383	41575.83
738.723	41576.73
739.063	41352.78
739.404	41442.5
739.744	41359.79
740.084	41333.8
740.424	41360.47
740.764	41358.88
741.104	41414.7
741.444	41262.84
741.784	41091.55
742.124	41207.7
742.464	41127.93
742.804	41062.17
743.143	40956.86
743.483	41103.52
743.823	40792.12
744.162	40722.97
744.502	40839.8
744.841	40661.73
745.181	40761.39
745.52	40647.49
745.86	40652.91
746.199	40481.39
746.538	40532.24
746.877	40547.61
747.216	40650.2
747.556	40523.2
747.895	40483.65
748.234	40208.63
748.573	40351
748.911	40187.84
749.25	40224.22
749.589	40082.53
749.928	40200.27
750.267	40159.37
750.605	39976.77
750.944	39980.39
751.283	39733.84
751.621	39868.08
751.96	39567.97
752.298	39680.06
752.636	39670.79
752.975	39500.63
753.313	39425.15
753.651	39434.64
753.989	39406.85
754.327	39275.32
754.666	39043.24
755.004	39141.99
755.342	39146.74
755.679	39017.7
756.017	38819.29
756.355	38863.81
756.693	38729.12
757.031	38835.11
757.368	38523.03
757.706	38577.26
758.044	38404.84
758.381	38427.66
758.719	38361.22
759.056	38348.12
759.394	38160.1
759.731	37908.13
760.068	37833.33
760.405	37797.85
760.743	37701.13
761.08	37726.66
761.417	37566.22
761.754	37429.27
762.091	37415.03
762.428	37283.51
762.765	37038.32
763.102	37201.03
763.438	37015.95
763.775	36857.31
764.112	36912.22
764.449	36802.17
764.785	36723.07
765.122	36400.37
765.458	36350.2
765.795	36199.25
766.131	36216.87
766.467	36165.12
766.804	35918.12
767.14	35783.66
767.476	35792.93
767.812	35575.31
768.148	35703.44
768.485	35380.28
768.821	35305.94
769.157	35224.13
769.492	35187.52
769.828	35005.83
770.164	34697.82
770.5	34649.68
770.836	34778.72
771.171	34490.14
771.507	34467.77
771.842	34164.95
772.178	34246.75
772.513	34072.97
772.849	34056.48
773.184	33850.83
773.519	33790.72
773.855	33652.19
774.19	33524.97
774.525	33438.87
774.86	33341.69
775.195	33431.18
775.53	33129.27
775.865	32957.3
776.2	32748.94
776.535	32569.28
776.87	32513.24
777.205	32387.82
777.539	32339.23
777.874	32296.98
778.209	31974.95
778.543	32137.66
778.878	31773.37
779.212	31831.9
779.547	31593.04
779.881	31729.53
780.215	31415.64
780.55	31583.32
780.884	31366.15
781.218	31160.06
781.552	31184.24
781.886	30957.58
782.22	30846.62
782.554	30660.18
782.888	30535.67
783.222	30457.25
783.556	30390.36
783.889	30199.4
784.223	30053.19
784.557	29965.74
784.89	29900.65
785.224	29823.59
785.557	29697.04
785.891	29689.13
786.224	29556.03
786.558	29486.43
786.891	29174.35
787.224	29156.27
787.557	29076.27
787.891	29029.49
788.224	29030.62
788.557	28991.07
788.89	28967.8
789.223	28804.19
789.556	28513.35
789.888	28412.11
790.221	28408.49
790.554	28272.45
790.887	28230.64
791.219	28063.41
791.552	28033.13
791.884	27965.56
792.217	27968.5
792.549	27784.1
792.882	27532.58
793.214	27394.96
793.546	27543.2
793.879	27244
794.211	27181.18
794.543	27303.43
794.875	27089.2
795.207	27196.77
795.539	26956.55
795.871	26993.84
796.203	26644.02
796.535	26626.16
796.867	26516.79
797.198	26496.22
797.53	26376.45
797.862	26241.09
798.193	26318.6
798.525	26064.15
798.856	26163.13
799.188	25867.09
799.519	25845.17
799.85	25741.67
800.182	25714.1
800.513	25694.21
800.844	25472.3
801.175	25634.33
801.506	25432.52
801.837	25256.03
802.168	25275.92
802.499	25228.91
802.83	25062.14
803.161	25132.42
803.491	25107.11
803.822	24941.24
804.153	24883.61
804.483	24644.75
804.814	24529.72
805.145	24588.25
805.475	24559.78
805.805	24493.34
806.136	24411.31
806.466	24356.39
806.796	24383.29
807.126	24096.74
807.457	24055.61
807.787	24134.48
808.117	24018.78
808.447	23885.67
808.777	24031.88
809.107	23811.1
809.436	23810.42
809.766	23738.78
810.096	23639.58
810.426	23641.16
810.755	23505.12
811.085	23489.75
811.414	23459.92
811.744	23411.79
812.073	23213.15
812.403	23306.25
812.732	23169.98
813.061	23160.27
813.39	22920.73
813.719	22953.04
814.049	23084.34
814.378	22864.91
814.707	22801.86
815.036	22776.1
815.365	22632.37
815.693	22505.59
816.022	22463.56
816.351	22472.38
816.68	22289.33
817.008	22331.36
817.337	22137.92
817.665	22089.56
817.994	22194.19
818.322	22148.32
818.651	21902.22
818.979	21865.39
819.307	21943.35
819.636	21968.21
819.964	21839.85
820.292	21932.95
820.62	21827.19
820.948	21658.61
821.276	21910.81
821.604	21687.76
821.932	21770.02
822.259	21756.24
822.587	21771.83
822.915	21699.06
823.243	21831.94
823.57	21688.44
823.898	21715.33
824.225	21683.7
824.553	21626.97
824.88	21686.63
825.207	21700.42
825.535	21732.28
825.862	21727.54
826.189	21629.01
826.516	21793.97
826.843	21736.8
827.17	21696.35
827.497	21814.99
827.824	21639.18
828.151	21774.31
828.478	21640.08
828.805	21709.46
829.131	21619.06
829.458	21611.61
829.785	21520.31
830.111	21510.37
830.438	21618.16
830.764	21642.57
831.09	21716.01
831.417	21455.23
831.743	21605.73
832.069	21635.79
832.395	21463.81
832.722	21557.82
833.048	21590.59
833.374	21404.61
833.7	21409.35
834.026	21362.8
834.351	21488.67
834.677	21427.88
835.003	21367.55
835.329	21454.55
835.654	21375.23
835.98	21275.12
836.306	21323.48
836.631	21096.37
836.956	21328
837.282	21283.71
837.607	21160.77
837.932	21088.46
838.258	21040.32
838.583	21141.79
838.908	20827.67
839.233	20979.99
839.558	20892.53
839.883	20810.27
840.208	20816.6
840.533	20776.37
840.858	20874.23
841.182	20855.47
841.507	20789.93
841.832	20731.63
842.156	20582.71
842.481	20673.55
842.805	20551.97
843.13	20471.98
843.454	20431.98
843.778	20406.21
844.103	20377.29
844.427	20263.39
844.751	20240.12
845.075	20259.33
845.399	20176.84
845.723	20071.76
846.047	20143.62
846.371	19923.74
846.695	19811.65
847.019	19727.14
847.343	19657.53
847.666	19584.09
847.99	19530.98
848.313	19547.03
848.637	19382.51
848.96	19295.06
849.284	19346.58
849.607	19153.59
849.931	19113.37
850.254	19083.76
850.577	18820.95
850.9	18726.49
851.223	18753.6
851.546	18599.26
851.869	18561.52
852.192	18700.05
852.515	18467.06
852.838	18437.23
853.161	18469.54
853.483	18293.73
853.806	18174.18
854.129	18157.01
854.451	18092.6
854.774	18034.98
855.096	17918.6
855.419	17907.07
855.741	17755.44
856.063	17792.5
856.385	17741.2
856.708	17599.73
857.03	17496.46
857.352	17536.91
857.674	17454.43
857.996	17303.47
858.318	17338.05
858.64	17443.81
858.961	17265.51
859.283	17249.46
859.605	17077.26
859.926	17209.01
860.248	17173.76
860.57	17132.4
860.891	17101.89
861.212	16952.97
861.534	16931.5
861.855	16930.6
862.176	16964.27
862.498	16896.02
862.819	16818.74
863.14	16754.33
863.461	16685.63
863.782	16717.5
864.103	16696.48
864.424	16675.69
864.745	16713.88
865.065	16692.41
865.386	16580.33
865.707	16477.96
866.027	16477.28
866.348	16467.79
866.668	16420.33
866.989	16398.18
867.309	16259.21
867.63	16390.95
867.95	16322.71
868.27	16218.08
868.59	16295.81
868.91	16258.53
869.23	16122.03
869.55	16140.79
869.87	16178.76
870.19	16178.76
870.51	16133.56
870.83	16144.63
871.15	16045.65
871.469	16018.08
871.789	16020.79
872.109	16023.51
872.428	15870.74
872.748	15967.01
873.067	15932.21
873.386	15896.5
873.706	15815.38
874.025	15737.41
874.344	15807.69
874.663	15739.67
874.982	15668.26
875.301	15702.16
875.62	15648.15
875.939	15694.93
876.258	15559.11
876.577	15582.84
876.896	15578.55
877.214	15542.84
877.533	15615.83
877.852	15484.99
878.17	15358.89
878.489	15444.31
878.807	15470.75
879.125	15409.74
879.444	15381.71
879.762	15330.19
880.08	15270.08
880.398	15156.18
880.716	15239.12
881.034	15145.34
881.352	15254.94
881.67	15166.8
881.988	15224.43
882.306	15101.72
882.624	15037.54
882.941	14926.13
883.259	14955.74
883.577	14837.77
883.894	14922.29
884.212	14880.94
884.529	14812.69
884.846	14772.46
885.164	14762.52
885.481	14729.75
885.798	14790.32
886.115	14593.26
886.432	14640.26
886.75	14622.86
887.067	14612.92
887.383	14594.39
887.7	14494.28
888.017	14459.7
888.334	14446.37
888.651	14398.24
888.967	14417.22
889.284	14236.43
889.6	14243.67
889.917	14188.53
890.233	14199.37
890.55	14141.52
890.866	14147.62
891.182	14002.54
891.498	13995.31
891.815	13927.97
892.131	13888.87
892.447	13927.52
892.763	13808.65
893.079	13874.18
893.395	13838.7
893.71	13710.57
894.026	13639.61
894.342	13620.63
894.657	13414.99
894.973	13475.32
895.289	13541.08
895.604	13551.03
895.92	13390.81
896.235	13320.98
896.55	13316.68
896.865	13290.02
897.181	13340.64
897.496	13201.88
897.811	13124.82
898.126	13051.61
898.441	13072.85
898.756	12977.26
899.071	12850.03
899.386	12965.05
899.7	12909.91
900.015	12770.48
900.33	12647.55
900.644	12758.51
900.959	12779.3
901.273	12681.45
901.588	12558.29
901.902	12553.99
902.216	12555.12
902.531	12532.07
902.845	12419.08
903.159	12335.92
903.473	12246.66
903.787	12246.43
904.101	12127.79
904.415	12236.49
904.729	12112.87
905.042	12051.41
905.356	12083.5
905.67	12010.73
905.984	11986.1
906.297	11956.95
906.611	11892.09
906.924	11840.11
907.237	11810.96
907.551	11789.04
907.864	11627.91
908.177	11542.27
908.491	11615.94
908.804	11585.43
909.117	11477.86
909.43	11390.86
909.743	11371.65
910.056	11402.16
910.368	11367.58
910.681	11210.07
910.994	11184.54
911.307	11194.93
911.619	11051.21
911.932	11121.04
912.244	10961.72
912.557	10992.23
912.869	10933.7
913.181	10895.96
913.494	10836.07
913.806	10871.1
914.118	10721.5
914.43	10634.72
914.742	10670.65
915.054	10661.61
915.366	10609.41
915.678	10460.26
915.99	10599.24
916.302	10396.99
916.613	10423.65
916.925	10373.71
917.236	10347.5
917.548	10235.41
917.859	10257.56
918.171	10142.53
918.482	10088.07
918.794	10121.97
919.105	10061.63
919.416	9955.64
919.727	9984.12
920.038	9928.52
920.349	9867.06
920.66	9795.65
920.971	9796.32
921.282	9781.64
921.593	9745.03
921.903	9708.87
922.214	9620.96
922.525	9570.12
922.835	9479.04
923.146	9478.14
923.456	9423
923.767	9328.99
924.077	9387.52
924.387	9368.99
924.697	9282.89
925.008	9296.68
925.318	9198.37
925.628	9164.48
925.938	9198.37
926.248	9059.17
926.558	9079.51
926.867	9081.09
927.177	9036.57
927.487	8999.96
927.796	8858.72
928.106	8856.24
928.416	8783.02
928.725	8802.68
929.034	8707.77
929.344	8777.14
929.653	8667.99
929.962	8639.74
930.271	8579.86
930.581	8613.08
930.89	8516.58
931.199	8507.09
931.508	8445.85
931.817	8411.5
932.125	8393.2
932.434	8364.05
932.743	8311.84
933.051	8282.24
933.36	8249.7
933.669	8154.56
933.977	8138.97
934.286	8124.5
934.594	8126.76
934.902	8005.64
935.21	7987.56
935.519	7999.76
935.827	7956.6
936.135	7945.98
936.443	7873.66
936.751	7822.82
937.059	7743.72
937.367	7736.49
937.674	7714.35
937.982	7707.79
938.29	7638.64
938.597	7687.23
938.905	7526.1
939.213	7508.93
939.52	7541.24
939.827	7471.64
940.135	7455.14
940.442	7403.17
940.749	7440.23
941.056	7385.54
941.363	7361.36
941.67	7279.78
941.977	7220.57
942.284	7186.22
942.591	7200.46
942.898	7143.29
943.205	7111.65
943.511	7065.55
943.818	7090.63
944.125	7040.01
944.431	7034.36
944.738	7005.66
945.044	6946.91
945.35	6877.08
945.657	6958.43
945.963	6867.59
946.269	6844.99
946.575	6888.6
946.881	6733.81
947.187	6718.21
947.493	6692.45
947.799	6664.2
948.105	6676.18
948.41	6623.98
948.716	6599.12
949.022	6597.54
949.327	6601.15
949.633	6504.66
949.938	6496.52
950.244	6511.66
950.549	6437.99
950.854	6365.23
951.16	6314.38
951.465	6356.87
951.77	6284.1
952.075	6242.07
952.38	6231.9
952.685	6263.54
952.99	6189.19
953.294	6136.53
953.599	6084.78
953.904	6099.02
954.209	6057.21
954.513	6059.47
954.818	6057.21
955.122	5981.06
955.426	5946.48
955.731	5947.39
956.035	5911.45
956.339	5890.89
956.643	5851.34
956.948	5894.05
957.252	5835.07
957.556	5814.73
957.86	5800.72
958.163	5772.25
958.467	5741.06
958.771	5697.9
959.075	5703.55
959.378	5602.31
959.682	5657.22
959.985	5598.02
960.289	5539.49
960.592	5539.04
960.896	5471.24
961.199	5474.18
961.502	5440.51
961.805	5437.79
962.108	5433.95
962.411	5412.26
962.714	5372.03
963.017	5356.67
963.32	5342.43
963.623	5267.4
963.926	5298.14
964.228	5240.51
964.531	5253.39
964.833	5248.2
965.136	5194.41
965.438	5155.32
965.741	5101.76
966.043	5112.61
966.345	5064.25
966.648	5042.33
966.95	5075.09
967.252	5017.47
967.554	5007.07
967.856	4960.52
968.158	4943.12
968.46	4941.31
968.761	4903.8
969.063	4905.38
969.365	4846.62
969.666	4853.18
969.968	4781.54
970.269	4822.22
970.571	4763.46
970.872	4764.37
971.174	4728.89
971.475	4685.72
971.776	4665.61
972.077	4671.94
972.378	4641.66
972.679	4646.18
972.98	4626.52
973.281	4574.54
973.582	4594.65
973.883	4539.29
974.183	4512.85
974.484	4510.36
974.785	4456.13
975.085	4447.54
975.386	4434.43
975.686	4433.08
975.986	4441.21
976.287	4388.1
976.587	4346.07
976.887	4301.33
977.187	4349.46
977.487	4289.12
977.787	4287.99
978.087	4296.81
978.387	4282.12
978.687	4275.11
978.987	4240.99
979.286	4199.18
979.586	4175.46
979.885	4135.23
980.185	4149.47
980.484	4109.24
980.784	4114.44
981.083	4043.48
981.382	4112.86
981.682	4070.6
981.981	4030.15
982.28	4008
982.579	3986.76
982.878	3965.74
983.177	3998.28
983.475	3875.8
983.774	3927.33
984.073	3891.39
984.372	3843.26
984.67	3849.59
984.969	3844.62
985.267	3837.38
985.566	3819.31
985.864	3792.64
986.162	3798.52
986.461	3766.2
986.759	3784.73
987.057	3694.56
987.355	3686.65
987.653	3678.29
987.951	3687.11
988.249	3665.41
988.547	3644.85
988.844	3579.09
989.142	3602.36
989.44	3550.39
989.737	3550.39
990.035	3497.51
990.332	3535.25
990.63	3544.06
990.927	3496.38
991.224	3491.41
991.521	3439.66
991.819	3453.44
992.116	3438.53
992.413	3406.89
992.71	3384.29
993.006	3365.53
993.303	3352.88
993.6	3331.86
993.897	3313.78
994.193	3346.1
994.49	3300.45
994.787	3265.87
995.083	3256.38
995.379	3237.4
995.676	3238.08
995.972	3201.24
996.268	3172.09
996.565	3169.61
996.861	3149.95
997.157	3127.57
997.453	3120.12
997.749	3094.13
998.044	3075.6
998.34	3102.72
998.636	3079.21
998.932	3083.05
999.227	3024.98
999.523	3017.07
999.818	2990.4
1000.114	3016.84
1000.409	2932.1
1000.704	2951.76
1001	2936.62
1001.295	2934.13
1001.59	2881.48
1001.885	2895.04
1002.18	2851.2
1002.475	2819.78
1002.77	2822.72
1003.065	2825.43
1003.359	2819.56
1003.654	2817.3
1003.949	2801.93
1004.243	2789.73
1004.538	2702.27
1004.832	2717.41
1005.127	2714.93
1005.421	2684.87
1005.715	2686
1006.009	2676.74
1006.304	2652.56
1006.598	2611.88
1006.892	2614.59
1007.186	2603.52
1007.48	2588.15
1007.773	2595.84
1008.067	2539.34
1008.361	2545.89
1008.655	2531.66
1008.948	2520.36
1009.242	2512
1009.535	2468.61
1009.829	2448.95
1010.122	2431.55
1010.415	2435.61
1010.708	2398.1
1011.001	2380.7
1011.295	2363.3
1011.588	2377.54
1011.881	2347.71
1012.173	2353.58
1012.466	2326.01
1012.759	2345.9
1013.052	2325.79
1013.344	2287.6
1013.637	2298.89
1013.93	2267.26
1014.222	2254.15
1014.514	2245.34
1014.807	2210.31
1015.099	2199.24
1015.391	2193.36
1015.683	2204.21
1015.976	2162.85
1016.268	2157.66
1016.56	2130.54
1016.851	2107.94
1017.143	2130.76
1017.435	2108.62
1017.727	2089.86
1018.018	2056.19
1018.31	2079.47
1018.602	2021.39
1018.893	2002.63
1019.185	2031.1
1019.476	2000.15
1019.767	2004.89
1020.058	1967.83
1020.35	1952.69
1020.641	1963.76
1020.932	1912.01
1021.223	1899.58
1021.514	1883.09
1021.804	1862.97
1022.095	1901.16
1022.386	1810.77
1022.677	1847.61
1022.967	1837.66
1023.258	1797.21
1023.548	1796.31
1023.839	1823.88
1024.129	1764.9
1024.419	1779.36
1024.709	1750.66
1025	1756.99
1025.29	1735.29
1025.58	1719.7
1025.87	1700.27
1026.16	1702.53
1026.449	1701.62
1026.739	1687.61
1027.029	1674.5
1027.319	1645.35
1027.608	1645.8
1027.898	1633.15
1028.187	1607.84
1028.477	1595.18
1028.766	1587.73
1029.055	1587.73
1029.344	1579.37
1029.634	1547.5
1029.923	1559.93
1030.212	1540.95
1030.501	1557.67
1030.79	1541.85
1031.078	1495.98
1031.367	1486.26
1031.656	1483.55
1031.945	1472.7
1032.233	1465.92
1032.522	1455.53
1032.81	1441.29
1033.099	1431.8
1033.387	1430.89
1033.675	1420.73
1033.963	1409.88
1034.251	1387.73
1034.54	1396.55
1034.828	1363.1
1035.116	1337.56
1035.403	1348.86
1035.691	1316.55
1035.979	1326.04
1036.267	1333.95
1036.554	1312.93
1036.842	1282.88
1037.129	1294.4
1037.417	1289.2
1037.704	1272.71
1037.992	1270.9
1038.279	1236.78
1038.566	1244.23
1038.853	1244.23
1039.14	1244.23
