Data from orange_diffuse_book_FLMS001491_00057.txt Node
Date: Wed Feb 08 15:29:46 GMT 2017
User: dcchb
Spectrometer: FLMS00149
Trigger mode: 0
Integration Time (sec): 2.000000E-2
Scans to average: 10
Electric dark correction enabled: true
Nonlinearity correction enabled: false
Boxcar width: 0
XAxis mode: Wavelengths
Number of Pixels in Spectrum: 2048
>>>>>Begin Spectral Data<<<<<
341.393	-23.16
341.776	-23.16
342.16	-23.16
342.543	-44.86
342.927	-55.03
343.31	-63.16
343.693	-54.57
344.077	-65.2
344.46	-69.26
344.843	-33.56
345.226	-36.95
345.61	-39.43
345.993	-19.32
346.376	3.28
346.759	-5.76
347.142	29.72
347.525	38.08
347.908	53.44
348.291	68.13
348.674	93.9
349.057	100.68
349.44	125.76
349.823	162.59
350.206	174.12
350.588	218.19
350.971	227.23
351.354	263.16
351.737	241.69
352.119	257.28
352.502	276.72
352.884	282.14
353.267	284.4
353.65	304.29
354.032	326.21
354.414	323.27
354.797	329.37
355.179	339.99
355.562	340.89
355.944	373.66
356.326	358.3
356.709	346.09
357.091	339.54
357.473	337.28
357.855	351.74
358.238	351.06
358.62	355.36
359.002	363.95
359.384	360.1
359.766	340.22
360.148	363.72
360.53	343.15
360.912	355.58
361.294	338.64
361.676	353.32
362.057	337.05
362.439	339.54
362.821	361.01
363.203	353.1
363.584	346.77
363.966	344.74
364.348	332.99
364.729	364.4
365.111	327.34
365.493	329.6
365.874	324.17
366.256	330.5
366.637	310.61
367.019	339.31
367.4	338.41
367.781	337.96
368.163	339.09
368.544	310.16
368.925	337.73
369.306	337.51
369.688	330.95
370.069	344.96
370.45	334.79
370.831	338.86
371.212	336.15
371.593	317.39
371.974	326.21
372.355	337.96
372.736	322.82
373.117	341.12
373.498	341.35
373.879	324.62
374.26	338.41
374.641	334.34
375.021	342.02
375.402	325.53
375.783	339.09
376.163	356.71
376.544	354
376.925	323.72
377.305	347.67
377.686	332.76
378.066	342.48
378.447	336.6
378.827	335.25
379.208	339.99
379.588	352.19
379.968	353.55
380.349	339.31
380.729	331.63
381.109	365.98
381.489	360.56
381.87	356.26
382.25	371.4
382.63	358.3
383.01	350.84
383.39	344.51
383.77	335.92
384.15	377.96
384.53	360.33
384.91	351.97
385.29	350.61
385.67	349.71
386.049	373.21
386.429	380.67
386.809	358.97
387.189	382.48
387.568	369.82
387.948	360.78
388.328	358.52
388.707	384.74
389.087	368.01
389.466	372.98
389.846	372.76
390.225	394.23
390.605	401.23
390.984	384.51
391.363	396.71
391.743	372.08
392.122	390.61
392.501	394.9
392.881	418.86
393.26	376.6
393.639	379.31
394.018	392.42
394.397	386.77
394.776	387.9
395.155	399.2
395.534	382.93
395.913	395.81
396.292	406.66
396.671	407.56
397.05	394.9
397.429	398.07
397.808	379.99
398.186	386.09
398.565	417.5
398.944	414.11
399.323	423.83
399.701	406.43
400.08	419.99
400.458	409.14
400.837	421.57
401.215	425.41
401.594	417.96
401.972	414.57
402.351	422.7
402.729	424.51
403.107	444.62
403.486	428.8
403.864	429.48
404.242	418.63
404.62	426.32
404.999	432.64
405.377	441.01
405.755	451.85
406.133	450.5
406.511	449.82
406.889	446.88
407.267	456.6
407.645	460.21
408.023	463.38
408.401	457.28
408.779	485.07
409.156	464.73
409.534	457.73
409.912	478.74
410.29	481.91
410.667	470.84
411.045	479.65
411.422	484.17
411.8	497.73
412.178	487.11
412.555	489.59
412.933	476.03
413.31	507.44
413.687	493.21
414.065	503.15
414.442	487.78
414.819	526.2
415.197	508.8
415.574	528.01
415.951	515.13
416.328	518.97
416.705	523.49
417.082	525.07
417.46	525.97
417.837	528.23
418.214	542.25
418.591	543.6
418.967	540.89
419.344	562.58
419.721	543.15
420.098	563.71
420.475	551.51
420.852	534.56
421.228	550.83
421.605	571.17
421.982	565.3
422.358	563.49
422.735	579.53
423.111	573.43
423.488	587.67
423.864	575.24
424.241	599.42
424.617	612.07
424.994	599.19
425.37	597.84
425.746	575.92
426.123	607.1
426.499	602.81
426.875	618.63
427.251	631.73
427.627	645.75
428.003	616.37
428.379	609.81
428.756	613.43
429.132	636.71
429.507	639.19
429.883	659.53
430.259	658.85
430.635	675.58
431.011	679.42
431.387	668.8
431.763	706.54
432.138	715.57
432.514	678.06
432.89	699.53
433.265	710.83
433.641	702.02
434.016	698.63
434.392	727.33
434.767	734.78
435.143	744.05
435.518	725.97
435.894	716.7
436.269	753.31
436.644	746.76
437.02	755.35
437.395	770.49
437.77	751.51
438.145	784.5
438.52	786.31
438.895	775.23
439.271	783.14
439.646	787.66
440.021	801
440.395	792.18
440.77	808.23
441.145	805.06
441.52	818.62
441.895	814.78
442.27	819.3
442.645	827.21
443.019	837.61
443.394	803.26
443.769	825.63
444.143	814.33
444.518	857.04
444.892	835.12
445.267	848.9
445.641	850.94
446.016	850.71
446.39	858.4
446.764	863.59
447.139	871.95
447.513	855.01
447.887	854.55
448.262	872.18
448.636	874.89
449.01	883.71
449.384	875.8
449.758	900.88
450.132	903.14
450.506	907.21
450.88	922.35
451.254	903.59
451.628	912.18
452.002	930.71
452.376	932.52
452.75	926.87
453.123	921.9
453.497	968.68
453.871	928
454.244	951.5
454.618	958.05
454.992	964.38
455.365	938.62
455.739	1004.83
456.112	1011.84
456.486	1013.87
456.859	986.08
457.232	1018.39
457.606	1033.53
457.979	1017.04
458.352	1030.82
458.725	1044.61
459.099	1044.15
459.472	1069.69
459.845	1058.84
460.218	1081.21
460.591	1082.8
460.964	1119.18
461.337	1110.59
461.71	1118.05
462.083	1125.96
462.456	1163.02
462.829	1136.35
463.201	1153.98
463.574	1159.4
463.947	1166.64
464.32	1171.38
464.692	1189.69
465.065	1161.66
465.438	1194.66
465.81	1209.12
466.183	1238.95
466.555	1263.81
466.928	1255.67
467.3	1245.96
467.672	1273.53
468.045	1267.42
468.417	1273.98
468.789	1287.99
469.161	1313.52
469.534	1320.08
469.906	1347.2
470.278	1339.06
470.65	1338.61
471.022	1360.53
471.394	1371.15
471.766	1406.4
472.138	1357.59
472.51	1446.85
472.882	1443.01
473.253	1465.61
473.625	1472.62
473.997	1477.36
474.369	1501.77
474.74	1518.04
475.112	1532.05
475.484	1549.9
475.855	1586.96
476.227	1617.47
476.598	1616.57
476.97	1603.01
477.341	1688.43
477.713	1648.21
478.084	1719.16
478.455	1718.49
478.827	1739.05
479.198	1779.95
479.569	1806.39
479.94	1806.85
480.311	1836.9
480.682	1880.74
481.053	1929.78
481.424	1938.37
481.795	1981.76
482.166	1943.34
482.537	1961.87
482.908	2002.32
483.279	2043.22
483.65	2099.94
484.021	2137.46
484.391	2125.93
484.762	2161.41
485.133	2156.89
485.503	2188.76
485.874	2245.7
486.244	2266.49
486.615	2311.92
486.985	2344.23
487.356	2381.07
487.726	2439.37
488.097	2442.31
488.467	2466.71
488.837	2500.84
489.207	2518.24
489.578	2573.6
489.948	2610.21
490.318	2639.37
490.688	2650.66
491.058	2722.3
491.428	2732.02
491.798	2761.17
492.168	2815.63
492.538	2835.52
492.908	2866.7
493.278	2916.42
493.648	2927.27
494.017	2968.62
494.387	2985.8
494.757	3008.85
495.126	3059.24
495.496	3067.6
495.866	3134.27
496.235	3147.37
496.605	3178.33
496.974	3199.35
497.344	3240.93
497.713	3259.24
498.082	3304.21
498.452	3322.74
498.821	3328.39
499.19	3358.44
499.559	3420.36
499.928	3449.97
500.298	3473.92
500.667	3494.03
501.036	3506.46
501.405	3571.77
501.774	3563.64
502.143	3625.33
502.512	3643.86
502.88	3696.74
503.249	3681.37
503.618	3712.33
503.987	3699
504.356	3768.83
504.724	3781.48
505.093	3800.47
505.462	3811.76
505.83	3880.01
506.199	3909.84
506.567	3941.48
506.936	3954.13
507.304	4028.71
507.672	4016.96
508.041	4039.55
508.409	4084.53
508.777	4093.34
509.145	4152.09
509.514	4158.2
509.882	4180.57
510.25	4169.27
510.618	4244.52
510.986	4232.32
511.354	4278.64
511.722	4262.6
512.09	4381.69
512.458	4412.2
512.826	4431.41
513.193	4464.18
513.561	4485.19
513.929	4469.83
514.297	4541.24
514.664	4541.69
515.032	4589.14
515.4	4596.83
515.767	4627.11
516.135	4660.1
516.502	4656.26
516.869	4726.54
517.237	4764.96
517.604	4774
517.972	4802.02
518.339	4827.33
518.706	4895.58
519.073	4914.33
519.44	4941.68
519.808	4974.22
520.175	4959.53
520.542	5042.69
520.909	5022.35
521.276	5048.12
521.643	5085.18
522.009	5191.16
522.376	5221.22
522.743	5239.52
523.11	5288.34
523.477	5321.78
523.843	5362.01
524.21	5458.27
524.577	5464.38
524.943	5434.77
525.31	5547.76
525.676	5527.65
526.043	5573.07
526.409	5638.61
526.776	5660.76
527.142	5719.74
527.508	5670.25
527.874	5711.83
528.241	5779.62
528.607	5789.79
528.973	5841.77
529.339	5872.27
529.705	5894.87
530.071	5951.59
530.437	5969.9
530.803	5987.75
531.169	6049.9
531.535	6021.65
531.901	6072.95
532.267	6081.54
532.632	6126.05
532.998	6166.05
533.364	6143
533.73	6257.35
534.095	6188.65
534.461	6286.28
534.826	6298.25
535.192	6359.27
535.557	6399.72
535.923	6383.45
536.288	6390.91
536.653	6446.95
537.019	6466.38
537.384	6480.62
537.749	6455.99
538.114	6502.77
538.479	6552.48
538.845	6605.14
539.21	6534.63
539.575	6613.72
539.94	6612.37
540.305	6675.42
540.67	6688.52
541.034	6716.55
541.399	6791.12
541.764	6765.58
542.129	6836.77
542.494	6828.18
542.858	6894.85
543.223	6892.14
543.587	6876.99
543.952	6918.35
544.316	6995.86
544.681	7001.96
545.045	7015.07
545.41	7051.68
545.774	7076.31
546.138	7209.87
546.503	7147.27
546.867	7179.81
547.231	7281.28
547.595	7261.84
547.959	7263.42
548.324	7301.62
548.688	7426.36
549.052	7420.93
549.416	7441.05
549.779	7470.2
550.143	7450.09
550.507	7538.67
550.871	7579.35
551.235	7567.82
551.599	7692.79
551.962	7680.59
552.326	7758.55
552.689	7819.12
553.053	7873.13
553.417	7883.3
553.78	7980.92
554.143	7923.75
554.507	7955.16
554.87	8058.43
555.234	8194.02
555.597	8101.59
555.96	8221.59
556.323	8240.12
556.686	8349.05
557.05	8422.49
557.413	8373.23
557.776	8419.1
558.139	8469.95
558.502	8626.55
558.865	8604.18
559.228	8716.72
559.59	8754.46
559.953	8820.9
560.316	8861.57
560.679	8911.97
561.041	9070.38
561.404	9052.76
561.767	9186.54
562.129	9266.08
562.492	9333.88
562.854	9463.82
563.217	9473.08
563.579	9511.95
563.941	9628.56
564.304	9738.84
564.666	9816.35
565.028	9914.88
565.39	9991.71
565.753	10084.59
566.115	10152.84
566.477	10274.19
566.839	10366.39
567.201	10452.49
567.563	10579.95
567.925	10722.99
568.287	10861.3
568.648	10901.07
569.01	11038.24
569.372	11228.07
569.734	11212.47
570.095	11466.25
570.457	11569.75
570.819	11673.93
571.18	11877.99
571.542	11992.34
571.903	12079.8
572.265	12355.27
572.626	12400.69
572.987	12618.99
573.349	12803.84
573.71	12983.27
574.071	13206.55
574.432	13351.85
574.794	13645.4
575.155	13775.34
575.516	13820.31
575.877	14213.75
576.238	14328.32
576.599	14631.14
576.96	14759.05
577.32	14992.71
577.681	15308.41
578.042	15522.64
578.403	15845.35
578.763	16046.47
579.124	16298.67
579.485	16713.12
579.845	16998.31
580.206	17260
580.566	17470.39
580.927	17829.02
581.287	18115.79
581.648	18264.27
582.008	18819.73
582.368	19021.53
582.728	19409.09
583.089	19707.17
583.449	20110.32
583.809	20365.23
584.169	20783.75
584.529	21065.1
584.889	21684.51
585.249	21964.96
585.609	22124.28
585.969	22761.1
586.329	23210.35
586.688	23467.29
587.048	23887.62
587.408	24371.22
587.768	24748.16
588.127	25159.45
588.487	25505.43
588.846	26063.83
589.206	26487.1
589.565	26884.83
589.925	27452.27
590.284	27742.89
590.643	28333.61
591.003	28829.64
591.362	29399.34
591.721	29640.46
592.08	30079.1
592.44	30712.53
592.799	31181.44
593.158	31515.67
593.517	32067.52
593.876	32580.73
594.235	32868.4
594.593	33479.46
594.952	34045.77
595.311	34306.56
595.67	34893.88
596.029	35480.08
596.387	36012.27
596.746	36577.46
597.104	36806.38
597.463	37183.99
597.822	37886.35
598.18	38114.82
598.538	38544.18
598.897	39135.81
599.255	39426.19
599.613	40278.83
599.972	40351.59
600.33	40881.75
600.688	41204.45
601.046	41660.03
601.404	42295.72
601.762	42516.28
602.12	43098.41
602.478	43380.44
602.836	43815.01
603.194	44047.99
603.552	44398.49
603.91	44584.7
604.268	45294.52
604.625	45361.86
604.983	45885.01
605.341	46044.1
605.698	46591.2
606.056	46946.9
606.413	47093.56
606.771	47596.6
607.128	47874.56
607.485	47930.38
607.843	48198.85
608.2	48586.41
608.557	48869.11
608.914	48970.8
609.272	49316.78
609.629	49696.89
609.986	49898.01
610.343	49910.44
610.7	50363.99
611.057	50476.3
611.414	50632
611.771	50734.37
612.127	50952.67
612.484	51176.62
612.841	51361.7
613.198	51428.37
613.554	51500.91
613.911	51837.85
614.267	51867.9
614.624	51936.37
614.98	52059.31
615.337	52343.6
615.693	52377.49
616.05	52486.64
616.406	52694.55
616.762	52657.94
617.118	52840.53
617.475	52881.43
617.831	53031.49
618.187	53127.3
618.543	53301.08
618.899	53502.44
619.255	53562.09
619.611	53494.3
619.967	53626.5
620.323	53735.42
620.678	53694.29
621.034	53762.32
621.39	53787.17
621.746	53796.21
622.101	54167.73
622.457	53950.33
622.812	54046.83
623.168	54175.86
623.523	54225.35
623.879	54364.79
624.234	54075.98
624.589	54368.85
624.945	54317.1
625.3	54396.87
625.655	54438.46
626.01	54497.66
626.365	54451.11
626.72	54443.65
627.075	54484.33
627.43	54527.04
627.785	54468.29
628.14	54660.82
628.495	54704.21
628.85	54587.15
629.205	54655.4
629.559	54829.41
629.914	54696.3
630.269	54778.56
630.623	54692.91
630.978	54708.51
631.332	54811.33
631.687	54780.14
632.041	54740.59
632.396	54766.58
632.75	54634.61
633.104	54667.83
633.459	54656.53
633.813	54633.7
634.167	54675.06
634.521	54682.52
634.875	54697.43
635.229	54726.13
635.583	54567.72
635.937	54557.77
636.291	54600.49
636.645	54572.01
636.999	54472.13
637.352	54686.36
637.706	54410.43
638.06	54546.02
638.413	54509.64
638.767	54395.74
639.121	54579.92
639.474	54392.58
639.828	54369.98
640.181	54440.04
640.534	54516.87
640.888	54411.11
641.241	54303.32
641.594	54389.42
641.947	54446.82
642.301	54384.67
642.654	54395.74
643.007	54389.87
643.36	54384.45
643.713	54334.73
644.066	54422.86
644.419	54142.87
644.771	54113.04
645.124	53872.82
645.477	53713.95
645.83	53558.48
646.182	53486.39
646.535	53504.69
646.888	53481.42
647.24	53325.04
647.593	53504.47
647.945	53482.1
648.298	53337.69
648.65	53277.13
649.002	53258.37
649.355	53405.94
649.707	53300.18
650.059	53361.65
650.411	53748.98
650.763	53755.76
651.115	54115.75
651.467	53988.98
651.819	54009.77
652.171	53859.94
652.523	53944.01
652.875	53858.81
653.227	53772.03
653.578	54078.92
653.93	53879.6
654.282	53812.71
654.633	53652.94
654.985	53892.71
655.337	53906.94
655.688	53780.85
656.039	53939.71
656.391	53644.58
656.742	53688.87
657.094	53720.51
657.445	53872.37
657.796	53767.29
658.147	53708.31
658.498	53709.66
658.849	53850.9
659.2	53782.43
659.551	53733.16
659.902	53816.33
660.253	53733.39
660.604	53849.32
660.955	53655.2
661.306	53783.11
661.656	53730.45
662.007	53781.52
662.358	53728.42
662.708	53672.6
663.059	53706.27
663.409	53543.34
663.76	53726.84
664.11	53686.84
664.461	53734.29
664.811	53739.04
665.161	53715.08
665.511	53666.95
665.862	53596.22
666.212	53676.22
666.562	53736.33
666.912	53687.51
667.262	53583.56
667.612	53621.75
667.962	53603.68
668.312	53596.67
668.662	53648.87
669.011	53522.1
669.361	53545.15
669.711	53506.95
670.06	53430.35
670.41	53524.36
670.76	53426.96
671.109	53465.37
671.459	53435.32
671.808	53273.51
672.157	53406.62
672.507	53275.32
672.856	53276
673.205	53289.33
673.554	53334.98
673.904	53272.16
674.253	53432.38
674.602	53255.44
674.951	52857.25
675.3	52632.85
675.649	53229.9
675.998	53158.72
676.346	53133.41
676.695	53243.46
677.044	52963.92
677.393	53022.67
677.741	53114.42
678.09	53035.33
678.438	53047.53
678.787	53053.63
679.135	52966.18
679.484	52823.58
679.832	52958.49
680.181	52700.42
680.529	52884.15
680.877	52725.05
681.225	52686.41
681.573	52879.63
681.922	52612.97
682.27	52585.62
682.618	52704.04
682.966	52477.15
683.314	52582.69
683.661	52385.4
684.009	52319.64
684.357	52187.44
684.705	52215.01
685.053	52370.04
685.4	52257.27
685.748	52122.36
686.095	52008.46
686.443	51917.39
686.79	51901.35
687.138	51981.12
687.485	51927.79
687.832	51754.46
688.18	51846.66
688.527	51639.43
688.874	51564.18
689.221	51494.58
689.568	51445.31
689.915	51368.48
690.262	51380
690.609	51194.7
690.956	51241.7
691.303	51133.01
691.65	50901.37
691.997	50958.32
692.344	50682.4
692.69	50730.08
693.037	50792
693.383	50487.15
693.73	50549.97
694.077	50351.11
694.423	50332.12
694.769	50293.93
695.116	50225.46
695.462	50223.65
695.808	49983.43
696.155	50042.41
696.501	49854.85
696.847	49784.79
697.193	49445.59
697.539	49651.91
697.885	49338.93
698.231	49304.13
698.577	49237.69
698.923	49117.47
699.269	48966.28
699.614	48802.22
699.96	48724.93
700.306	48690.58
700.651	48536.46
700.997	48383.7
701.342	48358.62
701.688	48378.5
702.033	48389.58
702.379	48148
702.724	47985.97
703.069	48078.62
703.415	47779.42
703.76	47763.6
704.105	47709.37
704.45	47603.83
704.795	47329.49
705.14	47264.63
705.485	47180.34
705.83	47205.88
706.175	47165.88
706.52	47061.25
706.865	46861.71
707.209	46719.34
707.554	46641.6
707.899	46666.23
708.243	46455.16
708.588	46364.77
708.932	46087.94
709.277	46085.23
709.621	46305.56
709.966	45882.97
710.31	46023.76
710.654	45600.04
710.998	45717.78
711.342	45622.64
711.687	45650.21
712.031	45458.8
712.375	45218.81
712.719	45465.36
713.063	45262.43
713.407	45411.35
713.75	45165.48
714.094	45176.78
714.438	44918.25
714.782	44825.38
715.125	44792.16
715.469	44898.82
715.812	44677.81
716.156	44407.53
716.499	44360.98
716.843	44577.02
717.186	44250.93
717.53	44479.4
717.873	44483.69
718.216	44236.46
718.559	44025.62
718.902	43722.81
719.246	44042.57
719.589	43812.97
719.932	43700.21
720.275	43755.57
720.617	43688.46
720.96	43552.19
721.303	43559.19
721.646	43629.7
721.989	43402.59
722.331	43527.56
722.674	43303.61
723.016	43339.31
723.359	43216.15
723.701	43170.28
724.044	42905.43
724.386	42754.47
724.729	42985.65
725.071	42919.89
725.413	42933.67
725.755	42867.91
726.097	42813.22
726.439	42626.34
726.782	42595.83
727.124	42661.59
727.465	42509.96
727.807	42492.78
728.149	42443.74
728.491	42258.44
728.833	42408.49
729.175	42218.44
729.516	42147.93
729.858	42111.77
730.199	42228.61
730.541	42076.97
730.882	42081.49
731.224	42142.06
731.565	41868.16
731.906	42011.21
732.248	41891.44
732.589	41742.52
732.93	41712.01
733.271	41768.96
733.612	41665.23
733.953	41711.33
734.294	41505.69
734.635	41395.63
734.976	41640.6
735.317	41328.07
735.658	41308.18
735.999	41289.42
736.339	41160.16
736.68	41338.69
737.021	41199.48
737.361	41083.33
737.702	41216.66
738.042	41154.06
738.383	41136.88
738.723	41121.29
739.063	41047.85
739.404	41081.52
739.744	40890.79
740.084	40767.63
740.424	40801.07
740.764	40752.26
741.104	40878.36
741.444	40535.54
741.784	40604.7
742.124	40612.38
742.464	40653.96
742.804	40410.12
743.143	40429.33
743.483	40349.56
743.823	40192.05
744.162	40198.38
744.502	40295.32
744.841	40152.05
745.181	40191.37
745.52	40071.83
745.86	40180.3
746.199	39946.86
746.538	39987.99
746.877	40023.47
747.216	39960.42
747.556	39827.54
747.895	39796.13
748.234	39697.6
748.573	39680.2
748.911	39622.57
749.25	39709.35
749.589	39432.75
749.928	39483.14
750.267	39571.95
750.605	39305.97
750.944	39406.53
751.283	39343.26
751.621	39278.85
751.96	39033.89
752.298	39040.44
752.636	39146.2
752.975	38828.02
753.313	38942.82
753.651	38984.62
753.989	38664.41
754.327	38722.03
754.666	38585.09
755.004	38552.09
755.342	38620.34
755.679	38634.58
756.017	38302.16
756.355	38381.7
756.693	38058.1
757.031	38234.14
757.368	37994.59
757.706	37949.62
758.044	37812.9
758.381	37945.33
758.719	37701.49
759.056	37786.01
759.394	37516.87
759.731	37358.9
760.068	37336.98
760.405	37283.65
760.743	37024
761.08	37232.13
761.417	36897.9
761.754	36929.31
762.091	36790.78
762.428	36780.16
762.765	36549.89
763.102	36521.64
763.438	36408.87
763.775	36386.73
764.112	36317.8
764.449	36227.41
764.785	36081.42
765.122	35830.81
765.458	35807.31
765.795	35631.49
766.131	35689.8
766.467	35577.93
766.804	35401.89
767.14	35262.24
767.476	35263.37
767.812	35049.81
768.148	35113.54
768.485	34857.28
768.821	34758.52
769.157	34561.01
769.492	34462.03
769.828	34506.78
770.164	34188.14
770.5	34098.65
770.836	34161.47
771.171	33947.92
771.507	33956.96
771.842	33512.45
772.178	33706.8
772.513	33570.3
772.849	33531.89
773.184	33290.09
773.519	33323.3
773.855	33107.94
774.19	32984.78
774.525	32935.07
774.86	32925.12
775.195	32837.89
775.53	32554.51
775.865	32549.77
776.2	32314.74
776.535	32109.1
776.87	32141.19
777.205	31947.97
777.539	31815.55
777.874	31817.36
778.209	31568.77
778.543	31497.14
778.878	31343.47
779.212	31267.77
779.547	31153.64
779.881	31355.67
780.215	31022.8
780.55	31093.31
780.884	30808.79
781.218	30736.25
781.552	30746.88
781.886	30474.57
782.22	30344.63
782.554	30287.9
782.888	30100.79
783.222	29892.21
783.556	29833
783.889	29672.55
784.223	29534.93
784.557	29554.59
784.89	29647.24
785.224	29383.3
785.557	29366.35
785.891	29250.87
786.224	29132.45
786.558	29107.82
786.891	28748.51
787.224	28705.12
787.557	28635.52
787.891	28584.22
788.224	28605.24
788.557	28527.5
788.89	28449.53
789.223	28352.81
789.556	28039.6
789.888	27995.76
790.221	27912.83
790.554	27785.37
790.887	27780.63
791.219	27653.17
791.552	27623.34
791.884	27421.09
792.217	27444.14
792.549	27252.73
792.882	27090.93
793.214	27058.61
793.546	26991.72
793.879	26904.94
794.211	26728
794.543	26846.86
794.875	26635.57
795.207	26676.47
795.539	26497.27
795.871	26557.38
796.203	26261.8
796.535	26139.54
796.867	26228.12
797.198	26165.98
797.53	26009.82
797.862	25915.82
798.193	25852.77
798.525	25632.43
798.856	25714.24
799.188	25509.95
799.519	25494.58
799.85	25220.47
800.182	25316.06
800.513	25268.83
800.844	25172.78
801.175	25170.52
801.506	25072.9
801.837	24940.93
802.168	24914.03
802.499	24861.61
802.83	24714.04
803.161	24682.63
803.491	24707.71
803.822	24648.96
804.153	24562.63
804.483	24228.85
804.814	24213.49
805.145	24209.87
805.475	24297.55
805.805	24063.44
806.136	24115.41
806.466	24111.57
806.796	23994.28
807.126	23889.2
807.457	23777.34
807.787	23735.08
808.117	23628.42
808.447	23554.07
808.777	23552.49
809.107	23530.57
809.436	23454.86
809.766	23492.83
810.096	23266.17
810.426	23173.06
810.755	23270.91
811.085	23204.25
811.414	23054.87
811.744	22963.58
812.073	22829.8
812.403	22904.37
812.732	22667.31
813.061	22743.7
813.39	22552.06
813.719	22534.66
814.049	22667.77
814.378	22498.05
814.707	22407.21
815.036	22363.37
815.365	22358.62
815.693	22067.1
816.022	22081.57
816.351	22079.98
816.68	21847.67
817.008	21994.79
817.337	21806.77
817.665	21889.71
817.994	21844.74
818.322	21860.1
818.651	21649.26
818.979	21480
819.307	21700.79
819.636	21601.13
819.964	21524.97
820.292	21534.46
820.62	21437.74
820.948	21384.41
821.276	21431.19
821.604	21297.63
821.932	21423.96
822.259	21374.01
822.587	21446.78
822.915	21310.74
823.243	21388.93
823.57	21273.23
823.898	21361.81
824.225	21282.04
824.553	21270.51
824.88	21263.96
825.207	21396.39
825.535	21188.48
825.862	21283.4
826.189	21244.53
826.516	21331.53
826.843	21389.83
827.17	21448.14
827.497	21348.93
827.824	21331.53
828.151	21371.98
828.478	21261.02
828.805	21367.46
829.131	21219.44
829.458	21290.4
829.785	21124.3
830.111	21156.17
830.438	21273.9
830.764	21280.68
831.09	21322.26
831.417	21191.42
831.743	21226
832.069	21195.94
832.395	21084.53
832.722	21148.03
833.048	21042.95
833.374	21164.08
833.7	21153
834.026	21142.61
834.351	21124.53
834.677	21089.73
835.003	21105.77
835.329	21054.93
835.654	21032.33
835.98	20861.03
836.306	20934.7
836.631	20841.37
836.956	20937.19
837.282	20840.47
837.607	20753.47
837.932	20761.83
838.258	20793.69
838.583	20649.06
838.908	20531.78
839.233	20597.54
839.558	20627.37
839.883	20517.54
840.208	20549.63
840.533	20444.1
840.858	20414.27
841.182	20515.73
841.507	20397.77
841.832	20255.63
842.156	20341.73
842.481	20275.96
842.805	20220.82
843.13	20172.24
843.454	20115.06
843.778	20011.34
844.103	20091.34
844.427	20022.19
844.751	19974.28
845.075	19913.94
845.399	19856.77
845.723	19731.35
846.047	19697.45
846.371	19522.54
846.695	19505.36
847.019	19370.45
847.343	19457
847.666	19237.12
847.99	19180.63
848.313	19231.47
848.637	19116.45
848.96	19102.66
849.284	18879.84
849.607	18798.71
849.931	18820.64
850.254	18674.65
850.577	18434.66
850.9	18472.85
851.223	18433.75
851.546	18301.1
851.869	18263.81
852.192	18230.59
852.515	18151.73
852.838	18121.22
853.161	18054.1
853.483	18034.89
853.806	17895.91
854.129	17874.9
854.451	17833.99
854.774	17755.58
855.096	17643.72
855.419	17561.91
855.741	17670.38
856.063	17448.69
856.385	17424.06
856.708	17363.5
857.03	17336.38
857.352	17288.92
857.674	17226.33
857.996	17100.68
858.318	17149.72
858.64	17008.93
858.961	17003.51
859.283	16980.01
859.605	16846.22
859.926	16912.21
860.248	16833.12
860.57	16757.64
860.891	16837.64
861.212	16763.97
861.534	16700.69
861.855	16598.55
862.176	16626.57
862.498	16583.86
862.819	16508.61
863.14	16535.72
863.461	16428.83
863.782	16405.78
864.103	16482.39
864.424	16460.47
864.745	16471.09
865.065	16330.53
865.386	16243.08
865.707	16204.66
866.027	16232.68
866.348	16210.76
866.668	16143.64
866.989	16055.51
867.309	16082.63
867.63	16068.62
867.95	16094.83
868.27	15998.11
868.59	16010.31
868.91	16047.37
869.23	16003.08
869.55	15853.26
869.87	15966.92
870.19	15811.9
870.51	15777.1
870.83	15863.2
871.15	15772.58
871.469	15831.34
871.789	15812.58
872.109	15742.3
872.428	15640.61
872.748	15734.39
873.067	15711.34
873.386	15625.92
873.706	15639.7
874.025	15486.03
874.344	15479.48
874.663	15560.16
874.982	15503.21
875.301	15429.99
875.62	15405.58
875.939	15329.65
876.258	15404.68
876.577	15349.77
876.896	15379.82
877.214	15239.71
877.533	15324.91
877.852	15200.62
878.17	15206.27
878.489	15296.21
878.807	15203.1
879.125	15124.01
879.444	15104.12
879.762	15025.03
880.08	15069.55
880.398	14966.95
880.716	15063.22
881.034	15004.92
881.352	14988.42
881.67	14917.46
881.988	14965.37
882.306	14874.75
882.624	14833.4
882.941	14656.22
883.259	14700.07
883.577	14565.15
883.894	14553.18
884.212	14672.5
884.529	14578.49
884.846	14583.23
885.164	14522.44
885.481	14437.25
885.798	14589.11
886.115	14363.8
886.432	14440.19
886.75	14331.71
887.067	14392.5
887.383	14406.51
887.7	14296.69
888.017	14185.73
888.334	14233.41
888.651	14176.01
888.967	14166.07
889.284	14074.32
889.6	14031.61
889.917	13930.37
890.233	13936.47
890.55	13874.55
890.866	14000.87
891.182	13881.1
891.498	13804.04
891.815	13784.61
892.131	13676.36
892.447	13636.82
892.763	13642.92
893.079	13613.09
893.395	13524.73
893.71	13454.22
894.026	13475.92
894.342	13442.92
894.657	13315.92
894.973	13304.17
895.289	13375.81
895.604	13312.98
895.92	13143.27
896.235	13124.06
896.55	13158.19
896.865	13087.23
897.181	13060.79
897.496	13022.14
897.811	12957.29
898.126	12846.78
898.441	12838.42
898.756	12834.13
899.071	12764.75
899.386	12734.02
899.7	12678.2
900.015	12625.09
900.33	12546.45
900.644	12535.83
900.959	12515.94
901.273	12458.32
901.588	12381.03
901.902	12385.1
902.216	12368.6
902.531	12226.68
902.845	12248.6
903.159	12126.12
903.473	12166.12
903.787	12017.2
904.101	11915.96
904.415	11937.65
904.729	11898.56
905.042	11840.25
905.356	11807.26
905.67	11795.51
905.984	11841.16
906.297	11733.82
906.611	11645.68
906.924	11661.05
907.237	11652.91
907.551	11531.79
907.864	11429.42
908.177	11449.98
908.491	11357.1
908.804	11405.46
909.117	11347.61
909.43	11282.53
909.743	11195.07
910.056	11201.63
910.368	11194.17
910.681	11091.57
910.994	11045.47
911.307	10987.85
911.619	10958.92
911.932	10975.64
912.244	10819.26
912.557	10820.85
912.869	10858.81
913.181	10729.32
913.494	10705.37
913.806	10650.23
914.118	10551.02
914.43	10460.18
914.742	10506.96
915.054	10480.52
915.366	10405.26
915.678	10386.51
915.99	10344.7
916.302	10166.85
916.613	10237.13
916.925	10188.09
917.236	10119.17
917.548	10064.71
917.859	10115.1
918.171	10019.74
918.482	9970.47
918.794	9909.91
919.105	9889.8
919.416	9820.87
919.727	9874.2
920.038	9852.74
920.349	9730.48
920.66	9689.35
920.971	9638.28
921.282	9544.27
921.593	9626.75
921.903	9469.92
922.214	9506.3
922.525	9454.78
922.835	9395.12
923.146	9295.69
923.456	9329.13
923.767	9291.17
924.077	9275.35
924.387	9192.64
924.697	9206.2
925.008	9118.29
925.318	9062.93
925.628	9064.51
925.938	9051.63
926.248	8928.01
926.558	8922.59
926.867	8922.14
927.177	8876.94
927.487	8859.32
927.796	8708.58
928.106	8683.95
928.416	8633.56
928.725	8681.01
929.034	8578.64
929.344	8587.01
929.653	8512.43
929.962	8519.89
930.271	8456.16
930.581	8467.91
930.89	8343.62
931.199	8302.49
931.508	8346.33
931.817	8305.88
932.125	8260.91
932.434	8203.29
932.743	8102.05
933.051	8116.51
933.36	8072.44
933.669	8049.17
933.977	8053.46
934.286	8101.82
934.594	7949.73
934.902	7907.93
935.21	7903.18
935.519	7846.01
935.827	7876.74
936.135	7820.7
936.443	7726.24
936.751	7725.79
937.059	7674.94
937.367	7637.88
937.674	7610.53
937.982	7537.32
938.29	7520.59
938.597	7597.2
938.905	7416.19
939.213	7419.13
939.52	7377.32
939.827	7431.78
940.135	7387.04
940.442	7349.75
940.749	7296.64
941.056	7279.7
941.363	7230.88
941.67	7200.6
941.977	7172.35
942.284	7119.47
942.591	7080.83
942.898	7033.6
943.205	7066.37
943.511	7010.32
943.818	6967.16
944.125	6956.77
944.431	6946.15
944.738	6886.71
945.044	6862.31
945.35	6807.62
945.657	6730.56
945.963	6696.89
946.269	6782.31
946.575	6672.03
946.881	6674.06
947.187	6645.14
947.493	6614.85
947.799	6570.34
948.105	6586.83
948.41	6464.12
948.716	6511.13
949.022	6469.55
949.327	6450.34
949.633	6377.12
949.938	6346.61
950.244	6384.8
950.549	6292.6
950.854	6255.77
951.16	6325.6
951.465	6240.17
951.77	6215.77
952.075	6217.35
952.38	6138.71
952.685	6137.13
952.99	6096
953.294	6046.51
953.599	6019.39
953.904	6056
954.209	5963.8
954.513	5963.35
954.818	5974.42
955.122	5918.6
955.426	5892.16
955.731	5863.01
956.035	5765.84
956.339	5816.91
956.643	5786.4
956.948	5745.72
957.252	5752.5
957.556	5724.93
957.86	5691.49
958.163	5696.46
958.467	5684.03
958.771	5637.48
959.075	5574.66
959.378	5603.36
959.682	5540.31
959.985	5489.46
960.289	5444.94
960.592	5474.32
960.896	5447.43
961.199	5386.86
961.502	5439.52
961.805	5352.06
962.108	5338.28
962.411	5341.44
962.714	5255.34
963.017	5284.04
963.32	5279.97
963.623	5270.48
963.926	5175.12
964.228	5199.3
964.531	5164.95
964.833	5149.58
965.136	5060.77
965.438	5093.31
965.741	5049.92
966.043	5005.63
966.345	5037.95
966.648	4996.14
966.95	4999.3
967.252	4945.29
967.554	4947.55
967.856	4898.52
968.158	4872.98
968.46	4896.93
968.761	4839.76
969.063	4774
969.365	4768.58
969.666	4728.35
969.968	4758.18
970.269	4724.96
970.571	4779.42
970.872	4687.9
971.174	4663.49
971.475	4673.89
971.776	4640.89
972.077	4602.93
972.378	4608.35
972.679	4582.82
972.98	4550.5
973.281	4490.16
973.582	4491.97
973.883	4493.78
974.183	4430.73
974.484	4390.73
974.785	4422.37
975.085	4415.14
975.386	4423.27
975.686	4378.53
975.986	4355.48
976.287	4314.12
976.587	4255.59
976.887	4289.72
977.187	4246.1
977.487	4235.03
977.787	4255.14
978.087	4208.36
978.387	4199.1
978.687	4163.85
978.987	4133.56
979.286	4157.29
979.586	4097.41
979.885	4071.87
980.185	4067.58
980.484	4066.45
980.784	4040.23
981.083	4016.96
981.382	3956.39
981.682	3979.67
981.981	3969.05
982.28	3946
982.579	3932.89
982.878	3903.74
983.177	3873.23
983.475	3881.59
983.774	3881.14
984.073	3833.23
984.372	3784.87
984.67	3824.65
984.969	3769.05
985.267	3796.85
985.566	3766.34
985.864	3715.72
986.162	3737.19
986.461	3726.57
986.759	3711.65
987.057	3635.72
987.355	3621.94
987.653	3665.78
987.951	3659.68
988.249	3597.98
988.547	3566.8
988.844	3566.8
989.142	3585.1
989.44	3545.33
989.737	3513.92
990.035	3477.54
990.332	3496.29
990.63	3492.45
990.927	3494.03
991.224	3458.78
991.521	3415.84
991.819	3381.27
992.116	3420.81
992.413	3419.91
992.71	3395.96
993.006	3339.01
993.303	3344.88
993.6	3322.06
993.897	3284.09
994.193	3293.59
994.49	3258.11
994.787	3228.73
995.083	3214.27
995.379	3189.18
995.676	3233.93
995.972	3163.42
996.268	3128.39
996.565	3165.45
996.861	3120.93
997.157	3106.47
997.453	3062.63
997.749	3114.38
998.044	3057.66
998.34	3068.51
998.636	3024.89
998.932	3052.01
999.227	2974.95
999.523	2990.99
999.818	2981.5
1000.114	2929.3
1000.409	2927.49
1000.704	2899.02
1001	2913.48
1001.295	2899.92
1001.59	2854.73
1001.885	2882.75
1002.18	2831.68
1002.475	2801.85
1002.77	2809.08
1003.065	2775.63
1003.359	2774.5
1003.654	2761.62
1003.949	2740.83
1004.243	2703.77
1004.538	2717.1
1004.832	2709.87
1005.127	2673.72
1005.421	2671.23
1005.715	2612.25
1006.009	2643.89
1006.304	2602.76
1006.598	2563.89
1006.892	2581.29
1007.186	2574.06
1007.48	2528.18
1007.773	2572.93
1008.067	2566.6
1008.361	2506.94
1008.655	2522.76
1008.948	2486.15
1009.242	2486.6
1009.535	2450.9
1009.829	2440.73
1010.122	2423.33
1010.415	2413.38
1010.708	2407.73
1011.001	2367.96
1011.295	2370.22
1011.588	2377
1011.881	2358.92
1012.173	2327.51
1012.466	2304.01
1012.759	2265.82
1013.052	2299.04
1013.344	2269.43
1013.637	2223.33
1013.93	2243.44
1014.222	2232.37
1014.514	2228.75
1014.807	2189.66
1015.099	2205.93
1015.391	2176.55
1015.683	2181.52
1015.976	2121.41
1016.268	2146.05
1016.56	2106.95
1016.851	2093.84
1017.143	2073.05
1017.435	2087.29
1017.727	2085.93
1018.018	2066.27
1018.31	2021.08
1018.602	1981.53
1018.893	2004.58
1019.185	1989.44
1019.476	1974.07
1019.767	1991.47
1020.058	1975.88
1020.35	1919.38
1020.641	1924.81
1020.932	1923
1021.223	1915.32
1021.514	1906.96
1021.804	1894.3
1022.095	1864.7
1022.386	1832.16
1022.677	1840.06
1022.967	1829.44
1023.258	1823.12
1023.548	1810.69
1023.839	1755.55
1024.129	1775.43
1024.419	1758.94
1024.709	1760.52
1025	1734.98
1025.29	1718.03
1025.58	1702.44
1025.87	1683.23
1026.16	1682.1
1026.449	1673.52
1026.739	1671.26
1027.029	1687.75
1027.319	1648.66
1027.608	1633.29
1027.898	1611.37
1028.187	1602.78
1028.477	1602.56
1028.766	1588.77
1029.055	1546.51
1029.344	1586.74
1029.634	1565.04
1029.923	1551.48
1030.212	1548.09
1030.501	1498.38
1030.79	1464.48
1031.078	1475.55
1031.367	1490.7
1031.656	1516.01
1031.945	1492.5
1032.233	1452.73
1032.522	1439.62
1032.81	1443.92
1033.099	1439.62
1033.387	1431.49
1033.675	1398.72
1033.963	1387.42
1034.251	1401.43
1034.54	1358.27
1034.828	1379.29
1035.116	1351.72
1035.403	1326.18
1035.691	1343.13
1035.979	1294.54
1036.267	1310.14
1036.554	1312.62
1036.842	1292.28
1037.129	1301.32
1037.417	1276.01
1037.704	1272.17
1037.992	1280.31
1038.279	1250.25
1038.566	1254.54
1038.853	1254.54
1039.14	1254.54
