Data from orange_diffuse_book_FLMS001491_00030.txt Node
Date: Wed Feb 08 15:29:21 GMT 2017
User: dcchb
Spectrometer: FLMS00149
Trigger mode: 0
Integration Time (sec): 2.000000E-2
Scans to average: 10
Electric dark correction enabled: true
Nonlinearity correction enabled: false
Boxcar width: 0
XAxis mode: Wavelengths
Number of Pixels in Spectrum: 2048
>>>>>Begin Spectral Data<<<<<
341.393	-2.26
341.776	-2.26
342.16	-2.26
342.543	-67.12
342.927	-83.39
343.31	-58.76
343.693	-74.35
344.077	-90.39
344.46	-67.34
344.843	-54.46
345.226	-41.81
345.61	-32.32
345.993	-19.89
346.376	3.16
346.759	12.2
347.142	18.98
347.525	39.55
347.908	64.18
348.291	72.54
348.674	103.5
349.057	125.19
349.44	127.68
349.823	145.76
350.206	163.39
350.588	203.16
350.971	232.08
351.354	245.19
351.737	282.48
352.119	274.34
352.502	290.39
352.884	270.73
353.267	280.67
353.65	313.89
354.032	313.89
354.414	329.26
354.797	323.38
355.179	339.65
355.562	347.11
355.944	357.28
356.326	353.89
356.709	350.5
357.091	360.89
357.473	369.71
357.855	370.16
358.238	375.36
358.62	341.46
359.002	367
359.384	354.34
359.766	351.63
360.148	359.99
360.53	355.02
360.912	357.96
361.294	363.38
361.676	345.75
362.057	338.07
362.439	340.56
362.821	331.97
363.203	359.31
363.584	325.87
363.966	339.65
364.348	351.18
364.729	333.78
365.111	341.91
365.493	338.52
365.874	340.78
366.256	339.65
366.637	346.21
367.019	336.04
367.4	325.87
367.781	348.24
368.163	330.61
368.544	342.36
368.925	332.42
369.306	372.87
369.688	336.04
370.069	326.09
370.45	326.77
370.831	315.7
371.212	325.64
371.593	326.77
371.974	326.55
372.355	348.47
372.736	335.36
373.117	339.2
373.498	352.53
373.879	319.99
374.26	340.1
374.641	350.27
375.021	330.39
375.402	332.87
375.783	343.27
376.163	333.78
376.544	358.86
376.925	354.11
377.305	360.22
377.686	349.6
378.066	345.75
378.447	366.09
378.827	343.04
379.208	343.49
379.588	352.53
379.968	364.74
380.349	354.34
380.729	359.09
381.109	329.03
381.489	359.31
381.87	357.5
382.25	346.21
382.63	360.67
383.01	367
383.39	337.17
383.77	351.18
384.15	358.18
384.53	356.37
384.91	363.15
385.29	365.19
385.67	363.61
386.049	384.4
386.429	362.7
386.809	381.46
387.189	380.33
387.568	374.68
387.948	381.01
388.328	355.7
388.707	367.45
389.087	388.46
389.466	392.76
389.846	379.65
390.225	378.52
390.605	401.35
390.984	364.28
391.363	410.84
391.743	409.93
392.122	371.52
392.501	388.01
392.881	387.11
393.26	398.86
393.639	381.68
394.018	395.92
394.397	404.06
394.776	409.25
395.155	410.16
395.534	398.18
395.913	392.98
396.292	408.58
396.671	430.95
397.05	403.15
397.429	413.32
397.808	409.03
398.186	396.83
398.565	425.75
398.944	414.45
399.323	386.88
399.701	410.16
400.08	423.04
400.458	399.54
400.837	439.08
401.215	413.77
401.594	442.7
401.972	416.26
402.351	441.8
402.729	438.18
403.107	426.66
403.486	424.17
403.864	430.72
404.242	418.97
404.62	447.22
404.999	445.86
405.377	453.55
405.755	453.1
406.133	458.07
406.511	455.13
406.889	452.64
407.267	446.54
407.645	459.2
408.023	468.01
408.401	475.47
408.779	451.06
409.156	474.56
409.534	465.3
409.912	473.89
410.29	475.69
410.667	508.01
411.045	489.03
411.422	495.81
411.8	475.92
412.178	495.58
412.555	487.67
412.933	506.65
413.31	504.17
413.687	514.11
414.065	514.34
414.442	529.25
414.819	527.67
415.197	513.43
415.574	528.57
415.951	522.92
416.328	529.7
416.705	547.78
417.082	562.7
417.46	552.53
417.837	548.91
418.214	549.82
418.591	562.92
418.967	562.47
419.344	551.62
419.721	538.97
420.098	555.47
420.475	560.66
420.852	585.75
421.228	570.38
421.605	564.5
421.982	576.48
422.358	592.07
422.735	570.15
423.111	594.33
423.488	577.16
423.864	594.56
424.241	592.3
424.617	599.76
424.994	595.46
425.37	613.77
425.746	598.18
426.123	632.53
426.499	640.21
426.875	627.33
427.251	636.82
427.627	636.37
428.003	645.41
428.379	662.81
428.756	639.53
429.132	646.08
429.507	664.39
429.883	679.53
430.259	673.65
430.635	672.98
431.011	678.17
431.387	670.04
431.763	677.95
432.138	691.96
432.514	707.1
432.89	708.68
433.265	735.35
433.641	726.08
434.016	738.74
434.392	749.81
434.767	743.71
435.143	754.56
435.518	755.46
435.894	740.55
436.269	772.86
436.644	788.45
437.02	787.78
437.395	781.22
437.77	799.75
438.145	792.07
438.52	809.92
438.895	804.05
439.271	821.22
439.646	823.03
440.021	830.71
440.395	842.24
440.77	809.92
441.145	832.07
441.52	838.4
441.895	835.68
442.27	855.8
442.645	848.34
443.019	850.15
443.394	852.86
443.769	863.48
444.143	853.76
444.518	869.36
444.892	866.87
445.267	854.89
445.641	894.67
446.016	888.56
446.39	884.27
446.764	873.42
447.139	863.93
447.513	891.5
447.887	895.8
448.262	912.97
448.636	915.46
449.01	918.39
449.384	898.96
449.758	923.14
450.132	941.9
450.506	935.79
450.88	934.66
451.254	948.22
451.628	963.82
452.002	942.12
452.376	962.23
452.75	950.26
453.123	966.08
453.497	978.73
453.871	967.66
454.244	1005.62
454.618	998.39
454.992	1006.98
455.365	999.52
455.739	1029.13
456.112	1017.15
456.486	1021.22
456.859	1076.13
457.232	1039.07
457.606	1051.72
457.979	1058.5
458.352	1077.03
458.725	1112.97
459.099	1064.6
459.472	1135.34
459.845	1134.89
460.218	1120.65
460.591	1126.75
460.964	1131.72
461.337	1167.88
461.71	1190.7
462.083	1175.34
462.456	1171.72
462.829	1180.31
463.201	1213.98
463.574	1206.97
463.947	1220.31
464.32	1216.92
464.692	1232.06
465.065	1229.8
465.438	1253.07
465.81	1269.8
466.183	1265.05
466.555	1285.39
466.928	1313.19
467.3	1306.41
467.672	1311.15
468.045	1319.06
468.417	1342.34
468.789	1335.11
469.161	1364.94
469.534	1357.03
469.906	1406.74
470.278	1394.99
470.65	1403.13
471.022	1409.68
471.394	1424.37
471.766	1458.04
472.138	1477.25
472.51	1500.75
472.882	1493.52
473.253	1499.17
473.625	1538.94
473.997	1546.85
474.369	1543.91
474.74	1592.5
475.112	1609
475.484	1626.4
475.855	1657.81
476.227	1664.14
476.598	1695.55
476.97	1698.94
477.341	1770.12
477.713	1768.77
478.084	1763.8
478.455	1827.97
478.827	1820.52
479.198	1842.89
479.569	1854.41
479.94	1897.58
480.311	1892.61
480.682	1951.59
481.053	1964.47
481.424	2031.81
481.795	2031.81
482.166	2033.84
482.537	2084.92
482.908	2110.45
483.279	2155.65
483.65	2165.59
484.021	2184.12
484.391	2265.7
484.762	2255.76
485.133	2281.07
485.503	2295.76
485.874	2373.72
486.244	2385.7
486.615	2414.4
486.985	2458.47
487.356	2531.46
487.726	2552.93
488.097	2581.4
488.467	2574.4
488.837	2661.17
489.207	2656.65
489.578	2717.67
489.948	2716.54
490.318	2804.67
490.688	2807.38
491.058	2841.06
491.428	2897.32
491.798	2933.93
492.168	2988.4
492.538	3002.18
492.908	3037.89
493.278	3042.41
493.648	3095.74
494.017	3140.26
494.387	3166.24
494.757	3196.53
495.126	3243.98
495.496	3276.52
495.866	3281.5
496.235	3325.56
496.605	3349.52
496.974	3429.29
497.344	3432
497.713	3463.86
498.082	3536.4
498.452	3527.82
498.821	3565.78
499.19	3575.27
499.559	3626.12
499.928	3644.65
500.298	3669.96
500.667	3743.18
501.036	3777.08
501.405	3775.49
501.774	3794.25
502.143	3818.43
502.512	3833.12
502.88	3876.06
503.249	3914.25
503.618	3947.47
503.987	3956.51
504.356	4005.09
504.724	3994.25
505.093	4072.21
505.462	4090.51
505.83	4061.81
506.199	4117.41
506.567	4207.35
506.936	4157.4
507.304	4241.24
507.672	4287.57
508.041	4284.86
508.409	4356.72
508.777	4348.81
509.145	4412.54
509.514	4425.42
509.882	4460.9
510.25	4461.13
510.618	4521.69
510.986	4491.18
511.354	4562.59
511.722	4592.42
512.09	4607.79
512.458	4618.18
512.826	4722.36
513.193	4712.64
513.561	4746.09
513.929	4779.76
514.297	4828.35
514.664	4888.23
515.032	4895.01
515.4	4915.58
515.767	4965.52
516.135	4979.3
516.502	4942.02
516.869	5075.8
517.237	5111.96
517.604	5102.69
517.972	5167.32
518.339	5173.42
518.706	5187.21
519.073	5253.2
519.44	5257.04
519.808	5355.57
520.175	5309.24
520.542	5389.69
520.909	5375.9
521.276	5382.91
521.643	5470.14
522.009	5524.83
522.376	5602.56
522.743	5561.21
523.11	5634.2
523.477	5692.96
523.843	5738.61
524.21	5744.26
524.577	5795.33
524.943	5878.26
525.31	5890.69
525.676	5924.14
526.043	5944.02
526.409	5973.18
526.776	6043.68
527.142	6081.65
527.508	6067.19
527.874	6117.58
528.241	6134.08
528.607	6181.76
528.973	6242.1
529.339	6261.53
529.705	6355.09
530.071	6338.14
530.437	6396.67
530.803	6366.16
531.169	6469.89
531.535	6480.28
531.901	6494.97
532.267	6523.9
532.632	6530.68
532.998	6582.43
533.364	6638.92
533.73	6658.36
534.095	6718.24
534.461	6712.37
534.826	6755.75
535.192	6754.4
535.557	6807.96
535.923	6812.7
536.288	6872.59
536.653	6858.35
537.019	6894.06
537.384	6885.69
537.749	6911.68
538.114	7010.21
538.479	6981.51
538.845	7023.77
539.21	7025.13
539.575	7117.55
539.94	7084.56
540.305	7165.69
540.67	7105.12
541.034	7209.98
541.399	7225.8
541.764	7246.59
542.129	7281.39
542.494	7343.31
542.858	7306.25
543.223	7367.04
543.587	7445
543.952	7420.37
544.316	7499.69
544.681	7453.59
545.045	7562.74
545.41	7574.04
545.774	7543.3
546.138	7678.44
546.503	7666.69
546.867	7636.41
547.231	7767.93
547.595	7818.55
547.959	7843.64
548.324	7869.17
548.688	7892
549.052	7955.27
549.416	7973.58
549.779	8003.41
550.143	7976.74
550.507	8083.86
550.871	8198.65
551.235	8193.91
551.599	8237.98
551.962	8227.35
552.326	8258.99
552.689	8326.11
553.053	8396.62
553.417	8408.14
553.78	8579.89
554.143	8494.24
554.507	8553.9
554.87	8621.69
555.234	8722.03
555.597	8692.65
555.96	8755.25
556.323	8845.87
556.686	8908.92
557.05	8948.92
557.413	9012.19
557.776	8999.76
558.139	9155.69
558.502	9180.78
558.865	9198.4
559.228	9350.49
559.59	9347.1
559.953	9433.2
560.316	9510.71
560.679	9561.33
561.041	9666.86
561.404	9742.12
561.767	9830.93
562.129	9903.47
562.492	10023.92
562.854	10059.62
563.217	10099.62
563.579	10201.31
563.941	10261.65
564.304	10381.65
564.666	10505.71
565.028	10528.76
565.39	10657.35
565.753	10712.03
566.115	10863.67
566.477	11056.88
566.839	11059.82
567.201	11219.59
567.563	11272.92
567.925	11378.01
568.287	11458
568.648	11664.78
569.01	11748.84
569.372	11911.55
569.734	12004.43
570.095	12182.05
570.457	12305.44
570.819	12495.04
571.18	12606.22
571.542	12773.22
571.903	12961.02
572.265	13038.75
572.626	13165.08
572.987	13388.12
573.349	13554.9
573.71	13759.41
574.071	13976.58
574.432	14209.8
574.794	14349.68
575.155	14527.75
575.516	14687.07
575.877	14975.88
576.238	15193.05
576.599	15431.01
576.96	15645.01
577.32	15965.91
577.681	16080.26
578.042	16462.17
578.403	16638.88
578.763	16953
579.124	17256.72
579.485	17628.01
579.845	17868.46
580.206	18131.05
580.566	18451.49
580.927	18611.94
581.287	19080.63
581.648	19259.61
582.008	19626.15
582.368	20005.8
582.728	20396.3
583.089	20536.18
583.449	20989.28
583.809	21354.69
584.169	21881.46
584.529	22070.38
584.889	22512.18
585.249	22888.44
585.609	23295.43
585.969	23857
586.329	24025.13
586.688	24658.33
587.048	25002.28
587.408	25366.34
587.768	25670.96
588.127	26227.78
588.487	26636.59
588.846	27216.46
589.206	27530.58
589.565	28020.96
589.925	28544.79
590.284	28872.91
590.643	29407.59
591.003	29841.25
591.362	30368.92
591.721	30753.77
592.08	31271.27
592.44	31784.02
592.799	32304.24
593.158	32574.06
593.517	33103.99
593.876	33699.23
594.235	34056.96
594.593	34607.23
594.952	35145.29
595.311	35458.73
595.67	35968.09
596.029	36647.85
596.387	37092.13
596.746	37599.24
597.104	38006.01
597.463	38452.32
597.822	39068.35
598.18	39246.43
598.538	39713.31
598.897	40280.3
599.255	40411.59
599.613	41289.08
599.972	41522.98
600.33	42014.71
600.688	42300.13
601.046	42978.98
601.404	43347.33
601.762	43712.97
602.12	44278.61
602.478	44445.39
602.836	45011.47
603.194	45125.37
603.552	45520.16
603.91	45736.88
604.268	46182.74
604.625	46639.68
604.983	47051.87
605.341	47140.23
605.698	47590.84
606.056	47920.77
606.413	48063.82
606.771	48470.36
607.128	48796.91
607.485	48915.1
607.843	49108.99
608.2	49480.73
608.557	49721.63
608.914	49921.63
609.272	50294.5
609.629	50518.45
609.986	50818.78
610.343	50727.93
610.7	51208.15
611.057	51275.71
611.414	51406.56
611.771	51547.12
612.127	51811.75
612.484	51948.46
612.841	52171.51
613.198	52206.31
613.554	52256.93
613.911	52626.64
614.267	52662.34
614.624	52705.51
614.98	53001.77
615.337	53145.5
615.693	53237.92
616.05	53218.04
616.406	53605.14
616.762	53472.49
617.118	53550.91
617.475	53705.25
617.831	53771.69
618.187	53887.4
618.543	54069.54
618.899	54221.85
619.255	54242.42
619.611	54246.26
619.967	54403.99
620.323	54558.57
620.678	54459.36
621.034	54426.59
621.39	54531.67
621.746	54483.54
622.101	54859.57
622.457	54655.51
622.812	54827.94
623.168	54889.86
623.523	54854.15
623.879	55027.48
624.234	54907.03
624.589	55034.94
624.945	55073.58
625.3	55130.08
625.655	55121.26
626.01	55161.71
626.365	55253.69
626.72	55217.98
627.075	55240.36
627.43	55289.39
627.785	55240.58
628.14	55340.69
628.495	55395.38
628.85	55374.36
629.205	55370.52
629.559	55490.74
629.914	55358.09
630.269	55421.37
630.623	55356.74
630.978	55292.11
631.332	55514.25
631.687	55522.83
632.041	55390.63
632.396	55443.06
632.75	55357.19
633.104	55382.27
633.459	55307.92
633.813	55335.49
634.167	55399
634.521	55383.85
634.875	55373.91
635.229	55400.58
635.583	55298.88
635.937	55339.56
636.291	55265.21
636.645	55283.07
636.999	55206.23
637.352	55320.58
637.706	55169.17
638.06	55309.51
638.413	55221.82
638.767	55270.41
639.121	55211.88
639.474	55048.27
639.828	55081.49
640.181	55206.91
640.534	55224.54
640.888	55088.95
641.241	55068.38
641.594	55102.28
641.947	55109.96
642.301	55017.31
642.654	55092.34
643.007	55108.38
643.36	55029.51
643.713	55060.7
644.066	55037.42
644.419	54921.49
644.771	54722.63
645.124	54505.46
645.477	54484.9
645.83	54308.85
646.182	54260.95
646.535	54121.97
646.888	54257.1
647.24	54118.8
647.593	54327.61
647.945	54138.69
648.298	53998.58
648.65	54090.56
649.002	54087.39
649.355	54037.22
649.707	54070.67
650.059	54131.91
650.411	54473.14
650.763	54492.35
651.115	54832.91
651.467	54739.35
651.819	54714.04
652.171	54606.02
652.523	54646.25
652.875	54671.1
653.227	54493.03
653.578	54703.42
653.93	54662.52
654.282	54501.62
654.633	54498.23
654.985	54600.37
655.337	54550.43
655.688	54677.43
656.039	54612.35
656.391	54480.15
656.742	54513.59
657.094	54476.08
657.445	54605.12
657.796	54510.88
658.147	54518.57
658.498	54471.79
658.849	54474.95
659.2	54514.27
659.551	54435.86
659.902	54627.72
660.253	54533.71
660.604	54499.36
660.955	54426.59
661.306	54535.74
661.656	54426.59
662.007	54493.93
662.358	54468.62
662.708	54462.07
663.059	54470.88
663.409	54280.83
663.76	54564.67
664.11	54488.74
664.461	54464.78
664.811	54537.55
665.161	54396.54
665.511	54406.71
665.862	54389.08
666.212	54451.45
666.562	54474.27
666.912	54349.08
667.262	54342.75
667.612	54392.24
667.962	54370.1
668.312	54329.64
668.662	54468.62
669.011	54382.98
669.361	54257.56
669.711	54261.62
670.06	54285.35
670.41	54163.77
670.76	54183.89
671.109	54249.65
671.459	54165.81
671.808	54129.42
672.157	54249.42
672.507	54027.51
672.856	54055.08
673.205	54075.64
673.554	54092.81
673.904	54003.33
674.253	54167.84
674.602	54025.02
674.951	53640.85
675.3	53486.73
675.649	54037.22
675.998	53987.73
676.346	53926.72
676.695	53945.93
677.044	53819.38
677.393	53746.84
677.741	53877.45
678.09	53811.24
678.438	53798.81
678.787	53833.16
679.135	53819.83
679.484	53581.19
679.832	53732.6
680.181	53568.31
680.529	53707.74
680.877	53570.34
681.225	53547.29
681.573	53613.73
681.922	53464.81
682.27	53261.88
682.618	53356.34
682.966	53308.88
683.314	53344.13
683.661	53223.23
684.009	53049.23
684.357	53114.99
684.705	53062.79
685.053	53161.99
685.4	53000.41
685.748	52876.8
686.095	52812.17
686.443	52731.27
686.79	52720.42
687.138	52882.9
687.485	52738.27
687.832	52626.19
688.18	52636.81
688.527	52455.57
688.874	52404.27
689.221	52399.53
689.568	52320.21
689.915	52172.87
690.262	52178.29
690.609	52102.13
690.956	51968.8
691.303	52006.99
691.65	51811.75
691.997	51714.35
692.344	51602.26
692.69	51659.43
693.037	51680.22
693.383	51325.88
693.73	51452.21
694.077	51191.65
694.423	51340.57
694.769	51156.85
695.116	51150.07
695.462	51064.19
695.808	50935.38
696.155	50911.43
696.501	50561.83
696.847	50677.09
697.193	50370.43
697.539	50591.21
697.885	50281.39
698.231	50125.01
698.577	50124.56
698.923	50151.45
699.269	49907.61
699.614	49771.8
699.96	49581.75
700.306	49729.31
700.651	49605.25
700.997	49428.98
701.342	49427.17
701.688	49364.13
702.033	49213.85
702.379	49213.4
702.724	49072.61
703.069	49101.76
703.415	48744.03
703.76	48694.31
704.105	48685.95
704.45	48576.12
704.795	48396.47
705.14	48408.67
705.485	48318.96
705.83	48113.09
706.175	48141.79
706.52	47909.02
706.865	47901.57
707.209	47775.69
707.554	47680.33
707.899	47683.04
708.243	47483.72
708.588	47332.09
708.932	47140.68
709.277	47245.99
709.621	47163.96
709.966	46894.13
710.31	47021.14
710.654	46762.61
710.998	46678.32
711.342	46807.36
711.687	46551.09
712.031	46378.67
712.375	46378.89
712.719	46341.61
713.063	46261.38
713.407	46443.52
713.75	46177.54
714.094	46056.19
714.438	45901.17
714.782	46001.05
715.125	45834.28
715.469	45877.89
715.812	45639.48
716.156	45556.99
716.499	45563.1
716.843	45550.44
717.186	45247.62
717.53	45528.52
717.873	45575.07
718.216	45334.4
718.559	45251.92
718.902	44872.94
719.246	45089.44
719.589	44750.01
719.932	44707.07
720.275	44761.08
720.617	44837.47
720.96	44581.43
721.303	44718.82
721.646	44576.91
721.989	44387.99
722.331	44568.09
722.674	44518.15
723.016	44357.03
723.359	44296.69
723.701	44406.74
724.044	44048.33
724.386	43790.04
724.729	44059.18
725.071	43986.87
725.413	44143.7
725.755	43984.83
726.097	43776.02
726.439	43525.86
726.782	43423.94
727.124	43668.23
727.465	43465.98
727.807	43487.9
728.149	43567.89
728.491	43397.28
728.833	43509.59
729.175	43279.54
729.516	43168.58
729.858	43360.89
730.199	43244.96
730.541	43159.77
730.882	43189.6
731.224	43091.07
731.565	42814.69
731.906	42934.01
732.248	42906.89
732.589	42822.83
732.93	42723.17
733.271	42722.72
733.612	42796.84
733.953	42647.01
734.294	42551.2
734.635	42578.54
734.976	42628.71
735.317	42507.13
735.658	42441.37
735.999	42411.09
736.339	42359.56
736.68	42407.02
737.021	42279.57
737.361	41979.46
737.702	42321.37
738.042	42161.38
738.383	42070.76
738.723	42130.64
739.063	41978.78
739.404	42068.27
739.744	42068.72
740.084	41839.8
740.424	41876.64
740.764	41759.58
741.104	42025.79
741.444	41686.81
741.784	41544.9
742.124	41607.95
742.464	41640.71
742.804	41539.02
743.143	41427.84
743.483	41410.66
743.823	41334.73
744.162	41228.75
744.502	41344.45
744.841	41179.48
745.181	41338.8
745.52	41163.44
745.86	41212.02
746.199	41148.3
746.538	41093.61
746.877	41097
747.216	41120.73
747.556	40913.5
747.895	40988.75
748.234	40673.73
748.573	40781.53
748.911	40760.96
749.25	40685.03
749.589	40485.94
749.928	40562.1
750.267	40514.19
750.605	40542.44
750.944	40528.65
751.283	40246.17
751.621	40409.56
751.96	40311.03
752.298	40234.2
752.636	40224.71
752.975	39941.32
753.313	40004.82
753.651	40069.23
753.989	39825.62
754.327	39722.57
754.666	39458.85
755.004	39561.67
755.342	39637.6
755.679	39599.86
756.017	39349.02
756.355	39448
756.693	39334.56
757.031	39391.05
757.368	39058.86
757.706	38967.11
758.044	38892.99
758.381	38928.69
758.719	38785.87
759.056	38819.77
759.394	38654.12
759.731	38457.52
760.068	38459.55
760.405	38386.34
760.743	38107.7
761.08	38250.75
761.417	37965.56
761.754	38142.95
762.091	37897.08
762.428	37750.87
762.765	37568.73
763.102	37649.63
763.438	37400.82
763.775	37174.84
764.112	37241.05
764.449	37383.42
764.785	37133.94
765.122	36914.74
765.458	36739.82
765.795	36731.24
766.131	36690.56
766.467	36444.69
766.804	36371.25
767.14	36338.71
767.476	36165.83
767.812	36218.93
768.148	36087.64
768.485	35840.87
768.821	35743.69
769.157	35712.96
769.492	35489.46
769.828	35628.44
770.164	35238.62
770.5	35120.66
770.836	35112.98
771.171	34972.41
771.507	34725.87
771.842	34592.31
772.178	34614.91
772.513	34541.92
772.849	34445.2
773.184	34223.28
773.519	34335.82
773.855	34084.08
774.19	33914.81
774.525	33902.61
774.86	33867.13
775.195	33786.68
775.53	33602.05
775.865	33352.8
776.2	33262.18
776.535	32998.91
776.87	32918.23
777.205	32818.57
777.539	32744.22
777.874	32705.58
778.209	32443.21
778.543	32505.36
778.878	32174.3
779.212	32243.67
779.547	31961.65
779.881	32215.65
780.215	32028.76
780.55	32017.92
780.884	31792.16
781.218	31516.46
781.552	31625.16
781.886	31382
782.22	31252.96
782.554	31116.7
782.888	31039.64
783.222	30799.64
783.556	30745.63
783.889	30626.77
784.223	30455.02
784.557	30418.41
784.89	30568.46
785.224	30211.86
785.557	30258.87
785.891	30128.7
786.224	29861.14
786.558	29986.33
786.891	29594.25
787.224	29471.99
787.557	29398.78
787.891	29440.36
788.224	29360.58
788.557	29310.64
788.89	29121.04
789.223	29100.03
789.556	28914.49
789.888	28984.55
790.221	28785.01
790.554	28643.31
790.887	28546.59
791.219	28543.66
791.552	28377.78
791.884	28120.84
792.217	28146.15
792.549	27965.37
792.882	27936.44
793.214	27759.27
793.546	27829.78
793.879	27671.59
794.211	27406.51
794.543	27618.26
794.875	27418.94
795.207	27580.97
795.539	27243.35
795.871	27320.86
796.203	27110.47
796.535	26924.26
796.867	26979.86
797.198	26863.93
797.53	26801.1
797.862	26623.93
798.193	26677.26
798.525	26479.3
798.856	26561.34
799.188	26192.76
799.519	26015.81
799.85	26076.83
800.182	26100.56
800.513	26097.84
800.844	25749.38
801.175	25921.58
801.506	25757.29
801.837	25697.4
802.168	25660.34
802.499	25543.28
802.83	25339.22
803.161	25422.61
803.491	25292.44
803.822	25395.94
804.153	25128.6
804.483	24986.69
804.814	24925.22
805.145	24907.59
805.475	24918.21
805.805	24818.33
806.136	24789.18
806.466	24813.81
806.796	24661.27
807.126	24568.85
807.457	24468.06
807.787	24380.15
808.117	24391
808.447	24284.56
808.777	24455.63
809.107	24194.17
809.436	24149.87
809.766	24023.55
810.096	23975.64
810.426	23932.93
810.755	23949.65
811.085	23853.61
811.414	23718.92
811.744	23607.74
812.073	23631.7
812.403	23458.37
812.732	23284.59
813.061	23293.17
813.39	23245.94
813.719	23249.11
814.049	23251.59
814.378	23196
814.707	23066.96
815.036	23161.42
815.365	22930.7
815.693	22720.31
816.022	22831.04
816.351	22669.91
816.68	22623.59
817.008	22638.95
817.337	22493.65
817.665	22449.13
817.994	22458.39
818.322	22386.3
818.651	22296.59
818.979	22334.1
819.307	22380.43
819.636	22179.53
819.964	22116.03
820.292	22192.41
820.62	22206.42
820.948	22035.35
821.276	22135.01
821.604	22053.88
821.932	22071.74
822.259	22093.2
822.587	21987.67
822.915	21976.37
823.243	22018.4
823.57	22022.92
823.898	22064.05
824.225	21862.93
824.553	21942.93
824.88	21994
825.207	21976.6
825.535	22048.46
825.862	22041.68
826.189	21934.79
826.516	21945.64
826.843	22054.56
827.17	21968.01
827.497	22116.93
827.824	21967.11
828.151	22067.89
828.478	21913.1
828.805	22064.73
829.131	21873.1
829.458	21803.95
829.785	21860.89
830.111	21873.78
830.438	21913.32
830.764	21840.33
831.09	21895.02
831.417	21752.65
831.743	21922.14
832.069	21918.07
832.395	21791.29
832.722	21714.46
833.048	21808.92
833.374	21760.56
833.7	21664.74
834.026	21746.55
834.351	21688.24
834.677	21597.17
835.003	21816.15
835.329	21667.68
835.654	21702.93
835.98	21521.24
836.306	21533.45
836.631	21464.52
836.956	21458.42
837.282	21493.45
837.607	21344.52
837.932	21223.62
838.258	21368.93
838.583	21375.94
838.908	21150.63
839.233	21283.96
839.558	21217.3
839.883	21074.93
840.208	21081.25
840.533	21106.34
840.858	21043.97
841.182	21074.7
841.507	21030.41
841.832	20893.24
842.156	20871.77
842.481	20873.35
842.805	20817.98
843.13	20816.4
843.454	20797.65
843.778	20628.38
844.103	20623.64
844.427	20682.17
844.751	20583.19
845.075	20486.47
845.399	20434.94
845.723	20402.4
846.047	20391.1
846.371	20203.31
846.695	20127.38
847.019	20049.87
847.343	19925.13
847.666	19853.26
847.99	19785.47
848.313	19763.77
848.637	19628.41
848.96	19676.09
849.284	19497.34
849.607	19406.27
849.931	19432.03
850.254	19312.26
850.577	19245.82
850.9	19032.95
851.223	18985.49
851.546	18994.98
851.869	18717.7
852.192	18911.37
852.515	18611.49
852.838	18609.68
853.161	18641.77
853.483	18501.89
853.806	18397.48
854.129	18375.56
854.451	18393.41
854.774	18222.12
855.096	18215.11
855.419	18141.44
855.741	18096.93
856.063	17914.11
856.385	17940.55
856.708	17850.15
857.03	17870.26
857.352	17800.44
857.674	17739.65
857.996	17571.06
858.318	17599.99
858.64	17610.38
858.961	17504.85
859.283	17423.27
859.605	17418.98
859.926	17380.79
860.248	17327.23
860.57	17292.43
860.891	17277.51
861.212	17256.5
861.534	17136.27
861.855	17137.18
862.176	17151.64
862.498	17141.92
862.819	17128.59
863.14	16982.6
863.461	16928.14
863.782	16984.86
864.103	16931.98
864.424	16911.65
864.745	17004.52
865.065	16853.34
865.386	16784.42
865.707	16677.53
866.027	16695.83
866.348	16676.62
866.668	16677.75
866.989	16625.33
867.309	16571.99
867.63	16605.67
867.95	16602.73
868.27	16441.83
868.59	16538.1
868.91	16456.29
869.23	16373.35
869.55	16273.7
869.87	16413.58
870.19	16299.68
870.51	16370.64
870.83	16340.36
871.15	16155.96
871.469	16289.06
871.789	16288.61
872.109	16229.18
872.428	16097.43
872.748	16146.24
873.067	16084.32
873.386	16161.16
873.706	16073.02
874.025	15964.78
874.344	15997.09
874.663	16000.71
874.982	15952.12
875.301	15821.5
875.62	15836.19
875.939	15858.57
876.258	15786.03
876.577	15826.93
876.896	15809.98
877.214	15811.11
877.533	15730.43
877.852	15666.48
878.17	15633.04
878.489	15592.58
878.807	15718.68
879.125	15657.89
879.444	15609.99
879.762	15539.48
880.08	15560.95
880.398	15441.4
880.716	15394.85
881.034	15404.11
881.352	15361.4
881.67	15362.31
881.988	15404.79
882.306	15364.79
882.624	15339.26
882.941	15172.48
883.259	15071.02
883.577	15014.52
883.894	15002.77
884.212	15043.9
884.529	15071.02
884.846	15035.31
885.164	14904.47
885.481	14955.99
885.798	14968.87
886.115	14861.53
886.432	14764.58
886.75	14817.46
887.067	14815.66
887.383	14727.75
887.7	14731.36
888.017	14634.64
888.334	14685.26
888.651	14604.36
888.967	14548.54
889.284	14537.24
889.6	14465.16
889.917	14409.56
890.233	14454.31
890.55	14347.42
890.866	14367.31
891.182	14307.42
891.498	14200.3
891.815	14195.33
892.131	14191.94
892.447	13990.82
892.763	14098.16
893.079	14016.81
893.395	13936.58
893.71	13899.75
894.026	13901.33
894.342	13810.03
894.657	13758.51
894.973	13662.69
895.289	13705.4
895.604	13709.47
895.92	13576.37
896.235	13583.15
896.55	13464.5
896.865	13429.03
897.181	13397.39
897.496	13431.29
897.811	13349.48
898.126	13323.94
898.441	13233.32
898.756	13244.62
899.071	13105.42
899.386	13230.16
899.7	13078.98
900.015	13017.74
900.33	12869.72
900.644	12860.23
900.959	12911.98
901.273	12843.05
901.588	12766.44
901.902	12716.05
902.216	12639.89
902.531	12631.31
902.845	12590.4
903.159	12498.88
903.473	12412.33
903.787	12398.32
904.101	12387.47
904.415	12331.2
904.729	12305.21
905.042	12303.18
905.356	12233.8
905.67	12123.98
905.984	12190.64
906.297	12090.98
906.611	12011.21
906.924	12004.66
907.237	11970.53
907.551	11881.72
907.864	11826.58
908.177	11794.94
908.491	11775.74
908.804	11700.26
909.117	11701.16
909.43	11634.04
909.743	11601.5
910.056	11540.49
910.368	11512.69
910.681	11439.7
910.994	11360.83
911.307	11303.88
911.619	11309.53
911.932	11328.74
912.244	11180.95
912.557	11124.68
912.869	11167.62
913.181	11051.91
913.494	10967.17
913.806	10900.28
914.118	10912.93
914.43	10801.75
914.742	10813.28
915.054	10735.31
915.366	10711.81
915.678	10654.41
915.99	10681.53
916.302	10592.49
916.613	10603.79
916.925	10491.25
917.236	10513.85
917.548	10420.07
917.859	10429.33
918.171	10368.99
918.482	10270.46
918.794	10275.89
919.105	10264.59
919.416	10177.81
919.727	10190.69
920.038	10077.25
920.349	10016.23
920.66	9922.68
920.971	9950.7
921.282	9912.51
921.593	9850.36
921.903	9813.08
922.214	9801.78
922.525	9689.46
922.835	9682.91
923.146	9595.68
923.456	9624.61
923.767	9608.79
924.077	9544.16
924.387	9456.25
924.697	9468.68
925.008	9431.39
925.318	9362.01
925.628	9316.59
925.938	9253.99
926.248	9121.12
926.558	9178.29
926.867	9108.69
927.177	9077.05
927.487	9059.2
927.796	8996.37
928.106	8979.88
928.416	9000.89
928.725	8931.97
929.034	8847.68
929.344	8820.56
929.653	8830.95
929.962	8810.16
930.271	8785.98
930.581	8699.88
930.89	8637.51
931.199	8601.13
931.508	8595.93
931.817	8572.66
932.125	8555.03
932.434	8531.08
932.743	8410.4
933.051	8350.06
933.36	8341.48
933.669	8249.05
933.977	8301.48
934.286	8242.27
934.594	8178.99
934.902	8177.41
935.21	8104.65
935.519	8139.67
935.827	8083.63
936.135	8020.13
936.443	7936.29
936.751	7947.36
937.059	7845.9
937.367	7865.1
937.674	7855.16
937.982	7834.37
938.29	7816.74
938.597	7760.02
938.905	7678.44
939.213	7614.94
939.52	7628.73
939.827	7536.75
940.135	7552.12
940.442	7523.42
940.749	7517.32
941.056	7488.39
941.363	7463.31
941.67	7435.96
941.977	7324.33
942.284	7306.93
942.591	7245.23
942.898	7225.12
943.205	7233.71
943.511	7205.46
943.818	7182.41
944.125	7087.05
944.431	7167.72
944.738	7062.64
945.044	7107.16
945.35	7026.03
945.657	6964.34
945.963	6969.99
946.269	6951.91
946.575	6912.13
946.881	6848.18
947.187	6839.14
947.493	6833.72
947.799	6807.96
948.105	6766.83
948.41	6671.46
948.716	6674.17
949.022	6671.01
949.327	6641.18
949.633	6570.9
949.938	6546.72
950.244	6549.43
950.549	6463.78
950.854	6469.66
951.16	6430.34
951.465	6440.51
951.77	6412.26
952.075	6384.24
952.38	6332.71
952.685	6382.43
952.99	6234.86
953.294	6281.19
953.599	6233.28
953.904	6176.33
954.209	6135.21
954.513	6145.83
954.818	6125.94
955.122	6107.41
955.426	6059.05
955.731	6029.22
956.035	5938.83
956.339	5991.03
956.643	5948.32
956.948	5930.69
957.252	5908.09
957.556	5917.36
957.86	5854.08
958.163	5891.14
958.467	5783.35
958.771	5758.04
959.075	5749.68
959.378	5710.58
959.682	5674.65
959.985	5691.6
960.289	5693.86
960.592	5579.74
960.896	5564.6
961.199	5523.24
961.502	5585.62
961.805	5515.11
962.108	5490.03
962.411	5500.87
962.714	5421.33
963.017	5468.56
963.32	5403.7
963.623	5344.94
963.926	5390.82
964.228	5336.13
964.531	5313.98
964.833	5300.43
965.136	5238.05
965.438	5257.49
965.741	5259.07
966.043	5216.59
966.345	5186.08
966.648	5114.22
966.95	5100.88
967.252	5077.38
967.554	5072.86
967.856	5063.14
968.158	4997.38
968.46	4993.99
968.761	4986.31
969.063	4954.22
969.365	4928.46
969.666	4897.27
969.968	4890.72
970.269	4909.7
970.571	4834.68
970.872	4849.82
971.174	4781.57
971.475	4762.36
971.776	4719.42
972.077	4716.26
972.378	4728.69
972.679	4688.46
972.98	4664.74
973.281	4631.52
973.582	4578.41
973.883	4573.21
974.183	4562.37
974.484	4606.66
974.785	4553.1
975.085	4590.84
975.386	4539.54
975.686	4542.93
975.986	4475.81
976.287	4464.06
976.587	4436.27
976.887	4440.79
977.187	4369.38
977.487	4342.26
977.787	4307.01
978.087	4308.59
978.387	4325.08
978.687	4280.34
978.987	4293.9
979.286	4257.29
979.586	4238.08
979.885	4158.53
980.185	4175.48
980.484	4180.46
980.784	4151.3
981.083	4118.08
981.382	4137.97
981.682	4095.71
981.981	4119.44
982.28	4054.81
982.579	4021.36
982.878	4073.11
983.177	3988.14
983.475	3988.82
983.774	3922.38
984.073	3940.24
984.372	3904.53
984.67	3886.68
984.969	3891.88
985.267	3875.6
985.566	3888.94
985.864	3862.95
986.162	3863.18
986.461	3770.07
986.759	3807.81
987.057	3749.73
987.355	3758.55
987.653	3721.94
987.951	3711.54
988.249	3708.83
988.547	3687.59
988.844	3663.63
989.142	3640.81
989.44	3626.35
989.737	3634.93
990.035	3585.89
990.332	3573.92
990.63	3557.42
990.927	3553.58
991.224	3524.88
991.521	3538.44
991.819	3478.33
992.116	3437.2
992.413	3419.12
992.71	3422.06
993.006	3434.49
993.303	3412.79
993.6	3421.83
993.897	3366.01
994.193	3381.15
994.49	3328.95
994.787	3316.52
995.083	3318.33
995.379	3287.6
995.676	3286.47
995.972	3250.76
996.268	3271.1
996.565	3193.36
996.861	3218.9
997.157	3219.58
997.453	3191.1
997.749	3152.23
998.044	3113.14
998.34	3116.53
998.636	3145.68
998.932	3077.89
999.227	3044.21
999.523	3034.5
999.818	3025.91
1000.114	2989.53
1000.409	3001.28
1000.704	3001.05
1001	2981.39
1001.295	2996.31
1001.59	2928.74
1001.885	2938.45
1002.18	2911.79
1002.475	2912.69
1002.77	2851.22
1003.065	2845.57
1003.359	2840.83
1003.654	2793.6
1003.949	2814.84
1004.243	2809.19
1004.538	2815.52
1004.832	2761.51
1005.127	2740.94
1005.421	2756.99
1005.715	2723.09
1006.009	2723.09
1006.304	2693.26
1006.598	2639.48
1006.892	2679.03
1007.186	2669.31
1007.48	2609.65
1007.773	2646.26
1008.067	2583.89
1008.361	2587.5
1008.655	2564
1008.948	2537.11
1009.242	2563.1
1009.535	2541.63
1009.829	2531.01
1010.122	2501.4
1010.415	2455.53
1010.708	2455.98
1011.001	2418.69
1011.295	2440.61
1011.588	2446.04
1011.881	2415.98
1012.173	2382.76
1012.466	2353.61
1012.759	2350.67
1013.052	2346.15
1013.344	2313.39
1013.637	2308.19
1013.93	2298.24
1014.222	2290.79
1014.514	2277.45
1014.807	2258.47
1015.099	2252.14
1015.391	2246.95
1015.683	2204.24
1015.976	2225.25
1016.268	2199.94
1016.56	2175.99
1016.851	2134.86
1017.143	2150.45
1017.435	2135.09
1017.727	2126.95
1018.018	2087.18
1018.31	2086.27
1018.602	2055.54
1018.893	2058.93
1019.185	2030.46
1019.476	2038.82
1019.767	2004.92
1020.058	2025.26
1020.35	1975.99
1020.641	1997.24
1020.932	1947.52
1021.223	1932.6
1021.514	1905.26
1021.804	1896.67
1022.095	1903.23
1022.386	1926.95
1022.677	1915.43
1022.967	1869.56
1023.258	1859.84
1023.548	1860.06
1023.839	1837.01
1024.129	1854.19
1024.419	1791.14
1024.709	1770.35
1025	1776.22
1025.29	1753.85
1025.58	1741.65
1025.87	1751.82
1026.16	1701.42
1026.449	1732.16
1026.739	1670.46
1027.029	1676.34
1027.319	1655.1
1027.608	1672.27
1027.898	1638.15
1028.187	1645.38
1028.477	1623.46
1028.766	1643.8
1029.055	1613.74
1029.344	1620.52
1029.634	1595.21
1029.923	1620.07
1030.212	1548.89
1030.501	1542.78
1030.79	1559.51
1031.078	1526.51
1031.367	1517.47
1031.656	1531.49
1031.945	1495.78
1032.233	1488.77
1032.522	1499.17
1032.81	1473.86
1033.099	1449
1033.387	1446.52
1033.675	1429.79
1033.963	1413.3
1034.251	1428.44
1034.54	1413.97
1034.828	1391.6
1035.116	1393.18
1035.403	1391.6
1035.691	1362.9
1035.979	1367.87
1036.267	1355.9
1036.554	1343.92
1036.842	1329.23
1037.129	1321.55
1037.417	1327.2
1037.704	1310.25
1037.992	1287.2
1038.279	1261.44
1038.566	1269.35
1038.853	1269.35
1039.14	1269.35
