Data from orange_diffuse_book_FLMS001491_00047.txt Node
Date: Wed Feb 08 15:29:38 GMT 2017
User: dcchb
Spectrometer: FLMS00149
Trigger mode: 0
Integration Time (sec): 2.000000E-2
Scans to average: 10
Electric dark correction enabled: true
Nonlinearity correction enabled: false
Boxcar width: 0
XAxis mode: Wavelengths
Number of Pixels in Spectrum: 2048
>>>>>Begin Spectral Data<<<<<
341.393	-27.64
341.776	-27.64
342.16	-27.64
342.543	-64.93
342.927	-67.87
343.31	-66.51
343.693	-72.16
344.077	-41.88
344.46	-87.53
344.843	-63.35
345.226	-54.98
345.61	-35.55
345.993	-8.88
346.376	-8.43
346.759	7.61
347.142	36.76
347.525	48.06
347.908	76.31
348.291	64.79
348.674	98.68
349.057	107.05
349.44	128.97
349.823	138.46
350.206	162.19
350.588	189.98
350.971	218.68
351.354	214.84
351.737	248.28
352.119	264.1
352.502	280.6
352.884	272.92
353.267	297.32
353.65	321.95
354.032	291.67
354.414	322.18
354.797	316.08
355.179	333.93
355.562	319.69
355.944	343.2
356.326	348.62
356.709	317.89
357.091	337.32
357.473	354.5
357.855	343.2
358.238	334.61
358.62	356.76
359.002	319.24
359.384	363.31
359.766	352.91
360.148	327.38
360.53	365.57
360.912	330.32
361.294	339.36
361.676	361.5
362.057	354.27
362.439	334.38
362.821	335.06
363.203	328.73
363.584	333.48
363.966	325.34
364.348	335.97
364.729	329.41
365.111	329.19
365.493	334.61
365.874	326.47
366.256	323.76
366.637	326.93
367.019	331.9
367.4	316.53
367.781	325.8
368.163	311.79
368.544	328.28
368.925	328.73
369.306	337.77
369.688	322.63
370.069	319.69
370.45	331.9
370.831	328.73
371.212	313.59
371.593	332.58
371.974	320.6
372.355	333.03
372.736	331.45
373.117	305.68
373.498	305.46
373.879	350.88
374.26	313.59
374.641	319.24
375.021	337.77
375.402	330.09
375.783	335.97
376.163	333.03
376.544	325.34
376.925	332.8
377.305	321.73
377.686	345.23
378.066	326.25
378.447	329.64
378.827	335.51
379.208	349.75
379.588	332.12
379.968	334.84
380.349	349.07
380.729	334.16
381.109	363.76
381.489	338.68
381.87	347.26
382.25	342.29
382.63	355.63
383.01	341.16
383.39	349.07
383.77	338.45
384.15	350.88
384.53	340.26
384.91	372.35
385.29	349.07
385.67	358.56
386.049	359.92
386.429	352.01
386.809	366.02
387.189	358.79
387.568	369.86
387.948	359.24
388.328	381.84
388.707	380.94
389.087	347.04
389.466	356.76
389.846	377.09
390.225	391.11
390.605	386.81
390.984	371.9
391.363	367.38
391.743	392.01
392.122	363.54
392.501	392.69
392.881	389.07
393.26	386.59
393.639	401.5
394.018	370.99
394.397	384.55
394.776	400.82
395.155	387.72
395.534	387.72
395.913	390.43
396.292	378.45
396.671	390.2
397.05	402.63
397.429	381.61
397.808	404.44
398.186	399.92
398.565	415.29
398.944	414.38
399.323	398.11
399.701	399.01
400.08	410.31
400.458	407.15
400.837	407.38
401.215	415.74
401.594	405.57
401.972	397.66
402.351	435.85
402.729	428.84
403.107	415.74
403.486	434.95
403.864	432.69
404.242	427.71
404.62	429.75
404.999	408.05
405.377	419.13
405.755	421.84
406.133	431.56
406.511	422.74
406.889	424.33
407.267	458.45
407.645	436.3
408.023	446.25
408.401	464.78
408.779	446.25
409.156	446.47
409.534	468.39
409.912	444.21
410.29	451.44
410.667	467.71
411.045	475.85
411.422	481.05
411.8	482.4
412.178	483.98
412.555	504.32
412.933	513.36
413.31	487.15
413.687	489.63
414.065	506.13
414.442	494.61
414.819	486.92
415.197	497.54
415.574	523.76
415.951	495.06
416.328	533.25
416.705	517.2
417.082	517.2
417.46	506.58
417.837	532.57
418.214	534.6
418.591	523.08
418.967	525.57
419.344	564.66
419.721	532.34
420.098	530.54
420.475	546.13
420.852	546.36
421.228	564.89
421.605	556.52
421.982	556.75
422.358	566.02
422.735	578.9
423.111	597.65
423.488	566.47
423.864	542.29
424.241	585.9
424.617	594.04
424.994	629.52
425.37	579.58
425.746	594.49
426.123	602.17
426.499	596.52
426.875	625
427.251	599.24
427.627	616.86
428.003	618.22
428.379	638.33
428.756	614.38
429.132	623.87
429.507	632
429.883	650.99
430.259	676.3
430.635	669.29
431.011	676.07
431.387	671.55
431.763	680.36
432.138	685.34
432.514	692.57
432.89	688.95
433.265	709.29
433.641	697.99
434.016	707.48
434.392	685.11
434.767	735.28
435.143	728.95
435.518	735.73
435.894	758.55
436.269	768.04
436.644	768.72
437.02	736.63
437.395	753.36
437.77	756.29
438.145	785.67
438.52	758.1
438.895	789.97
439.271	775.05
439.646	788.61
440.021	779.12
440.395	794.94
440.77	818.44
441.145	789.29
441.52	821.83
441.895	807.82
442.27	828.16
442.645	817.99
443.019	844.65
443.394	833.81
443.769	814.15
444.143	819.34
444.518	838.33
444.892	852.56
445.267	822.05
445.641	851.43
446.016	832.9
446.39	843.75
446.764	860.47
447.139	869.51
447.513	870.87
447.887	881.26
448.262	882.84
448.636	880.13
449.01	890.53
449.384	896.18
449.758	889.85
450.132	918.78
450.506	911.32
450.88	921.94
451.254	894.37
451.628	898.89
452.002	949.51
452.376	947.93
452.75	936.18
453.123	922.17
453.497	949.73
453.871	984.99
454.244	985.21
454.618	994.93
454.992	993.58
455.365	969.62
455.739	1008.94
456.112	1016.63
456.486	1016.4
456.859	1014.59
457.232	1022.28
457.606	1023.18
457.979	1042.61
458.352	1071.09
458.725	1067.92
459.099	1075.38
459.472	1074.93
459.845	1109.5
460.218	1110.18
460.591	1092.33
460.964	1094.14
461.337	1139.33
461.71	1138.66
462.083	1161.25
462.456	1147.92
462.829	1130.07
463.201	1189.28
463.574	1157.87
463.947	1152.67
464.32	1188.37
464.692	1220.24
465.065	1212.55
465.438	1225.66
465.81	1238.99
466.183	1246.22
466.555	1246.22
466.928	1248.94
467.3	1261.37
467.672	1300.69
468.045	1281.93
468.417	1315.38
468.789	1322.83
469.161	1310.86
469.534	1333.68
469.906	1390.63
470.278	1362.15
470.65	1380.46
471.022	1384.98
471.394	1406.22
471.766	1393.57
472.138	1420.23
472.51	1431.53
472.882	1491.19
473.253	1480.57
473.625	1510.85
473.997	1533.45
474.369	1524.41
474.74	1549.27
475.112	1584.29
475.484	1569.15
475.855	1614.8
476.227	1623.62
476.598	1624.75
476.97	1659.77
477.341	1688.25
477.713	1734.57
478.084	1740.67
478.455	1770.73
478.827	1772.99
479.198	1772.99
479.569	1810.5
479.94	1837.85
480.311	1872.65
480.682	1903.83
481.053	1930.95
481.424	1975.92
481.795	1977.73
482.166	1989.93
482.537	2044.4
482.908	2057.5
483.279	2107.44
483.65	2111.74
484.021	2166.43
484.391	2187.67
484.762	2189.93
485.133	2218.63
485.503	2255.46
485.874	2278.51
486.244	2314.22
486.615	2388.57
486.985	2419.98
487.356	2424.72
487.726	2448.45
488.097	2505.63
488.467	2516.47
488.837	2570.71
489.207	2617.94
489.578	2613.19
489.948	2655.23
490.318	2709.91
490.688	2736.58
491.058	2790.82
491.428	2772.51
491.798	2826.75
492.168	2868.33
492.538	2870.81
492.908	2925.28
493.278	2971.15
493.648	2954.65
494.017	3050.02
494.387	3062.9
494.757	3078.72
495.126	3144.03
495.496	3177.7
495.866	3174.54
496.235	3241.88
496.605	3294.08
496.974	3299.73
497.344	3340.41
497.713	3318.03
498.082	3391.25
498.452	3392.38
498.821	3478.93
499.19	3498.82
499.559	3525.26
499.928	3533.85
500.298	3521.19
500.667	3628.76
501.036	3605.48
501.405	3633.73
501.774	3665.37
502.143	3731.13
502.512	3778.14
502.88	3758.02
503.249	3767.29
503.618	3835.53
503.987	3835.08
504.356	3899.49
504.724	3879.15
505.093	3958.47
505.462	3942.65
505.83	3983.78
506.199	4008.41
506.567	4051.12
506.936	4054.29
507.304	4085.92
507.672	4103.55
508.041	4203.66
508.409	4169.31
508.777	4241.4
509.145	4288.18
509.514	4315.97
509.882	4257.67
510.25	4329.53
510.618	4365.92
510.986	4387.84
511.354	4423.99
511.722	4446.59
512.09	4497.89
512.458	4515.52
512.826	4553.93
513.193	4527.04
513.561	4601.84
513.929	4618.57
514.297	4653.82
514.664	4696.98
515.032	4739.92
515.4	4772.23
515.767	4810.42
516.135	4808.84
516.502	4773.14
516.869	4919.35
517.237	4891.33
517.604	4892.46
517.972	4963.64
518.339	5010.42
518.706	5041.15
519.073	5034.6
519.44	5138.55
519.808	5153.24
520.175	5111.66
520.542	5160.92
520.909	5217.87
521.276	5247.25
521.643	5320.69
522.009	5303.07
522.376	5338.09
522.743	5396.4
523.11	5453.35
523.477	5509.62
523.843	5535.38
524.21	5541.48
524.577	5593.23
524.943	5603.17
525.31	5696.95
525.676	5734.69
526.043	5776.27
526.409	5796.84
526.776	5829.15
527.142	5841.81
527.508	5880
527.874	5916.38
528.241	5960
528.607	5982.6
528.973	6020.79
529.339	6047.45
529.705	6110.5
530.071	6127.68
530.437	6150.05
530.803	6198.18
531.169	6223.49
531.535	6204.06
531.901	6274.11
532.267	6270.27
532.632	6335.81
532.998	6401.34
533.364	6408.12
533.73	6410.38
534.095	6465.97
534.461	6488.12
534.826	6545.07
535.192	6580.32
535.557	6609.25
535.923	6610.15
536.288	6680.43
536.653	6672.52
537.019	6659.42
537.384	6716.14
537.749	6705.97
538.114	6731.96
538.479	6796.81
538.845	6809.47
539.21	6808.11
539.575	6882.01
539.94	6933.76
540.305	6899.63
540.67	6913.65
541.034	6999.07
541.399	6993.42
541.764	7058.5
542.129	7063.02
542.494	7048.11
542.858	7188.21
543.223	7109.57
543.587	7249.68
543.952	7221.21
544.316	7285.16
544.681	7247.42
545.045	7242
545.41	7374.42
545.774	7381.2
546.138	7408.55
546.503	7431.15
546.867	7476.12
547.231	7531.93
547.595	7505.72
547.959	7609.45
548.324	7591.59
548.688	7654.19
549.052	7668.88
549.416	7693.29
549.779	7773.74
550.143	7840.18
550.507	7821.42
550.871	7899.16
551.235	7887.41
551.599	8013.05
551.962	7996.33
552.326	8057.12
552.689	8072.71
553.053	8062.32
553.417	8084.24
553.78	8255.31
554.143	8247.85
554.507	8265.02
554.87	8367.84
555.234	8431.57
555.597	8376.43
555.96	8520.61
556.323	8527.39
556.686	8530.33
557.05	8691.23
557.413	8727.61
557.776	8749.08
558.139	8821.17
558.502	8889.19
558.865	8878.34
559.228	8976.87
559.59	8998.79
559.953	9076.07
560.316	9244.88
560.679	9230.2
561.041	9337.76
561.404	9328.72
561.767	9488.72
562.129	9488.04
562.492	9610.3
562.854	9703.86
563.217	9708.15
563.579	9816.62
563.941	9915.37
564.304	9950.63
564.666	10065.2
565.028	10131.19
565.39	10222.26
565.753	10363.27
566.115	10434.01
566.477	10495.92
566.839	10681.46
567.201	10800.55
567.563	10845.29
567.925	10989.02
568.287	11058.85
568.648	11142.01
569.01	11262.23
569.372	11444.6
569.734	11490.02
570.095	11708.1
570.457	11766.17
570.819	11972.27
571.18	12012.95
571.542	12204.81
571.903	12307.63
572.265	12471.01
572.626	12653.83
572.987	12825.81
573.349	12962.53
573.71	13187.83
574.071	13319.13
574.432	13540.82
574.794	13737.65
575.155	13952.78
575.516	14021.03
575.877	14329.95
576.238	14455.14
576.599	14788.69
576.96	14890.39
577.32	15091.96
577.681	15366.53
578.042	15634.77
578.403	15830.93
578.763	16085.16
579.124	16304.59
579.485	16642.2
579.845	16934.85
580.206	17222.53
580.566	17416.87
580.927	17777.54
581.287	18033.81
581.648	18265.66
582.008	18700.91
582.368	19018.64
582.728	19316.94
583.089	19640.32
583.449	19909.46
583.809	20246.18
584.169	20626.73
584.529	20850.45
584.889	21369.09
585.249	21652.92
585.609	21967.26
585.969	22431.2
586.329	22723.17
586.688	23208.58
587.048	23607.67
587.408	23938.06
587.768	24351.61
588.127	24687.87
588.487	25097.35
588.846	25584.34
589.206	25898.68
589.565	26398.11
589.925	26892.56
590.284	27143.85
590.643	27690.27
591.003	28099.08
591.362	28544.49
591.721	28965.27
592.08	29472.15
592.44	29881.86
592.799	30323.2
593.158	30668.95
593.517	31215.61
593.876	31744.86
594.235	32049.93
594.593	32467.78
594.952	33137.36
595.311	33374.19
595.67	33942.77
596.029	34512.69
596.387	34830.43
596.746	35443.52
597.104	35673.34
597.463	36084.18
597.822	36551.28
598.18	37014.78
598.538	37399.4
598.897	38017.46
599.255	38061.53
599.613	38899.47
599.972	39160.71
600.33	39568.83
600.688	39901.25
601.046	40409.49
601.404	40995.69
601.762	41171.73
602.12	41738.49
602.478	42090.12
602.836	42346.61
603.194	42625.48
603.552	43061.85
603.91	43225.23
604.268	43915.84
604.625	44107.24
604.983	44418.42
605.341	44513.34
605.698	45033.1
606.056	45433.54
606.413	45657.26
606.771	46072.62
607.128	46273.74
607.485	46398.94
607.843	46725.03
608.2	47180.84
608.557	47395.29
608.914	47432.13
609.272	47962.28
609.629	48237.53
609.986	48456.96
610.343	48370.18
610.7	48938.76
611.057	48980.79
611.414	49057.85
611.771	49426.2
612.127	49601.11
612.484	49699.19
612.841	50019.63
613.198	50057.14
613.554	50173.07
613.911	50533.97
614.267	50610.35
614.624	50703.91
614.98	50818.71
615.337	51075.87
615.693	51211.69
616.05	51204.68
616.406	51597.22
616.762	51457.11
617.118	51526.03
617.475	51616.2
617.831	51793.82
618.187	51883.31
618.543	51999.47
618.899	52208.5
619.255	52292.34
619.611	52296.41
619.967	52450.08
620.323	52567.81
620.678	52508.61
621.034	52505.89
621.39	52540.47
621.746	52528.94
622.101	52962.38
622.457	52694.59
622.812	52862.04
623.168	52999.89
623.523	52996.95
623.879	53135.48
624.234	52956.28
624.589	53086.67
624.945	53202.82
625.3	53278.75
625.655	53241.24
626.01	53260.45
626.365	53235.37
626.72	53335.93
627.075	53370.96
627.43	53330.73
627.785	53277.62
628.14	53348.13
628.495	53529.37
628.85	53410.05
629.205	53386.55
629.559	53640.78
629.914	53487.56
630.269	53577.05
630.623	53410.73
630.978	53478.98
631.332	53584.28
631.687	53634.9
632.041	53473.78
632.396	53564.62
632.75	53398.07
633.104	53560.55
633.459	53490.73
633.813	53443.5
634.167	53414.8
634.521	53482.82
634.875	53465.64
635.229	53454.57
635.583	53409.82
635.937	53462.48
636.291	53392.42
636.645	53333.89
636.999	53362.37
637.352	53409.15
637.706	53196.72
638.06	53462.03
638.413	53304.06
638.767	53196.5
639.121	53290.05
639.474	53123.28
639.828	53079.66
640.181	53245.54
640.534	53208.25
640.888	53153.56
641.241	53047.12
641.594	53025.43
641.947	53152.43
642.301	53085.54
642.654	53109.27
643.007	53192.88
643.36	53074.69
643.713	53103.39
644.066	53142.49
644.419	53005.32
644.771	52761.48
645.124	52510.87
645.477	52524.65
645.83	52347.48
646.182	52162.17
646.535	52126.92
646.888	52246.69
647.24	52092.8
647.593	52259.8
647.945	52245.34
648.298	52071.55
648.65	51998.56
649.002	52006.02
649.355	52069.52
649.707	51994.04
650.059	52142.97
650.411	52475.39
650.763	52537.31
651.115	52847.13
651.467	52740.92
651.819	52750.18
652.171	52646.68
652.523	52654.36
652.875	52678.77
653.227	52602.84
653.578	52782.04
653.93	52667.47
654.282	52634.7
654.633	52514.93
654.985	52591.54
655.337	52581.37
655.688	52617.53
656.039	52695.27
656.391	52480.13
656.742	52518.77
657.094	52450.53
657.445	52729.62
657.796	52700.69
658.147	52472
658.498	52525.78
658.849	52584.54
659.2	52491.66
659.551	52504.99
659.902	52568.49
660.253	52518.77
660.604	52612.56
660.955	52345.9
661.306	52572.56
661.656	52451.66
662.007	52489.4
662.358	52427.25
662.708	52472
663.059	52453.01
663.409	52227.93
663.76	52535.95
664.11	52392
664.461	52458.21
664.811	52459.57
665.161	52475.61
665.511	52399.91
665.862	52416.18
666.212	52406.01
666.562	52452.11
666.912	52382.73
667.262	52376.63
667.612	52342.06
667.962	52314.26
668.312	52298.44
668.662	52502.5
669.011	52396.97
669.361	52305.67
669.711	52290.08
670.06	52185.68
670.41	52177.31
670.76	52210.53
671.109	52233.36
671.459	52160.82
671.808	52034.04
672.157	52129.18
672.507	51981.16
672.856	51940.48
673.205	51984.78
673.554	52097.77
673.904	51946.36
674.253	52134.6
674.602	52050.76
674.951	51528.29
675.3	51438.58
675.649	51823.2
675.998	51822.97
676.346	51851.9
676.695	52016.87
677.044	51631.79
677.393	51746.14
677.741	51818.23
678.09	51670.66
678.438	51705.91
678.787	51759.02
679.135	51747.72
679.484	51432.25
679.832	51665.01
680.181	51500.5
680.529	51567.16
680.877	51428.63
681.225	51385.47
681.573	51498.01
681.922	51313.38
682.27	51205.59
682.618	51281.07
682.966	51142.77
683.314	51252.82
683.661	51103.9
684.009	50976.67
684.357	50961.3
684.705	50859.84
685.053	50945.26
685.4	50886.73
685.748	50650.57
686.095	50722.89
686.443	50522.67
686.79	50466.85
687.138	50490.81
687.485	50556.57
687.832	50274.99
688.18	50400.41
688.527	50183.24
688.874	50168.1
689.221	50116.35
689.568	50138.05
689.915	49890.37
690.262	49915.68
690.609	49777.6
690.956	49688.57
691.303	49668.91
691.65	49496.03
691.997	49499.42
692.344	49227.34
692.69	49242.48
693.037	49285.19
693.383	48967.91
693.73	49229.14
694.077	48838.87
694.423	48856.95
694.769	48792.32
695.116	48697.63
695.462	48753.45
695.808	48470.29
696.155	48488.82
696.501	48292.44
696.847	48216.06
697.193	48080.25
697.539	48090.87
697.885	47849.74
698.231	47648.39
698.577	47666.92
698.923	47628.73
699.269	47422.19
699.614	47370.44
699.96	47268.97
700.306	47157.79
700.651	47045.7
700.997	46803.44
701.342	46828.08
701.688	46756.67
702.033	46634.64
702.379	46621.08
702.724	46475.09
703.069	46570.68
703.415	46062.9
703.76	46194.19
704.105	46165.27
704.45	46045.72
704.795	45734.55
705.14	45621.1
705.485	45576.13
705.83	45457.72
706.175	45517.6
706.52	45349.02
706.865	45143.6
707.209	45225.18
707.554	44962.14
707.899	45125.3
708.243	44870.16
708.588	44801.69
708.932	44494.13
709.277	44500.45
709.621	44530.74
709.966	44328.48
710.31	44345.66
710.654	43959.9
710.998	44152.67
711.342	44056.62
711.687	43909.96
712.031	43870.19
712.375	43762.17
712.719	43772.56
713.063	43577.31
713.407	43752.45
713.75	43459.35
714.094	43570.31
714.438	43181.84
714.782	43296.64
715.125	43135.29
715.469	43174.84
715.812	43052.36
716.156	42885.36
716.499	42879.71
716.843	42859.59
717.186	42546.16
717.53	42853.04
717.873	42768.97
718.216	42645.81
718.559	42469.55
718.902	42199.05
719.246	42377.57
719.589	42298.7
719.932	42107.75
720.275	42112.04
720.617	42049.22
720.96	41955.44
721.303	41964.7
721.646	41870.47
721.989	41788.21
722.331	41946.17
722.674	41927.41
723.016	41762.9
723.359	41599.29
723.701	41557.93
724.044	41307.09
724.386	41244.49
724.729	41567.65
725.071	41223.93
725.413	41281.56
725.755	41332.63
726.097	41103.48
726.439	40899.42
726.782	41031.17
727.124	41205.85
727.465	40929.25
727.807	40840.89
728.149	40745.3
728.491	40901.23
728.833	40911.17
729.175	40849.48
729.516	40552.31
729.858	40695.13
730.199	40585.3
730.541	40445.19
730.882	40372.2
731.224	40466.21
731.565	40302.6
731.906	40204.3
732.248	40275.03
732.589	40121.59
732.93	40105.32
733.271	40192.09
733.612	40099.21
733.953	40161.13
734.294	40039.33
734.635	39849.73
734.976	40017.63
735.317	39790.75
735.658	39769.05
735.999	39724.76
736.339	39740.35
736.68	39830.29
737.021	39655.61
737.361	39527.7
737.702	39784.19
738.042	39564.76
738.383	39430.76
738.723	39474.15
739.063	39441.15
739.404	39546.46
739.744	39449.51
740.084	39202.06
740.424	39237.09
740.764	39289.74
741.104	39225.56
741.444	39110.77
741.784	39035.51
742.124	39082.97
742.464	38863.99
742.804	38980.37
743.143	38840.94
743.483	38818.57
743.823	38698.12
744.162	38851.79
744.502	38866.93
744.841	38609.08
745.181	38689.76
745.52	38558.24
745.86	38727.95
746.199	38490.89
746.538	38411.12
746.877	38598.91
747.216	38489.76
747.556	38459.26
747.895	38385.81
748.234	38205.48
748.573	38032.15
748.911	38187.85
749.25	38163.9
749.589	37965.48
749.928	38133.39
750.267	38129.32
750.605	37931.59
750.944	37981.76
751.283	37651.37
751.621	37814.75
751.96	37544.03
752.298	37530.47
752.636	37626.06
752.975	37330.7
753.313	37400.75
753.651	37530.47
753.989	37361.66
754.327	37158.27
754.666	36993.76
755.004	37126.18
755.342	37069.69
755.679	37080.76
756.017	36867.43
756.355	36962.35
756.693	36708.79
757.031	36804.39
757.368	36411.18
757.706	36395.36
758.044	36454.79
758.381	36369.59
758.719	36341.57
759.056	36326.66
759.394	36176.15
759.731	36003.5
760.068	35903.62
760.405	35722.15
760.743	35567.58
761.08	35694.36
761.417	35571.42
761.754	35528.49
762.091	35428.6
762.428	35232.68
762.765	35089.85
763.102	35134.82
763.438	35090.98
763.775	34771.44
764.112	34917.66
764.449	34916.98
764.785	34693.71
765.122	34502.98
765.458	34394.05
765.795	34314.28
766.131	34255.53
766.467	34051.92
766.804	34039.94
767.14	33899.38
767.476	33861.41
767.812	33713.39
768.148	33712.94
768.485	33567.18
768.821	33392.5
769.157	33347.75
769.492	33296.46
769.828	33229.79
770.164	32959.06
770.5	32891.04
770.836	32821.21
771.171	32573.54
771.507	32537.38
771.842	32373.54
772.178	32463.48
772.513	32316.37
772.849	32227.56
773.184	32074.11
773.519	31986.43
773.855	31832.09
774.19	31738.98
774.525	31589.83
774.86	31651.07
775.195	31466.22
775.53	31506.9
775.865	31185.78
776.2	31013.58
776.535	30808.84
776.87	30786.69
777.205	30817.88
777.539	30533.14
777.874	30609.52
778.209	30340.15
778.543	30245.69
778.878	30192.13
779.212	30129.76
779.547	29869.88
779.881	30047.73
780.215	29782.42
780.55	29802.54
780.884	29449.32
781.218	29446.16
781.552	29437.35
781.886	29308.99
782.22	29219.5
782.554	29130.01
782.888	28840.3
783.222	28750.36
783.556	28716.46
783.889	28535.22
784.223	28357.38
784.557	28246.64
784.89	28442.35
785.224	28280.99
785.557	28177.95
785.891	28056.37
786.224	28052.53
786.558	27980.66
786.891	27643.95
787.224	27564.85
787.557	27551.75
787.891	27469.26
788.224	27535.7
788.557	27407.34
788.89	27323.28
789.223	27203.73
789.556	26943.85
789.888	26968.03
790.221	26822.95
790.554	26602.85
790.887	26787.7
791.219	26469.06
791.552	26552.9
791.884	26321.95
792.217	26221.16
792.549	26173.93
792.882	26018.91
793.214	25954.73
793.546	25924.67
793.879	25762.87
794.211	25608.3
794.543	25767.61
794.875	25542.53
795.207	25691.46
795.539	25504.34
795.871	25422.54
796.203	25172.83
796.535	25132.38
796.867	25086.73
797.198	25012.83
797.53	25046.5
797.862	24880.63
798.193	24837.02
798.525	24555.89
798.856	24722.9
799.188	24524.03
799.519	24399.74
799.85	24345.05
800.182	24356.8
800.513	24246.98
800.844	24027.77
801.175	24141.67
801.506	24279.52
801.837	24079.75
802.168	23926.53
802.499	23822.81
802.83	23733.99
803.161	23752.98
803.491	23667.1
803.822	23652.41
804.153	23604.05
804.483	23376.26
804.814	23259.66
805.145	23260.56
805.475	23185.53
805.805	23131.07
806.136	23149.83
806.466	23177.63
806.796	22975.14
807.126	22892.66
807.457	22835.71
807.787	22797.3
808.117	22757.98
808.447	22593.01
808.777	22667.58
809.107	22588.04
809.436	22467.36
809.766	22437.76
810.096	22345.78
810.426	22296.97
810.755	22241.15
811.085	22239.34
811.414	22129.97
811.744	21926.13
812.073	21944.44
812.403	21915.06
812.732	21818.34
813.061	21905.79
813.39	21654.28
813.719	21665.8
814.049	21756.42
814.378	21670.55
814.707	21526.6
815.036	21491.79
815.365	21421.96
815.693	21233.95
816.022	21256.55
816.351	21198.69
816.68	21135.87
817.008	21188.52
817.337	21011.13
817.665	20883.67
817.994	21079.38
818.322	21012.71
818.651	20793.51
818.979	20827.18
819.307	20819.27
819.636	20778.14
819.964	20615.43
820.292	20746.95
820.62	20620.18
820.948	20624.47
821.276	20584.25
821.604	20515.32
821.932	20599.84
822.259	20586.96
822.587	20522.55
822.915	20514.19
823.243	20563.91
823.57	20583.57
823.898	20558.71
824.225	20522.33
824.553	20524.81
824.88	20497.24
825.207	20594.19
825.535	20454.98
825.862	20495.21
826.189	20412.73
826.516	20565.94
826.843	20519.39
827.17	20430.13
827.497	20502.22
827.824	20610.01
828.151	20590.35
828.478	20555.1
828.805	20507.64
829.131	20333.86
829.458	20434.87
829.785	20297.47
830.111	20421.54
830.438	20506.73
830.764	20402.78
831.09	20440.97
831.417	20391.48
831.743	20364.37
832.069	20358.49
832.395	20237.36
832.722	20346.97
833.048	20367.76
833.374	20210.02
833.7	20203.24
834.026	20218.15
834.351	20308.1
834.677	20290.7
835.003	20241.21
835.329	20238.04
835.654	20193.97
835.98	20004.83
836.306	20092.96
836.631	19964.38
836.956	20102.23
837.282	20060.19
837.607	19955.34
837.932	19946.75
838.258	19925.06
838.583	19899.29
838.908	19786.3
839.233	19803.7
839.558	19820.65
839.883	19756.7
840.208	19777.94
840.533	19686.64
840.858	19713.54
841.182	19609.58
841.507	19559.42
841.832	19557.83
842.156	19519.64
842.481	19503.37
842.805	19425.63
843.13	19332.08
843.454	19346.99
843.778	19192.42
844.103	19232.42
844.427	19294.34
844.751	19236.26
845.075	19127.79
845.399	19109.26
845.723	19121.46
846.047	19028.81
846.371	18845.99
846.695	18874.69
847.019	18685.54
847.343	18601.25
847.666	18553.57
847.99	18403.97
848.313	18455.49
848.637	18308.15
848.96	18375.49
849.284	18262.73
849.607	18126.23
849.931	18146.34
850.254	17920.14
850.577	17864.09
850.9	17774.15
851.223	17734.15
851.546	17688.96
851.869	17462.3
852.192	17572.8
852.515	17486.48
852.838	17396.76
853.161	17319.47
853.483	17283.54
853.806	17164
854.129	17145.69
854.451	17056.66
854.774	16882.2
855.096	16873.38
855.419	16879.49
855.741	16782.09
856.063	16715.2
856.385	16691.47
856.708	16706.83
857.03	16614.86
857.352	16587.74
857.674	16555.2
857.996	16466.84
858.318	16455.99
858.64	16393.62
858.961	16392.49
859.283	16305.26
859.605	16221.65
859.926	16272.27
860.248	16200.63
860.57	16015.55
860.891	16161.99
861.212	16079.51
861.534	16101.88
861.855	15972.84
862.176	15919.96
862.498	16025.04
862.819	15922.22
863.14	15925.16
863.461	15831.15
863.782	15784.37
864.103	15829.34
864.424	15679.97
864.745	15740.98
865.065	15675
865.386	15619.41
865.707	15574.21
866.027	15579.18
866.348	15571.5
866.668	15529.46
866.989	15497.6
867.309	15459.41
867.63	15420.77
867.95	15444.72
868.27	15310.04
868.59	15385.06
868.91	15420.99
869.23	15284.73
869.55	15131.51
869.87	15321.33
870.19	15210.38
870.51	15253.54
870.83	15212.86
871.15	15087.22
871.469	15155.69
871.789	15121.11
872.109	15161.11
872.428	15097.16
872.748	15087.67
873.067	15064.62
873.386	15009.93
873.706	15017.61
874.025	14844.28
874.344	14910.05
874.663	14914.34
874.982	14823.27
875.301	14799.54
875.62	14851.29
875.939	14759.32
876.258	14730.16
876.577	14645.65
876.896	14629.6
877.214	14660.33
877.533	14695.81
877.852	14648.36
878.17	14625.99
878.489	14643.61
878.807	14637.96
879.125	14510.73
879.444	14557.29
879.762	14507.34
880.08	14517.06
880.398	14415.6
880.716	14423.28
881.034	14429.38
881.352	14408.36
881.67	14375.6
881.988	14308.25
882.306	14255.83
882.624	14124.3
882.941	14207.47
883.259	14034.36
883.577	14101.03
883.894	14044.08
884.212	14097.64
884.529	13942.84
884.846	14054.7
885.164	14030.52
885.481	13936.74
885.798	13958.21
886.115	13874.59
886.432	13882.28
886.75	13782.84
887.067	13775.61
887.383	13701.26
887.7	13712.34
888.017	13685.22
888.334	13707.37
888.651	13623.53
888.967	13607.48
889.284	13533.13
889.6	13560.93
889.917	13339.01
890.233	13441.16
890.55	13316.19
890.866	13421.5
891.182	13246.81
891.498	13263.99
891.815	13205.91
892.131	13127.72
892.447	13153.48
892.763	13120.04
893.079	13093.14
893.395	13007.05
893.71	13015.41
894.026	12972.47
894.342	12853.83
894.657	12826.48
894.973	12806.6
895.289	12808.63
895.604	12760.72
895.92	12687.28
896.235	12658.13
896.55	12591.24
896.865	12580.16
897.181	12541.07
897.496	12465.14
897.811	12450.22
898.126	12408.42
898.441	12297.46
898.756	12277.35
899.071	12258.14
899.386	12279.83
899.7	12153.96
900.015	12094.07
900.33	12095.66
900.644	12066.5
900.959	12052.27
901.273	11975.89
901.588	11897.7
901.902	11866.96
902.216	11791.94
902.531	11810.69
902.845	11702.9
903.159	11662.22
903.473	11617.48
903.787	11577.25
904.101	11535.67
904.415	11566.86
904.729	11455.9
905.042	11425.62
905.356	11367.54
905.67	11434.66
905.984	11352.4
906.297	11253.19
906.611	11241.89
906.924	11175
907.237	11186.08
907.551	11134.55
907.864	10958.74
908.177	10994.22
908.491	11050.03
908.804	10977.95
909.117	10925.52
909.43	10854.79
909.743	10779.53
910.056	10733.43
910.368	10712.42
910.681	10700.44
910.994	10566.66
911.307	10534.57
911.619	10501.8
911.932	10527.11
912.244	10440.56
912.557	10398.07
912.869	10375.48
913.181	10258.87
913.494	10330.96
913.806	10247.34
914.118	10192.2
914.43	10104.07
914.742	10186.33
915.054	10029.5
915.366	9926.67
915.678	9983.85
915.99	9983.17
916.302	9847.58
916.613	9852.1
916.925	9832.21
917.236	9825.43
917.548	9703.4
917.859	9676.74
918.171	9644.87
918.482	9598.77
918.794	9572.11
919.105	9593.58
919.416	9496.18
919.727	9468.61
920.038	9450.75
920.349	9406.24
920.66	9293.24
920.971	9304.54
921.282	9213.02
921.593	9196.75
921.903	9114.04
922.214	9155.39
922.525	9107.26
922.835	9117.43
923.146	8986.13
923.456	9054.61
923.767	8906.14
924.077	8916.98
924.387	8802.64
924.697	8831.56
925.008	8756.31
925.318	8754.95
925.628	8714.28
925.938	8669.98
926.248	8644.45
926.558	8573.04
926.867	8559.93
927.177	8535.07
927.487	8479.03
927.796	8377.11
928.106	8460.72
928.416	8395.19
928.725	8368.97
929.034	8279.94
929.344	8271.58
929.653	8249.2
929.962	8148.42
930.271	8171.92
930.581	8072.49
930.89	8120.62
931.199	8068.87
931.508	7975.99
931.817	8015.54
932.125	8036.33
932.434	7923.34
932.743	7859.84
933.051	7808.54
933.36	7817.12
933.669	7785.49
933.977	7698.48
934.286	7682.21
934.594	7706.85
934.902	7583.46
935.21	7658.94
935.519	7568.77
935.827	7488.77
936.135	7479.51
936.443	7470.24
936.751	7414.2
937.059	7388.66
937.367	7378.49
937.674	7393.18
937.982	7301.66
938.29	7287.42
938.597	7304.14
938.905	7188.21
939.213	7142.34
939.52	7139.18
939.827	7099.18
940.135	7079.29
940.442	7022.57
940.749	6999.97
941.056	7013.08
941.363	6949.58
941.67	6916.81
941.977	6907.32
942.284	6803.82
942.591	6813.76
942.898	6733.54
943.205	6749.81
943.511	6718.62
943.818	6702.8
944.125	6682.47
944.431	6658.74
944.738	6641.11
945.044	6574.67
945.35	6550.94
945.657	6528.8
945.963	6505.3
946.269	6473.66
946.575	6473.21
946.881	6410.61
947.187	6420.78
947.493	6373.1
947.799	6322.02
948.105	6334.68
948.41	6303.72
948.716	6306.43
949.022	6222.59
949.327	6231.86
949.633	6162.48
949.938	6184.17
950.244	6119.54
950.549	6054.23
950.854	6045.19
951.16	6105.08
951.465	6004.29
951.77	6032.31
952.075	5979.43
952.38	5959.55
952.685	5895.82
952.99	5837.29
953.294	5849.95
953.599	5847.91
953.904	5803.84
954.209	5763.85
954.513	5777.63
954.818	5715.03
955.122	5718.2
955.426	5685.2
955.731	5603.17
956.035	5582.38
956.339	5579.9
956.643	5609.95
956.948	5528.37
957.252	5491.31
957.556	5476.85
957.86	5444.08
958.163	5482.72
958.467	5432.1
958.771	5413.8
959.075	5413.35
959.378	5364.08
959.682	5394.59
959.985	5295.16
960.289	5258.32
960.592	5272.79
960.896	5276.63
961.199	5256.29
961.502	5171.77
961.805	5186.01
962.108	5113.47
962.411	5115.28
962.714	5077.76
963.017	5096.52
963.32	5098.78
963.623	5072.34
963.926	5028.72
964.228	4950.31
964.531	5005.45
964.833	4950.99
965.136	4913.92
965.438	4869.18
965.741	4915.96
966.043	4848.16
966.345	4825.11
966.648	4802.51
966.95	4800.48
967.252	4768.17
967.554	4748.05
967.856	4702.18
968.158	4671.9
968.46	4700.37
968.761	4685.68
969.063	4672.57
969.365	4615.85
969.666	4613.59
969.968	4586.93
970.269	4569.07
970.571	4506.7
970.872	4495.63
971.174	4517.1
971.475	4465.57
971.776	4434.62
972.077	4428.74
972.378	4417.89
972.679	4413.37
972.98	4362.3
973.281	4381.06
973.582	4329.76
973.883	4337.67
974.183	4323.88
974.484	4252.02
974.785	4247.73
975.085	4219.03
975.386	4290.89
975.686	4223.1
975.986	4199.82
976.287	4179.71
976.587	4139.48
976.887	4115.08
977.187	4103.78
977.487	4066.94
977.787	4080.95
978.087	4092.7
978.387	4049.31
978.687	4031.91
978.987	4015.64
979.286	4044.79
979.586	4013.61
979.885	3958.7
980.185	3882.99
980.484	3912.14
980.784	3904.01
981.083	3870.79
981.382	3911.01
981.682	3868.08
981.981	3815.65
982.28	3845.7
982.579	3777.91
982.878	3751.47
983.177	3768.19
983.475	3755.76
983.774	3725.26
984.073	3717.35
984.372	3677.12
984.67	3711.47
984.969	3693.17
985.267	3659.95
985.566	3647.74
985.864	3628.53
986.162	3598.48
986.461	3576.56
986.759	3525.49
987.057	3543.34
987.355	3536.79
987.653	3488.43
987.951	3501.76
988.249	3471.02
988.547	3448.65
988.844	3449.78
989.142	3435.77
989.44	3406.17
989.737	3380.18
990.035	3372.72
990.332	3358.71
990.63	3338.6
990.927	3331.59
991.224	3308.32
991.521	3272.16
991.819	3256.57
992.116	3274.19
992.413	3259.28
992.71	3225.38
993.006	3203.01
993.303	3180.18
993.6	3219.05
993.897	3202.33
994.193	3149.45
994.49	3126.85
994.787	3128.89
995.083	3077.14
995.379	3104.25
995.676	3073.07
995.972	3091.6
996.268	3051.37
996.565	3033.52
996.861	2995.33
997.157	3010.25
997.453	3020.19
997.749	2964.82
998.044	2967.31
998.34	2963.24
998.636	2930.93
998.932	2905.62
999.227	2877.82
999.523	2845.96
999.818	2843.47
1000.114	2850.7
1000.409	2822
1000.704	2827.2
1001	2818.61
1001.295	2770.03
1001.59	2751.27
1001.885	2754.43
1002.18	2733.42
1002.475	2773.87
1002.77	2716.02
1003.065	2738.39
1003.359	2677.15
1003.654	2645.96
1003.949	2668.79
1004.243	2582.91
1004.538	2578.17
1004.832	2603.02
1005.127	2580.43
1005.421	2574.32
1005.715	2563.7
1006.009	2542.46
1006.304	2527.32
1006.598	2502.24
1006.892	2479.19
1007.186	2487.77
1007.48	2460.2
1007.773	2458.4
1008.067	2423.59
1008.361	2452.52
1008.655	2429.02
1008.948	2400.09
1009.242	2405.06
1009.535	2364.84
1009.829	2386.08
1010.122	2347.21
1010.415	2309.7
1010.708	2339.75
1011.001	2294.78
1011.295	2290.94
1011.588	2271.51
1011.881	2253.88
1012.173	2268.12
1012.466	2261.34
1012.759	2212.53
1013.052	2241.9
1013.344	2219.31
1013.637	2168.91
1013.93	2174.56
1014.222	2142.47
1014.514	2120.78
1014.807	2139.76
1015.099	2118.07
1015.391	2105.86
1015.683	2072.42
1015.976	2102.7
1016.268	2065.19
1016.56	2023.15
1016.851	2057.95
1017.143	2034.23
1017.435	1995.13
1017.727	1996.26
1018.018	2009.59
1018.31	1965.98
1018.602	1980.89
1018.893	1912.65
1019.185	1941.57
1019.476	1927.34
1019.767	1896.6
1020.058	1890.05
1020.35	1907
1020.641	1867.68
1020.932	1861.58
1021.223	1826.55
1021.514	1839.66
1021.804	1782.26
1022.095	1802.59
1022.386	1795.81
1022.677	1783.16
1022.967	1781.8
1023.258	1742.03
1023.548	1736.83
1023.839	1713.1
1024.129	1699.77
1024.419	1721.47
1024.709	1667.68
1025	1649.38
1025.29	1648.7
1025.58	1661.13
1025.87	1634.24
1026.16	1591.75
1026.449	1627.68
1026.739	1615.93
1027.029	1610.96
1027.319	1611.41
1027.608	1566.22
1027.898	1558.98
1028.187	1567.35
1028.477	1555.37
1028.766	1530.96
1029.055	1513.79
1029.344	1536.84
1029.634	1498.87
1029.923	1474.69
1030.212	1474.01
1030.501	1459.78
1030.79	1463.62
1031.078	1467.01
1031.367	1456.61
1031.656	1417.97
1031.945	1420.91
1032.233	1419.1
1032.522	1384.98
1032.81	1366.45
1033.099	1356.28
1033.387	1377.97
1033.675	1375.03
1033.963	1360.12
1034.251	1324.41
1034.54	1328.71
1034.828	1325.77
1035.116	1308.14
1035.403	1304.75
1035.691	1293.68
1035.979	1285.09
1036.267	1277.18
1036.554	1280.12
1036.842	1253.23
1037.129	1241.03
1037.417	1224.76
1037.704	1223.17
1037.992	1234.93
1038.279	1237.18
1038.566	1213.23
1038.853	1213.23
1039.14	1213.23
