Data from orange_diffuse_book_FLMS001491_00071.txt Node
Date: Wed Feb 08 15:30:01 GMT 2017
User: dcchb
Spectrometer: FLMS00149
Trigger mode: 0
Integration Time (sec): 2.000000E-2
Scans to average: 10
Electric dark correction enabled: true
Nonlinearity correction enabled: false
Boxcar width: 0
XAxis mode: Wavelengths
Number of Pixels in Spectrum: 2048
>>>>>Begin Spectral Data<<<<<
341.393	-4.38
341.776	-4.38
342.16	-4.38
342.543	-54.77
342.927	-59.74
343.31	-72.63
343.693	-101.1
344.077	-65.62
344.46	-66.07
344.843	-51.83
345.226	-27.88
345.61	-30.82
345.993	-6.41
346.376	7.82
346.759	8.73
347.142	12.8
347.525	48.5
347.908	52.34
348.291	69.97
348.674	102.51
349.057	119.69
349.44	110.42
349.823	155.39
350.206	168.72
350.588	182.96
350.971	249.63
351.354	242.39
351.737	245.78
352.119	250.98
352.502	283.3
352.884	281.72
353.267	303.18
353.65	296.18
354.032	330.75
354.414	321.04
354.797	286.91
355.179	327.36
355.562	351.32
355.944	340.25
356.326	359.91
356.709	369.4
357.091	344.54
357.473	345.67
357.855	354.93
358.238	344.31
358.62	353.13
359.002	349.51
359.384	360.81
359.766	361.49
360.148	354.71
360.53	356.97
360.912	322.84
361.294	360.36
361.676	353.13
362.057	345.44
362.439	357.19
362.821	348.15
363.203	343.64
363.584	364.43
363.966	347.48
364.348	324.88
364.729	334.37
365.111	339.79
365.493	340.92
365.874	334.14
366.256	320.36
366.637	342.73
367.019	334.6
367.4	321.71
367.781	324.65
368.163	335.95
368.544	348.61
368.925	340.47
369.306	347.7
369.688	325.1
370.069	303.86
370.45	348.38
370.831	314.94
371.212	343.86
371.593	327.59
371.974	342.05
372.355	319.68
372.736	331.88
373.117	333.69
373.498	345.67
373.879	342.28
374.26	332.34
374.641	337.08
375.021	337.53
375.402	317.65
375.783	342.96
376.163	332.56
376.544	334.37
376.925	340.47
377.305	355.61
377.686	342.51
378.066	321.71
378.447	352
378.827	332.79
379.208	355.84
379.588	356.74
379.968	346.12
380.349	334.37
380.729	339.12
381.109	377.98
381.489	357.19
381.87	344.99
382.25	361.04
382.63	375.05
383.01	370.08
383.39	378.44
383.77	372.56
384.15	358.78
384.53	357.87
384.91	361.94
385.29	377.98
385.67	364.65
386.049	383.18
386.429	359.91
386.809	376.4
387.189	394.26
387.568	381.15
387.948	387.93
388.328	385.22
388.707	371.66
389.087	370.53
389.466	378.89
389.846	383.41
390.225	380.02
390.605	382.96
390.984	388.83
391.363	372.11
391.743	377.53
392.122	392.45
392.501	391.77
392.881	399.23
393.26	373.46
393.639	398.77
394.018	395.39
394.397	393.13
394.776	401.71
395.155	392.22
395.534	390.19
395.913	393.13
396.292	392.45
396.671	429.73
397.05	402.16
397.429	407.36
397.808	415.72
398.186	411.66
398.565	421.15
398.944	404.88
399.323	418.44
399.701	426.34
400.08	414.37
400.458	429.73
400.837	415.05
401.215	423.41
401.594	434.25
401.972	406.91
402.351	422.28
402.729	462.05
403.107	417.31
403.486	422.5
403.864	417.31
404.242	420.7
404.62	442.62
404.999	438.1
405.377	440.58
405.755	440.58
406.133	460.92
406.511	464.99
406.889	454.37
407.267	473.58
407.645	471.32
408.023	465.21
408.401	462.28
408.779	456.85
409.156	483.97
409.534	476.29
409.912	482.16
410.29	500.24
410.667	484.65
411.045	490.98
411.422	497.53
411.8	475.16
412.178	490.75
412.555	491.43
412.933	504.99
413.31	505.66
413.687	501.6
414.065	507.25
414.442	522.16
414.819	513.35
415.197	512.22
415.574	544.08
415.951	529.17
416.328	543.63
416.705	528.71
417.082	543.18
417.46	524.42
417.837	540.01
418.214	549.96
418.591	538.66
418.967	550.64
419.344	552.9
419.721	564.87
420.098	544.53
420.475	561.48
420.852	552.44
421.228	562.61
421.605	580.24
421.982	580.92
422.358	578.88
422.735	569.62
423.111	596.06
423.488	602.39
423.864	598.09
424.241	614.14
424.617	603.97
424.994	614.14
425.37	599.22
425.746	610.75
426.123	619.11
426.499	632.22
426.875	628.37
427.251	612.1
427.627	647.81
428.003	661.59
428.379	652.78
428.756	661.14
429.132	661.82
429.507	654.36
429.883	675.38
430.259	673.8
430.635	691.42
431.011	697.98
431.387	683.97
431.763	712.21
432.138	703.17
432.514	725.32
432.89	698.88
433.265	710.18
433.641	717.64
434.016	730.29
434.392	756.05
434.767	763.74
435.143	738.43
435.518	728.26
435.894	768.93
436.269	733.68
436.644	779.56
437.02	766.67
437.395	789.27
437.77	785.21
438.145	795.15
438.52	801.48
438.895	816.62
439.271	760.12
439.646	833.11
440.021	845.54
440.395	814.13
440.77	819.55
441.145	824.98
441.52	834.92
441.895	831.08
442.27	860.23
442.645	846.67
443.019	859.1
443.394	849.61
443.769	853.45
444.143	847.12
444.518	860.23
444.892	869.72
445.267	856.84
445.641	872.66
446.016	871.98
446.39	883.51
446.764	877.63
447.139	903.17
447.513	904.98
447.887	893.45
448.262	888.03
448.636	903.62
449.01	901.59
449.384	914.02
449.758	908.37
450.132	961.02
450.506	920.12
450.88	935.03
451.254	924.64
451.628	955.6
452.002	953.56
452.376	952.43
452.75	926.67
453.123	954.47
453.497	977.29
453.871	953.34
454.244	999.21
454.618	1006.44
454.992	997.4
455.365	1007.35
455.739	1010.28
456.112	1017.29
456.486	1031.98
456.859	1026.78
457.232	1044.86
457.606	1060.45
457.979	1067.23
458.352	1069.49
458.725	1067.68
459.099	1076.5
459.472	1090.73
459.845	1088.47
460.218	1094.12
460.591	1107
460.964	1140.22
461.337	1119.43
461.71	1162.82
462.083	1161.92
462.456	1146.55
462.829	1142.71
463.201	1134.12
463.574	1185.87
463.947	1179.77
464.32	1186.78
464.692	1202.37
465.065	1211.86
465.438	1223.84
465.81	1223.84
466.183	1248.47
466.555	1252.09
466.928	1280.79
467.3	1265.64
467.672	1243.27
468.045	1271.29
468.417	1303.84
468.789	1297.96
469.161	1326.66
469.534	1310.62
469.906	1325.76
470.278	1335.93
470.65	1343.61
471.022	1376.83
471.394	1388.58
471.766	1414.12
472.138	1407.79
472.51	1449.59
472.882	1456.83
473.253	1449.82
473.625	1498.63
473.997	1514.68
474.369	1512.19
474.74	1535.02
475.112	1536.6
475.484	1579.99
475.855	1611.85
476.227	1623.38
476.598	1612.75
476.97	1648.69
477.341	1667.44
477.713	1689.81
478.084	1700.89
478.455	1716.25
478.827	1739.98
479.198	1797.38
479.569	1781.34
479.94	1813.2
480.311	1833.31
480.682	1858.4
481.053	1907.89
481.424	1922.12
481.795	1979.75
482.166	1983.14
482.537	1996.7
482.908	2039.86
483.279	2070.14
483.65	2086.64
484.021	2142.23
484.391	2177.94
484.762	2161.44
485.133	2207.99
485.503	2237.82
485.874	2269.91
486.244	2324.6
486.615	2356.92
486.985	2337.03
487.356	2395.56
487.726	2401.21
488.097	2445.95
488.467	2466.52
488.837	2535.67
489.207	2521.66
489.578	2612.05
489.948	2625.16
490.318	2690.24
490.688	2666.06
491.058	2704.02
491.428	2748.09
491.798	2822.89
492.168	2838.03
492.538	2859.73
492.908	2919.84
493.278	2958.71
493.648	2962.78
494.017	3003.23
494.387	3065.6
494.757	3078.93
495.126	3081.19
495.496	3149.66
495.866	3159.61
496.235	3196.22
496.605	3290.22
496.974	3275.08
497.344	3297.23
497.713	3343.1
498.082	3380.17
498.452	3397.79
498.821	3419.26
499.19	3483.44
499.559	3537.45
499.928	3505.36
500.298	3564.79
500.667	3638.69
501.036	3603.66
501.405	3675.75
501.774	3664.9
502.143	3715.75
502.512	3709.87
502.88	3762.53
503.249	3784.9
503.618	3816.31
503.987	3865.35
504.356	3858.57
504.724	3900.38
505.093	3921.39
505.462	3954.39
505.83	3993.03
506.199	4067.38
506.567	4109.86
506.936	4094.04
507.304	4189.86
507.672	4194.61
508.041	4221.05
508.409	4234.38
508.777	4256.53
509.145	4330.87
509.514	4268.96
509.882	4387.6
510.25	4390.76
510.618	4401.38
510.986	4407.03
511.354	4489.29
511.722	4457.88
512.09	4534.71
512.458	4569.29
512.826	4589.17
513.193	4636.63
513.561	4633.92
513.929	4678.66
514.297	4755.04
514.664	4802.5
515.032	4787.36
515.4	4843.63
515.767	4858.77
516.135	4913.68
516.502	4900.8
516.869	4982.38
517.237	4963.85
517.604	4992.1
517.972	5028.94
518.339	5063.51
518.706	5080.01
519.073	5093.11
519.44	5184.41
519.808	5225.09
520.175	5238.42
520.542	5289.72
520.909	5284.97
521.276	5350.06
521.643	5341.24
522.009	5445.2
522.376	5473.67
522.743	5534.23
523.11	5533.56
523.477	5621.91
523.843	5587.79
524.21	5671.86
524.577	5713.89
524.943	5751.85
525.31	5807.22
525.676	5801.34
526.043	5885.41
526.409	5908.23
526.776	5900.55
527.142	5933.77
527.508	6007.67
527.874	6040.89
528.241	6043.37
528.607	6058.96
528.973	6150.94
529.339	6175.12
529.705	6252.86
530.071	6319.52
530.437	6249.02
530.803	6322.91
531.169	6380.99
531.535	6344.16
531.901	6308.22
532.267	6422.35
532.632	6440.65
532.998	6424.15
533.364	6527.88
533.73	6497.15
534.095	6536.92
534.461	6586.18
534.826	6639.51
535.192	6683.58
535.557	6668.67
535.923	6721.32
536.288	6762.9
536.653	6775.56
537.019	6752.05
537.384	6797.25
537.749	6830.47
538.114	6874.31
538.479	6882.67
538.845	6922.67
539.21	6924.03
539.575	6946.85
539.94	6968.55
540.305	7045.83
540.67	7020.97
541.034	7045.83
541.399	7119.5
541.764	7098.94
542.129	7174.19
542.494	7183.46
542.858	7230.01
543.223	7215.77
543.587	7327.86
543.952	7311.36
544.316	7331.93
544.681	7357.69
545.045	7426.61
545.41	7521.07
545.774	7454.86
546.138	7529.43
546.503	7497.57
546.867	7569.89
547.231	7612.37
547.595	7665.7
547.959	7724.23
548.324	7627.96
548.688	7668.41
549.052	7730.33
549.416	7809.43
549.779	7864.34
550.143	7901.63
550.507	7941.63
550.871	7982.98
551.235	7923.32
551.599	8115.63
551.962	8057.56
552.326	8115.41
552.689	8191.79
553.053	8133.03
553.417	8239.47
553.78	8365.35
554.143	8338.45
554.507	8356.31
554.87	8491.67
555.234	8584.32
555.597	8554.72
555.96	8640.82
556.323	8632.23
556.686	8638.33
557.05	8789.51
557.413	8816.63
557.776	8868.16
558.139	8954.71
558.502	8916.06
558.865	8975.27
559.228	9104.31
559.59	9126.91
559.953	9188.83
560.316	9347.01
560.679	9381.14
561.041	9528.25
561.404	9532.55
561.767	9680.56
562.129	9589.95
562.492	9805.53
562.854	9795.14
563.217	9896.6
563.579	9946.32
563.941	10026.32
564.304	10186.31
564.666	10236.93
565.028	10327.33
565.39	10364.39
565.753	10512.41
566.115	10594.21
566.477	10668.56
566.839	10836.24
567.201	10917.59
567.563	10996.91
567.925	11156.91
568.287	11282.33
568.648	11301.54
569.01	11450.91
569.372	11666.73
569.734	11779.27
570.095	11873.28
570.457	12059.71
570.819	12210.89
571.18	12229.88
571.542	12475.29
571.903	12550.32
572.265	12714.16
572.626	12902.17
572.987	13005.67
573.349	13299
573.71	13475.49
574.071	13618.31
574.432	13882.04
574.794	14023.28
575.155	14178.3
575.516	14355.02
575.877	14671.39
576.238	14833.42
576.599	15133.53
576.96	15393.63
577.32	15570.35
577.681	15750.91
578.042	15949.1
578.403	16285.81
578.763	16456.88
579.124	16884.9
579.485	17031.11
579.845	17387.93
580.206	17736.17
580.566	18001.93
580.927	18180.91
581.287	18658.86
581.648	18850.72
582.008	19259.3
582.368	19576.8
582.728	19945.15
583.089	20102.89
583.449	20615.64
583.809	20950.32
584.169	21343.31
584.529	21658.33
584.889	22134.47
585.249	22340.34
585.609	22681.8
585.969	23343.93
586.329	23652.17
586.688	24034.09
587.048	24396.79
587.408	24835.87
587.768	25153.15
588.127	25689.86
588.487	25982.96
588.846	26543.62
589.206	26804.86
589.565	27356.94
589.925	27904.27
590.284	28291.6
590.643	28737.46
591.003	29287.51
591.362	29769.3
591.721	30181.72
592.08	30663.74
592.44	31073.45
592.799	31603.15
593.158	32145.51
593.517	32553.41
593.876	33048.09
594.235	33402.2
594.593	33803.77
594.952	34482.85
595.311	34791.32
595.67	35373.45
596.029	35963.26
596.387	36360.09
596.746	36784.26
597.104	37226.51
597.463	37582.2
597.822	38149.65
598.18	38408.62
598.538	38915.73
598.897	39473
599.255	39577.86
599.613	40486.31
599.972	40784.83
600.33	41252.39
600.688	41485.83
601.046	41982.77
601.404	42506.59
601.762	42727.83
602.12	43315.16
602.478	43710.18
602.836	44086.21
603.194	44150.39
603.552	44691.62
603.91	44866.31
604.268	45528.21
604.625	45663.12
604.983	46180.85
605.341	46308.3
605.698	46804.56
606.056	47036.19
606.413	47326.81
606.771	47622.62
607.128	47943.51
607.485	48023.06
607.843	48294.46
608.2	48676.6
608.557	49034.78
608.914	49003.6
609.272	49386.19
609.629	49683.13
609.986	50035.21
610.343	49862.11
610.7	50472.49
611.057	50369.66
611.414	50588.19
611.771	50816.66
612.127	51047.39
612.484	51109.76
612.841	51399.92
613.198	51454.38
613.554	51500.26
613.911	51724.43
614.267	51960.81
614.624	52027.47
614.98	52131.2
615.337	52424.98
615.693	52518.08
616.05	52581.13
616.406	52760.34
616.762	52808.02
617.118	52875.36
617.475	52956.04
617.831	53027
618.187	53203.49
618.543	53315.8
618.899	53423.14
619.255	53497.04
619.611	53510.6
619.967	53723.47
620.323	53856.58
620.678	53655.23
621.034	53629.47
621.39	53806.41
621.746	53778.84
622.101	54105.84
622.457	53944.94
622.812	54065.84
623.168	54239.85
623.523	54159.62
623.879	54360.29
624.234	54165.27
624.589	54189.9
624.945	54484.81
625.3	54403.91
625.655	54410.46
626.01	54458.6
626.365	54544.92
626.72	54442.1
627.075	54523.45
627.43	54507.86
627.785	54480.52
628.14	54612.94
628.495	54661.53
628.85	54696.33
629.205	54616.78
629.559	54795.99
629.914	54650.23
630.269	54698.82
630.623	54628.99
630.978	54612.94
631.332	54826.95
631.687	54820.85
632.041	54699.49
632.396	54745.59
632.75	54636.44
633.104	54780.4
633.459	54578.37
633.813	54666.95
634.167	54670.12
634.521	54645.26
634.875	54719.15
635.229	54652.94
635.583	54524.13
635.937	54604.58
636.291	54591.93
636.645	54597.12
636.999	54478.26
637.352	54641.87
637.706	54419.28
638.06	54521.19
638.413	54522.1
638.767	54400.52
639.121	54501.76
639.474	54294.31
639.828	54390.58
640.181	54410.24
640.534	54370.46
640.888	54419.73
641.241	54213.18
641.594	54278.04
641.947	54394.87
642.301	54337.92
642.654	54342.67
643.007	54332.95
643.36	54302.67
643.713	54330.01
644.066	54413.85
644.419	54181.77
644.771	54080.08
645.124	53746.52
645.477	53694.55
645.83	53603.93
646.182	53420.88
646.535	53371.39
646.888	53531.16
647.24	53352.18
647.593	53586.75
647.945	53422.47
648.298	53378.62
648.65	53231.74
649.002	53285.75
649.355	53295.46
649.707	53260.89
650.059	53457.49
650.411	53764.38
650.763	53824.94
651.115	54087.53
651.467	54033.3
651.819	53997.14
652.171	53937.25
652.523	53945.62
652.875	53878.05
653.227	53796.01
653.578	53933.64
653.93	53854.54
654.282	53775.22
654.633	53707.88
654.985	53817.26
655.337	53828.33
655.688	53852.74
656.039	53887.54
656.391	53686.87
656.742	53784.49
657.094	53717.37
657.445	53806.18
657.796	53863.81
658.147	53750.14
658.498	53730.93
658.849	53839.86
659.2	53692.06
659.551	53601.22
659.902	53769.12
660.253	53745.39
660.604	53770.48
660.955	53630.82
661.306	53755.56
661.656	53721.89
662.007	53667.66
662.358	53666.53
662.708	53574.33
663.059	53668.33
663.409	53459.98
663.76	53666.98
664.11	53623.82
664.461	53655.91
664.811	53715.34
665.161	53589.01
665.511	53563.93
665.862	53604.61
666.212	53668.79
666.562	53772.51
666.912	53603.25
667.262	53598.05
667.612	53617.26
667.962	53482.35
668.312	53464.5
668.662	53542.46
669.011	53487.55
669.361	53518.28
669.711	53428.79
670.06	53473.76
670.41	53441
670.76	53331.17
671.109	53405.97
671.459	53387.89
671.808	53314.45
672.157	53408.45
672.507	53238.29
672.856	53154.68
673.205	53229.93
673.554	53305.63
673.904	53201.91
674.253	53312.19
674.602	53201.23
674.951	52796.49
675.3	52589.04
675.649	53092.08
675.998	53063.15
676.346	53103.83
676.695	53188.8
677.044	52968.92
677.393	52936.6
677.741	52953.33
678.09	52848.7
678.438	52812.54
678.787	52995.58
679.135	52989.48
679.484	52830.16
679.832	52856.6
680.181	52685.08
680.529	52801.92
680.877	52708.59
681.225	52741.58
681.573	52938.86
681.922	52629.94
682.27	52606.44
682.618	52549.49
682.966	52516.5
683.314	52612.54
683.661	52374.58
684.009	52275.15
684.357	52199.67
684.705	52195.38
685.053	52258.88
685.4	52217.3
685.748	52049.17
686.095	51963.97
686.443	51820.25
686.79	51883.52
687.138	51914.48
687.485	51912.9
687.832	51653.47
688.18	51761.49
688.527	51574.38
688.874	51453.03
689.221	51556.53
689.568	51358.56
689.915	51277.66
690.262	51229.53
690.609	51248.29
690.956	51015.3
691.303	51168.74
691.65	50909.76
691.997	50920.38
692.344	50662.31
692.69	50668.87
693.037	50683.33
693.383	50372.15
693.73	50622.54
694.077	50348.65
694.423	50317.46
694.769	50233.85
695.116	50083.57
695.462	50074.53
695.808	49920.64
696.155	50003.57
696.501	49773.75
696.847	49785.95
697.193	49452.85
697.539	49584.15
697.885	49282.01
698.231	49177.83
698.577	49224.16
698.923	49037.04
699.269	48808.58
699.614	48755.7
699.96	48694.45
700.306	48851.06
700.651	48453.1
700.997	48357.06
701.342	48390.73
701.688	48326.55
702.033	48226.44
702.379	48041.14
702.724	47914.81
703.069	48101.02
703.415	47643.86
703.76	47737.42
704.105	47605.67
704.45	47525.45
704.795	47355.73
705.14	47165.91
705.485	47221.72
705.83	47152.8
706.175	47067.83
706.52	46946.48
706.865	46853.37
707.209	46732.02
707.554	46640.04
707.899	46659.93
708.243	46392.59
708.588	46336.1
708.932	46092.49
709.277	46033.96
709.621	46036.67
709.966	45790.58
710.31	45935.88
710.654	45576.34
710.998	45682.33
711.342	45666.29
711.687	45524.14
712.031	45295.9
712.375	45205.28
712.719	45335.67
713.063	45264.71
713.407	45408.44
713.75	45089.8
714.094	45077.6
714.438	44758.29
714.782	44887.32
715.125	44647.33
715.469	44862.92
715.812	44532.53
716.156	44404.85
716.499	44518.74
716.843	44492.53
717.186	44304.06
717.53	44355.81
717.873	44305.19
718.216	44290.5
718.559	44004.86
718.902	43889.16
719.246	43809.61
719.589	43749.27
719.932	43759.22
720.275	43723.96
720.617	43640.8
720.96	43649.16
721.303	43586.11
721.646	43537.75
721.989	43256.4
722.331	43399
722.674	43228.61
723.016	43349.96
723.359	43340.7
723.701	43363.97
724.044	42847.38
724.386	42845.57
724.729	42989.97
725.071	42975.28
725.413	42907.04
725.755	42876.08
726.097	42694.16
726.439	42549.53
726.782	42436.31
727.124	42601.05
727.465	42473.6
727.807	42473.15
728.149	42378.91
728.491	42342.98
728.833	42388.41
729.175	42157.9
729.516	42072.93
729.858	42085.14
730.199	42213.49
730.541	41957.68
730.882	42053.5
731.224	42105.7
731.565	41785.48
731.906	41931.69
732.248	42013.95
732.589	41794.97
732.93	41535.09
733.271	41659.38
733.612	41644.92
733.953	41612.83
734.294	41601.08
734.635	41356.57
734.976	41486.28
735.317	41163.35
735.658	41381.65
735.999	41300.07
736.339	41284.03
736.68	41327.19
737.021	41083.81
737.361	41022.57
737.702	41224.14
738.042	40959.29
738.383	41039.29
738.723	41144.82
739.063	40861.21
739.404	40962.23
739.744	40810.59
740.084	40773.08
740.424	40828.9
740.764	40623.25
741.104	40727.43
741.444	40455.35
741.784	40568.79
742.124	40637.04
742.464	40562.92
742.804	40495.8
743.143	40384.62
743.483	40342.36
743.823	40180.1
744.162	40223.26
744.502	40267.11
744.841	40125.19
745.181	40172.42
745.52	39908.24
745.86	40154.79
746.199	39948.02
746.538	39949.6
746.877	39983.27
747.216	40028.47
747.556	39847.46
747.895	39875.48
748.234	39731.07
748.573	39745.31
748.911	39588.7
749.25	39574.24
749.589	39470.06
749.928	39504.41
750.267	39600.91
750.605	39436.39
750.944	39343.51
751.283	39317.98
751.621	39392.78
751.96	39110.98
752.298	39153.46
752.636	39089.73
752.975	38895.16
753.313	38810.42
753.651	39047.7
753.989	38685.23
754.327	38687.03
754.666	38426.93
755.004	38632.12
755.342	38664.89
755.679	38457.66
756.017	38390.32
756.355	38327.72
756.693	38248.85
757.031	38261.51
757.368	38002.31
757.706	38064
758.044	37757.34
758.381	37843.89
758.719	37663.11
759.056	37869.88
759.394	37550.34
759.731	37369.33
760.068	37438.7
760.405	37164.81
760.743	37004.14
761.08	36972.95
761.417	36845.73
761.754	37041.65
762.091	36856.12
762.428	36698.84
762.765	36486.64
763.102	36634.88
763.438	36409.35
763.775	36332.07
764.112	36283.71
764.449	36342.01
764.785	36082.13
765.122	35868.35
765.458	35886.2
765.795	35795.81
766.131	35728.24
766.467	35651.41
766.804	35483.5
767.14	35257.75
767.476	35412.32
767.812	35145.21
768.148	35106.79
768.485	34967.81
768.821	34734.37
769.157	34620.02
769.492	34591.32
769.828	34682.39
770.164	34258.9
770.5	34258.22
770.836	34204.44
771.171	34005.8
771.507	33832.25
771.842	33717.45
772.178	33631.12
772.513	33547.51
772.849	33444.23
773.184	33310.45
773.519	33416.44
773.855	33107.52
774.19	33048.54
774.525	32928.31
774.86	32911.59
775.195	32887.41
775.53	32652.16
775.865	32392.96
776.2	32374.66
776.535	32036.14
776.87	32029.36
777.205	31982.35
777.539	31864.39
777.874	31794.33
778.209	31571.74
778.543	31334.23
778.878	31321.35
779.212	31277.96
779.547	31207.23
779.881	31229.38
780.215	31104.41
780.55	31102.6
780.884	30775.15
781.218	30807.69
781.552	30653.8
781.886	30523.41
782.22	30465.33
782.554	30287.25
782.888	30055.17
783.222	29888.62
783.556	29885.91
783.889	29740.6
784.223	29541.06
784.557	29434.62
784.89	29608.18
785.224	29397.56
785.557	29288.86
785.891	29271.01
786.224	29143.78
786.558	29077.12
786.891	28811.81
787.224	28726.62
787.557	28649.11
787.891	28486.62
788.224	28683
788.557	28676.45
788.89	28463.8
789.223	28374.31
789.556	28002.57
789.888	28092.74
790.221	27928.67
790.554	27745.17
790.887	27887.09
791.219	27565.29
791.552	27580.21
791.884	27464.73
792.217	27430.61
792.549	27296.15
792.882	27097.73
793.214	26865.65
793.546	26960.79
793.879	26941.35
794.211	26715.15
794.543	26780.68
794.875	26744.52
795.207	26753.79
795.539	26606.45
795.871	26582.95
796.203	26299.11
796.535	26194.93
796.867	26215.72
797.198	26140.24
797.53	26170.07
797.862	25862.96
798.193	25921.49
798.525	25703.65
798.856	25743.87
799.188	25435.4
799.519	25442.86
799.85	25403.32
800.182	25503.88
800.513	25354.28
800.844	25080.84
801.175	25238.12
801.506	25197.9
801.837	25044
802.168	24904.8
802.499	24871.8
802.83	24715.88
803.161	24677.01
803.491	24608.08
803.822	24649.44
804.153	24433.85
804.483	24327.64
804.814	24289.45
805.145	24179.84
805.475	24187.3
805.805	24046.29
806.136	23980.08
806.466	23996.35
806.796	23952.28
807.126	23728.78
807.457	23743.25
807.787	23668.9
808.117	23723.36
808.447	23598.84
808.777	23674.32
809.107	23452.18
809.436	23388.9
809.766	23396.59
810.096	23338.51
810.426	23222.81
810.755	23259.64
811.085	23103.04
811.414	23045.19
811.744	22990.72
812.073	22850.16
812.403	22821.46
812.732	22752.99
813.061	22715.25
813.39	22639.77
813.719	22555.03
814.049	22584.63
814.378	22575.59
814.707	22472.09
815.036	22421.92
815.365	22248.82
815.693	22044.31
816.022	22135.38
816.351	22076.62
816.68	21928.6
817.008	22031.2
817.337	21883.41
817.665	21831.88
817.994	21949.17
818.322	21852.9
818.651	21621.49
818.979	21579.01
819.307	21634.37
819.636	21599.8
819.964	21470.54
820.292	21613.58
820.62	21615.62
820.948	21409.97
821.276	21447.49
821.604	21433.93
821.932	21433.25
822.259	21447.94
822.587	21421.72
822.915	21325.23
823.243	21438
823.57	21409.97
823.898	21348.96
824.225	21330.65
824.553	21313.48
824.88	21316.87
825.207	21422.85
825.535	21303.54
825.862	21279.58
826.189	21365.68
826.516	21409.75
826.843	21287.49
827.17	21421.72
827.497	21339.02
827.824	21309.64
828.151	21425.79
828.478	21305.8
828.805	21368.84
829.131	21271.9
829.458	21221.05
829.785	21140.6
830.111	21231
830.438	21316.42
830.764	21286.14
831.09	21309.86
831.417	21068.06
831.743	21251.11
832.069	21286.14
832.395	21155.07
832.722	21098.12
833.048	21154.39
833.374	21188.74
833.7	21154.16
834.026	21076.2
834.351	21167.27
834.677	21092.47
835.003	21136.99
835.329	21109.42
835.654	20995.3
835.98	20899.7
836.306	20915.75
836.631	20842.08
836.956	20913.26
837.282	20929.31
837.607	20706.72
837.932	20773.61
838.258	20805.02
838.583	20739.48
838.908	20648.64
839.233	20673.04
839.558	20697.9
839.883	20615.64
840.208	20477.34
840.533	20534.29
840.858	20403.45
841.182	20525.48
841.507	20337.23
841.832	20288.42
842.156	20276.22
842.481	20205.49
842.805	20220.4
843.13	20194.64
843.454	20092.27
843.778	19982.21
844.103	20011.59
844.427	20036.9
844.751	19967.53
845.075	19865.61
845.399	19780.19
845.723	19687.76
846.047	19780.41
846.371	19499.97
846.695	19448.9
847.019	19401.89
847.343	19325.96
847.666	19226.98
847.99	19121.45
848.313	19212.74
848.637	19102.24
848.96	19079.41
849.284	19049.13
849.607	18894.56
849.931	18835.8
850.254	18674.9
850.577	18645.98
850.9	18408.92
851.223	18384.97
851.546	18365.76
851.869	18248.7
852.192	18307.68
852.515	18183.84
852.838	18071.3
853.161	18153.34
853.483	17998.09
853.806	17925.55
854.129	17924.19
854.451	17818.2
854.774	17736.85
855.096	17770.97
855.419	17587.93
855.741	17596.29
856.063	17480.59
856.385	17438.55
856.708	17414.37
857.03	17253.25
857.352	17253.25
857.674	17215.73
857.996	17212.34
858.318	17149.07
858.64	17088.73
858.961	17056.87
859.283	17007.83
859.605	16994.04
859.926	17006.7
860.248	16816.87
860.57	16768.29
860.891	16815.97
861.212	16672.47
861.534	16660.72
861.855	16603.55
862.176	16611
862.498	16702.98
862.819	16557.67
863.14	16446.71
863.461	16339.15
863.782	16333.72
864.103	16462.31
864.424	16363.33
864.745	16392.03
865.065	16373.04
865.386	16161.98
865.707	16254.4
866.027	16221.41
866.348	16094.63
866.668	16227.96
866.989	16171.24
867.309	16009.21
867.63	16116.33
867.95	16030.68
868.27	16036.78
868.59	16037.91
868.91	15895.99
869.23	15923.11
869.55	15827.52
869.87	15865.49
870.19	15909.33
870.51	15858.03
870.83	15831.14
871.15	15701.88
871.469	15710.01
871.789	15739.61
872.109	15703.23
872.428	15665.72
872.748	15739.39
873.067	15685.15
873.386	15680.86
873.706	15629.56
874.025	15613.52
874.344	15503.24
874.663	15614.87
874.982	15499.62
875.301	15473.86
875.62	15435.22
875.939	15463.01
876.258	15348.89
876.577	15321.77
876.896	15366.97
877.214	15227.31
877.533	15291.04
877.852	15270.47
878.17	15259.18
878.489	15219.18
878.807	15238.61
879.125	15185.96
879.444	15121.33
879.762	15123.81
880.08	15065.28
880.398	15013.53
880.716	15007.43
881.034	14942.12
881.352	14978.96
881.67	14925.85
881.988	14872.74
882.306	14860.09
882.624	14862.58
882.941	14723.6
883.259	14636.14
883.577	14659.42
883.894	14643.82
884.212	14574.45
884.529	14609.7
884.846	14562.92
885.164	14493.32
885.481	14451.06
885.798	14436.37
886.115	14411.74
886.432	14417.39
886.75	14286.55
887.067	14388.24
887.383	14319.31
887.7	14357.28
888.017	14219.88
888.334	14250.61
888.651	14176.94
888.967	14101.47
889.284	14089.94
889.6	14051.07
889.917	13961.58
890.233	13878.65
890.55	13954.58
890.866	13820.34
891.182	13863.73
891.498	13810.63
891.815	13739.67
892.131	13709.61
892.447	13668.26
892.763	13674.58
893.079	13606.11
893.395	13585.77
893.71	13462.39
894.026	13540.8
894.342	13457.64
894.657	13250.41
894.973	13311.88
895.289	13319.79
895.604	13350.98
895.92	13244.76
896.235	13141.04
896.55	13125.22
896.865	13132.9
897.181	13046.13
897.496	12999.12
897.811	12988.73
898.126	12936.52
898.441	12806.58
898.756	12868.96
899.071	12775.62
899.386	12785.57
899.7	12681.16
900.015	12587.61
900.33	12496.54
900.644	12568.85
900.959	12578.79
901.273	12491.11
901.588	12417.22
901.902	12401.17
902.216	12286.15
902.531	12241.63
902.845	12200.5
903.159	12087.51
903.473	12066.26
903.787	12030.11
904.101	12051.58
904.415	11969.32
904.729	11966.61
905.042	11923.9
905.356	11819.72
905.67	11825.59
905.984	11835.99
906.297	11763
906.611	11686.61
906.924	11701.3
907.237	11579.05
907.551	11526.62
907.864	11432.61
908.177	11455.89
908.491	11436.68
908.804	11364.14
909.117	11288.43
909.43	11234.65
909.743	11183.8
910.056	11198.49
910.368	11151.71
910.681	11086.18
910.994	10999.17
911.307	11042.11
911.619	10883.92
911.932	10901.1
912.244	10806.41
912.557	10779.74
912.869	10756.02
913.181	10701.33
913.494	10646.19
913.806	10607.55
914.118	10579.07
914.43	10495.46
914.742	10477.61
915.054	10434.67
915.366	10414.56
915.678	10351.96
915.99	10268.8
916.302	10254.56
916.613	10248.23
916.925	10216.14
917.236	10163.49
917.548	10130.72
917.859	10115.36
918.171	10016.15
918.482	9991.74
918.794	9939.99
919.105	9983.16
919.416	9865.64
919.727	9884.85
920.038	9782.03
920.349	9770.28
920.66	9690.73
920.971	9691.19
921.282	9618.87
921.593	9662.26
921.903	9497.29
922.214	9574.35
922.525	9443.73
922.835	9387.24
923.146	9377.75
923.456	9378.43
923.767	9288.48
924.077	9172.33
924.387	9224.08
924.697	9187.47
925.008	9103.86
925.318	9089.62
925.628	9063.63
925.938	8961.94
926.248	8913.58
926.558	8890.98
926.867	8868.83
927.177	8868.38
927.487	8798.55
927.796	8700.7
928.106	8749.97
928.416	8655.96
928.725	8633.81
929.034	8535.51
929.344	8561.72
929.653	8562.63
929.962	8470.65
930.271	8441.95
930.581	8412.58
930.89	8307.27
931.199	8319.47
931.508	8319.02
931.817	8225.91
932.125	8314.05
932.434	8185.91
932.743	8120.38
933.051	8154.5
933.36	8069.76
933.669	8033.15
933.977	8038.57
934.286	8002.19
934.594	7937.33
934.902	7903.89
935.21	7830.9
935.519	7865.92
935.827	7802.87
936.135	7745.47
936.443	7746.38
936.751	7709.77
937.059	7647.17
937.367	7567.17
937.674	7633.84
937.982	7594.74
938.29	7540.51
938.597	7516.55
938.905	7428.42
939.213	7415.54
939.52	7370.34
939.827	7309.55
940.135	7351.13
940.442	7325.37
940.749	7311.14
941.056	7299.38
941.363	7244.47
941.67	7224.58
941.977	7108.88
942.284	7048.77
942.591	7054.87
942.898	7048.77
943.205	7072.5
943.511	6990.01
943.818	6948.21
944.125	6919.73
944.431	6941.2
944.738	6930.35
945.044	6874.31
945.35	6813.07
945.657	6777.59
945.963	6784.14
946.269	6700.53
946.575	6717.48
946.881	6676.12
947.187	6665.28
947.493	6583.47
947.799	6641.77
948.105	6541.66
948.41	6478.61
948.716	6532.85
949.022	6509.57
949.327	6438.84
949.633	6388.45
949.938	6362.01
950.244	6362.46
950.549	6320.88
950.854	6303.48
951.16	6295.79
951.465	6239.53
951.77	6204.27
952.075	6182.58
952.38	6132.64
952.685	6149.13
952.99	6071.62
953.294	6006.99
953.599	6051.28
953.904	6005.63
954.209	6006.76
954.513	6013.77
954.818	5952.08
955.122	5944.17
955.426	5881.34
955.731	5859.65
956.035	5809.48
956.339	5813.77
956.643	5781.23
956.948	5714.57
957.252	5739.2
957.556	5728.8
957.86	5691.74
958.163	5626.89
958.467	5624.85
958.771	5588.69
959.075	5568.81
959.378	5580.33
959.682	5563.84
959.985	5524.74
960.289	5492.88
960.592	5409.94
960.896	5427.8
961.199	5424.86
961.502	5385.76
961.805	5317.97
962.108	5328.14
962.411	5316.16
962.714	5347.57
963.017	5269.16
963.32	5289.95
963.623	5257.63
963.926	5200.68
964.228	5133.34
964.531	5158.42
964.833	5144.86
965.136	5134.7
965.438	5079.56
965.741	5061.7
966.043	5034.13
966.345	5042.95
966.648	5029.61
966.95	5007.47
967.252	4943.29
967.554	4922.95
967.856	4951.88
968.158	4902.16
968.46	4845.89
968.761	4841.37
969.063	4774.48
969.365	4802.73
969.666	4763.86
969.968	4735.16
970.269	4739.68
970.571	4720.92
970.872	4733.12
971.174	4671.2
971.475	4605.67
971.776	4647.93
972.077	4574.94
972.378	4592.79
972.679	4564.99
972.98	4562.96
973.281	4502.85
973.582	4536.29
973.883	4499.46
974.183	4494.71
974.484	4471.66
974.785	4407.48
975.085	4396.86
975.386	4445.22
975.686	4373.81
975.986	4367.94
976.287	4322.74
976.587	4252.91
976.887	4236.87
977.187	4231.22
977.487	4222.4
977.787	4165.46
978.087	4227.15
978.387	4204.78
978.687	4172.46
978.987	4162.29
979.286	4146.02
979.586	4131.56
979.885	4101.05
980.185	4034.39
980.484	4052.92
980.784	4079.36
981.083	4002.52
981.382	3971.11
981.682	3951.22
981.981	4001.39
982.28	3932.69
982.579	3893.15
982.878	3914.39
983.177	3856.31
983.475	3901.73
983.774	3819.7
984.073	3805.69
984.372	3813.6
984.67	3804.11
984.969	3797.33
985.267	3787.61
985.566	3741.51
985.864	3715.07
986.162	3781.28
986.461	3662.42
986.759	3716.88
987.057	3672.59
987.355	3635.53
987.653	3666.94
987.951	3626.94
988.249	3613.61
988.547	3604.57
988.844	3556.88
989.142	3531.35
989.44	3538.13
989.737	3505.36
990.035	3524.79
990.332	3481.63
990.63	3480.5
990.927	3425.36
991.224	3445.02
991.521	3417.45
991.819	3408.87
992.116	3400.28
992.413	3395.08
992.71	3343.56
993.006	3360.73
993.303	3353.05
993.6	3320.73
993.897	3289.09
994.193	3267.85
994.49	3261.75
994.787	3216.33
995.083	3190.79
995.379	3179.49
995.676	3201.64
995.972	3152.37
996.268	3158.7
996.565	3135.88
996.861	3078.25
997.157	3104.92
997.453	3077.35
997.749	3123
998.044	3029.67
998.34	2996.22
998.636	3040.29
998.932	3015.66
999.227	2976.33
999.523	2991.7
999.818	2960.29
1000.114	2932.04
1000.409	2925.26
1000.704	2911.7
1001	2905.83
1001.295	2882.1
1001.59	2859.28
1001.885	2903.79
1002.18	2846.17
1002.475	2831.48
1002.77	2804.36
1003.065	2759.39
1003.359	2760.97
1003.654	2772.27
1003.949	2710.13
1004.243	2692.27
1004.538	2707.41
1004.832	2687.53
1005.127	2694.08
1005.421	2648.89
1005.715	2633.52
1006.009	2636.91
1006.304	2642.78
1006.598	2582.45
1006.892	2604.59
1007.186	2566.4
1007.48	2552.62
1007.773	2541.09
1008.067	2525.95
1008.361	2512.17
1008.655	2499.06
1008.948	2447.53
1009.242	2473.52
1009.535	2464.94
1009.829	2417.03
1010.122	2418.38
1010.415	2385.39
1010.708	2370.47
1011.001	2392.85
1011.295	2372.28
1011.588	2364.15
1011.881	2338.16
1012.173	2308.33
1012.466	2290.25
1012.759	2323.7
1013.052	2270.59
1013.344	2262.68
1013.637	2241.66
1013.93	2271.49
1014.222	2254.09
1014.514	2226.52
1014.807	2206.18
1015.099	2210.93
1015.391	2181.33
1015.683	2167.77
1015.976	2158.28
1016.268	2140.65
1016.56	2116.02
1016.851	2134.1
1017.143	2080.31
1017.435	2084.15
1017.727	2064.95
1018.018	2050.93
1018.31	2026.08
1018.602	2051.16
1018.893	2014.1
1019.185	2011.16
1019.476	1996.02
1019.767	1962.8
1020.058	1975.23
1020.35	1952.41
1020.641	1923.93
1020.932	1869.02
1021.223	1929.58
1021.514	1878.06
1021.804	1845.29
1022.095	1863.82
1022.386	1873.99
1022.677	1810.94
1022.967	1834.22
1023.258	1831.51
1023.548	1820.21
1023.839	1771.85
1024.129	1762.58
1024.419	1798.74
1024.709	1736.14
1025	1751.06
1025.29	1710.83
1025.58	1694.79
1025.87	1690.27
1026.16	1673.77
1026.449	1667.89
1026.739	1662.02
1027.029	1640.55
1027.319	1631.51
1027.608	1638.97
1027.898	1595.13
1028.187	1596.94
1028.477	1583.83
1028.766	1570.5
1029.055	1585.86
1029.344	1568.91
1029.634	1551.96
1029.923	1544.06
1030.212	1501.8
1030.501	1512.87
1030.79	1520.1
1031.078	1504.96
1031.367	1471.29
1031.656	1462.7
1031.945	1450.05
1032.233	1443.27
1032.522	1430.84
1032.81	1418.86
1033.099	1403.95
1033.387	1395.36
1033.675	1405.75
1033.963	1377.96
1034.251	1377.73
1034.54	1387.68
1034.828	1374.79
1035.116	1362.82
1035.403	1360.11
1035.691	1341.35
1035.979	1320.11
1036.267	1333.44
1036.554	1271.97
1036.842	1264.29
1037.129	1289.82
1037.417	1300.22
1037.704	1286.66
1037.992	1282.14
1038.279	1266.1
1038.566	1249.6
1038.853	1249.6
1039.14	1249.6
