Data from orange_diffuse_book_FLMS001491_00035.txt Node
Date: Wed Feb 08 15:29:28 GMT 2017
User: dcchb
Spectrometer: FLMS00149
Trigger mode: 0
Integration Time (sec): 2.000000E-2
Scans to average: 10
Electric dark correction enabled: true
Nonlinearity correction enabled: false
Boxcar width: 0
XAxis mode: Wavelengths
Number of Pixels in Spectrum: 2048
>>>>>Begin Spectral Data<<<<<
341.393	0.17
341.776	0.17
342.16	0.17
342.543	-61.07
342.927	-63.33
343.31	-77.57
343.693	-68.76
344.077	-54.97
344.46	-54.74
344.843	-46.38
345.226	-54.97
345.61	-16.78
345.993	-20.39
346.376	-2.99
346.759	14.18
347.142	25.93
347.525	39.94
347.908	48.3
348.291	65.93
348.674	105.03
349.057	98.25
349.44	152.93
349.823	143.22
350.206	171.92
350.588	220.73
350.971	236.55
351.354	252.14
351.737	260.73
352.119	264.34
352.502	279.03
352.884	282.65
353.267	282.2
353.65	307.28
354.032	326.26
354.414	344.12
354.797	321.74
355.179	347.73
355.562	341.4
355.944	347.5
356.326	344.57
356.709	331.91
357.091	333.95
357.473	373.49
357.855	354.51
358.238	347.73
358.62	351.57
359.002	359.71
359.384	344.57
359.766	355.87
360.148	361.74
360.53	379.37
360.912	350.89
361.294	372.14
361.676	337.79
362.057	369.88
362.439	344.12
362.821	339.82
363.203	354.74
363.584	340.05
363.966	322.19
364.348	343.44
364.729	345.25
365.111	331.23
365.493	326.26
365.874	350.67
366.256	347.5
366.637	324.68
367.019	331.46
367.4	337.34
367.781	342.53
368.163	340.05
368.544	326.94
368.925	328.97
369.306	326.71
369.688	316.77
370.069	327.62
370.45	329.43
370.831	350.67
371.212	326.49
371.593	326.04
371.974	357.9
372.355	344.34
372.736	339.82
373.117	321.52
373.498	352.48
373.879	328.07
374.26	327.62
374.641	339.37
375.021	367.62
375.402	355.41
375.783	339.6
376.163	352.25
376.544	355.19
376.925	319.03
377.305	325.36
377.686	329.65
378.066	326.04
378.447	343.44
378.827	349.76
379.208	356.54
379.588	339.14
379.968	347.28
380.349	369.65
380.729	334.17
381.109	345.92
381.489	349.99
381.87	370.56
382.25	371.91
382.63	365.81
383.01	383.66
383.39	348.63
383.77	373.04
384.15	386.6
384.53	383.21
384.91	385.24
385.29	372.14
385.67	376.2
386.049	363.55
386.429	380.72
386.809	390.89
387.189	381.18
387.568	392.02
387.948	382.08
388.328	392.93
388.707	394.51
389.087	389.54
389.466	380.5
389.846	410.1
390.225	392.48
390.605	398.8
390.984	386.37
391.363	404.45
391.743	392.02
392.122	389.99
392.501	405.13
392.881	400.16
393.26	389.54
393.639	396.32
394.018	404.68
394.397	409.88
394.776	413.49
395.155	433.6
395.534	398.58
395.913	390.89
396.292	423.66
396.671	420.27
397.05	416.88
397.429	421.85
397.808	421.4
398.186	408.75
398.565	439.48
398.944	412.36
399.323	441.29
399.701	438.12
400.08	418.01
400.458	426.6
400.837	437.67
401.215	476.77
401.594	447.39
401.972	443.1
402.351	430.67
402.729	449.2
403.107	437.45
403.486	448.75
403.864	452.36
404.242	443.32
404.62	465.92
404.999	493.04
405.377	452.14
405.755	466.82
406.133	473.83
406.511	461.4
406.889	492.59
407.267	465.47
407.645	496.2
408.023	490.33
408.401	507.27
408.779	487.84
409.156	503.89
409.534	524.22
409.912	513.83
410.29	514.73
410.667	537.33
411.045	525.13
411.422	516.77
411.8	530.1
412.178	521.51
412.555	514.28
412.933	547.73
413.31	548.63
413.687	554.28
414.065	532.81
414.442	571.45
414.819	563.77
415.197	565.35
415.574	569.19
415.951	557.22
416.328	564
416.705	566.48
417.082	567.39
417.46	583.88
417.837	583.66
418.214	606.71
418.591	578.91
418.967	609.19
419.344	571.68
419.721	590.44
420.098	599.7
420.475	613.26
420.852	607.61
421.228	613.26
421.605	618.23
421.982	619.36
422.358	627.72
422.735	643.77
423.111	654.39
423.488	654.39
423.864	632.7
424.241	637.44
424.617	640.83
424.994	655.75
425.37	660.49
425.746	649.42
426.123	683.77
426.499	684.22
426.875	676.54
427.251	681.73
427.627	711.11
428.003	685.35
428.379	723.09
428.756	716.76
429.132	723.09
429.507	719.47
429.883	751.11
430.259	730.32
430.635	729.42
431.011	761.28
431.387	753.14
431.763	788.17
432.138	785.23
432.514	775.74
432.89	774.16
433.265	780.94
433.641	823.42
434.016	813.03
434.392	830.2
434.767	808.28
435.143	843.76
435.518	830.88
435.894	845.8
436.269	842.18
436.644	835.85
437.02	847.15
437.395	862.07
437.77	888.06
438.145	902.52
438.52	886.25
438.895	897.1
439.271	893.71
439.646	907.26
440.021	920.6
440.395	941.39
440.77	917.89
441.145	944.55
441.52	940.71
441.895	941.61
442.27	963.99
442.645	948.62
443.019	952.46
443.394	973.93
443.769	952.91
444.143	934.61
444.518	976.87
444.892	982.97
445.267	992.46
445.641	988.84
446.016	983.19
446.39	975.96
446.764	995.4
447.139	1015.51
447.513	1024.32
447.887	1032.91
448.262	1039.01
448.636	1014.38
449.01	1052.35
449.384	1037.66
449.758	1068.62
450.132	1065.45
450.506	1063.42
450.88	1072.68
451.254	1070.2
451.628	1096.86
452.002	1078.56
452.376	1088.5
452.75	1107.94
453.123	1088.95
453.497	1106.81
453.871	1128.73
454.244	1116.52
454.618	1147.26
454.992	1161.72
455.365	1160.82
455.739	1190.42
456.112	1206.24
456.486	1196.75
456.859	1203.08
457.232	1254.6
457.606	1209.86
457.979	1228.84
458.352	1254.15
458.725	1290.31
459.099	1285.33
459.472	1286.01
459.845	1279.01
460.218	1329.63
460.591	1301.38
460.964	1315.39
461.337	1307.93
461.71	1358.33
462.083	1359
462.456	1350.87
462.829	1402.62
463.201	1403.3
463.574	1413.24
463.947	1427.93
464.32	1428.38
464.692	1458.21
465.065	1452.11
465.438	1467.02
465.81	1471.09
466.183	1472.9
466.555	1494.14
466.928	1531.2
467.3	1539.79
467.672	1570.3
468.045	1554.7
468.417	1581.82
468.789	1566.91
469.161	1576.63
469.534	1620.24
469.906	1643.29
470.278	1650.75
470.65	1688.94
471.022	1703.4
471.394	1717.41
471.766	1721.48
472.138	1726
472.51	1813
472.882	1821.59
473.253	1836.51
473.625	1848.26
473.997	1873.11
474.369	1890.52
474.74	1898.65
475.112	1934.36
475.484	1940.23
475.855	1962.15
476.227	1984.07
476.598	2022.04
476.97	2069.72
477.341	2078.76
477.713	2117.4
478.084	2115.59
478.455	2171.64
478.827	2221.35
479.198	2251.64
479.569	2249.6
479.94	2317.62
480.311	2298.19
480.682	2369.82
481.053	2439.43
481.424	2440.78
481.795	2477.62
482.166	2512.87
482.537	2515.81
482.908	2564.62
483.279	2623.83
483.65	2641.68
484.021	2703.38
484.391	2771.85
484.762	2753.77
485.133	2828.8
485.503	2830.38
485.874	2903.82
486.244	2956.02
486.615	2946.53
486.985	2973.88
487.356	3078.73
487.726	3065.85
488.097	3109.47
488.467	3151.95
488.837	3226.07
489.207	3304.94
489.578	3304.49
489.948	3345.17
490.318	3416.12
490.688	3379.74
491.058	3474.88
491.428	3527.31
491.798	3560.3
492.168	3658.6
492.538	3643.46
492.908	3708.77
493.278	3748.77
493.648	3795.32
494.017	3820.41
494.387	3842.33
494.757	3857.02
495.126	3954.64
495.496	4001.87
495.866	4078.03
496.235	4073.51
496.605	4097.91
496.974	4101.76
497.344	4181.75
497.713	4219.72
498.082	4255.88
498.452	4307.63
498.821	4339.94
499.19	4357.8
499.559	4388.08
499.928	4442.09
500.298	4442.09
500.667	4494.29
501.036	4535.64
501.405	4635.53
501.774	4577.45
502.143	4631.23
502.512	4687.28
502.88	4741.29
503.249	4758.69
503.618	4827.84
503.987	4808.86
504.356	4871.23
504.724	4851.12
505.093	4942.41
505.462	4993.94
505.83	4994.39
506.199	5049.75
506.567	5109.64
506.936	5088.62
507.304	5139.92
507.672	5203.42
508.041	5226.47
508.409	5282.74
508.777	5361.16
509.145	5322.74
509.514	5392.8
509.882	5415.39
510.25	5509.63
510.618	5480.25
510.986	5544.43
511.354	5569.06
511.722	5616.07
512.09	5656.07
512.458	5683.41
512.826	5691.77
513.193	5735.16
513.561	5811.09
513.929	5809.51
514.297	5910.07
514.664	5925.21
515.032	5989.62
515.4	6023.06
515.767	6027.13
516.135	6040.01
516.502	6011.54
516.869	6125.88
517.237	6233.45
517.604	6221.47
517.972	6255.15
518.339	6351.64
518.706	6297.41
519.073	6368.82
519.44	6391.87
519.808	6526.1
520.175	6514.57
520.542	6582.82
520.909	6571.75
521.276	6606.32
521.643	6734.91
522.009	6747.56
522.376	6814.68
522.743	6875.02
523.11	6902.59
523.477	6942.13
523.843	6955.47
524.21	7077.5
524.577	7147.1
524.943	7153.43
525.31	7145.97
525.676	7301.22
526.043	7284.27
526.409	7355.46
526.776	7406.75
527.142	7433.65
527.508	7495.34
527.874	7524.27
528.241	7597.26
528.607	7584.6
528.973	7646.3
529.339	7714.54
529.705	7805.16
530.071	7848.32
530.437	7867.31
530.803	7925.16
531.169	7982.11
531.535	7988.43
531.901	8001.99
532.267	8098.26
532.632	8098.49
532.998	8071.6
533.364	8144.14
533.73	8177.36
534.095	8246.28
534.461	8306.84
534.826	8411.25
535.192	8377.35
535.557	8432.04
535.923	8458.48
536.288	8528.08
536.653	8541.87
537.019	8484.69
537.384	8515.65
537.749	8602.2
538.114	8580.96
538.479	8666.83
538.845	8658.02
539.21	8741.86
539.575	8800.16
539.94	8811.46
540.305	8860.73
540.67	8838.81
541.034	8873.83
541.399	8992.48
541.764	8971.23
542.129	9062.53
542.494	9032.02
542.858	9128.97
543.223	9075.86
543.587	9194.28
543.952	9193.15
544.316	9216.2
544.681	9268.85
545.045	9321.28
545.41	9378.45
545.774	9397.89
546.138	9416.19
546.503	9450.77
546.867	9486.02
547.231	9583.42
547.595	9609.18
547.959	9676.3
548.324	9641.27
548.688	9692.57
549.052	9820.25
549.416	9805.56
549.779	9886.69
550.143	9820.93
550.507	9914.49
550.871	9951.32
551.235	9975.95
551.599	10040.81
551.962	10104.08
552.326	10166.23
552.689	10239.67
553.053	10161.71
553.417	10195.38
553.78	10386.79
554.143	10392.44
554.507	10501.81
554.87	10515.83
555.234	10686.67
555.597	10631.3
555.96	10700.23
556.323	10776.16
556.686	10799.89
557.05	10911.52
557.413	11086.88
557.776	11093.66
558.139	11096.83
558.502	11162.14
558.865	11242.13
559.228	11316.71
559.59	11304.73
559.953	11481.68
560.316	11608.23
560.679	11656.59
561.041	11683.03
561.404	11811.38
561.767	11917.14
562.129	11855.23
562.492	12074.2
562.854	12087.08
563.217	12243.69
563.579	12301.31
563.941	12422.67
564.304	12564.58
564.666	12666.28
565.028	12762.32
565.39	12843.67
565.753	12853.39
566.115	13020.17
566.477	13146.04
566.839	13270.33
567.201	13385.58
567.563	13453.38
567.925	13607.27
568.287	13720.71
568.648	13823.99
569.01	13948.73
569.372	14153.47
569.734	14177.88
570.095	14390.98
570.457	14488.38
570.819	14710.07
571.18	14826.45
571.542	14985.99
571.903	15081.81
572.265	15196.38
572.626	15501.68
572.987	15716.82
573.349	15829.81
573.71	16009.47
574.071	16138.5
574.432	16360.19
574.794	16580.98
575.155	16725.61
575.516	16988.88
575.877	17215.54
576.238	17371.46
576.599	17644.23
576.96	17824.33
577.32	18062.52
577.681	18314.04
578.042	18582.73
578.403	18840.13
578.763	19103.4
579.124	19344.75
579.485	19636.94
579.845	19911.96
580.206	20180.88
580.566	20481.21
580.927	20754.65
581.287	21198.71
581.648	21379.49
582.008	21795.53
582.368	21979.25
582.728	22374.27
583.089	22742.4
583.449	22978.77
583.809	23429.38
584.169	23726.78
584.529	23993.89
584.889	24585.96
585.249	24704.38
585.609	25054.65
585.969	25512.94
586.329	25963.78
586.688	26291.91
587.048	26742.74
587.408	27154.94
587.768	27577.07
588.127	27963.5
588.487	28246.88
588.846	28922.35
589.206	29096.13
589.565	29590.35
589.925	30089.1
590.284	30530.67
590.643	30974.95
591.003	31341.49
591.362	31955.04
591.721	32418.3
592.08	32716.37
592.44	33352.74
592.799	33742.33
593.158	34082.66
593.517	34500.28
593.876	34968.52
594.235	35333.93
594.593	35840.58
594.952	36523.28
595.311	36863.83
595.67	37260.21
596.029	37916.69
596.387	38360.06
596.746	38722.77
597.104	39041.18
597.463	39420.15
597.822	40113.92
598.18	40223.97
598.538	40712.32
598.897	41444.28
599.255	41478.85
599.613	42514.76
599.972	42478.37
600.33	42977.57
600.688	43288.97
601.046	43814.84
601.404	44124.88
601.762	44523.07
602.12	45056.16
602.478	45424.96
602.836	45712.64
603.194	45926.87
603.552	46327.31
603.91	46464.26
604.268	46923.23
604.625	47121.42
604.983	47597.79
605.341	47736.77
605.698	48258.56
606.056	48498.56
606.413	48717.76
606.771	48987.36
607.128	49343.96
607.485	49281.36
607.843	49628.47
608.2	49937.16
608.557	50247.21
608.914	50200.66
609.272	50714.32
609.629	50854.43
609.986	51064.59
610.343	51209.67
610.7	51482.88
611.057	51622.77
611.414	51716.32
611.771	51822.76
612.127	52141.17
612.484	52148.63
612.841	52378.68
613.198	52479.92
613.554	52574.38
613.911	52874.94
614.267	52981.38
614.624	53030.19
614.98	53116.96
615.337	53416.39
615.693	53368.26
616.05	53472.21
616.406	53673.56
616.762	53637.86
617.118	53756.04
617.475	53832.88
617.831	54029.94
618.187	54036.04
618.543	54191.29
618.899	54455.01
619.255	54413.43
619.611	54378.63
619.967	54508.34
620.323	54666.3
620.678	54560.77
621.034	54561.45
621.39	54585.63
621.746	54777.26
622.101	55026.07
622.457	54790.59
622.812	54849.8
623.168	54960.53
623.523	55029.91
623.879	55186.29
624.234	55043.47
624.589	55146.29
624.945	55206.18
625.3	55198.27
625.655	55222.67
626.01	55279.17
626.365	55300.64
626.72	55301.31
627.075	55287.53
627.43	55363.69
627.785	55346.74
628.14	55412.95
628.495	55449.33
628.85	55505.15
629.205	55353.74
629.559	55563.68
629.914	55463.8
630.269	55456.34
630.623	55451.82
630.978	55361.2
631.332	55600.52
631.687	55624.92
632.041	55448.66
632.396	55553.06
632.75	55436.23
633.104	55437.81
633.459	55395.55
633.813	55451.82
634.167	55374.98
634.521	55349.45
634.875	55457.69
635.229	55484.36
635.583	55339.73
635.937	55398.49
636.291	55336.57
636.645	55331.14
636.999	55325.95
637.352	55408.2
637.706	55339.73
638.06	55421.31
638.413	55284.59
638.767	55236.46
639.121	55346.74
639.474	55176.8
639.828	55098.83
640.181	55227.42
640.534	55220.86
640.888	55235.1
641.241	55059.51
641.594	55136.8
641.947	55236.46
642.301	55100.87
642.654	55183.13
643.007	55190.81
643.36	55105.61
643.713	55069.68
644.066	55221.54
644.419	55006.86
644.771	54826.75
645.124	54586.76
645.477	54534.1
645.83	54355.58
646.182	54305.18
646.535	54191.29
646.888	54304.96
647.24	54240.1
647.593	54391.06
647.945	54241.23
648.298	54162.81
648.65	54147.9
649.002	54027.22
649.355	54218.63
649.707	54135.92
650.059	54239.65
650.411	54614.33
650.763	54629.02
651.115	54892.74
651.467	54814.77
651.819	54758.73
652.171	54638.28
652.523	54684.83
652.875	54711.95
653.227	54572.07
653.578	54785.17
653.93	54717.15
654.282	54595.8
654.633	54599.64
654.985	54652.07
655.337	54629.02
655.688	54654.78
656.039	54765.06
656.391	54505.18
656.742	54584.5
657.094	54556.02
657.445	54671.73
657.796	54637.6
658.147	54591.28
658.498	54545.85
658.849	54527.32
659.2	54693.42
659.551	54479.87
659.902	54659.3
660.253	54534.78
660.604	54574.1
660.955	54472.86
661.306	54568
661.656	54502.24
662.007	54521.67
662.358	54419.08
662.708	54445.97
663.059	54476.93
663.409	54397.61
663.76	54542.69
664.11	54517.38
664.461	54522.58
664.811	54447.1
665.161	54467.44
665.511	54376.14
665.862	54443.26
666.212	54437.61
666.562	54502.47
666.912	54464.5
667.262	54376.37
667.612	54384.95
667.962	54367.78
668.312	54402.81
668.662	54438.96
669.011	54307.44
669.361	54382.69
669.711	54314.45
670.06	54198.07
670.41	54178.18
670.76	54204.62
671.109	54291.17
671.459	54255.24
671.808	54193.55
672.157	54239.65
672.507	53985.64
672.856	54018.18
673.205	54106.54
673.554	54104.96
673.904	53990.39
674.253	54134.34
674.602	54110.61
674.951	53590.17
675.3	53446.67
675.649	53998.52
675.998	53945.87
676.346	54017.73
676.695	53951.29
677.044	53755.14
677.393	53873.1
677.741	53851.18
678.09	53860.9
678.438	53766.67
678.787	53917.62
679.135	53807.57
679.484	53552.66
679.832	53742.26
680.181	53627.69
680.529	53648.25
680.877	53529.61
681.225	53478.76
681.573	53710.85
681.922	53501.59
682.27	53366.9
682.618	53370.52
682.966	53333.46
683.314	53458.88
683.661	53285.32
684.009	53226.34
684.357	53095.72
684.705	53035.39
685.053	53111.77
685.4	53007.59
685.748	52939.57
686.095	52916.29
686.443	52801.27
686.79	52771.44
687.138	52894.15
687.485	52799.01
687.832	52664.32
688.18	52627.03
688.527	52497.32
688.874	52494.61
689.221	52408.73
689.568	52317.66
689.915	52251.9
690.262	52144.11
690.609	52134.17
690.956	52022.3
691.303	52053.94
691.65	51837.22
691.997	51742.09
692.344	51709.32
692.69	51625.03
693.037	51592.71
693.383	51448.99
693.73	51559.04
694.077	51236.34
694.423	51333.28
694.769	51277.24
695.116	51114.53
695.462	51084.25
695.808	50958.15
696.155	51005.83
696.501	50736.01
696.847	50741.21
697.193	50406.98
697.539	50650.36
697.885	50355
698.231	50208.34
698.577	50247.21
698.923	50145.74
699.269	49965.64
699.614	49817.39
699.96	49818.52
700.306	49796.83
700.651	49771.52
700.997	49523.16
701.342	49483.84
701.688	49359.32
702.033	49336.5
702.379	49282.94
702.724	49152.78
703.069	49103.29
703.415	48819.45
703.76	48845.44
704.105	48805.67
704.45	48716.4
704.795	48396.86
705.14	48326.13
705.485	48370.42
705.83	48172.91
706.175	48198
706.52	48099.02
706.865	47801.62
707.209	47882.53
707.554	47767.28
707.899	47721.4
708.243	47577.22
708.588	47579.03
708.932	47241.41
709.277	47254.75
709.621	47205.48
709.966	47025.83
710.31	47025.6
710.654	46767.98
710.998	46883
711.342	46861.99
711.687	46714.42
712.031	46677.13
712.375	46396.24
712.719	46615.21
713.063	46431.04
713.407	46521.43
713.75	46358.72
714.094	46310.36
714.438	45988.56
714.782	45987.43
715.125	45973.88
715.469	46013.42
715.812	45822.24
716.156	45622.02
716.499	45701.34
716.843	45613.89
717.186	45442.14
717.53	45698.63
717.873	45592.42
718.216	45444.62
718.559	45203.27
718.902	45010.74
719.246	45171.41
719.589	45001.47
719.932	44921.02
720.275	44883.51
720.617	44921.02
720.96	44805.09
721.303	44710.41
721.646	44716.06
721.989	44670.41
722.331	44628.6
722.674	44399.91
723.016	44475.61
723.359	44399
723.701	44404.43
724.044	44139.57
724.386	43959.47
724.729	44236.52
725.071	44132.12
725.413	44213.7
725.755	44126.92
726.097	43863.65
726.439	43680.6
726.782	43745.46
727.124	43940.71
727.465	43646.03
727.807	43570.32
728.149	43650.77
728.491	43531.23
728.833	43663.88
729.175	43416.88
729.516	43301.86
729.858	43337.11
730.199	43355.87
730.541	43211.01
730.882	43239.94
731.224	43295.98
731.565	43104.57
731.906	43081.07
732.248	43110.9
732.589	43017.8
732.93	42818.03
733.271	42824.81
733.612	42745.03
733.953	42894.86
734.294	42737.8
734.635	42587.98
734.976	42768.31
735.317	42654.42
735.658	42439.73
735.999	42475.66
736.339	42354.99
736.68	42587.07
737.021	42328.1
737.361	42177.82
737.702	42317.02
738.042	42183.69
738.383	42253.3
738.723	42176.69
739.063	42153.64
739.404	42282.45
739.744	42188.44
740.084	41992.96
740.424	41951.38
740.764	41790.94
741.104	41976.92
741.444	41672.97
741.784	41777.6
742.124	41740.09
742.464	41746.64
742.804	41700.77
743.143	41525.18
743.483	41432.3
743.823	41320.66
744.162	41377.84
744.502	41514.11
744.841	41234.11
745.181	41279.08
745.52	41192.76
745.86	41181.69
746.199	41279.54
746.538	41165.19
746.877	41148.47
747.216	41073.67
747.556	40932.88
747.895	41082.03
748.234	40873.22
748.573	40710.96
748.911	40765.43
749.25	40756.61
749.589	40659.67
749.928	40652.89
750.267	40581.93
750.605	40532.89
750.944	40438.43
751.283	40299.45
751.621	40377.64
751.96	40196.85
752.298	40200.24
752.636	40188.94
752.975	39996.63
753.313	39995.73
753.651	40119.11
753.989	39880.48
754.327	39808.84
754.666	39545.8
755.004	39668.05
755.342	39569.98
755.679	39539.02
756.017	39484.56
756.355	39470.77
756.693	39301.96
757.031	39313.49
757.368	39056.54
757.706	39086.15
758.044	38864.68
758.381	38947.39
758.719	38845.02
759.056	38901.29
759.394	38600.74
759.731	38401.87
760.068	38502.66
760.405	38228.09
760.743	38129.79
761.08	38309.22
761.417	37913.52
761.754	38006.4
762.091	37808.44
762.428	37757.59
762.765	37449.58
763.102	37667.2
763.438	37349.02
763.775	37227.67
764.112	37115.58
764.449	37439.19
764.785	36996.26
765.122	36870.16
765.458	36703.61
765.795	36726.44
766.131	36673.56
766.467	36557.63
766.804	36374.13
767.14	36194.02
767.476	36286.9
767.812	36011.43
768.148	36248.03
768.485	35903.63
768.821	35670.42
769.157	35690.3
769.492	35595.39
769.828	35588.61
770.164	35267.26
770.5	35226.36
770.836	35212.58
771.171	34940.95
771.507	34855.75
771.842	34622.54
772.178	34600.16
772.513	34529.66
772.849	34500.05
773.184	34220.06
773.519	34242.21
773.855	34107.97
774.19	33954.08
774.525	33815.1
774.86	33894.65
775.195	33928.77
775.53	33529.23
775.865	33492.4
776.2	33275.23
776.535	33023.71
776.87	32957.27
777.205	32926.54
777.539	32771.06
777.874	32716.6
778.209	32469.15
778.543	32334.46
778.878	32225.54
779.212	32329.26
779.547	32019.89
779.881	32110.06
780.215	31812.89
780.55	31996.39
780.884	31670.52
781.218	31637.3
781.552	31548.27
781.886	31337.42
782.22	31214.94
782.554	31198.67
782.888	30908.74
783.222	30833.03
783.556	30667.16
783.889	30563.89
784.223	30402.31
784.557	30392.59
784.89	30515.75
785.224	30232.14
785.557	30035.76
785.891	30100.85
786.224	29985.82
786.558	29885.03
786.891	29622.22
787.224	29532.5
787.557	29471.03
787.891	29585.61
788.224	29362.56
788.557	29302
788.89	29226.97
789.223	29193.3
789.556	28946.3
789.888	28923.25
790.221	28765.06
790.554	28599.87
790.887	28589.93
791.219	28445.75
791.552	28363.04
791.884	28346.09
792.217	28080.34
792.549	28052.31
792.882	27891.41
793.214	27836.05
793.546	27992.43
793.879	27608.48
794.211	27553.12
794.543	27656.62
794.875	27458.2
795.207	27550.41
795.539	27306.8
795.871	27370.52
796.203	26993.36
796.535	26897.54
796.867	26897.77
797.198	26778.45
797.53	26838.79
797.862	26700.48
798.193	26644.89
798.525	26437.44
798.856	26486.93
799.188	26209.2
799.519	26170.33
799.85	26004.91
800.182	26170.1
800.513	26030.67
800.844	25881.07
801.175	25941.86
801.506	25895.31
801.837	25717.23
802.168	25577.35
802.499	25547.29
802.83	25411.7
803.161	25275.21
803.491	25281.31
803.822	25288.54
804.153	25208.32
804.483	25089.68
804.814	24943.47
805.145	24989.79
805.475	24895.79
805.805	24847.65
806.136	24914.77
806.466	24795.22
806.796	24693.53
807.126	24557.72
807.457	24403.14
807.787	24470.71
808.117	24333.31
808.447	24119.08
808.777	24275.69
809.107	24182.13
809.436	24125.18
809.766	24105.98
810.096	24000.22
810.426	23825.53
810.755	23825.08
811.085	23702.6
811.414	23722.26
811.744	23579.89
812.073	23550.74
812.403	23540.34
812.732	23310.07
813.061	23360.23
813.39	23235.04
813.719	23185.55
814.049	23304.19
814.378	23211.54
814.707	23056.29
815.036	22960.24
815.365	22894.93
815.693	22749.4
816.022	22726.35
816.351	22702.4
816.68	22694.71
817.008	22590.76
817.337	22501.27
817.665	22426.92
817.994	22472.8
818.322	22411.33
818.651	22358.45
818.979	22235.52
819.307	22298.57
819.636	22292.01
819.964	22096.09
820.292	22177.21
820.62	22106.71
820.948	22045.69
821.276	22100.15
821.604	22053.6
821.932	22015.64
822.259	22016.09
822.587	22058.8
822.915	22016.54
823.243	22006.82
823.57	22031.91
823.898	22086.59
824.225	21904.9
824.553	21970.44
824.88	21880.27
825.207	22000.72
825.535	21827.62
825.862	22024.45
826.189	21912.14
826.516	22018.57
826.843	22061.28
827.17	22052.92
827.497	22090.89
827.824	21925.24
828.151	22010.89
828.478	21900.61
828.805	21971.12
829.131	22003.21
829.458	21758.92
829.785	21771.8
830.111	21823.1
830.438	21932.7
830.764	21939.93
831.09	21985.81
831.417	21855.41
831.743	21915.75
832.069	21918.24
832.395	21790.56
832.722	21815.42
833.048	21717.79
833.374	21771.12
833.7	21682.31
834.026	21817
834.351	21791.69
834.677	21707.4
835.003	21737.23
835.329	21598.92
835.654	21524.35
835.98	21495.2
836.306	21544.24
836.631	21492.03
836.956	21533.84
837.282	21556.66
837.607	21402.09
837.932	21427.18
838.258	21365.71
838.583	21364.81
838.908	21158.48
839.233	21275.09
839.558	21220.85
839.883	21174.08
840.208	21198.26
840.533	21118.03
840.858	20993.06
841.182	21077.58
841.507	21015.66
841.832	20915.33
842.156	20860.19
842.481	20950.13
842.805	20786.74
843.13	20734.09
843.454	20736.12
843.778	20595.79
844.103	20669.91
844.427	20560.98
844.751	20626.75
845.075	20421.1
845.399	20494.09
845.723	20346.75
846.047	20363.93
846.371	20239.64
846.695	20260.43
847.019	19950.38
847.343	19862.02
847.666	19852.3
847.99	19824.28
848.313	19723.27
848.637	19665.64
848.96	19676.71
849.284	19590.84
849.607	19361.24
849.931	19382.26
850.254	19285.76
850.577	19069.95
850.9	19029.73
851.223	18963.96
851.546	18907.69
851.869	18839
852.192	18977.75
852.515	18708.6
852.838	18640.58
853.161	18663.18
853.483	18610.98
853.806	18447.82
854.129	18383.19
854.451	18266.81
854.774	18234.94
855.096	18223.65
855.419	18116.98
855.741	18097.55
856.063	17920.15
856.385	17911.34
856.708	17956.31
857.03	17809.87
857.352	17784.79
857.674	17728.06
857.996	17596.32
858.318	17592.7
858.64	17678.12
858.961	17560.61
859.283	17506.15
859.605	17422.54
859.926	17387.51
860.248	17413.27
860.57	17281.3
860.891	17394.06
861.212	17210.56
861.534	17163.56
861.855	17175.09
862.176	17186.38
862.498	17136.89
862.819	17072.49
863.14	16903.68
863.461	17062.55
863.782	16987.29
864.103	16951.36
864.424	16962.66
864.745	16971.7
865.065	16826.85
865.386	16727.19
865.707	16685.83
866.027	16676.57
866.348	16696.23
866.668	16584.59
866.989	16655.32
867.309	16543.01
867.63	16600.86
867.95	16643.8
868.27	16547.98
868.59	16502.33
868.91	16463.01
869.23	16411.94
869.55	16290.14
869.87	16285.62
870.19	16348.67
870.51	16430.92
870.83	16370.36
871.15	16237.48
871.469	16272.96
871.789	16237.48
872.109	16223.92
872.428	16069.13
872.748	16184.6
873.067	16170.59
873.386	16082.01
873.706	16112.51
874.025	16010.82
874.344	15960.65
874.663	16025.74
874.982	15960.43
875.301	15929.92
875.62	15904.61
875.939	15805.18
876.258	15893.31
876.577	15861.9
876.896	15891.73
877.214	15735.12
877.533	15734.9
877.852	15714.11
878.17	15651.96
878.489	15766.53
878.807	15661.45
879.125	15659.19
879.444	15629.36
879.762	15573.32
880.08	15652.41
880.398	15451.51
880.716	15414.45
881.034	15418.07
881.352	15502.13
881.67	15384.4
881.988	15376.04
882.306	15342.82
882.624	15289.94
882.941	15134.23
883.259	15101.02
883.577	15094.46
883.894	15037.06
884.212	15101.92
884.529	15122.26
884.846	15116.83
885.164	14969.04
885.481	14960
885.798	14998.19
886.115	14877.74
886.432	14749.16
886.75	14776.05
887.067	14706.9
887.383	14695.38
887.7	14777.18
888.017	14640.24
888.334	14682.5
888.651	14604.08
888.967	14596.17
889.284	14505.1
889.6	14454.7
889.917	14482.27
890.233	14404.99
890.55	14265.56
890.866	14382.84
891.182	14270.3
891.498	14284.54
891.815	14117.31
892.131	14161.38
892.447	14116.63
892.763	14060.36
893.079	14014.49
893.395	13983.08
893.71	13962.74
894.026	13859.01
894.342	13877.09
894.657	13760.71
894.973	13670.32
895.289	13739.47
895.604	13755.51
895.92	13570.43
896.235	13646.36
896.55	13570.43
896.865	13484.79
897.181	13497.67
897.496	13453.38
897.811	13337.45
898.126	13312.14
898.441	13200.95
898.756	13239.6
899.071	13153.95
899.386	13139.71
899.7	13095.19
900.015	13059.04
900.33	12986.49
900.644	12861.07
900.959	12902.2
901.273	12868.98
901.588	12774.3
901.902	12669.67
902.216	12617.24
902.531	12650.68
902.845	12649.1
903.159	12484.59
903.473	12502.44
903.787	12457.24
904.101	12394.65
904.415	12467.86
904.729	12271.71
905.042	12319.39
905.356	12228.55
905.67	12230.81
905.984	12177.25
906.297	12177.48
906.611	12056.8
906.924	12083.69
907.237	12030.36
907.551	11944.49
907.864	11925.51
908.177	11835.11
908.491	11757.83
908.804	11664.5
909.117	11697.72
909.43	11707.43
909.743	11594.44
910.056	11525.74
910.368	11498.4
910.681	11485.52
910.994	11337.95
911.307	11363.03
911.619	11211.17
911.932	11236.94
912.244	11173.21
912.557	11157.39
912.869	11126.2
913.181	11069.93
913.494	11034.68
913.806	10944.29
914.118	10950.84
914.43	10886.21
914.742	10841.24
915.054	10735.03
915.366	10678.98
915.678	10721.7
915.99	10691.64
916.302	10592.43
916.613	10597.18
916.925	10526.9
917.236	10548.59
917.548	10427.24
917.859	10438.77
918.171	10379.56
918.482	10339.11
918.794	10265.66
919.105	10241.93
919.416	10139.79
919.727	10130.75
920.038	10068.15
920.349	10036.52
920.66	9984.99
920.971	9978.21
921.282	9979.57
921.593	9883.07
921.903	9914.03
922.214	9762.17
922.525	9716.98
922.835	9652.57
923.146	9617.09
923.456	9628.84
923.767	9532.57
924.077	9472.69
924.387	9465.46
924.697	9467.27
925.008	9410.32
925.318	9353.37
925.628	9393.14
925.938	9321.96
926.248	9269.76
926.558	9164.22
926.867	9236.99
927.177	9123.55
927.487	9143.88
927.796	9048.29
928.106	9029.31
928.416	8964.91
928.725	8966.94
929.034	8892.82
929.344	8891.24
929.653	8785.02
929.962	8776.21
930.271	8764.91
930.581	8692.82
930.89	8634.52
931.199	8631.35
931.508	8575.76
931.817	8584.58
932.125	8540.74
932.434	8543.9
932.743	8425.26
933.051	8413.28
933.36	8334.87
933.669	8326.96
933.977	8321.76
934.286	8256.9
934.594	8220.97
934.902	8156.34
935.21	8169.22
935.519	8157.02
935.827	8082.44
936.135	8068.43
936.443	7995.44
936.751	7954.08
937.059	7943.01
937.367	7792.73
937.674	7867.08
937.982	7791.15
938.29	7860.08
938.597	7766.74
938.905	7698.5
939.213	7677.71
939.52	7620.31
939.827	7649.46
940.135	7544.38
940.442	7507.32
940.749	7550.25
941.056	7563.36
941.363	7391.61
941.67	7465.51
941.977	7342.12
942.284	7289.02
942.591	7257.83
942.898	7284.27
943.205	7252.86
943.511	7203.37
943.818	7241.11
944.125	7167.89
944.431	7136.71
944.738	7112.98
945.044	7116.14
945.35	7062.36
945.657	7036.14
945.963	7025.07
946.269	6963.38
946.575	6944.17
946.881	6894.23
947.187	6849.48
947.493	6811.29
947.799	6814.68
948.105	6736.04
948.41	6740.78
948.716	6732.65
949.022	6651.07
949.327	6678.41
949.633	6564.74
949.938	6597.28
950.244	6526.55
950.549	6514.8
950.854	6471.19
951.16	6473.22
951.465	6446.1
951.77	6399.1
952.075	6387.8
952.38	6435.03
952.685	6402.71
952.99	6263.28
953.294	6263.51
953.599	6230.97
953.904	6226.67
954.209	6171.98
954.513	6204.53
954.818	6117.3
955.122	6117.75
955.426	6028.49
955.731	6072.1
956.035	6099.22
956.339	5986.45
956.643	5985.32
956.948	5929.73
957.252	5917.75
957.556	5889.51
957.86	5842.05
958.163	5809.06
958.467	5768.15
958.771	5800.02
959.075	5760.47
959.378	5737.19
959.682	5725.67
959.985	5703.97
960.289	5650.87
960.592	5625.56
960.896	5576.52
961.199	5557.54
961.502	5552.79
961.805	5517.09
962.108	5494.26
962.411	5466.92
962.714	5411.78
963.017	5412.68
963.32	5448.39
963.623	5382.4
963.926	5419.91
964.228	5308.28
964.531	5321.84
964.833	5275.06
965.136	5269.64
965.438	5256.3
965.741	5209.07
966.043	5196.87
966.345	5179.24
966.648	5176.76
966.95	5150.99
967.252	5100.6
967.554	5101.73
967.856	5027.83
968.158	5021.73
968.46	5006.59
968.761	4985.12
969.063	4981.06
969.365	4949.87
969.666	4952.81
969.968	4923.2
970.269	4829.65
970.571	4866.26
970.872	4828.74
971.174	4807.5
971.475	4780.61
971.776	4762.98
972.077	4717.56
972.378	4751.01
972.679	4718.01
972.98	4734.96
973.281	4719.59
973.582	4673.94
973.883	4638.47
974.183	4610.9
974.484	4594.4
974.785	4566.83
975.085	4538.81
975.386	4557.79
975.686	4557.56
975.986	4504.46
976.287	4464.68
976.587	4479.83
976.887	4436.89
977.187	4408.64
977.487	4412.03
977.787	4339.72
978.087	4357.57
978.387	4306.04
978.687	4314.41
978.987	4240.96
979.286	4287.51
979.586	4254.07
979.885	4235.54
980.185	4174.07
980.484	4161.42
980.784	4111.25
981.083	4129.55
981.382	4119.38
981.682	4084.13
981.981	4102.89
982.28	4074.19
982.579	4051.36
982.878	4024.7
983.177	4012.04
983.475	4030.8
983.774	3979.05
984.073	3980.4
984.372	3906.28
984.67	3952.83
984.969	3938.15
985.267	3903.57
985.566	3866.06
985.864	3852.5
986.162	3854.53
986.461	3810.92
986.759	3771.6
987.057	3720.98
987.355	3821.76
987.653	3741.99
987.951	3729.11
988.249	3716.46
988.547	3695.67
988.844	3660.86
989.142	3637.14
989.44	3641.88
989.737	3640.3
990.035	3569.34
990.332	3608.44
990.63	3565.95
990.927	3558.49
991.224	3551.94
991.521	3530.92
991.819	3514.88
992.116	3488.67
992.413	3457.71
992.71	3450.02
993.006	3435.33
993.303	3431.72
993.6	3432.85
993.897	3382.45
994.193	3353.75
994.49	3351.72
994.787	3367.99
995.083	3326.64
995.379	3302.91
995.676	3291.83
995.972	3311.49
996.268	3276.02
996.565	3243.7
996.861	3174.55
997.157	3185.62
997.453	3210.71
997.749	3150.6
998.044	3156.7
998.34	3146.3
998.636	3152.4
998.932	3078.28
999.227	3093.42
999.523	3065.63
999.818	3069.92
1000.114	3027.66
1000.409	3026.76
1000.704	2979.53
1001	2979.07
1001.295	2996.47
1001.59	2974.78
1001.885	2949.92
1002.18	2896.82
1002.475	2908.12
1002.77	2887.78
1003.065	2863.37
1003.359	2876.25
1003.654	2835.12
1003.949	2824.73
1004.243	2840.55
1004.538	2775.46
1004.832	2733.2
1005.127	2753.32
1005.421	2730.95
1005.715	2744.28
1006.009	2664.28
1006.304	2711.51
1006.598	2705.64
1006.892	2727.56
1007.186	2660.21
1007.48	2654.11
1007.773	2632.19
1008.067	2593.1
1008.361	2601.68
1008.655	2542.02
1008.948	2570.5
1009.242	2560.55
1009.535	2538.63
1009.829	2532.98
1010.122	2505.41
1010.415	2488.69
1010.708	2468.58
1011.001	2454.12
1011.295	2434.46
1011.588	2433.78
1011.881	2379.32
1012.173	2385.64
1012.466	2389.94
1012.759	2305.87
1013.052	2318.3
1013.344	2340.22
1013.637	2304.74
1013.93	2308.13
1014.222	2293.22
1014.514	2269.49
1014.807	2242.6
1015.099	2239.21
1015.391	2249.38
1015.683	2251.18
1015.976	2194.91
1016.268	2182.48
1016.56	2166.67
1016.851	2174.58
1017.143	2148.81
1017.435	2131.19
1017.727	2121.47
1018.018	2107.46
1018.31	2112.66
1018.602	2110.62
1018.893	2075.82
1019.185	2039.89
1019.476	2043.73
1019.767	2013.45
1020.058	2030.85
1020.35	1994.69
1020.641	1961.93
1020.932	1964.64
1021.223	1937.07
1021.514	1945.88
1021.804	1950.85
1022.095	1888.71
1022.386	1890.52
1022.677	1855.26
1022.967	1865.66
1023.258	1884.19
1023.548	1862.72
1023.839	1850.52
1024.129	1823.4
1024.419	1784.98
1024.709	1806.9
1025	1744.53
1025.29	1763.51
1025.58	1749.5
1025.87	1749.05
1026.16	1727.81
1026.449	1738.65
1026.739	1695.49
1027.029	1686.68
1027.319	1667.47
1027.608	1671.99
1027.898	1657.53
1028.187	1648.49
1028.477	1659.56
1028.766	1631.31
1029.055	1614.59
1029.344	1608.04
1029.634	1607.13
1029.923	1584.76
1030.212	1559.9
1030.501	1564.42
1030.79	1575.95
1031.078	1535.04
1031.367	1521.03
1031.656	1513.35
1031.945	1490.98
1032.233	1517.64
1032.522	1462.96
1032.81	1452.56
1033.099	1439.68
1033.387	1448.49
1033.675	1437.42
1033.963	1437.19
1034.251	1422.5
1034.54	1408.72
1034.828	1396.74
1035.116	1397.87
1035.403	1411.88
1035.691	1383.86
1035.979	1341.6
1036.267	1367.14
1036.554	1325.33
1036.842	1340.25
1037.129	1326.24
1037.417	1286.24
1037.704	1309.74
1037.992	1294.15
1038.279	1272.45
1038.566	1284.2
1038.853	1284.2
1039.14	1284.2
