Data from orange_diffuse_book_FLMS001491_00097.txt Node
Date: Wed Feb 08 15:30:19 GMT 2017
User: dcchb
Spectrometer: FLMS00149
Trigger mode: 0
Integration Time (sec): 2.000000E-2
Scans to average: 10
Electric dark correction enabled: true
Nonlinearity correction enabled: false
Boxcar width: 0
XAxis mode: Wavelengths
Number of Pixels in Spectrum: 2048
>>>>>Begin Spectral Data<<<<<
341.393	-20.8
341.776	-20.8
342.16	-20.8
342.543	-56.74
342.927	-72.55
343.31	-61.71
343.693	-63.52
344.077	-58.77
344.46	-49.96
344.843	-45.89
345.226	-30.52
345.61	-28.04
345.993	-40.24
346.376	-36.62
346.759	-3.63
347.142	46.31
347.525	50.38
347.908	48.57
348.291	78.18
348.674	97.16
349.057	98.29
349.44	118.17
349.823	140.77
350.206	165.18
350.588	210.38
350.971	219.64
351.354	244.73
351.737	230.49
352.119	248.79
352.502	283.37
352.884	264.16
353.267	288.57
353.65	295.12
354.032	315.46
354.414	329.92
354.797	330.82
355.179	335.12
355.562	353.87
355.944	330.82
356.326	362.91
356.709	344.84
357.091	360.65
357.473	350.49
357.855	373.31
358.238	357.94
358.62	355.91
359.002	344.61
359.384	348.9
359.766	351.39
360.148	353.42
360.53	372.41
360.912	359.75
361.294	332.18
361.676	336.47
362.057	342.8
362.439	346.19
362.821	331.28
363.203	335.12
363.584	358.39
363.966	326.98
364.348	367.21
364.729	339.41
365.111	325.18
365.493	359.52
365.874	348.9
366.256	322.92
366.637	319.3
367.019	321.11
367.4	332.63
367.781	312.07
368.163	336.47
368.544	331.73
368.925	304.84
369.306	324.5
369.688	317.94
370.069	314.55
370.45	327.21
370.831	328.79
371.212	319.53
371.593	313.42
371.974	336.02
372.355	343.48
372.736	345.06
373.117	315.68
373.498	340.09
373.879	331.05
374.26	318.4
374.641	342.8
375.021	322.01
375.402	316.36
375.783	331.73
376.163	338.28
376.544	344.16
376.925	365.85
377.305	325.63
377.686	335.8
378.066	353.42
378.447	354.33
378.827	354.55
379.208	331.5
379.588	349.13
379.968	351.16
380.349	350.49
380.729	366.3
381.109	337.38
381.489	315.68
381.87	357.94
382.25	362.69
382.63	338.73
383.01	352.74
383.39	364.95
383.77	341.67
384.15	371.95
384.53	347.77
384.91	348
385.29	364.72
385.67	348.68
386.049	377.38
386.429	357.04
386.809	362.91
387.189	364.72
387.568	348
387.948	387.32
388.328	387.77
388.707	364.5
389.087	363.14
389.466	364.72
389.846	385.74
390.225	367.43
390.605	371.28
390.984	382.12
391.363	372.86
391.743	384.38
392.122	371.5
392.501	401.33
392.881	390.26
393.26	360.43
393.639	403.37
394.018	387.09
394.397	394.78
394.776	385.74
395.155	402.24
395.534	392.07
395.913	400.65
396.292	395.68
396.671	423.25
397.05	436.13
397.429	414.44
397.808	391.16
398.186	413.76
398.565	417.6
398.944	412.18
399.323	405.62
399.701	407.88
400.08	420.54
400.458	434.32
400.837	423.7
401.215	422.8
401.594	433.42
401.972	426.64
402.351	429.58
402.729	430.48
403.107	414.21
403.486	444.27
403.864	435.91
404.242	448.56
404.62	446.98
404.999	457.15
405.377	444.72
405.755	449.24
406.133	435.45
406.511	465.06
406.889	449.92
407.267	456.92
407.645	456.7
408.023	463.25
408.401	463.7
408.779	471.84
409.156	474.32
409.534	462.57
409.912	478.84
410.29	472.74
410.667	483.36
411.045	496.24
411.422	486.75
411.8	481.33
412.178	509.13
412.555	516.81
412.933	497.37
413.31	512.29
413.687	511.16
414.065	532.63
414.442	517.71
414.819	547.99
415.197	526.53
415.574	527.88
415.951	546.41
416.328	532.4
416.705	518.62
417.082	546.41
417.46	536.47
417.837	565.39
418.214	543.25
418.591	546.86
418.967	538.05
419.344	571.72
419.721	570.59
420.098	564.04
420.475	573.98
420.852	578.05
421.228	587.54
421.605	566.98
421.982	580.31
422.358	593.19
422.735	589.12
423.111	594.77
423.488	609.69
423.864	604.26
424.241	618.73
424.617	625.28
424.994	616.01
425.37	606.3
425.746	609.91
426.123	625.96
426.499	642.45
426.875	632.06
427.251	653.08
427.627	628.9
428.003	666.18
428.379	653.53
428.756	666.41
429.132	672.96
429.507	698.5
429.883	679.29
430.259	709.8
430.635	700.98
431.011	693.07
431.387	709.35
431.763	722.68
432.138	691.49
432.514	754.54
432.89	740.76
433.265	757.25
433.641	732.17
434.016	766.75
434.392	742.34
434.767	797.93
435.143	772.17
435.518	791.15
435.894	788.44
436.269	776.01
436.644	822.34
437.02	805.61
437.395	825.5
437.77	819.4
438.145	860.08
438.52	835.67
438.895	847.42
439.271	865.95
439.646	868.89
440.021	842.68
440.395	851.49
440.77	858.04
441.145	877.02
441.52	854.2
441.895	856.46
442.27	866.86
442.645	874.31
443.019	882.22
443.394	872.51
443.769	902.79
444.143	882.45
444.518	928.32
444.892	901.88
445.267	875.67
445.641	901.66
446.016	919.28
446.39	904.82
446.764	936.91
447.139	932.16
447.513	934.42
447.887	951.37
448.262	928.32
448.636	962.45
449.01	957.47
449.384	947.53
449.758	938.94
450.132	960.41
450.506	968.55
450.88	972.16
451.254	971.49
451.628	979.4
452.002	992.73
452.376	998.38
452.75	999.73
453.123	1003.12
453.497	1015.78
453.871	1028.43
454.244	1038.6
454.618	1049.45
454.992	1056.91
455.365	1023.24
455.739	1072.95
456.112	1093.97
456.486	1084.25
456.859	1082.67
457.232	1077.02
457.606	1118.15
457.979	1143.23
458.352	1140.75
458.725	1127.64
459.099	1126.74
459.472	1155.66
459.845	1168.54
460.218	1183.23
460.591	1143.91
460.964	1193.4
461.337	1205.6
461.71	1208.09
462.083	1234.76
462.456	1201.76
462.829	1204.02
463.201	1211.48
463.574	1229.11
463.947	1279.73
464.32	1265.72
464.692	1304.13
465.065	1287.18
465.438	1293.06
465.81	1268.88
466.183	1313.17
466.555	1316.79
466.928	1296
467.3	1332.38
467.672	1353.4
468.045	1369.89
468.417	1379.16
468.789	1374.64
469.161	1380.97
469.534	1414.19
469.906	1393.62
470.278	1428.2
470.65	1466.16
471.022	1473.17
471.394	1463.45
471.766	1472.49
472.138	1479.72
472.51	1526.5
472.882	1559.94
473.253	1534.41
473.625	1578.7
473.997	1609.21
474.369	1620.73
474.74	1590.45
475.112	1649.43
475.484	1643.78
475.855	1732.14
476.227	1701.18
476.598	1725.59
476.97	1761.07
477.341	1767.62
477.713	1776.21
478.084	1773.27
478.455	1855.76
478.827	1865.47
479.198	1936.43
479.569	1893.04
479.94	1958.58
480.311	1949.31
480.682	2000.84
481.053	2021.18
481.424	2056.2
481.795	2111.12
482.166	2114.05
482.537	2154.28
482.908	2186.37
483.279	2182.3
483.65	2227.5
484.021	2286.03
484.391	2300.94
484.762	2300.26
485.133	2365.8
485.503	2344.56
485.874	2416.42
486.244	2419.58
486.615	2473.37
486.985	2520.6
487.356	2515.85
487.726	2566.7
488.097	2603.08
488.467	2631.78
488.837	2682.85
489.207	2699.58
489.578	2739.35
489.948	2814.6
490.318	2853.24
490.688	2837.65
491.058	2907.48
491.428	2914.49
491.798	2994.94
492.168	3002.84
492.538	3014.6
492.908	3052.33
493.278	3109.06
493.648	3109.06
494.017	3160.35
494.387	3184.76
494.757	3258.43
495.126	3257.75
495.496	3290.07
495.866	3351.76
496.235	3360.8
496.605	3443.96
496.974	3438.31
497.344	3471.98
497.713	3488.03
498.082	3542.04
498.452	3549.05
498.821	3613
499.19	3605.31
499.559	3662.71
499.928	3685.99
500.298	3746.55
500.667	3772.99
501.036	3803.05
501.405	3780
501.774	3836.5
502.143	3880.79
502.512	3875.59
502.88	3935.7
503.249	3939.32
503.618	4014.57
503.987	3989.94
504.356	4057.05
504.724	4099.77
505.093	4085.3
505.462	4084.17
505.83	4167.56
506.199	4199.65
506.567	4255.69
506.936	4243.49
507.304	4327.78
507.672	4322.58
508.041	4384.96
508.409	4409.81
508.777	4433.09
509.145	4439.87
509.514	4519.42
509.882	4506.08
510.25	4526.19
510.618	4583.82
510.986	4609.58
511.354	4657.94
511.722	4712.18
512.09	4720.09
512.458	4699.98
512.826	4760.99
513.193	4801.44
513.561	4826.3
513.929	4838.5
514.297	4932.96
514.664	4953.98
515.032	4934.77
515.4	5014.09
515.767	4998.05
516.135	5015.22
516.502	5072.39
516.869	5091.83
517.237	5171.38
517.604	5156.91
517.972	5218.38
518.339	5261.09
518.706	5283.46
519.073	5311.26
519.44	5351.71
519.808	5355.55
520.175	5433.97
520.542	5451.37
520.909	5503.34
521.276	5456.34
521.643	5504.47
522.009	5587.18
522.376	5629.89
522.743	5689.33
523.11	5741.08
523.477	5744.47
523.843	5748.08
524.21	5835.54
524.577	5902.43
524.943	5966.38
525.31	5943.33
525.676	5993.27
526.043	6051.58
526.409	6060.84
526.776	6128.41
527.142	6106.49
527.508	6191.91
527.874	6204.12
528.241	6266.04
528.607	6297.67
528.973	6323.21
529.339	6352.81
529.705	6396.2
530.071	6475.75
530.437	6496.31
530.803	6521.62
531.169	6512.36
531.535	6507.84
531.901	6581.28
532.267	6632.35
532.632	6681.39
532.998	6690.66
533.364	6722.52
533.73	6693.82
534.095	6811.11
534.461	6793.71
534.826	6809.52
535.192	6880.26
535.557	6907.6
535.923	6902.4
536.288	6895.85
536.653	6915.28
537.019	6967.49
537.384	7045.45
537.749	7019.24
538.114	7113.47
538.479	7124.32
538.845	7113.47
539.21	7187.37
539.575	7234.15
539.94	7176.07
540.305	7255.84
540.67	7208.16
541.034	7323.41
541.399	7324.99
541.764	7353.92
542.129	7381.49
542.494	7402.73
542.858	7429.17
543.223	7487.92
543.587	7561.59
543.952	7556.85
544.316	7560.92
544.681	7559.34
545.045	7699.9
545.41	7754.13
545.774	7673.68
546.138	7734.7
546.503	7869.16
546.867	7822.15
547.231	7860.57
547.595	7906.44
547.959	7910.74
548.324	7966.33
548.688	8041.36
549.052	8000.45
549.416	8109.38
549.779	8110.06
550.143	8166.55
550.507	8227.34
550.871	8194.57
551.235	8204.97
551.599	8348.24
551.962	8354.12
552.326	8390.73
552.689	8486.77
553.053	8472.08
553.417	8526.77
553.78	8658.52
554.143	8606.09
554.507	8619.42
554.87	8712.53
555.234	8868.91
555.597	8764.95
555.96	8885.4
556.323	8973.08
556.686	9013.08
557.05	9088.56
557.413	9193.42
557.776	9172.85
558.139	9239.52
558.502	9254.21
558.865	9374.88
559.228	9463.47
559.59	9465.5
559.953	9521.77
560.316	9647.87
560.679	9677.47
561.041	9761.76
561.404	9794.76
561.767	9961.53
562.129	9934.64
562.492	10082.21
562.854	10150.68
563.217	10130.79
563.579	10291.47
563.941	10383.89
564.304	10493.27
564.666	10624.57
565.028	10693.04
565.39	10745.92
565.753	10830.44
566.115	11007.83
566.477	11093.48
566.839	11099.13
567.201	11289.18
567.563	11292.34
567.925	11499.12
568.287	11586.8
568.648	11670.87
569.01	11848.04
569.372	12073.57
569.734	12091.42
570.095	12206.22
570.457	12415.25
570.819	12493.67
571.18	12581.12
571.542	12795.81
571.903	12981.57
572.265	13204.38
572.626	13331.84
572.987	13518.5
573.349	13682.56
573.71	13828.77
574.071	13961.2
574.432	14141.31
574.794	14414.07
575.155	14642.31
575.516	14746.49
575.877	15015.86
576.238	15233.94
576.599	15590.08
576.96	15782.4
577.32	15903.07
577.681	16158.66
578.042	16405.88
578.403	16754.12
578.763	16954.79
579.124	17257.39
579.485	17599.75
579.845	17923.58
580.206	18093.75
580.566	18534.41
580.927	18785.25
581.287	19280.61
581.648	19344.11
582.008	19715.17
582.368	20058.44
582.728	20302.5
583.089	20765.77
583.449	21085.31
583.809	21514.45
584.169	21945.85
584.529	22265.62
584.889	22700.18
585.249	22896.11
585.609	23293.16
585.969	23921.16
586.329	24214.72
586.688	24595.95
587.048	25070.74
587.408	25550.27
587.768	25906.2
588.127	26247.43
588.487	26673.41
588.846	27395.88
589.206	27607.62
589.565	28046.25
589.925	28663.19
590.284	28925.1
590.643	29394.02
591.003	29988.8
591.362	30365.97
591.721	30927.53
592.08	31374.3
592.44	31855.87
592.799	32335.41
593.158	32814.49
593.517	33318.88
593.876	33803.39
594.235	34263.49
594.593	34896.7
594.952	35348.66
595.311	35683.34
595.67	36230.22
596.029	36966.7
596.387	37422.96
596.746	37741.14
597.104	38177.06
597.463	38558.07
597.822	39177.03
598.18	39415.22
598.538	39995.54
598.897	40552.37
599.255	40492.71
599.613	41664.65
599.972	41722.73
600.33	42387.12
600.688	42553.67
601.046	43086.76
601.404	43483.81
601.762	43881.09
602.12	44520.62
602.478	44888.07
602.836	45230.21
603.194	45363.76
603.552	45710.42
603.91	46075.84
604.268	46479.89
604.625	46781.81
604.983	47116.71
605.341	47253.88
605.698	47914.88
606.056	48213.86
606.413	48337.7
606.771	48694.98
607.128	48926.83
607.485	49120.73
607.843	49368.63
608.2	49738.79
608.557	50089.29
608.914	50083.87
609.272	50409.51
609.629	50706.22
609.986	50984.41
610.343	50904.18
610.7	51354.79
611.057	51489.71
611.414	51524.51
611.771	51733.54
612.127	51978.28
612.484	52107.54
612.841	52298.5
613.198	52313.19
613.554	52522.22
613.911	52757.02
614.267	52819.61
614.624	52881.08
614.98	53114.52
615.337	53266.83
615.693	53346.83
616.05	53361.29
616.406	53715.86
616.762	53615.3
617.118	53674.73
617.475	53846.93
617.831	53901.39
618.187	54035.63
618.543	54195.85
618.899	54297.54
619.255	54337.54
619.611	54428.16
619.967	54542.51
620.323	54689.85
620.678	54579.12
621.034	54525.78
621.39	54606.01
621.746	54566.23
622.101	54975.72
622.457	54764.42
622.812	54858.43
623.168	55081.93
623.523	55097.29
623.879	55144.52
624.234	54953.12
624.589	55138.65
624.945	55203.51
625.3	55270.62
625.655	55277.4
626.01	55250.51
626.365	55337.51
626.72	55348.14
627.075	55265.65
627.43	55312.66
627.785	55315.37
628.14	55424.07
628.495	55505.65
628.85	55488.47
629.205	55439.88
629.559	55611.18
629.914	55452.99
630.269	55517.62
630.623	55494.57
630.978	55480.33
631.332	55588.58
631.687	55627.22
632.041	55492.54
632.396	55588.58
632.75	55482.37
633.104	55602.59
633.459	55432.88
633.813	55526.44
634.167	55419.32
634.521	55401.02
634.875	55499.54
635.229	55417.06
635.583	55312.43
635.937	55346.78
636.291	55327.57
636.645	55396.72
636.999	55383.61
637.352	55404.63
637.706	55346.78
638.06	55455.48
638.413	55322.6
638.767	55296.16
639.121	55360.11
639.474	55142.04
639.828	55225.88
640.181	55299.55
640.534	55241.47
640.888	55124.41
641.241	55156.05
641.594	55183.17
641.947	55203.51
642.301	55178.2
642.654	55237.86
643.007	55223.62
643.36	55233.11
643.713	55129.16
644.066	55334.8
644.419	54994.7
644.771	54868.6
645.124	54604.2
645.477	54620.02
645.83	54450.76
646.182	54387.26
646.535	54290.31
646.888	54402.85
647.24	54165.34
647.593	54435.62
647.945	54330.08
648.298	54128.05
648.65	54173.02
649.002	54109.75
649.355	54192.69
649.707	54174.61
650.059	54304.32
650.411	54690.3
650.763	54636.29
651.115	54963.06
651.467	54870.41
651.819	54874.7
652.171	54784.99
652.523	54800.35
652.875	54706.8
653.227	54643.75
653.578	54897.98
653.93	54741.37
654.282	54707.7
654.633	54699.34
654.985	54680.81
655.337	54722.61
655.688	54673.58
656.039	54848.26
656.391	54605.33
656.742	54544.99
657.094	54660.47
657.445	54786.34
657.796	54667.02
658.147	54661.83
658.498	54689.17
658.849	54677.87
659.2	54608.27
659.551	54540.92
659.902	54753.57
660.253	54572.79
660.604	54667.48
660.955	54584.31
661.306	54696.17
661.656	54557.65
662.007	54620.47
662.358	54571.66
662.708	54646.01
663.059	54594.03
663.409	54431.77
663.76	54689.17
664.11	54605.56
664.461	54630.87
664.811	54607.82
665.161	54568.04
665.511	54469.29
665.862	54457.99
666.212	54494.6
666.562	54558.78
666.912	54520.59
667.262	54482.85
667.612	54514.26
667.962	54535.05
668.312	54452.57
668.662	54496.18
669.011	54534.37
669.361	54426.35
669.711	54391.1
670.06	54434.26
670.41	54301.38
670.76	54213.25
671.109	54448.72
671.459	54315.39
671.808	54231.78
672.157	54278.33
672.507	54089.64
672.856	54076.08
673.205	54143.65
673.554	54306.35
673.904	54155.85
674.253	54247.83
674.602	54179.35
674.951	53692.81
675.3	53555.64
675.649	54032.24
675.998	53938.23
676.346	54036.76
676.695	54128.73
677.044	53855.97
677.393	53938
677.741	54012.13
678.09	53927.16
678.438	53820.94
678.787	53963.09
679.135	53932.35
679.484	53724
679.832	53767.84
680.181	53629.31
680.529	53705.24
680.877	53668.41
681.225	53646.03
681.573	53789.31
681.922	53590.44
682.27	53544.57
682.618	53429.99
682.966	53421.86
683.314	53483.78
683.661	53396.32
684.009	53283.1
684.357	53115.88
684.705	53154.97
685.053	53165.14
685.4	53185.25
685.748	53008.76
686.095	52952.49
686.443	52855.55
686.79	52909.78
687.138	52983
687.485	52863
687.832	52701.88
688.18	52764.25
688.527	52565.16
688.874	52567.87
689.221	52508.21
689.568	52555.89
689.915	52343.47
690.262	52306.18
690.609	52212.17
690.956	52128.33
691.303	52107.54
691.65	51989.81
691.997	51944.61
692.344	51771.05
692.69	51706.42
693.037	51793.43
693.383	51463.04
693.73	51502.81
694.077	51442.7
694.423	51398.18
694.769	51300.33
695.116	51267.34
695.462	51176.72
695.808	51032.09
696.155	51012.66
696.501	50800.01
696.847	50714.13
697.193	50594.81
697.539	50756.17
697.885	50427.81
698.231	50312.34
698.577	50430.52
698.923	50197.99
699.269	50064.88
699.614	49896.98
699.96	49940.82
700.306	49913.93
700.651	49706.7
700.997	49462.64
701.342	49534.05
701.688	49492.24
702.033	49360.04
702.379	49309.65
702.724	49182.65
703.069	49209.31
703.415	48819.04
703.76	48849.77
704.105	48933.39
704.45	48573.17
704.795	48579.5
705.14	48497.47
705.485	48394.19
705.83	48204.14
706.175	48265.84
706.52	48093.64
706.865	47943.58
707.209	47855.9
707.554	47707.88
707.899	47850.25
708.243	47664.04
708.588	47577.27
708.932	47320.32
709.277	47257.5
709.621	47161.46
709.966	47034.68
710.31	47195.81
710.654	46790.17
710.998	46933.44
711.342	46936.6
711.687	46716.95
712.031	46598.31
712.375	46540.01
712.719	46528.03
713.063	46528.25
713.407	46727.34
713.75	46418.2
714.094	46328.03
714.438	46108.15
714.782	46236.28
715.125	45906.12
715.469	46083.75
715.812	45999.23
716.156	45695.73
716.499	45762.4
716.843	45770.08
717.186	45490.99
717.53	45641.5
717.873	45587.94
718.216	45390.43
718.559	45361.73
718.902	45125.13
719.246	45264.11
719.589	45066.37
719.932	44896.88
720.275	44925.58
720.617	44891.69
720.96	44913.16
721.303	44745.7
721.646	44919.71
721.989	44532.83
722.331	44684.91
722.674	44628.42
723.016	44623.67
723.359	44557.46
723.701	44425.94
724.044	44265.26
724.386	44196.56
724.729	44231.37
725.071	44007.42
725.413	44179.84
725.755	44054.87
726.097	44059.17
726.439	43713.41
726.782	43795.9
727.124	44074.31
727.465	43802
727.807	43750.02
728.149	43713.64
728.491	43622.12
728.833	43646.97
729.175	43494.21
729.516	43487.2
729.858	43452.4
730.199	43453.31
730.541	43312.52
730.882	43262.8
731.224	43409.24
731.565	43087.89
731.906	43280.66
732.248	43255.8
732.589	42987.78
732.93	42786.43
733.271	42939.42
733.612	43017.61
733.953	42857.39
734.294	42806.32
734.635	42747.79
734.976	42748.92
735.317	42609.04
735.658	42512.54
735.999	42635.02
736.339	42570.39
736.68	42600.45
737.021	42513.22
737.361	42241.14
737.702	42567.45
738.042	42298.99
738.383	42336.5
738.723	42322.04
739.063	42125.21
739.404	42288.14
739.744	42231.64
740.084	42127.69
740.424	42107.81
740.764	41961.59
741.104	42146
741.444	41821.03
741.784	41729.51
742.124	41959.79
742.464	41815.61
742.804	41780.13
743.143	41607.03
743.483	41682.73
743.823	41593.47
744.162	41614.71
744.502	41597.08
744.841	41424.43
745.181	41560.7
745.52	41312.12
745.86	41388.05
746.199	41248.39
746.538	41198.9
746.877	41293.59
747.216	41259.69
747.556	41278.9
747.895	41102.41
748.234	40965.24
748.573	40947.16
748.911	40888.4
749.25	40974.28
749.589	40739.93
749.928	40753.94
750.267	40834.39
750.605	40645.24
750.944	40528.86
751.283	40587.17
751.621	40619.26
751.96	40435.98
752.298	40357.12
752.636	40320.28
752.975	40180.17
753.313	40111.47
753.651	40145.14
753.989	39942.89
754.327	40007.75
754.666	39593.75
755.004	39736.57
755.342	39860.86
755.679	39894.98
756.017	39528.21
756.355	39585.84
756.693	39435.11
757.031	39590.81
757.368	39248.67
757.706	39233.3
758.044	39110.37
758.381	39132.74
758.719	38934.78
759.056	39022.69
759.394	38867.21
759.731	38548.8
760.068	38476.71
760.405	38376.6
760.743	38346.55
761.08	38414.34
761.417	38071.53
761.754	38175.71
762.091	38136.16
762.428	37976.84
762.765	37703.18
763.102	37786.11
763.438	37578.43
763.775	37406.46
764.112	37419.11
764.449	37402.39
764.785	37238.55
765.122	37109.97
765.458	36803.76
765.795	36792.24
766.131	36837.44
766.467	36803.76
766.804	36559.02
767.14	36393.83
767.476	36461.17
767.812	36262.54
768.148	36192.03
768.485	35993.39
768.821	35900.74
769.157	35757.46
769.492	35776.67
769.828	35639.73
770.164	35395.21
770.5	35281.32
770.836	35224.37
771.171	35111.38
771.507	35089.91
771.842	34727.66
772.178	34691.5
772.513	34797.04
772.849	34663.03
773.184	34432.53
773.519	34325.19
773.855	34218.97
774.19	34024.18
774.525	33979.66
774.86	33978.98
775.195	33778.76
775.53	33738.31
775.865	33534.7
776.2	33364.53
776.535	33048.16
776.87	33131.32
777.205	32888.61
777.539	32873.7
777.874	32985.56
778.209	32548.51
778.543	32593.25
778.878	32455.18
779.212	32307.16
779.547	32097
779.881	32303.54
780.215	32094.28
780.55	32072.14
780.884	31864.68
781.218	31868.98
781.552	31777.68
781.886	31472.15
782.22	31416.33
782.554	31240.97
782.888	31095.44
783.222	30919.17
783.556	30831.72
783.889	30732.06
784.223	30570.93
784.557	30478.51
784.89	30610.93
785.224	30394.67
785.557	30231.96
785.891	30226.08
786.224	30106.31
786.558	30067.67
786.891	29751.29
787.224	29598.3
787.557	29611.18
787.891	29754.46
788.224	29525.76
788.557	29494.35
788.89	29402.6
789.223	29301.81
789.556	29162.16
789.888	28999.9
790.221	28961.94
790.554	28646.69
790.887	28702.06
791.219	28620.02
791.552	28618.89
791.884	28436.3
792.217	28349.75
792.549	28176.19
792.882	27953.6
793.214	27860.04
793.546	28052.81
793.879	27865.92
794.211	27624.12
794.543	27694.4
794.875	27559.71
795.207	27634.74
795.539	27401.3
795.871	27338.02
796.203	27223.68
796.535	27074.08
796.867	27033.63
797.198	26948.2
797.53	26882.22
797.862	26638.38
798.193	26810.35
798.525	26559.74
798.856	26557.93
799.188	26433.42
799.519	26205.62
799.85	26133.54
800.182	26224.16
800.513	26258.28
800.844	25916.82
801.175	25995.01
801.506	25907.78
801.837	25777.16
802.168	25737.61
802.499	25743.49
802.83	25553.66
803.161	25460.56
803.491	25451.97
803.822	25425.08
804.153	25268.93
804.483	25148.7
804.814	25132.88
805.145	24992.32
805.475	24991.65
805.805	24906.45
806.136	24832.55
806.466	24769.28
806.796	24762.27
807.126	24602.5
807.457	24635.04
807.787	24586.46
808.117	24462.62
808.447	24354.37
808.777	24466.24
809.107	24181.27
809.436	24158.45
809.766	24183.3
810.096	23960.94
810.426	23906.02
810.755	23987.38
811.085	23918.9
811.414	23804.33
811.744	23581.96
812.073	23644.56
812.403	23618.12
812.732	23478.24
813.061	23454.06
813.39	23339.49
813.719	23221.75
814.049	23408.86
814.378	23320.73
814.707	23162.99
815.036	23118.7
815.365	22993.73
815.693	22822.21
816.022	22845.26
816.351	22882.55
816.68	22553.52
817.008	22690.69
817.337	22624.93
817.665	22497.93
817.994	22462.22
818.322	22465.61
818.651	22411.37
818.979	22334.54
819.307	22414.54
819.636	22292.06
819.964	22271.04
820.292	22218.16
820.62	22253.86
820.948	22165.28
821.276	22190.81
821.604	22131.38
821.932	22105.39
822.259	22109.46
822.587	22085.73
822.915	22057.03
823.243	22217.93
823.57	22050.71
823.898	22106.98
824.225	21992.4
824.553	22023.59
824.88	22024.94
825.207	22035.11
825.535	22024.72
825.862	22079.86
826.189	22047.77
826.516	22062.91
826.843	22095.45
827.17	22039.18
827.497	22102.91
827.824	22020.2
828.151	22118.05
828.478	22036.92
828.805	22090.48
829.131	22003.02
829.458	21985.62
829.785	21829.24
830.111	21942.23
830.438	21979.29
830.764	22013.42
831.09	21942.46
831.417	21792.18
831.743	21973.87
832.069	21934.32
832.395	21797.83
832.722	21852.97
833.048	21852.52
833.374	21925.06
833.7	21756.25
834.026	21839.86
834.351	21869.02
834.677	21721
835.003	21781.56
835.329	21743.14
835.654	21713.54
835.98	21693.88
836.306	21629.7
836.631	21504.51
836.956	21643.03
837.282	21768
837.607	21448.69
837.932	21458.4
838.258	21392.87
838.583	21368.69
838.908	21352.19
839.233	21360.1
839.558	21322.82
839.883	21183.16
840.208	21094.8
840.533	21146.1
840.858	21203.27
841.182	21069.49
841.507	21111.52
841.832	20972.32
842.156	20911.75
842.481	21018.64
842.805	20875.37
843.13	20830.85
843.454	20803.73
843.778	20786.33
844.103	20620.91
844.427	20561.03
844.751	20705.43
845.075	20619.56
845.399	20514.93
845.723	20401.94
846.047	20452.56
846.371	20239
846.695	20264.76
847.019	20119.46
847.343	20071.1
847.666	19912
847.99	19909.97
848.313	19922.85
848.637	19665.46
848.96	19623.65
849.284	19665.68
849.607	19481.06
849.931	19401.06
850.254	19281.51
850.577	19197.67
850.9	19135.53
851.223	19090.56
851.546	19064.12
851.869	18937.12
852.192	18955.65
852.515	18745.48
852.838	18744.35
853.161	18650.34
853.483	18640.85
853.806	18462.33
854.129	18384.36
854.451	18393.17
854.774	18303.23
855.096	18124.26
855.419	18233.86
855.741	18039.74
856.063	18010.81
856.385	17973.52
856.708	17942.34
857.03	17840.42
857.352	17782.34
857.674	17804.04
857.996	17698.96
858.318	17662.8
858.64	17668.22
858.961	17607.88
859.283	17576.92
859.605	17426.65
859.926	17462.58
860.248	17387.1
860.57	17385.29
860.891	17328.12
861.212	17303.94
861.534	17251.28
861.855	17180.33
862.176	17230.27
862.498	17161.12
862.819	17180.78
863.14	16960.67
863.461	17011.29
863.782	16983.95
864.103	16948.92
864.424	17003.15
864.745	17034.34
865.065	16946.21
865.386	16734.46
865.707	16823.5
866.027	16767
866.348	16696.27
866.668	16661.69
866.989	16666.21
867.309	16536.73
867.63	16614.69
867.95	16630.51
868.27	16556.61
868.59	16542.83
868.91	16510.06
869.23	16462.6
869.55	16265.77
869.87	16409.27
870.19	16426.67
870.51	16426.67
870.83	16400.46
871.15	16284.53
871.469	16288.15
871.789	16269.39
872.109	16207.7
872.428	16170.41
872.748	16200.69
873.067	16192.1
873.386	16122.95
873.706	16063.97
874.025	16062.16
874.344	16034.14
874.663	16044.99
874.982	15891.32
875.301	15971.77
875.62	15903.07
875.939	15865.33
876.258	15914.37
876.577	15795.5
876.896	15898.55
877.214	15804.77
877.533	15766.12
877.852	15776.75
878.17	15818.78
878.489	15692.68
878.807	15656.3
879.125	15702.85
879.444	15666.47
879.762	15504.44
880.08	15521.39
880.398	15503.08
880.716	15497.88
881.034	15433.25
881.352	15439.13
881.67	15382.86
881.988	15470.54
882.306	15377.89
882.624	15275.74
882.941	15167.04
883.259	15209.76
883.577	15094.96
883.894	15153.94
884.212	15084.79
884.529	15057.44
884.846	15023.32
885.164	15088.18
885.481	14961.85
885.798	14937.45
886.115	14928.41
886.432	14909.65
886.75	14806.15
887.067	14809.54
887.383	14732.25
887.7	14728.19
888.017	14662.88
888.334	14714.63
888.651	14625.14
888.967	14607.51
889.284	14581.75
889.6	14427.4
889.917	14381.53
890.233	14384.92
890.55	14380.4
890.866	14288.2
891.182	14342.66
891.498	14182.44
891.815	14183.34
892.131	14116.68
892.447	14078.71
892.763	13993.52
893.079	14092.27
893.395	14031.71
893.71	14002.33
894.026	13912.61
894.342	13911.94
894.657	13785.39
894.973	13729.34
895.289	13740.42
895.604	13755.33
895.92	13635.79
896.235	13584.04
896.55	13563.02
896.865	13459.74
897.181	13487.54
897.496	13405.96
897.811	13335.68
898.126	13351.5
898.441	13222.92
898.756	13272.18
899.071	13144.72
899.386	13238.51
899.7	13092.3
900.015	13020.89
900.33	12894.79
900.644	12965.52
900.959	12870.16
901.273	12840.1
901.588	12794.9
901.902	12810.04
902.216	12643.72
902.531	12636.04
902.845	12608.69
903.159	12542.71
903.473	12496.83
903.787	12434.46
904.101	12302.49
904.415	12451.18
904.729	12368.02
905.042	12280.11
905.356	12208.7
905.67	12217.07
905.984	12206.67
906.297	12188.59
906.611	12076.73
906.924	12053.68
907.237	11926
907.551	11937.75
907.864	11839.67
908.177	11829.51
908.491	11752.45
908.804	11741.82
909.117	11691.88
909.43	11627.25
909.743	11594.71
910.056	11545.9
910.368	11484.66
910.681	11450.53
910.994	11365.11
911.307	11330.99
911.619	11237.43
911.932	11344.32
912.244	11140.48
912.557	11147.49
912.869	11084.44
913.181	11065.01
913.494	10993.14
913.806	10965.57
914.118	10943.2
914.43	10790.66
914.742	10855.75
915.054	10770.78
915.366	10707.73
915.678	10715.64
915.99	10670.89
916.302	10563.55
916.613	10574.62
916.925	10495.3
917.236	10509.54
917.548	10417.57
917.859	10421.18
918.171	10306.83
918.482	10296.21
918.794	10249.89
919.105	10268.64
919.416	10104.8
919.727	10106.16
920.038	10102.09
920.349	9973.96
920.66	10002.21
920.971	9965.83
921.282	9973.28
921.593	9827.75
921.903	9774.64
922.214	9810.35
922.525	9737.36
922.835	9740.97
923.146	9650.13
923.456	9611.26
923.767	9577.14
924.077	9591.15
924.387	9548.66
924.697	9392.51
925.008	9362.45
925.318	9390.93
925.628	9356.35
925.938	9294.66
926.248	9183.02
926.558	9189.12
926.867	9156.81
927.177	9162.68
927.487	9119.07
927.796	8972.41
928.106	8999.98
928.416	8969.92
928.725	8903.03
929.034	8874.33
929.344	8856.48
929.653	8884.27
929.962	8712.07
930.271	8738.06
930.581	8713.43
930.89	8666.88
931.199	8553.43
931.508	8520.44
931.817	8614.22
932.125	8540.55
932.434	8489.48
932.743	8417.17
933.051	8328.58
933.36	8351.63
933.669	8325.42
933.977	8279.32
934.286	8199.32
934.594	8210.62
934.902	8148.25
935.21	8092.2
935.519	8107.8
935.827	8100.34
936.135	8065.08
936.443	7984.41
936.751	7883.85
937.059	7884.3
937.367	7845.88
937.674	7832.77
937.982	7894.92
938.29	7782.61
938.597	7769.27
938.905	7638.66
939.213	7669.84
939.52	7645.66
939.827	7602.72
940.135	7553.01
940.442	7507.81
940.749	7544.42
941.056	7522.27
941.363	7399.79
941.67	7489.28
941.977	7383.07
942.284	7313.24
942.591	7277.76
942.898	7244.77
943.205	7257.42
943.511	7225.33
943.818	7180.14
944.125	7145.56
944.431	7133.13
944.738	7095.39
945.044	7083.87
945.35	6966.58
945.657	7017.88
945.963	6935.4
946.269	6880.26
946.575	6887.04
946.881	6875.74
947.187	6842.07
947.493	6791.45
947.799	6832.12
948.105	6701.96
948.41	6671.67
948.716	6713.71
949.022	6628.06
949.327	6645.46
949.633	6541.51
949.938	6586.03
950.244	6558.68
950.549	6508.06
950.854	6473.49
951.16	6472.81
951.465	6444.11
951.77	6414.28
952.075	6421.96
952.38	6371.8
952.685	6382.19
952.99	6296.54
953.294	6266.94
953.599	6236.88
953.904	6221.29
954.209	6173.83
954.513	6149.88
954.818	6189.88
955.122	6109.88
955.426	6056.55
955.731	6053.16
956.035	5998.7
956.339	5962.09
956.643	5986.04
956.948	5932.71
957.252	5900.17
957.556	5832.83
957.86	5784.47
958.163	5798.7
958.467	5798.93
958.771	5753.51
959.075	5790.34
959.378	5723.45
959.682	5698.37
959.985	5680.51
960.289	5678.03
960.592	5632.38
960.896	5629.44
961.199	5582.66
961.502	5567.75
961.805	5494.08
962.108	5495.43
962.411	5509.9
962.714	5417.47
963.017	5392.16
963.32	5426.28
963.623	5355.55
963.926	5333.4
964.228	5315.33
964.531	5299.96
964.833	5319.62
965.136	5251.15
965.438	5235.1
965.741	5189
966.043	5177.93
966.345	5174.77
966.648	5117.37
966.95	5094.54
967.252	5102.45
967.554	5038.27
967.856	5053.19
968.158	5015.67
968.46	4955.34
968.761	4965.05
969.063	4949.69
969.365	4929.57
969.666	4943.13
969.968	4855.23
970.269	4893.19
970.571	4880.99
970.872	4831.95
971.174	4777.04
971.475	4758.73
971.776	4762.12
972.077	4724.38
972.378	4740.88
972.679	4715.12
972.98	4653.87
973.281	4607.77
973.582	4629.92
973.883	4596.25
974.183	4615.68
974.484	4612.75
974.785	4493.2
975.085	4546.76
975.386	4568.68
975.686	4505.4
975.986	4509.47
976.287	4461.79
976.587	4403.26
976.887	4379.98
977.187	4394.9
977.487	4361.91
977.787	4282.59
978.087	4301.34
978.387	4309.93
978.687	4288.23
978.987	4283.26
979.286	4231.06
979.586	4202.59
979.885	4170.27
980.185	4177.05
980.484	4153.1
980.784	4119.65
981.083	4125.3
981.382	4119.88
981.682	4117.84
981.981	4090.27
982.28	4050.73
982.579	4022.93
982.878	4038.3
983.177	4025.87
983.475	3961.46
983.774	3949.94
984.073	3947.9
984.372	3919.43
984.67	3914.23
984.969	3913.78
985.267	3886.44
985.566	3891.18
985.864	3828.59
986.162	3833.11
986.461	3810.28
986.759	3772.54
987.057	3757.63
987.355	3739.32
987.653	3697.97
987.951	3721.02
988.249	3667.01
988.547	3636.5
988.844	3691.41
989.142	3605.09
989.44	3636.27
989.737	3616.84
990.035	3596.95
990.332	3537.07
990.63	3554.24
990.927	3533.23
991.224	3535.49
991.521	3507.24
991.819	3499.78
992.116	3526.9
992.413	3449.84
992.71	3405.32
993.006	3438.31
993.303	3412.55
993.6	3398.99
993.897	3387.24
994.193	3347.02
994.49	3343.4
994.787	3328.49
995.083	3289.62
995.379	3273.57
995.676	3312.22
995.972	3275.38
996.268	3239.9
996.565	3234.93
996.861	3234.7
997.157	3222.5
997.453	3177.08
997.749	3146.57
998.044	3127.36
998.34	3139.11
998.636	3110.64
998.932	3116.06
999.227	3061.37
999.523	3049.17
999.818	3045.78
1000.114	3007.59
1000.409	2970.08
1000.704	2957.42
1001	2943.86
1001.295	2952.45
1001.59	2980.92
1001.885	2955.84
1002.18	2908.16
1002.475	2918.78
1002.77	2875.39
1003.065	2844.88
1003.359	2860.25
1003.654	2875.84
1003.949	2810.99
1004.243	2781.61
1004.538	2756.98
1004.832	2753.59
1005.127	2761.04
1005.421	2724.66
1005.715	2739.57
1006.009	2687.6
1006.304	2665.68
1006.598	2679.92
1006.892	2648.28
1007.186	2629.97
1007.48	2629.3
1007.773	2579.13
1008.067	2604.44
1008.361	2538.68
1008.655	2562.4
1008.948	2568.05
1009.242	2494.61
1009.535	2513.59
1009.829	2495.74
1010.122	2486.47
1010.415	2447.15
1010.708	2445.35
1011.001	2434.05
1011.295	2409.19
1011.588	2404.44
1011.881	2362.41
1012.173	2399.24
1012.466	2348.85
1012.759	2364.22
1013.052	2324.67
1013.344	2319.7
1013.637	2328.74
1013.93	2292.13
1014.222	2256.88
1014.514	2272.92
1014.807	2282.41
1015.099	2209.87
1015.391	2233.6
1015.683	2207.39
1015.976	2189.53
1016.268	2174.62
1016.56	2139.36
1016.851	2125.81
1017.143	2132.81
1017.435	2100.04
1017.727	2103.66
1018.018	2066.37
1018.31	2069.99
1018.602	2094.17
1018.893	2034.96
1019.185	2055.75
1019.476	2024.11
1019.767	2006.71
1020.058	2024.34
1020.35	1987.5
1020.641	1965.36
1020.932	1952.93
1021.223	1955.19
1021.514	1916.09
1021.804	1891.24
1022.095	1894.85
1022.386	1883.55
1022.677	1868.41
1022.967	1857.11
1023.258	1842.88
1023.548	1832.25
1023.839	1799.94
1024.129	1800.84
1024.419	1767.85
1024.709	1793.84
1025	1776.44
1025.29	1759.04
1025.58	1733.73
1025.87	1713.16
1026.16	1698.47
1026.449	1707.06
1026.739	1704.57
1027.029	1697.57
1027.319	1668.42
1027.608	1648.76
1027.898	1632.71
1028.187	1594.97
1028.477	1634.75
1028.766	1633.16
1029.055	1612.6
1029.344	1607.18
1029.634	1585.71
1029.923	1559.04
1030.212	1521.75
1030.501	1543.67
1030.79	1530.79
1031.078	1527.18
1031.367	1503.9
1031.656	1505.48
1031.945	1495.31
1032.233	1498.93
1032.522	1441.53
1032.81	1446.95
1033.099	1455.54
1033.387	1432.04
1033.675	1405.15
1033.963	1425.94
1034.251	1419.16
1034.54	1417.35
1034.828	1380.06
1035.116	1397.69
1035.403	1360.18
1035.691	1363.34
1035.979	1349.33
1036.267	1345.94
1036.554	1346.62
1036.842	1313.62
1037.129	1303
1037.417	1297.35
1037.704	1290.12
1037.992	1307.3
1038.279	1273.62
1038.566	1254.87
1038.853	1254.87
1039.14	1254.87
