Data from orange_diffuse_book_FLMS001491_00023.txt Node
Date: Wed Feb 08 15:29:19 GMT 2017
User: dcchb
Spectrometer: FLMS00149
Trigger mode: 0
Integration Time (sec): 2.000000E-2
Scans to average: 10
Electric dark correction enabled: true
Nonlinearity correction enabled: false
Boxcar width: 0
XAxis mode: Wavelengths
Number of Pixels in Spectrum: 2048
>>>>>Begin Spectral Data<<<<<
341.393	-1.14
341.776	-1.14
342.16	-1.14
342.543	-52.44
342.927	-65.78
343.31	-49.96
343.693	-75.49
344.077	-63.74
344.46	-55.15
344.843	-58.09
345.226	-42.05
345.61	-29.84
345.993	-31.2
346.376	-22.39
346.759	2.25
347.142	35.01
347.525	46.09
347.908	48.8
348.291	69.59
348.674	101.23
349.057	124.95
349.44	119.53
349.823	152.98
350.206	168.34
350.588	201.34
350.971	239.3
351.354	247.21
351.737	250.6
352.119	285.63
352.502	260.09
352.884	269.13
353.267	277.72
353.65	300.09
354.032	307.32
354.414	322.92
354.797	351.39
355.179	344.38
355.562	349.58
355.944	337.38
356.326	350.71
356.709	345.51
357.091	349.36
357.473	357.26
357.855	364.95
358.238	367.21
358.62	354.78
359.002	369.69
359.384	355.23
359.766	367.21
360.148	361.56
360.53	341.45
360.912	342.8
361.294	355.23
361.676	361.78
362.057	347.77
362.439	325.63
362.821	339.41
363.203	325.63
363.584	341.22
363.966	329.92
364.348	321.33
364.729	344.38
365.111	330.82
365.493	320.2
365.874	334.21
366.256	344.38
366.637	345.97
367.019	335.12
367.4	331.05
367.781	330.15
368.163	324.27
368.544	343.03
368.925	339.19
369.306	341.67
369.688	328.56
370.069	341.22
370.45	323.59
370.831	322.92
371.212	328.34
371.593	334.44
371.974	325.18
372.355	316.36
372.736	321.11
373.117	335.34
373.498	303.25
373.879	308.9
374.26	357.26
374.641	321.33
375.021	323.14
375.402	343.48
375.783	349.13
376.163	335.34
376.544	335.34
376.925	360.88
377.305	321.79
377.686	345.06
378.066	325.4
378.447	349.58
378.827	360.2
379.208	346.87
379.588	337.83
379.968	326.3
380.349	347.55
380.729	337.38
381.109	321.56
381.489	356.36
381.87	339.41
382.25	358.39
382.63	335.12
383.01	353.87
383.39	359.98
383.77	370.37
384.15	366.76
384.53	364.72
384.91	384.61
385.29	367.43
385.67	361.56
386.049	383.93
386.429	379.86
386.809	385.29
387.189	366.76
387.568	351.39
387.948	364.27
388.328	375.57
388.707	377.15
389.087	391.39
389.466	381.22
389.846	373.08
390.225	374.44
390.605	399.75
390.984	392.74
391.363	402.69
391.743	399.75
392.122	367.43
392.501	393.87
392.881	392.07
393.26	397.04
393.639	401.56
394.018	388.68
394.397	382.12
394.776	398.85
395.155	403.82
395.534	382.8
395.913	409.92
396.292	406.98
396.671	407.43
397.05	412.18
397.429	425.29
397.808	430.03
398.186	425.74
398.565	412.4
398.944	418.05
399.323	404.72
399.701	397.04
400.08	432.52
400.458	432.52
400.837	418.73
401.215	442.46
401.594	408.34
401.972	413.08
402.351	426.87
402.729	446.98
403.107	422.57
403.486	424.16
403.864	427.77
404.242	428.22
404.62	432.06
404.999	446.75
405.377	447.88
405.755	433.19
406.133	476.81
406.511	448.34
406.889	455.34
407.267	463.48
407.645	472.06
408.023	452.86
408.401	448.79
408.779	468.45
409.156	483.59
409.534	462.35
409.912	475.23
410.29	485.62
410.667	484.72
411.045	491.5
411.422	474.55
411.8	498.05
412.178	488.33
412.555	489.69
412.933	486.07
413.31	503.02
413.687	501.44
414.065	515.9
414.442	524.04
414.819	512.06
415.197	524.72
415.574	520.88
415.951	538.5
416.328	519.97
416.705	529.46
417.082	530.59
417.46	526.07
417.837	548.22
418.214	540.99
418.591	543.47
418.967	547.54
419.344	566.75
419.721	570.59
420.098	551.61
420.475	587.99
420.852	577.37
421.228	593.19
421.605	557.03
421.982	585.73
422.358	571.72
422.735	599.52
423.111	584.15
423.488	576.02
423.864	595.22
424.241	602.68
424.617	622.57
424.994	592.96
425.37	593.64
425.746	609.46
426.123	606.3
426.499	614.66
426.875	627.09
427.251	642.45
427.627	641.32
428.003	643.58
428.379	629.12
428.756	671.61
429.132	661.21
429.507	669.35
429.883	665.96
430.259	663.25
430.635	670.02
431.011	675.22
431.387	696.24
431.763	671.83
432.138	706.18
432.514	722.23
432.89	711.83
433.265	732.62
433.641	712.74
434.016	711.83
434.392	723.81
434.767	743.7
435.143	726.29
435.518	762.45
435.894	757.48
436.269	766.75
436.644	770.36
437.02	773.3
437.395	805.39
437.77	795.45
438.145	795.67
438.52	816.91
438.895	788.89
439.271	815.11
439.646	832.51
440.021	841.55
440.395	809.23
440.77	822.79
441.145	810.59
441.52	839.51
441.895	837.03
442.27	835.22
442.645	823.69
443.019	845.39
443.394	842
443.769	870.25
444.143	874.77
444.518	861.66
444.892	875.22
445.267	847.87
445.641	892.84
446.016	881.54
446.39	868.89
446.764	877.48
447.139	872.05
447.513	895.33
447.887	920.87
448.262	884.26
448.636	908.89
449.01	914.54
449.384	901.88
449.758	925.61
450.132	942.11
450.506	948.89
450.88	939.62
451.254	911.37
451.628	980.3
452.002	947.76
452.376	970.81
452.75	958.83
453.123	962.22
453.497	943.01
453.871	975.33
454.244	1022.33
454.618	1005.38
454.992	999.28
455.365	1007.42
455.739	1031.6
456.112	1045.38
456.486	1033.18
456.859	1048.09
457.232	1048.09
457.606	1062.56
457.979	1062.1
458.352	1095.1
458.725	1098.26
459.099	1115.89
459.472	1122.67
459.845	1136.91
460.218	1119.96
460.591	1129.22
460.964	1121.99
461.337	1166.06
461.71	1165.38
462.083	1174.42
462.456	1165.6
462.829	1167.86
463.201	1191.82
463.574	1177.36
463.947	1215.77
464.32	1215.77
464.692	1239.73
465.065	1243.12
465.438	1264.59
465.81	1274.53
466.183	1259.61
466.555	1289.9
466.928	1284.47
467.3	1294.42
467.672	1291.7
468.045	1331.7
468.417	1316.56
468.789	1336.22
469.161	1359.5
469.534	1372.15
469.906	1422.77
470.278	1411.47
470.65	1425.03
471.022	1432.94
471.394	1451.47
471.766	1441.76
472.138	1440.85
472.51	1481.98
472.882	1514.97
473.253	1528.76
473.625	1514.97
473.997	1557.46
474.369	1570.34
474.74	1569.66
475.112	1586.38
475.484	1642.43
475.855	1639.72
476.227	1618.25
476.598	1688.98
476.97	1729.88
477.341	1712.71
477.713	1764.91
478.084	1751.58
478.455	1773.95
478.827	1791.13
479.198	1875.87
479.569	1862.76
479.94	1903.21
480.311	1913.83
480.682	1959.03
481.053	1989.09
481.424	1979.82
481.795	2048.29
482.166	2050.55
482.537	2071.34
482.908	2118.35
483.279	2145.47
483.65	2190.89
484.021	2235.41
484.391	2264.56
484.762	2284.67
485.133	2286.25
485.503	2332.13
485.874	2356.08
486.244	2393.14
486.615	2431.33
486.985	2483.54
487.356	2524.21
487.726	2529.41
488.097	2587.49
488.467	2605.57
488.837	2661.16
489.207	2688.28
489.578	2700.93
489.948	2700.71
490.318	2762.85
490.688	2783.42
491.058	2839.69
491.428	2867.71
491.798	2920.36
492.168	2953.13
492.538	2977.31
492.908	3011.21
493.278	3041.94
493.648	3088.04
494.017	3135.27
494.387	3144.08
494.757	3202.84
495.126	3219.34
495.496	3291.65
495.866	3260.47
496.235	3343.17
496.605	3358.99
496.974	3402.61
497.344	3397.41
497.713	3448.93
498.082	3481.25
498.452	3523.96
498.821	3591.98
499.19	3557.63
499.559	3647.35
499.928	3657.29
500.298	3682.6
500.667	3713.11
501.036	3732.77
501.405	3750.62
501.774	3833.11
502.143	3855.48
502.512	3825.42
502.88	3888.25
503.249	3884.18
503.618	3944.51
503.987	3954.91
504.356	3983.16
504.724	4037.39
505.093	4027.68
505.462	4115.13
505.83	4096.15
506.199	4141.8
506.567	4166.66
506.936	4235.58
507.304	4267.44
507.672	4262.02
508.041	4302.47
508.409	4328.23
508.777	4371.17
509.145	4387.22
509.514	4380.21
509.882	4414.56
510.25	4433.54
510.618	4495.01
510.986	4523.71
511.354	4551.5
511.722	4598.51
512.09	4675.34
512.458	4655.23
512.826	4659.98
513.193	4725.29
513.561	4802.12
513.929	4776.36
514.297	4838.5
514.664	4823.36
515.032	4914.43
515.4	4893.87
515.767	4926.41
516.135	5001.44
516.502	4918.5
516.869	5039.18
517.237	5041.44
517.604	5109.46
517.972	5175.89
518.339	5170.7
518.706	5180.87
519.073	5186.06
519.44	5267.19
519.808	5321.88
520.175	5336.12
520.542	5350.58
520.909	5439.84
521.276	5440.52
521.643	5460.18
522.009	5517.81
522.376	5505.15
522.743	5589.9
523.11	5601.42
523.477	5693.17
523.843	5704.69
524.21	5790.79
524.577	5823.79
524.943	5864.46
525.31	5918.25
525.676	5970.68
526.043	5983.33
526.409	5988.98
526.776	6043.22
527.142	6047.51
527.508	6169.09
527.874	6138.13
528.241	6248.41
528.607	6222.87
528.973	6239.37
529.339	6222.2
529.705	6296.54
530.071	6353.94
530.437	6373.15
530.803	6424.22
531.169	6460.38
531.535	6459.93
531.901	6531.79
532.267	6510.1
532.632	6567.5
532.998	6554.16
533.364	6605.46
533.73	6670.54
534.095	6718.91
534.461	6694.27
534.826	6707.38
535.192	6802.97
535.557	6823.54
535.923	6785.8
536.288	6858.34
536.653	6872.12
537.019	6923.65
537.384	6929.07
537.749	6944.44
538.114	6958.22
538.479	6949.86
538.845	7082.06
539.21	7070.76
539.575	7060.14
539.94	7131.1
540.305	7145.11
540.67	7178.1
541.034	7172
541.399	7272.11
541.764	7221.04
542.129	7335.16
542.494	7298.1
542.858	7387.14
543.223	7423.97
543.587	7465.55
543.952	7456.29
544.316	7549.39
544.681	7467.59
545.045	7554.14
545.41	7569.73
545.774	7585.32
546.138	7577.87
546.503	7629.16
546.867	7691.31
547.231	7725.88
547.595	7799.1
547.959	7840.01
548.324	7846.33
548.688	7814.92
549.052	7945.77
549.416	7972.66
549.779	7952.77
550.143	8025.09
550.507	8124.29
550.871	8155.48
551.235	8160
551.599	8198.87
551.962	8266.89
552.326	8263.05
552.689	8349.82
553.053	8370.61
553.417	8407.9
553.78	8478.18
554.143	8500.78
554.507	8582.59
554.87	8583.49
555.234	8708.68
555.597	8658.29
555.96	8752.3
556.323	8884.05
556.686	8889.24
557.05	8976.92
557.413	8978.96
557.776	8987.77
558.139	9076.13
558.502	9145.73
558.865	9137.15
559.228	9329.68
559.59	9350.25
559.953	9458.49
560.316	9464.14
560.679	9548.21
561.041	9728.32
561.404	9750.01
561.767	9857.81
562.129	9872.72
562.492	10065.48
562.854	10014.64
563.217	10109.1
563.579	10138.25
563.941	10260.28
564.304	10366.72
564.666	10429.09
565.028	10517.22
565.39	10680.38
565.753	10740.04
566.115	10854.16
566.477	10952.47
566.839	11043.09
567.201	11219.13
567.563	11238.79
567.925	11399.91
568.287	11530.76
568.648	11660.24
569.01	11727.14
569.372	11970.07
569.734	11933.68
570.095	12220.46
570.457	12298.42
570.819	12502.71
571.18	12481.47
571.542	12698.41
571.903	12817.5
572.265	13041.45
572.626	13211.62
572.987	13314.21
573.349	13568.44
573.71	13766.86
574.071	13955.1
574.432	14147.41
574.794	14406.16
575.155	14598.25
575.516	14719.37
575.877	14890.22
576.238	15126.59
576.599	15422.18
576.96	15619.91
577.32	15945.33
577.681	16088.6
578.042	16415.15
578.403	16638.87
578.763	16905.3
579.124	17208.35
579.485	17553.42
579.845	17850.59
580.206	18129.68
580.566	18365.38
580.927	18762.88
581.287	18966.27
581.648	19229.08
582.008	19732.35
582.368	19982.74
582.728	20233.35
583.089	20602.38
583.449	20928.48
583.809	21404.17
584.169	21795.57
584.529	22034.66
584.889	22700.18
585.249	22960.51
585.609	23281.41
585.969	23816.08
586.329	24221.04
586.688	24522.28
587.048	24863.51
587.408	25385.31
587.768	25733.32
588.127	26151.39
588.487	26701.88
588.846	27219.84
589.206	27465.93
589.565	27921.06
589.925	28486.47
590.284	28777.99
590.643	29372.32
591.003	29838.75
591.362	30418.4
591.721	30781.32
592.08	31284.14
592.44	31712.37
592.799	32238.01
593.158	32640.26
593.517	33151.43
593.876	33730.62
594.235	34110.28
594.593	34566.99
594.952	35176.69
595.311	35503.69
595.67	36022.32
596.029	36631.57
596.387	37233.36
596.746	37659.56
597.104	38037.18
597.463	38425.42
597.822	39091.16
598.18	39313.3
598.538	39590.81
598.897	40317.57
599.255	40352.15
599.613	41327.03
599.972	41568.16
600.33	42134.47
600.688	42322.04
601.046	42839.31
601.404	43325.85
601.762	43627.99
602.12	44314.53
602.478	44580.06
602.836	45023.21
603.194	45212.81
603.552	45687.37
603.91	45813.02
604.268	46315.15
604.625	46614.58
604.983	47061.35
605.341	47066.54
605.698	47627.89
606.056	47947.43
606.413	48177.02
606.771	48544.47
607.128	48816.56
607.485	48858.14
607.843	49090.67
608.2	49602.52
608.557	49842.97
608.914	49995.28
609.272	50272.11
609.629	50459.9
609.986	50770.18
610.343	50811.76
610.7	51190.96
611.057	51357.05
611.414	51416.49
611.771	51567.67
612.127	51805.63
612.484	51945.96
612.841	52185.73
613.198	52068.45
613.554	52293.75
613.911	52607.64
614.267	52656.23
614.624	52767.41
614.98	52901.65
615.337	53191.81
615.693	53197.46
616.05	53310.67
616.406	53521.29
616.762	53471.35
617.118	53632.7
617.475	53669.99
617.831	53883.54
618.187	53874.28
618.543	53998.79
618.899	54227.94
619.255	54273.81
619.611	54206.24
619.967	54366.69
620.323	54500.47
620.678	54446.69
621.034	54383.41
621.39	54544.31
621.746	54500.47
622.101	54868.37
622.457	54709.51
622.812	54777.53
623.168	54907.47
623.523	54907.24
623.879	55038.99
624.234	54938.65
624.589	54976.17
624.945	55066.79
625.3	55073.34
625.655	55158.31
626.01	55238.08
626.365	55174.35
626.72	55219.32
627.075	55252.77
627.43	55235.14
627.785	55276.27
628.14	55357.4
628.495	55436.27
628.85	55360.34
629.205	55288.48
629.559	55527.11
629.914	55398.76
630.269	55452.31
630.623	55296.61
630.978	55324.41
631.332	55438.3
631.687	55554.46
632.041	55353.56
632.396	55509.26
632.75	55349.26
633.104	55484.18
633.459	55283.5
633.813	55299.32
634.167	55370.06
634.521	55344.07
634.875	55408.47
635.229	55447.79
635.583	55204.86
635.937	55318.08
636.291	55263.62
636.645	55186.78
636.999	55201.02
637.352	55325.08
637.706	55142.94
638.06	55339.32
638.413	55217.97
638.767	55137.29
639.121	55159.21
639.474	55036.05
639.828	55080.8
640.181	55145.2
640.534	55188.14
640.888	55053.91
641.241	55018.43
641.594	55034.7
641.947	55215.94
642.301	55045.77
642.654	55093.45
643.007	55070.18
643.36	55098.65
643.713	55015.94
644.066	55127.8
644.419	54944.98
644.771	54737.08
645.124	54455.5
645.477	54432.9
645.83	54284.21
646.182	54233.59
646.535	54211.67
646.888	54274.49
647.24	54146.58
647.593	54322.63
647.945	54206.92
648.298	54032.69
648.65	54033.59
649.002	54046.25
649.355	54103.65
649.707	54037.66
650.059	54100.03
650.411	54482.62
650.763	54613.92
651.115	54903.4
651.467	54807.81
651.819	54773.46
652.171	54690.07
652.523	54650.3
652.875	54629.28
653.227	54570.75
653.578	54704.54
653.93	54694.14
654.282	54609.85
654.633	54536.63
654.985	54564.2
655.337	54619.79
655.688	54528.5
656.039	54667.48
656.391	54452.11
656.742	54538.89
657.094	54562.17
657.445	54622.73
657.796	54561.72
658.147	54458.89
658.498	54492.56
658.849	54576.4
659.2	54483.3
659.551	54391.32
659.902	54537.31
660.253	54515.39
660.604	54502.96
660.955	54421.61
661.306	54518.33
661.656	54452.11
662.007	54444.43
662.358	54430.87
662.708	54500.47
663.059	54477.65
663.409	54269.29
663.76	54450.76
664.11	54434.71
664.461	54489.4
664.811	54413.92
665.161	54453.47
665.511	54384.32
665.862	54383.87
666.212	54451.89
666.562	54549.29
666.912	54469.06
667.262	54373.7
667.612	54398.33
667.962	54355.62
668.312	54279.24
668.662	54433.36
669.011	54338.67
669.361	54271.78
669.711	54328.73
670.06	54138.9
670.41	54207.37
670.76	54143.87
671.109	54294.83
671.459	54196.53
671.808	54046.02
672.157	54219.13
672.507	53967.15
672.856	54022.75
673.205	54069.3
673.554	54191.78
673.904	54020.49
674.253	54237.2
674.602	54050.32
674.951	53634.28
675.3	53434.06
675.649	53989.07
675.998	53952.47
676.346	53959.47
676.695	54018.23
677.044	53750.66
677.393	53847.84
677.741	53868.85
678.09	53742.98
678.438	53769.87
678.787	53847.61
679.135	53787.5
679.484	53594.73
679.832	53671.57
680.181	53546.37
680.529	53659.82
680.877	53540.05
681.225	53568.29
681.573	53719.25
681.922	53479.03
682.27	53408.3
682.618	53357
682.966	53307.51
683.314	53437
683.661	53281.3
684.009	53111.13
684.357	53010.8
684.705	52961.53
685.053	53073.39
685.4	52985.03
685.748	52836.11
686.095	52853.96
686.443	52795.43
686.79	52726.96
687.138	52827.75
687.485	52732.38
687.832	52643.8
688.18	52647.19
688.527	52403.13
688.874	52471.6
689.221	52365.39
689.568	52315.9
689.915	52224.6
690.262	52176.47
690.609	52098.73
690.956	51943.25
691.303	51988
691.65	51833.88
691.997	51787.1
692.344	51587.56
692.69	51633.2
693.037	51633.43
693.383	51431.63
693.73	51525.18
694.077	51241.35
694.423	51279.32
694.769	51101.02
695.116	51135.59
695.462	51004.75
695.808	50938.99
696.155	50965.65
696.501	50661.7
696.847	50622.16
697.193	50421.26
697.539	50576.06
697.885	50292.45
698.231	50244.31
698.577	50125.9
698.923	50097.2
699.269	49968.84
699.614	49811.33
699.96	49823.76
700.306	49771.33
700.651	49561.62
700.997	49378.12
701.342	49344.68
701.688	49186.72
702.033	49239.37
702.379	49093.16
702.724	49097
703.069	48995.53
703.415	48665.6
703.76	48699.72
704.105	48662.66
704.45	48584.92
704.795	48343.35
705.14	48244.37
705.485	48247.98
705.83	48152.62
706.175	48196.23
706.52	47989.23
706.865	47961.44
707.209	47765.06
707.554	47627.66
707.899	47605.51
708.243	47479.19
708.588	47470.83
708.932	47188.35
709.277	47133.89
709.621	47155.81
709.966	46948.13
710.31	46958.53
710.654	46658.87
710.998	46767.57
711.342	46741.81
711.687	46490.29
712.031	46408.94
712.375	46266.57
712.719	46272.89
713.063	46329.39
713.407	46454.36
713.75	46135.95
714.094	46267.47
714.438	46070.19
714.782	45930.98
715.125	45780.93
715.469	45924.88
715.812	45625.68
716.156	45666.58
716.499	45534.61
716.843	45511.56
717.186	45289.64
717.53	45519.92
717.873	45422.07
718.216	45250.55
718.559	45136.2
718.902	44921.97
719.246	45005.36
719.589	44885.36
719.932	44711.8
720.275	44802.88
720.617	44744.57
720.96	44620.51
721.303	44558.81
721.646	44597.23
721.989	44284.47
722.331	44452.83
722.674	44414.86
723.016	44457.35
723.359	44284.7
723.701	44333.74
724.044	43978.72
724.386	43751.38
724.729	44147.98
725.071	43958.83
725.413	43962.22
725.755	43852.62
726.097	43698.27
726.439	43568.78
726.782	43624.38
727.124	43755.67
727.465	43525.62
727.807	43633.64
728.149	43399.75
728.491	43367.89
728.833	43464.61
729.175	43384.16
729.516	43215.35
729.858	43289.92
730.199	43252.86
730.541	43256.02
730.882	43042.92
731.224	43264.16
731.565	42883.83
731.906	42964.73
732.248	43136.93
732.589	42911.85
732.93	42691.97
733.271	42743.95
733.612	42714.12
733.953	42654.91
734.294	42501.02
734.635	42370.4
734.976	42581.24
735.317	42381.47
735.658	42343.51
735.999	42392.09
736.339	42306.22
736.68	42369.27
737.021	42266.22
737.361	42094.02
737.702	42280.23
738.042	42218.54
738.383	42036.17
738.723	42141.7
739.063	41967.47
739.404	42078.88
739.744	41962.95
740.084	41859.68
740.424	41850.86
740.764	41626.24
741.104	41840.47
741.444	41723.18
741.784	41608.16
742.124	41647.48
742.464	41685.22
742.804	41466.69
743.143	41383.08
743.483	41486.58
743.823	41351.89
744.162	41308.73
744.502	41407.94
744.841	41157.1
745.181	41510.31
745.52	41309.86
745.86	41208.39
746.199	41157.55
746.538	41000.72
746.877	41276.41
747.216	41108.28
747.556	40922.98
747.895	41002.52
748.234	40856.76
748.573	40788.74
748.911	40748.07
749.25	40753.26
749.589	40536.77
749.928	40644.34
750.267	40661.06
750.605	40518.24
750.944	40281.19
751.283	40207.29
751.621	40422.2
751.96	40210
752.298	40157.57
752.636	40189.66
752.975	39890.91
753.313	39753.74
753.651	40088.65
753.989	39779.73
754.327	39694.54
754.666	39417.71
755.004	39548.78
755.342	39641.43
755.679	39523.24
756.017	39290.25
756.355	39505.84
756.693	39295.68
757.031	39294.55
757.368	39023.37
757.706	38998.28
758.044	38876.25
758.381	38972.75
758.719	38899.3
759.056	38807.78
759.394	38734.56
759.731	38459.54
760.068	38329.15
760.405	38238.53
760.743	38136.61
761.08	38332.31
761.417	38084.86
761.754	37949.72
762.091	38024.52
762.428	37818.65
762.765	37523.74
763.102	37694.14
763.438	37377.08
763.775	37287.59
764.112	37148.61
764.449	37322.62
764.785	37211.44
765.122	37001.95
765.458	36717.89
765.795	36820.26
766.131	36808.06
766.467	36629.76
766.804	36329.43
767.14	36265.7
767.476	36370.1
767.812	36097.34
768.148	36114.06
768.485	35857.12
768.821	35713.4
769.157	35647.64
769.492	35616.68
769.828	35437.7
770.164	35302.33
770.5	35125.84
770.836	35083.81
771.171	34950.25
771.507	34771.05
771.842	34664.61
772.178	34515.91
772.513	34572.41
772.849	34481.34
773.184	34266.43
773.519	34292.87
773.855	34080.9
774.19	34016.72
774.525	33763.17
774.86	33961.8
775.195	33673.9
775.53	33639.1
775.865	33372.67
776.2	33168.61
776.535	33010.64
776.87	33065.33
777.205	32805.45
777.539	32841.16
777.874	32784.21
778.209	32348.97
778.543	32444.33
778.878	32150.1
779.212	32371.79
779.547	32038.92
779.881	32104.23
780.215	31964.12
780.55	31957.56
780.884	31640.96
781.218	31625.82
781.552	31593.51
781.886	31413.4
782.22	31258.15
782.554	31164.59
782.888	30982.9
783.222	30723.02
783.556	30700.2
783.889	30637.6
784.223	30372.52
784.557	30444.61
784.89	30479.18
785.224	30236.93
785.557	30099.53
785.891	30129.36
786.224	29982.93
786.558	29867.45
786.891	29619.09
787.224	29468.82
787.557	29410.29
787.891	29472.21
788.224	29342.04
788.557	29311.53
788.89	29240.12
789.223	29207.13
789.556	28942.73
789.888	28855.27
790.221	28753.35
790.554	28577.77
790.887	28563.53
791.219	28523.08
791.552	28454.6
791.884	28185.23
792.217	28158.12
792.549	28091.45
792.882	27900.5
793.214	27782.76
793.546	27820.72
793.879	27806.94
794.211	27470.45
794.543	27511.35
794.875	27514.97
795.207	27525.59
795.539	27320.17
795.871	27256.44
796.203	27153.85
796.535	26908.43
796.867	26852.16
797.198	26893.06
797.53	26804.25
797.862	26559.06
798.193	26741.66
798.525	26492.62
798.856	26560.42
799.188	26264.61
799.519	26160.43
799.85	25963.82
800.182	26014.67
800.513	25993.2
800.844	25758.4
801.175	25967.21
801.506	25853.77
801.837	25682.25
802.168	25673.44
802.499	25410.84
802.83	25399.09
803.161	25427.57
803.491	25331.07
803.822	25303.73
804.153	25155.26
804.483	25080.91
804.814	24951.87
805.145	24861.03
805.475	24800.24
805.805	24791.88
806.136	24783.06
806.466	24769.28
806.796	24604.99
807.126	24467.14
807.457	24464.43
807.787	24365.45
808.117	24351.66
808.447	24241.16
808.777	24259.91
809.107	24093.14
809.436	24203.19
809.766	24119.58
810.096	24028.05
810.426	23888.62
810.755	23956.64
811.085	23804.56
811.414	23754.62
811.744	23601.85
812.073	23527.28
812.403	23534.73
812.732	23392.37
813.061	23415.42
813.39	23219.04
813.719	23281.86
814.049	23270.56
814.378	23160.05
814.707	23167.06
815.036	23060.17
815.365	22927.97
815.693	22791.7
816.022	22761.2
816.351	22696.79
816.68	22642.1
817.008	22730.46
817.337	22477.13
817.665	22412.5
817.994	22537.47
818.322	22501.77
818.651	22245.05
818.979	22243.92
819.307	22361.66
819.636	22257.25
819.964	21998.73
820.292	22166.86
820.62	22179.06
820.948	21993.76
821.276	22090.03
821.604	22012.29
821.932	22172.06
822.259	22016.36
822.587	22007.32
822.915	21961.22
823.243	22076.47
823.57	22025.4
823.898	22066.3
824.225	21901.78
824.553	21917.15
824.88	21941.56
825.207	22065.39
825.535	21977.49
825.862	22027.66
826.189	21844.16
826.516	21937.94
826.843	22096.13
827.17	21975.68
827.497	22018.84
827.824	21993.53
828.151	22042.8
828.478	21895
828.805	22074.89
829.131	21859.07
829.458	21898.62
829.785	21770.71
830.111	21894.33
830.438	21974.1
830.764	21859.3
831.09	21840.54
831.417	21771.84
831.743	21886.19
832.069	21802.35
832.395	21815.46
832.722	21877.15
833.048	21738.85
833.374	21635.8
833.7	21743.82
834.026	21766.87
834.351	21738.17
834.677	21638.74
835.003	21725.97
835.329	21629.02
835.654	21743.59
835.98	21590.83
836.306	21559.42
836.631	21445.3
836.956	21536.14
837.282	21462.92
837.607	21452.08
837.932	21327.79
838.258	21315.13
838.583	21328.46
838.908	21222.25
839.233	21283.27
839.558	21253.44
839.883	20948.14
840.208	21087.12
840.533	21196.04
840.858	21142.03
841.182	21059.77
841.507	20967.34
841.832	20873.79
842.156	20804.64
842.481	20878.76
842.805	20846.9
843.13	20744.3
843.454	20721.25
843.778	20638.54
844.103	20581.59
844.427	20566.45
844.751	20621.82
845.075	20402.61
845.399	20471.76
845.723	20394.7
846.047	20354.48
846.371	20198.1
846.695	20189.74
847.019	19971.66
847.343	19949.74
847.666	19910.42
847.99	19724.21
848.313	19798.56
848.637	19701.16
848.96	19507.04
849.284	19626.81
849.607	19368.52
849.931	19371.45
850.254	19275.64
850.577	19163.55
850.9	19051.24
851.223	19073.83
851.546	18880.62
851.869	18803.11
852.192	18940.05
852.515	18646.95
852.838	18644.24
853.161	18597.69
853.483	18486.51
853.806	18386.62
854.129	18410.35
854.451	18345.49
854.774	18200.64
855.096	18176.01
855.419	18105.5
855.741	18120.19
856.063	18027.76
856.385	18023.47
856.708	17830.48
857.03	17819.63
857.352	17908.22
857.674	17642.23
857.996	17654.44
858.318	17608.34
858.64	17599.07
858.961	17495.12
859.283	17540.77
859.605	17462.13
859.926	17498.96
860.248	17252.19
860.57	17307.1
860.891	17295.8
861.212	17289.25
861.534	17163.38
861.855	17153.66
862.176	17111.63
862.498	17096.03
862.819	17149.82
863.14	17016.94
863.461	16938.07
863.782	16971.29
864.103	16878.41
864.424	16917.51
864.745	16933.55
865.065	16835.48
865.386	16752.31
865.707	16759.55
866.027	16690.39
866.348	16686.78
866.668	16594.8
866.989	16571.08
867.309	16522.72
867.63	16640
867.95	16467.58
868.27	16547.8
868.59	16474.13
868.91	16451.76
869.23	16376.5
869.55	16371.53
869.87	16344.19
870.19	16284.53
870.51	16281.37
870.83	16308.71
871.15	16215.83
871.469	16305.32
871.789	16290.4
872.109	16221.03
872.428	16100.58
872.748	16156.4
873.067	16168.15
873.386	16195.72
873.706	16110.97
874.025	16052.45
874.344	16070.07
874.663	15978.77
874.982	15875.73
875.301	15938.32
875.62	15908.27
875.939	15863.98
876.258	15928.61
876.577	15777.2
876.896	15839.57
877.214	15666.24
877.533	15775.62
877.852	15717.31
878.17	15689.06
878.489	15739.23
878.807	15622.85
879.125	15593.02
879.444	15586.92
879.762	15466.02
880.08	15522.29
880.398	15386.93
880.716	15515.74
881.034	15440.94
881.352	15344.67
881.67	15390.99
881.988	15453.14
882.306	15322.75
882.624	15186.93
882.941	15255.18
883.259	15142.41
883.577	15095.63
883.894	15016.54
884.212	15028.07
884.529	15135.18
884.846	15051.12
885.164	15041.62
885.481	14921.4
885.798	15015.18
886.115	14816.09
886.432	14873.27
886.75	14735.87
887.067	14802.08
887.383	14740.62
887.7	14745.36
888.017	14610.68
888.334	14735.64
888.651	14578.13
888.967	14503.11
889.284	14418.82
889.6	14478.02
889.917	14360.74
890.233	14430.79
890.55	14372.04
890.866	14305.15
891.182	14255.88
891.498	14201.42
891.815	14133.63
892.131	14098.15
892.447	14055.21
892.763	14010.24
893.079	14019.96
893.395	13898.15
893.71	13949.45
894.026	13938.15
894.342	13764.37
894.657	13750.13
894.973	13683.92
895.289	13732.51
895.604	13770.92
895.92	13656.58
896.235	13555.79
896.55	13556.01
896.865	13511.04
897.181	13400.09
897.496	13406.41
897.811	13330.26
898.126	13228.11
898.441	13270.82
898.756	13141.56
899.071	13136.82
899.386	13142.92
899.7	13000.32
900.015	12993.54
900.33	12891.62
900.644	12872.19
900.959	12916.71
901.273	12863.83
901.588	12827.67
901.902	12695.47
902.216	12757.84
902.531	12617.51
902.845	12604.17
903.159	12485.08
903.473	12449.15
903.787	12398.3
904.101	12391.3
904.415	12340.45
904.729	12303.84
905.042	12287.35
905.356	12217.52
905.67	12233.11
905.984	12222.49
906.297	12137.07
906.611	12116.96
906.924	12000.57
907.237	11930.07
907.551	11875.15
907.864	11822.5
908.177	11836.28
908.491	11748.6
908.804	11679.45
909.117	11646.46
909.43	11600.13
909.743	11551.32
910.056	11554.26
910.368	11454.83
910.681	11451.21
910.994	11366.69
911.307	11338.22
911.619	11263.42
911.932	11304.55
912.244	11191.56
912.557	11167.38
912.869	11086.47
913.181	11021.62
913.494	11015.74
913.806	10938
914.118	10925.8
914.43	10858.46
914.742	10837.22
915.054	10769.65
915.366	10686.71
915.678	10728.07
915.99	10607.62
916.302	10545.47
916.613	10509.77
916.925	10540.73
917.236	10472.25
917.548	10410.79
917.859	10384.35
918.171	10326.04
918.482	10270.22
918.794	10277
919.105	10224.12
919.416	10107.52
919.727	10113.39
920.038	10085.14
920.349	10032.94
920.66	9953.85
920.971	9929.67
921.282	9922.44
921.593	9845.15
921.903	9863
922.214	9774.19
922.525	9737.36
922.835	9676.79
923.146	9546.63
923.456	9620.07
923.767	9453.75
924.077	9588.89
924.387	9429.34
924.697	9425.27
925.008	9394.32
925.318	9362
925.628	9290.82
925.938	9249.69
926.248	9153.19
926.558	9157.71
926.867	9143.93
927.177	9147.32
927.487	9015.34
927.796	8968.79
928.106	9037.71
928.416	8963.14
928.725	8971.28
929.034	8888.79
929.344	8794.56
929.653	8794.33
929.962	8754.78
930.271	8715.01
930.581	8689.25
930.89	8695.58
931.199	8588.69
931.508	8553.89
931.817	8588.91
932.125	8553.89
932.434	8500.78
932.743	8347.34
933.051	8379.43
933.36	8310.5
933.669	8296.72
933.977	8317.06
934.286	8216.72
934.594	8266.21
934.902	8108.93
935.21	8152.31
935.519	8183.5
935.827	8058.76
936.135	8066.21
936.443	8007.68
936.751	7905.54
937.059	7949.16
937.367	7835.94
937.674	7865.99
937.982	7805.2
938.29	7745.09
938.597	7765.66
938.905	7725.43
939.213	7618.09
939.52	7629.39
939.827	7611.54
940.135	7568.6
940.442	7489.96
940.749	7560.47
941.056	7478.89
941.363	7438.21
941.67	7397.98
941.977	7335.61
942.284	7296.52
942.591	7264.43
942.898	7221.72
943.205	7224.65
943.511	7176.29
943.818	7186.24
944.125	7148.27
944.431	7142.62
944.738	7128.16
945.044	7010.42
945.35	6958
945.657	7017.88
945.963	6931.33
946.269	6942.85
946.575	6912.35
946.881	6813.59
947.187	6767.94
947.493	6778.11
947.799	6763.42
948.105	6729.53
948.41	6704.22
948.716	6722.52
949.022	6670.32
949.327	6616.08
949.633	6565.24
949.938	6559.36
950.244	6538.12
950.549	6479.59
950.854	6423.77
951.16	6445.69
951.465	6361.63
951.77	6348.75
952.075	6356.2
952.38	6365.92
952.685	6305.81
952.99	6285.7
953.294	6276.21
953.599	6169.54
953.904	6177.45
954.209	6168.86
954.513	6139.94
954.818	6064.01
955.122	6090
955.426	6074.18
955.731	6061.75
956.035	5932.49
956.339	5984.46
956.643	5924.12
956.948	5883.9
957.252	5902.43
957.556	5911.69
957.86	5815.2
958.163	5827.63
958.467	5803.68
958.771	5720.97
959.075	5774.98
959.378	5711.02
959.682	5716.45
959.985	5646.62
960.289	5619.05
960.592	5593.29
960.896	5637.13
961.199	5592.38
961.502	5522.1
961.805	5513.29
962.108	5478.49
962.411	5476
962.714	5435.1
963.017	5419.73
963.32	5449.11
963.623	5356.46
963.926	5424.7
964.228	5347.42
964.531	5284.37
964.833	5275.55
965.136	5253.63
965.438	5253.86
965.741	5217.25
966.043	5179.96
966.345	5149.23
966.648	5113.98
966.95	5138.61
967.252	5019.29
967.554	5063.36
967.856	5082.79
968.158	4957.82
968.46	4965.73
968.761	4969.35
969.063	4942.23
969.365	4925.96
969.666	4883.47
969.968	4848.9
970.269	4865.39
970.571	4884.83
970.872	4812.06
971.174	4736.81
971.475	4738.84
971.776	4787.88
972.077	4679.41
972.378	4734.78
972.679	4686.87
972.98	4664.5
973.281	4651.39
973.582	4573.65
973.883	4629.69
974.183	4597.83
974.484	4605.74
974.785	4519.19
975.085	4498.4
975.386	4523.26
975.686	4515.8
975.986	4461.79
976.287	4475.8
976.587	4394.22
976.887	4433.77
977.187	4377.27
977.487	4347.67
977.787	4307.44
978.087	4271.96
978.387	4276.26
978.687	4271.51
978.987	4293.66
979.286	4280.78
979.586	4219.54
979.885	4206.65
980.185	4226.54
980.484	4148.58
980.784	4150.61
981.083	4151.29
981.382	4081.46
981.682	4102.93
981.981	4142.93
982.28	4043.95
982.579	4001.69
982.878	4027
983.177	4012.54
983.475	4001.69
983.774	3919.43
984.073	3960.56
984.372	3956.27
984.67	3913.56
984.969	3915.82
985.267	3850.51
985.566	3864.29
985.864	3870.17
986.162	3833.11
986.461	3811.64
986.759	3791.52
987.057	3734.58
987.355	3707.91
987.653	3740.23
987.951	3744.29
988.249	3705.88
988.547	3681.02
988.844	3662.71
989.142	3681.25
989.44	3619.55
989.737	3591.98
990.035	3618.87
990.332	3567.35
990.63	3536.62
990.927	3527.35
991.224	3543.85
991.521	3478.76
991.819	3495.94
992.116	3426.79
992.413	3474.24
992.71	3411.65
993.006	3413.91
993.303	3400.12
993.6	3398.77
993.897	3398.54
994.193	3384.53
994.49	3340.69
994.787	3324.42
995.083	3276.74
995.379	3327.58
995.676	3280.58
995.972	3298.88
996.268	3254.36
996.565	3211.2
996.861	3198.32
997.157	3159
997.453	3195.16
997.749	3151.99
998.044	3186.34
998.34	3127.81
998.636	3110.86
998.932	3094.14
999.227	3102.96
999.523	3096.18
999.818	3033.58
1000.114	3020.7
1000.409	3018.21
1000.704	3015.27
1001	2978.21
1001.295	2963.07
1001.59	2915.84
1001.885	2940.47
1002.18	2926.46
1002.475	2922.85
1002.77	2847.37
1003.065	2846.24
1003.359	2853.47
1003.654	2812.57
1003.949	2807.82
1004.243	2791.1
1004.538	2783.87
1004.832	2771.89
1005.127	2775.51
1005.421	2723.08
1005.715	2724.43
1006.009	2705.68
1006.304	2676.07
1006.598	2657.54
1006.892	2691.67
1007.186	2625.23
1007.48	2629.52
1007.773	2645.79
1008.067	2591.1
1008.361	2580.48
1008.655	2573.03
1008.948	2560.6
1009.242	2547.26
1009.535	2506.36
1009.829	2505.91
1010.122	2482.18
1010.415	2460.49
1010.708	2430.66
1011.001	2440.37
1011.295	2418.68
1011.588	2409.19
1011.881	2419.58
1012.173	2375.97
1012.466	2404.22
1012.759	2349.75
1013.052	2335.29
1013.344	2314.05
1013.637	2308.4
1013.93	2307.72
1014.222	2273.15
1014.514	2245.12
1014.807	2259.14
1015.099	2266.59
1015.391	2206.26
1015.683	2227.05
1015.976	2197.67
1016.268	2196.99
1016.56	2173.94
1016.851	2158.35
1017.143	2137.1
1017.435	2119.03
1017.727	2113.15
1018.018	2081.06
1018.31	2125.13
1018.602	2063.89
1018.893	2038.8
1019.185	2059.37
1019.476	2056.43
1019.767	2006.94
1020.058	1992.48
1020.35	1985.92
1020.641	1970.78
1020.932	1965.58
1021.223	1961.74
1021.514	1913.38
1021.804	1900.05
1022.095	1888.75
1022.386	1858.69
1022.677	1875.42
1022.967	1842.42
1023.258	1867.96
1023.548	1828.41
1023.839	1794.06
1024.129	1803.33
1024.419	1806.04
1024.709	1801.29
1025	1789.77
1025.29	1714.97
1025.58	1741.18
1025.87	1733.95
1026.16	1728.08
1026.449	1730.11
1026.739	1695.76
1027.029	1695.31
1027.319	1674.29
1027.608	1639.49
1027.898	1651.02
1028.187	1635.65
1028.477	1630.9
1028.766	1591.81
1029.055	1607.85
1029.344	1598.36
1029.634	1589.77
1029.923	1580.51
1030.212	1572.37
1030.501	1566.05
1030.79	1528.31
1031.078	1534.86
1031.367	1531.7
1031.656	1497.57
1031.945	1495.09
1032.233	1481.75
1032.522	1461.19
1032.81	1470.91
1033.099	1455.99
1033.387	1446.05
1033.675	1428.42
1033.963	1422.1
1034.251	1428.2
1034.54	1409.44
1034.828	1388.88
1035.116	1375.32
1035.403	1356.56
1035.691	1363.57
1035.979	1382.32
1036.267	1349.78
1036.554	1343.45
1036.842	1314.98
1037.129	1331.7
1037.417	1310.23
1037.704	1319.73
1037.992	1293.06
1038.279	1295.77
1038.566	1298.71
1038.853	1298.71
1039.14	1298.71
