Data from orange_diffuse_book_FLMS001491_00040.txt Node
Date: Wed Feb 08 15:29:29 GMT 2017
User: dcchb
Spectrometer: FLMS00149
Trigger mode: 0
Integration Time (sec): 2.000000E-2
Scans to average: 10
Electric dark correction enabled: true
Nonlinearity correction enabled: false
Boxcar width: 0
XAxis mode: Wavelengths
Number of Pixels in Spectrum: 2048
>>>>>Begin Spectral Data<<<<<
341.393	-19.25
341.776	-19.25
342.16	-19.25
342.543	-57.67
342.927	-48.63
343.31	-68.74
343.693	-67.84
344.077	-71.68
344.46	-76.2
344.843	-49.53
345.226	-47.5
345.61	-22.41
345.993	-19.25
346.376	-12.92
346.759	22.78
347.142	31.6
347.525	44.02
347.908	54.42
348.291	98.03
348.674	69.56
349.057	115.66
349.44	134.19
349.823	135.1
350.206	176.9
350.588	202.66
350.971	221.19
351.354	236.11
351.737	235.88
352.119	279.72
352.502	277.24
352.884	300.51
353.267	305.94
353.65	323.56
354.032	335.99
354.414	312.94
354.797	338.93
355.179	347.75
355.562	349.33
355.944	340.51
356.326	356.33
356.709	359.5
357.091	336.22
357.473	361.98
357.855	366.28
358.238	348.65
358.62	364.69
359.002	358.37
359.384	371.47
359.766	359.04
360.148	370.12
360.53	359.72
360.912	382.09
361.294	353.17
361.676	359.04
362.057	375.99
362.439	363.34
362.821	352.49
363.203	336.9
363.584	356.78
363.966	343.9
364.348	335.32
364.729	329.21
365.111	334.86
365.493	357.91
365.874	346.16
366.256	330.57
366.637	333.06
367.019	341.87
367.4	330.8
367.781	333.06
368.163	343.45
368.544	332.83
368.925	328.76
369.306	360.4
369.688	329.89
370.069	332.15
370.45	343.45
370.831	335.32
371.212	340.29
371.593	339.84
371.974	345.71
372.355	349.1
372.736	335.32
373.117	340.06
373.498	317.01
373.879	357.24
374.26	320.85
374.641	340.74
375.021	337.35
375.402	347.97
375.783	339.38
376.163	356.78
376.544	360.63
376.925	353.85
377.305	362.43
377.686	379.61
378.066	354.75
378.447	363.34
378.827	360.17
379.208	343.68
379.588	364.92
379.968	370.8
380.349	358.14
380.729	372.38
381.109	362.66
381.489	364.69
381.87	370.8
382.25	377.35
382.63	381.42
383.01	356.11
383.39	369.44
383.77	351.36
384.15	371.7
384.53	356.78
384.91	378.03
385.29	393.39
385.67	375.54
386.049	398.37
386.429	383.45
386.809	378.48
387.189	386.16
387.568	388.65
387.948	396.78
388.328	406.73
388.707	378.03
389.087	389.55
389.466	414.18
389.846	402.21
390.225	402.21
390.605	386.39
390.984	383.45
391.363	393.62
391.743	390.91
392.122	403.56
392.501	405.37
392.881	425.03
393.26	413.73
393.639	412.38
394.018	431.13
394.397	413.73
394.776	406.5
395.155	420.74
395.534	420.51
395.913	420.74
396.292	421.64
396.671	427.07
397.05	420.29
397.429	440.4
397.808	415.31
398.186	429.32
398.565	428.65
398.944	423.9
399.323	422.09
399.701	430.45
400.08	439.49
400.458	426.16
400.837	448.53
401.215	432.49
401.594	454.18
401.972	447.86
402.351	476.78
402.729	447.63
403.107	476.1
403.486	453.51
403.864	467.06
404.242	473.62
404.62	470.23
404.999	474.52
405.377	469.78
405.755	446.95
406.133	464.35
406.511	467.97
406.889	478.82
407.267	486.05
407.645	492.83
408.023	467.97
408.401	507.97
408.779	485.14
409.156	500.51
409.534	479.95
409.912	517.68
410.29	522.43
410.667	505.48
411.045	535.08
411.422	540.96
411.8	521.98
412.178	534.41
412.555	522.88
412.933	533.5
413.31	550.45
413.687	550.45
414.065	536.44
414.442	552.71
414.819	590.45
415.197	565.37
415.574	568.3
415.951	568.76
416.328	564.69
416.705	574.86
417.082	587.74
417.46	582.32
417.837	571.92
418.214	609.43
418.591	595.2
418.967	580.28
419.344	605.59
419.721	605.37
420.098	602.88
420.475	616.44
420.852	605.82
421.228	619.15
421.605	617.79
421.982	642.88
422.358	642.65
422.735	643.78
423.111	630.9
423.488	655.53
423.864	663.89
424.241	660.51
424.617	649.88
424.994	660.73
425.37	664.57
425.746	660.96
426.123	668.41
426.499	688.53
426.875	678.36
427.251	694.63
427.627	694.63
428.003	718.13
428.379	687.17
428.756	710.22
429.132	715.65
429.507	738.7
429.883	714.29
430.259	733.72
430.635	747.28
431.011	775.53
431.387	779.15
431.763	751.58
432.138	775.53
432.514	801.74
432.89	803.1
433.265	796.09
433.641	806.04
434.016	825.7
434.392	827.73
434.767	843.1
435.143	831.57
435.518	859.37
435.894	855.08
436.269	848.07
436.644	861.86
437.02	872.25
437.395	872.7
437.77	893.72
438.145	909.09
438.52	905.02
438.895	886.94
439.271	903.89
439.646	901.18
440.021	928.29
440.395	921.29
440.77	918.58
441.145	960.16
441.52	940.5
441.895	934.17
442.27	942.98
442.645	958.8
443.019	974.17
443.394	960.61
443.769	946.15
444.143	973.04
444.518	992.02
444.892	974.4
445.267	970.1
445.641	998.35
446.016	996.09
446.39	991.12
446.764	1020.95
447.139	1004.9
447.513	1010.55
447.887	1014.62
448.262	1034.96
448.636	1028.18
449.01	1030.44
449.384	1080.61
449.758	1051.68
450.132	1081.51
450.506	1094.39
450.88	1062.53
451.254	1063.88
451.628	1081.74
452.002	1084.45
452.376	1094.17
452.75	1118.12
453.123	1115.86
453.497	1111.34
453.871	1133.26
454.244	1145.92
454.618	1163.32
454.992	1159.48
455.365	1195.86
455.739	1181.17
456.112	1178.46
456.486	1214.84
456.859	1203.77
457.232	1213.26
457.606	1237.21
457.979	1227.27
458.352	1252.13
458.725	1253.26
459.099	1266.14
459.472	1280.15
459.845	1299.58
460.218	1296.19
460.591	1317.21
460.964	1321.96
461.337	1324.22
461.71	1360.15
462.083	1392.46
462.456	1382.97
462.829	1372.8
463.201	1408.51
463.574	1410.99
463.947	1415.51
464.32	1436.08
464.692	1433.37
465.065	1472.24
465.438	1457.32
465.81	1480.14
466.183	1448.28
466.555	1530.09
466.928	1514.49
467.3	1530.99
467.672	1565.79
468.045	1592.23
468.417	1582.74
468.789	1607.37
469.161	1614.38
469.534	1625.9
469.906	1638.56
470.278	1672.91
470.65	1648.95
471.022	1689.63
471.394	1738.22
471.766	1777.31
472.138	1748.61
472.51	1795.84
472.882	1796.07
473.253	1795.16
473.625	1846.91
473.997	1855.28
474.369	1909.74
474.74	1899.34
475.112	1938.66
475.484	1930.08
475.855	1946.8
476.227	1994.26
476.598	2062.73
476.97	2059.79
477.341	2147.02
477.713	2152.67
478.084	2144.31
478.455	2196.96
478.827	2202.16
479.198	2262.27
479.569	2235.83
479.94	2326
480.311	2352.44
480.682	2383.62
481.053	2423.85
481.424	2429.95
481.795	2524.41
482.166	2511.3
482.537	2569.83
482.908	2623.84
483.279	2604.63
483.65	2695.71
484.021	2737.74
484.391	2740.9
484.762	2772.77
485.133	2830.39
485.503	2813.67
485.874	2889.6
486.244	2904.97
486.615	2977.96
486.985	3042.14
487.356	3049.14
487.726	3057.28
488.097	3139.99
488.467	3177.28
488.837	3257.05
489.207	3254.56
489.578	3326.88
489.948	3329.59
490.318	3405.52
490.688	3451.17
491.058	3473.54
491.428	3527.1
491.798	3570.94
492.168	3600.54
492.538	3659.07
492.908	3689.8
493.278	3742.46
493.648	3764.15
494.017	3842.12
494.387	3859.97
494.757	3880.08
495.126	3959.63
495.496	3955.33
495.866	4015.22
496.235	4078.49
496.605	4067.65
496.974	4124.37
497.344	4186.06
497.713	4213.41
498.082	4258.83
498.452	4314.19
498.821	4325.49
499.19	4341.09
499.559	4404.59
499.928	4446.17
500.298	4481.42
500.667	4561.87
501.036	4537.92
501.405	4595.32
501.774	4609.1
502.143	4689.78
502.512	4673.96
502.88	4723
503.249	4709.66
503.618	4829.44
503.987	4857.01
504.356	4848.87
504.724	4868.98
505.093	4957.57
505.462	4937.91
505.83	5008.64
506.199	5079.6
506.567	5141.07
506.936	5145.36
507.304	5156.66
507.672	5215.41
508.041	5260.61
508.409	5268.07
508.777	5333.38
509.145	5393.94
509.514	5426.03
509.882	5452.47
510.25	5404.34
510.618	5481.17
510.986	5536.76
511.354	5577.44
511.722	5673.71
512.09	5672.58
512.458	5674.16
512.826	5725.91
513.193	5762.97
513.561	5776.3
513.929	5874.83
514.297	5887.03
514.664	5971.78
515.032	6012.91
515.4	6078.44
515.767	6067.14
516.135	6100.36
516.502	6052.68
516.869	6166.8
517.237	6244.09
517.604	6161.15
517.972	6298.1
518.339	6328.15
518.706	6314.59
519.073	6383.07
519.44	6423.97
519.808	6493.57
520.175	6513.68
520.542	6559.56
520.909	6614.92
521.276	6644.53
521.643	6734.02
522.009	6774.47
522.376	6812.43
522.743	6784.41
523.11	6929.04
523.477	6926.78
523.843	6997.06
524.21	7095.82
524.577	7164.74
524.943	7175.81
525.31	7225.3
525.676	7256.94
526.043	7271.63
526.409	7373.1
526.776	7480.44
527.142	7454.45
527.508	7511.4
527.874	7567.44
528.241	7574.22
528.607	7636.14
528.973	7696.03
529.339	7694.67
529.705	7797.49
530.071	7787.55
530.437	7851.05
530.803	7924.72
531.169	7999.97
531.535	7917.72
531.901	7981.67
532.267	8039.75
532.632	8056.24
532.998	8092.85
533.364	8209.46
533.73	8230.48
534.095	8312.28
534.461	8276.58
534.826	8358.16
535.192	8404.71
535.557	8382.34
535.923	8448.55
536.288	8471.83
536.653	8456.91
537.019	8543.91
537.384	8573.29
537.749	8627.75
538.114	8639.28
538.479	8632.72
538.845	8764.47
539.21	8672.5
539.575	8812.83
539.94	8793.62
540.305	8923.79
540.67	8894.64
541.034	8933.73
541.399	8987.74
541.764	9007.18
542.129	9023.45
542.494	9092.6
542.858	9090.34
543.223	9102.54
543.587	9141.64
543.952	9197.23
544.316	9233.61
544.681	9262.31
545.045	9327.85
545.41	9411.24
545.774	9382.54
546.138	9382.54
546.503	9480.84
546.867	9479.93
547.231	9567.16
547.595	9612.81
547.959	9653.94
548.324	9712.47
548.688	9750.44
549.052	9732.36
549.416	9795.41
549.779	9807.84
550.143	9912.47
550.507	9986.36
550.871	10026.13
551.235	10025.68
551.599	10139.35
551.962	10120.82
552.326	10178.45
552.689	10215.51
553.053	10254.38
553.417	10299.12
553.78	10439.23
554.143	10422.51
554.507	10469.96
554.87	10534.82
555.234	10689.85
555.597	10643.97
555.96	10676.97
556.323	10820.46
556.686	10828.6
557.05	10939.33
557.413	11003.51
557.776	10966.22
558.139	11051.87
558.502	11147.69
558.865	11243.73
559.228	11345.65
559.59	11382.71
559.953	11501.12
560.316	11562.82
560.679	11649.37
561.041	11659.76
561.404	11815.92
561.767	11899.08
562.129	11918.51
562.492	12094.78
562.854	12130.71
563.217	12184.5
563.579	12255.23
563.941	12388.78
564.304	12477.6
564.666	12660.87
565.028	12702.45
565.39	12792.16
565.753	12922.56
566.115	13023.57
566.477	13139.73
566.839	13216.11
567.201	13359.38
567.563	13460.62
567.925	13677.79
568.287	13727.96
568.648	13831.68
569.01	14004.79
569.372	14139.92
569.734	14169.98
570.095	14388.28
570.457	14507.37
570.819	14675.28
571.18	14786.01
571.542	15017.19
571.903	15086.34
572.265	15339.22
572.626	15443.17
572.987	15662.14
573.349	15872.31
573.71	16096.48
574.071	16141.91
574.432	16335.12
574.794	16614.66
575.155	16778.05
575.516	16886.97
575.877	17212.16
576.238	17417.35
576.599	17660.74
576.96	17763.56
577.32	18022.08
577.681	18374.16
578.042	18583.42
578.403	18862.51
578.763	19022.51
579.124	19478.09
579.485	19649.84
579.845	20006.66
580.206	20192.65
580.566	20507.44
580.927	20708.34
581.287	21141.1
581.648	21353.97
582.008	21762.55
582.368	22038.47
582.728	22360.95
583.089	22677.78
583.449	22865.57
583.809	23372.22
584.169	23763.4
584.529	24011.3
584.889	24602.02
585.249	24738.52
585.609	25184.38
585.969	25693.97
586.329	25937.81
586.688	26361.3
587.048	26814.17
587.408	27084.67
587.768	27540.02
588.127	27847.14
588.487	28144.75
588.846	28902.25
589.206	29197.38
589.565	29575
589.925	30009.56
590.284	30446.16
590.643	30898.35
591.003	31384.22
591.362	31776.52
591.721	32395.49
592.08	32754.58
592.44	33186.66
592.799	33721.78
593.158	34059.18
593.517	34497.13
593.876	35044.69
594.235	35388.86
594.593	35887.15
594.952	36493.46
595.311	36896.16
595.67	37222.26
596.029	37913.99
596.387	38374.54
596.746	38835.77
597.104	39113.96
597.463	39632.81
597.822	40128.39
598.18	40377.43
598.538	40643.18
598.897	41402.26
599.255	41479.54
599.613	42444.94
599.972	42578.5
600.33	42973.06
600.688	43186.62
601.046	43687.4
601.404	44298.91
601.762	44590.65
602.12	45059.34
602.478	45332.1
602.836	45600.57
603.194	45956.49
603.552	46291.4
603.91	46503.82
604.268	46911.04
604.625	47154.2
604.983	47662.66
605.341	47772.03
605.698	48302.19
606.056	48409.08
606.413	48729.07
606.771	48998.9
607.128	49273.69
607.485	49375.83
607.843	49607.69
608.2	50013.11
608.557	50349.14
608.914	50378.75
609.272	50676.14
609.629	50823.93
609.986	51166.07
610.343	51147.77
610.7	51552.5
611.057	51563.57
611.414	51721.08
611.771	51844.02
612.127	52136.21
612.484	52208.98
612.841	52389.77
613.198	52428.18
613.554	52563.32
613.911	52831.56
614.267	52946.36
614.624	53027.72
614.98	53012.58
615.337	53397.2
615.693	53458.66
616.05	53511.09
616.406	53714.7
616.762	53657.08
617.118	53787.24
617.475	53796.96
617.831	53995.6
618.187	54055.49
618.543	54157.4
618.899	54411.63
619.255	54431.07
619.611	54439.88
619.967	54540.67
620.323	54649.37
620.678	54652.08
621.034	54624.28
621.39	54652.76
621.746	54615.92
622.101	55036.25
622.457	54830.15
622.812	54902.02
623.168	54966.2
623.523	55002.35
623.879	55158.96
624.234	54985.18
624.589	55173.87
624.945	55173.42
625.3	55262.46
625.655	55304.04
626.01	55301.55
626.365	55384.26
626.72	55283.48
627.075	55361.44
627.43	55359.63
627.785	55346.3
628.14	55451.83
628.495	55553.75
628.85	55444.6
629.205	55411.38
629.559	55572.51
629.914	55462
630.269	55523.92
630.623	55441.44
630.978	55356.92
631.332	55595.11
631.687	55600.3
632.041	55469.91
632.396	55608.44
632.75	55475.34
633.104	55544.71
633.459	55422.91
633.813	55337.26
634.167	55451.61
634.521	55413.19
634.875	55417.26
635.229	55453.87
635.583	55333.87
635.937	55455.45
636.291	55328.67
636.645	55410.48
636.999	55286.19
637.352	55416.35
637.706	55245.51
638.06	55369.58
638.413	55332.06
638.767	55208.9
639.121	55277.6
639.474	55163.25
639.828	55210.48
640.181	55179.07
640.534	55280.31
640.888	55187.66
641.241	55030.83
641.594	55136.59
641.947	55224.95
642.301	55083.71
642.654	55149.02
643.007	55238.05
643.36	55150.6
643.713	55054.33
644.066	55154.89
644.419	55019.98
644.771	54771.85
645.124	54576.38
645.477	54454.8
645.83	54347
646.182	54360.11
646.535	54280.79
646.888	54279.66
647.24	54130.51
647.593	54296.84
647.945	54252.32
648.298	54123.51
648.65	54191.08
649.002	54087.35
649.355	54151.08
649.707	54132.32
650.059	54184.07
650.411	54629.93
650.763	54648.69
651.115	54892.3
651.467	54799.42
651.819	54836.26
652.171	54732.3
652.523	54748.57
652.875	54716.49
653.227	54572.53
653.578	54793.77
653.93	54844.17
654.282	54597.17
654.633	54536.6
654.985	54672.64
655.337	54610.5
655.688	54658.86
656.039	54794
656.391	54448.47
656.742	54570.95
657.094	54596.71
657.445	54743.6
657.796	54584.96
658.147	54563.95
658.498	54587
658.849	54586.77
659.2	54573.21
659.551	54481.46
659.902	54676.26
660.253	54632.65
660.604	54570.05
660.955	54429.26
661.306	54591.29
661.656	54440.11
662.007	54534.12
662.358	54512.2
662.708	54455.93
663.059	54441.92
663.409	54305.87
663.76	54574.79
664.11	54563.95
664.461	54584.74
664.811	54506.55
665.161	54539.31
665.511	54421.35
665.862	54434.68
666.212	54579.31
666.562	54565.08
666.912	54443.72
667.262	54369.6
667.612	54405.08
667.962	54370.96
668.312	54379.77
668.662	54414.35
669.011	54412.54
669.361	54325.31
669.711	54330.96
670.06	54230.62
670.41	54210.28
670.76	54126.22
671.109	54318.08
671.459	54266.33
671.808	54144.75
672.157	54256.38
672.507	54060.68
672.856	54082.15
673.205	54076.73
673.554	54149.27
673.904	54073.11
674.253	54225.2
674.602	54080.12
674.951	53641.26
675.3	53446.91
675.649	53934.58
675.998	53926.68
676.346	53928.03
676.695	54046.22
677.044	53832.21
677.393	53832.21
677.741	53891.87
678.09	53862.95
678.438	53772.78
678.787	53792.44
679.135	53765.1
679.484	53524.65
679.832	53716.96
680.181	53558.55
680.529	53641.94
680.877	53516.74
681.225	53453.69
681.573	53606.01
681.922	53474.26
682.27	53362.4
682.618	53415.5
682.966	53437.87
683.314	53441.49
683.661	53283.08
684.009	53134.38
684.357	53086.25
684.705	53107.04
685.053	53125.11
685.4	53093.7
685.748	52960.15
686.095	52865.91
686.443	52728.29
686.79	52874.95
687.138	52820.49
687.485	52827.27
687.832	52646.48
688.18	52689.65
688.527	52433.61
688.874	52580.5
689.221	52383.67
689.568	52318.36
689.915	52223.9
690.262	52114.75
690.609	52118.81
690.956	52062.54
691.303	51975.77
691.65	51843.11
691.997	51806.73
692.344	51599.96
692.69	51549.34
693.037	51708.43
693.383	51350.7
693.73	51461.2
694.077	51341.88
694.423	51280.87
694.769	51196.35
695.116	51162.68
695.462	51013.76
695.808	50988.9
696.155	51009.01
696.501	50706.19
696.847	50837.72
697.193	50497.84
697.539	50760.88
697.885	50365.41
698.231	50252.65
698.577	50348.69
698.923	50210.16
699.269	50077.06
699.614	49891.75
699.96	49832.32
700.306	49783.28
700.651	49627.58
700.997	49565.66
701.342	49467.36
701.688	49436.17
702.033	49252.45
702.379	49296.97
702.724	49061.27
703.069	49216.97
703.415	48773.14
703.76	48795.28
704.105	48847.49
704.45	48633.71
704.795	48477.1
705.14	48322.53
705.485	48376.31
705.83	48165.47
706.175	48122.31
706.52	48081.41
706.865	47907.85
707.209	47865.14
707.554	47743.56
707.899	47827.63
708.243	47575.2
708.588	47595.77
708.932	47324.14
709.277	47172.95
709.621	47297.02
709.966	47061.09
710.31	47103.8
710.654	46782
710.998	46909.68
711.342	46883.7
711.687	46695.23
712.031	46626.08
712.375	46436.48
712.719	46492.29
713.063	46518.06
713.407	46698.39
713.75	46425.18
714.094	46195.35
714.438	46046.88
714.782	46001.69
715.125	45815.7
715.469	45966.66
715.812	45753.78
716.156	45704.74
716.499	45660.45
716.843	45755.82
717.186	45537.52
717.53	45739.09
717.873	45501.36
718.216	45545.88
718.559	45328.26
718.902	44997.42
719.246	45161.48
719.589	45040.13
719.932	44833.13
720.275	44820.25
720.617	44710.42
720.96	44708.39
721.303	44771.21
721.646	44757.88
721.989	44462.97
722.331	44627.71
722.674	44512.46
723.016	44573.7
723.359	44377.55
723.701	44392.01
724.044	44108.18
724.386	44033.6
724.729	44266.14
725.071	44196.99
725.413	44183.43
725.755	44039.48
726.097	43781.63
726.439	43789.77
726.782	43764.68
727.124	43931.91
727.465	43657.11
727.807	43629.32
728.149	43708.64
728.491	43530.79
728.833	43638.13
729.175	43341.42
729.516	43370.34
729.858	43364.69
730.199	43372.15
730.541	43270.46
730.882	43191.59
731.224	43349.33
731.565	42954.08
731.906	43143.91
732.248	43090.8
732.589	42939.39
732.93	42968.32
733.271	42924.03
733.612	42804.93
733.953	42772.39
734.294	42566.75
734.635	42584.15
734.976	42718.83
735.317	42333.76
735.658	42548.67
735.999	42523.59
736.339	42434.55
736.68	42477.03
737.021	42460.99
737.361	42315.91
737.702	42362.01
738.042	42167.66
738.383	42176.25
738.723	42176.93
739.063	42025.75
739.404	42235.68
739.744	42096.7
740.084	41956.37
740.424	42046.76
740.764	41854
741.104	42007.44
741.444	41829.37
741.784	41677.51
742.124	41774.23
742.464	41592.99
742.804	41592.08
743.143	41590.73
743.483	41582.82
743.823	41457.62
744.162	41351.64
744.502	41395.03
744.841	41222.83
745.181	41440.22
745.52	41072.55
745.86	41233
746.199	41188.48
746.538	41126.79
746.877	41143.28
747.216	41188.93
747.556	41087.24
747.895	41116.84
748.234	40883.63
748.573	40790.52
748.911	40766.57
749.25	40777.64
749.589	40568.16
749.928	40574.48
750.267	40697.87
750.605	40530.64
750.944	40458.55
751.283	40286.81
751.621	40528.84
751.96	40200.03
752.298	40261.05
752.636	40102.18
752.975	40078.45
753.313	39918.46
753.651	40168.62
753.989	39887.04
754.327	39855.18
754.666	39604.57
755.004	39730.89
755.342	39750.32
755.679	39522.53
756.017	39433.95
756.355	39473.5
756.693	39306.04
757.031	39328.87
757.368	39116.9
757.706	39101.75
758.044	38957.8
758.381	38933.62
758.719	38888.88
759.056	38821.31
759.394	38692.95
759.731	38498.15
760.068	38376.58
760.405	38176.35
760.743	38101.78
761.08	38228.33
761.417	38109.24
761.754	37994.21
762.091	37818.4
762.428	37668.12
762.765	37565.3
763.102	37728.68
763.438	37374.12
763.775	37196.72
764.112	37264.74
764.449	37190.39
764.785	37230.39
765.122	36909.5
765.458	36858.88
765.795	36789.95
766.131	36672.21
766.467	36482.39
766.804	36449.17
767.14	36318.55
767.476	36307.48
767.812	36174.15
768.148	36136.63
768.485	35930.54
768.821	35736.42
769.157	35582.52
769.492	35581.17
769.828	35572.13
770.164	35196.09
770.5	35147.96
770.836	35137.11
771.171	34946.84
771.507	34856.44
771.842	34570.8
772.178	34677.92
772.513	34485.15
772.849	34482.21
773.184	34394.08
773.519	34294.88
773.855	34199.51
774.19	33954.55
774.525	33808.79
774.86	33877.26
775.195	33806.53
775.53	33577.38
775.865	33399.98
776.2	33250.16
776.535	32999.09
776.87	33004.97
777.205	32740.79
777.539	32684.52
777.874	32807.23
778.209	32498.99
778.543	32407.69
778.878	32279.11
779.212	32214.48
779.547	32034.14
779.881	32063.3
780.215	31816.3
780.55	31856.97
780.884	31660.37
781.218	31494.72
781.552	31658.33
781.886	31394.84
782.22	31245.92
782.554	31209.53
782.888	30934.06
783.222	30808.87
783.556	30740.62
783.889	30578.14
784.223	30454.98
784.557	30351.48
784.89	30460.4
785.224	30303.79
785.557	30098.83
785.891	30085.04
786.224	29943.13
786.558	29977.93
786.891	29654.77
787.224	29538.62
787.557	29583.13
787.891	29521.67
788.224	29383.59
788.557	29413.42
788.89	29365.51
789.223	29206.87
789.556	28979.99
789.888	28971.63
790.221	28766.66
790.554	28577.06
790.887	28514.01
791.219	28388.82
791.552	28430.17
791.884	28315.82
792.217	28146.11
792.549	28064.76
792.882	27995.38
793.214	27760.13
793.546	27845.78
793.879	27642.17
794.211	27523.53
794.543	27600.81
794.875	27439.24
795.207	27519.23
795.539	27358.11
795.871	27262.07
796.203	27105.23
796.535	26923.32
796.867	26895.3
797.198	26786.15
797.53	26733.49
797.862	26706.6
798.193	26691.23
798.525	26439.71
798.856	26606.94
799.188	26199.95
799.519	26127.86
799.85	26017.35
800.182	26164.47
800.513	26120.63
800.844	25825.72
801.175	25897.58
801.506	25872.72
801.837	25733.29
802.168	25698.49
802.499	25545.5
802.83	25550.25
803.161	25383.92
803.491	25360.87
803.822	25381.21
804.153	25160.88
804.483	25062.12
804.814	24970.37
805.145	24861.22
805.475	24922.47
805.805	24794.11
806.136	24901.45
806.466	24782.36
806.796	24820.32
807.126	24529.03
807.457	24360.9
807.787	24489.94
808.117	24322.71
808.447	24303.5
808.777	24390.28
809.107	24257.85
809.436	24077.52
809.766	24044.3
810.096	23985.09
810.426	23955.26
810.755	23892.66
811.085	23857.64
811.414	23755.27
811.744	23591.88
812.073	23563.86
812.403	23615.38
812.732	23470.75
813.061	23337.88
813.39	23248.84
813.719	23190.99
814.049	23303.07
814.378	23119.58
814.707	23055.17
815.036	23029.18
815.365	22973.36
815.693	22766.14
816.022	22773.6
816.351	22629.42
816.68	22591.68
817.008	22656.54
817.337	22483.89
817.665	22462.64
817.994	22492.47
818.322	22418.58
818.651	22251.58
818.979	22238.02
819.307	22259.94
819.636	22167.96
819.964	22117.12
820.292	22272.59
820.62	22064.69
820.948	22100.85
821.276	22135.19
821.604	22033.5
821.932	22097
822.259	22045.25
822.587	22019.27
822.915	22003.45
823.243	22132.26
823.57	21959.38
823.898	22033.05
824.225	21907.86
824.553	21956.67
824.88	21970.91
825.207	22000.96
825.535	21919.83
825.862	22038.93
826.189	21879.38
826.516	21999.15
826.843	22053.84
827.17	21910.34
827.497	22017.23
827.824	21979.04
828.151	22045.25
828.478	22020.4
828.805	22064.24
829.131	21837.58
829.458	21892.49
829.785	21692.95
830.111	21758.71
830.438	21936.56
830.764	21821.76
831.09	21918.48
831.417	21824.02
831.743	21817.01
832.069	21823.56
832.395	21736.11
832.722	21934.75
833.048	21649.56
833.374	21820.63
833.7	21632.84
834.026	21671.03
834.351	21810.91
834.677	21708.99
835.003	21785.15
835.329	21570.01
835.654	21676
835.98	21552.84
836.306	21570.92
836.631	21596
836.956	21587.64
837.282	21565.94
837.607	21465.16
837.932	21360.53
838.258	21391.03
838.583	21274.2
838.908	21197.14
839.233	21249.79
839.558	21213.41
839.883	21156.01
840.208	21220.87
840.533	21129.57
840.858	21098.39
841.182	21132.96
841.507	21045.28
841.832	20976.58
842.156	20888
842.481	20917.15
842.805	20776.13
843.13	20755.34
843.454	20827.21
843.778	20714.67
844.103	20596.7
844.427	20547.44
844.751	20631.28
845.075	20468.57
845.399	20491.85
845.723	20326.65
846.047	20261.57
846.371	20165.3
846.695	20251.63
847.019	20050.28
847.343	19929.6
847.666	19845.76
847.99	19846.67
848.313	19722.83
848.637	19686.22
848.96	19645.09
849.284	19471.31
849.607	19447.13
849.931	19374.36
850.254	19262.28
850.577	19165.33
850.9	19031.1
851.223	19084.88
851.546	18963.75
851.869	18838.78
852.192	18955.84
852.515	18692.57
852.838	18650.99
853.161	18620.26
853.483	18504.33
853.806	18380.27
854.129	18399.93
854.451	18273.83
854.774	18284.9
855.096	18093.04
855.419	18119.71
855.741	18115.41
856.063	17998.81
856.385	17965.59
856.708	17838.81
857.03	17874.97
857.352	17797.46
857.674	17734.63
857.996	17732.82
858.318	17649.66
858.64	17729.89
858.961	17536.22
859.283	17531.25
859.605	17415.77
859.926	17382.1
860.248	17358.15
860.57	17396.11
860.891	17367.41
861.212	17265.49
861.534	17241.76
861.855	17134.65
862.176	17208.32
862.498	17140.07
862.819	17118.83
863.14	17032.73
863.461	17016.69
863.782	16940.3
864.103	17004.93
864.424	16867.08
864.745	16926.07
865.065	16874.54
865.386	16816.01
865.707	16765.62
866.027	16794.32
866.348	16563.82
866.668	16680.87
866.989	16560.2
867.309	16514.55
867.63	16639.52
867.95	16691.5
868.27	16353.2
868.59	16530.6
868.91	16473.87
869.23	16374.67
869.55	16400.66
869.87	16330.6
870.19	16348.91
870.51	16339.64
870.83	16367.21
871.15	16246.31
871.469	16277.72
871.789	16286.08
872.109	16225.07
872.428	16171.06
872.748	16200.44
873.067	16174
873.386	16114.56
873.706	16119.31
874.025	16062.59
874.344	15998.86
874.663	16109.36
874.982	15920.89
875.301	15921.57
875.62	15935.13
875.939	15881.57
876.258	15842.7
876.577	15829.6
876.896	15770.62
877.214	15714.57
877.533	15692.88
877.852	15654.01
878.17	15695.59
878.489	15710.5
878.807	15684.52
879.125	15724.52
879.444	15655.82
879.762	15504.18
880.08	15466.9
880.398	15440.23
880.716	15558.42
881.034	15392.1
881.352	15478.65
881.67	15364.3
881.988	15419.21
882.306	15334.47
882.624	15319.78
882.941	15211.08
883.259	15167.02
883.577	15176.06
883.894	15108.26
884.212	15120.92
884.529	15079.79
884.846	15064.19
885.164	15075.95
885.481	14995.04
885.798	14961.82
886.115	14945.33
886.432	14774.48
886.75	14733.36
887.067	14811.55
887.383	14811.09
887.7	14737.88
888.017	14598.9
888.334	14666.46
888.651	14634.15
888.967	14469.41
889.284	14523.19
889.6	14545.11
889.917	14330.88
890.233	14438
890.55	14375.4
890.866	14362.07
891.182	14299.02
891.498	14295.85
891.815	14170.43
892.131	14001.85
892.447	14052.47
892.763	14079.59
893.079	13993.94
893.395	14056.76
893.71	13932.25
894.026	13874.62
894.342	13843.89
894.657	13818.58
894.973	13738.35
895.289	13655.42
895.604	13807.96
895.92	13681.41
896.235	13565.02
896.55	13598.02
896.865	13561.63
897.181	13540.84
897.496	13402.54
897.811	13329.55
898.126	13306.27
898.441	13287.07
898.756	13240.97
899.071	13224.47
899.386	13224.47
899.7	13048.43
900.015	13025.6
900.33	12939.73
900.644	12885.72
900.959	12870.81
901.273	12837.81
901.588	12744.93
901.902	12664.94
902.216	12638.5
902.531	12589.91
902.845	12636.24
903.159	12530.48
903.473	12486.41
903.787	12530.48
904.101	12353.08
904.415	12488.22
904.729	12355.79
905.042	12289.13
905.356	12252.74
905.67	12234.44
905.984	12277.83
906.297	12194.44
906.611	12088.91
906.924	12078.96
907.237	12004.84
907.551	11958.74
907.864	11863.15
908.177	11813.88
908.491	11833.32
908.804	11745.64
909.117	11679.42
909.43	11608.47
909.743	11631.29
910.056	11629.26
910.368	11470.16
910.681	11477.4
910.994	11421.58
911.307	11288.02
911.619	11304.07
911.932	11309.94
912.244	11184.07
912.557	11216.39
912.869	11211.64
913.181	11107.69
913.494	11053.45
913.806	10897.98
914.118	10993.57
914.43	10815.72
914.742	10854.81
915.054	10765.32
915.366	10783.4
915.678	10667.02
915.99	10625.21
916.302	10575.95
916.613	10605.1
916.925	10515.61
917.236	10530.08
917.548	10421.83
917.859	10436.29
918.171	10372.79
918.482	10298.44
918.794	10282.85
919.105	10182.97
919.416	10193.81
919.727	10130.76
920.038	10157.66
920.349	10078.79
920.66	9968.74
920.971	10010.99
921.282	9919.92
921.593	9896.65
921.903	9806.48
922.214	9801.28
922.525	9763.32
922.835	9739.14
923.146	9670.89
923.456	9632.47
923.767	9516.54
924.077	9516.54
924.387	9476.77
924.697	9452.82
925.008	9416.89
925.318	9363.1
925.628	9407.62
925.938	9321.07
926.248	9180.73
926.558	9179.38
926.867	9181.41
927.177	9107.51
927.487	9090.79
927.796	9059.15
928.106	9023.45
928.416	8994.98
928.725	8950.68
929.034	8851.25
929.344	8888.54
929.653	8862.32
929.962	8761.31
930.271	8733.74
930.581	8687.64
930.89	8649.22
931.199	8668.2
931.508	8565.83
931.817	8591.82
932.125	8560.18
932.434	8510.69
932.743	8450.58
933.051	8444.93
933.36	8342.11
933.669	8319.96
933.977	8283.81
934.286	8255.79
934.594	8285.39
934.902	8171.27
935.21	8115.22
935.519	8123.81
935.827	8096.69
936.135	7974.89
936.443	8030.03
936.751	7913.2
937.059	7963.59
937.367	7897.6
937.674	7853.99
937.982	7821.45
938.29	7772.41
938.597	7761.79
938.905	7671.85
939.213	7697.16
939.52	7647.67
939.827	7656.93
940.135	7632.53
940.442	7542.13
940.749	7563.6
941.056	7546.2
941.363	7372.87
941.67	7451.74
941.977	7352.76
942.284	7306.88
942.591	7288.13
942.898	7319.54
943.205	7273.44
943.511	7252.42
943.818	7229.82
944.125	7125.42
944.431	7160.67
944.738	7170.84
945.044	7143.5
945.35	7113.67
945.657	6982.15
945.963	7001.81
946.269	6930.85
946.575	6931.07
946.881	6892.21
947.187	6927.69
947.493	6849.95
947.799	6767.46
948.105	6746.45
948.41	6723.4
948.716	6707.8
949.022	6706.45
949.327	6679.78
949.633	6574.7
949.938	6613.8
950.244	6673.91
950.549	6566.11
950.854	6488.37
951.16	6475.49
951.465	6465.32
951.77	6423.52
952.075	6436.62
952.38	6346.91
952.685	6422.39
952.99	6318.89
953.294	6230.98
953.599	6211.32
953.904	6203.41
954.209	6198.21
954.513	6226.91
954.818	6096.75
955.122	6097.2
955.426	6036.18
955.731	6016.07
956.035	6021.04
956.339	5994.38
956.643	6001.38
956.948	5909.63
957.252	5913.25
957.556	5894.94
957.86	5868.05
958.163	5812.91
958.467	5859.24
958.771	5766.81
959.075	5802.06
959.378	5781.95
959.682	5702.86
959.985	5700.15
960.289	5682.75
960.592	5615.63
960.896	5575.86
961.199	5566.82
961.502	5532.69
961.805	5564.56
962.108	5474.39
962.411	5478.23
962.714	5488.63
963.017	5480.94
963.32	5438.01
963.623	5422.64
963.926	5356.2
964.228	5302.87
964.531	5298.12
964.833	5371.79
965.136	5277.33
965.438	5247.05
965.741	5188.3
966.043	5177.45
966.345	5164.57
966.648	5198.92
966.95	5129.77
967.252	5106.04
967.554	5049.54
967.856	5070.56
968.158	4996.89
968.46	4970.9
968.761	4955.76
969.063	4990.56
969.365	4978.58
969.666	4923.67
969.968	4887.29
970.269	4913.05
970.571	4924.35
970.872	4834.86
971.174	4835.08
971.475	4782.2
971.776	4760.06
972.077	4757.57
972.378	4786.5
972.679	4737.69
972.98	4697.24
973.281	4707.18
973.582	4682.77
973.883	4630.34
974.183	4604.58
974.484	4601.64
974.785	4546.28
975.085	4555.09
975.386	4539.27
975.686	4572.27
975.986	4490.91
976.287	4461.54
976.587	4448.65
976.887	4408.2
977.187	4403.91
977.487	4373.85
977.787	4352.84
978.087	4382.67
978.387	4336.57
978.687	4367.3
978.987	4273.74
979.286	4255.21
979.586	4254.76
979.885	4223.12
980.185	4176.12
980.484	4208.89
980.784	4174.99
981.083	4167.08
981.382	4165.05
981.682	4103.35
981.981	4127.08
982.28	4113.3
982.579	4055.67
982.878	4043.02
983.177	3979.97
983.475	4024.48
983.774	3935.67
984.073	3950.59
984.372	3983.13
984.67	3944.94
984.969	3957.37
985.267	3895.22
985.566	3882.12
985.864	3856.35
986.162	3859.97
986.461	3804.83
986.759	3849.57
987.057	3745.85
987.355	3765.28
987.653	3724.38
987.951	3712.63
988.249	3766.19
988.547	3691.16
988.844	3682.57
989.142	3656.36
989.44	3638.96
989.737	3666.53
990.035	3613.2
990.332	3562.35
990.63	3603.7
990.927	3530.71
991.224	3502.24
991.521	3518.74
991.819	3523.93
992.116	3505.63
992.413	3473.76
992.71	3477.15
993.006	3432.86
993.303	3402.13
993.6	3420.88
993.897	3385.18
994.193	3394.9
994.49	3380.66
994.787	3346.08
995.083	3339.08
995.379	3324.62
995.676	3302.24
995.972	3286.2
996.268	3246.88
996.565	3242.36
996.861	3219.31
997.157	3212.75
997.453	3204.85
997.749	3150.38
998.044	3126.43
998.34	3170.27
998.636	3142.93
998.932	3131.63
999.227	3069.71
999.523	3106.54
999.818	3033.55
1000.114	3049.37
1000.409	2984.29
1000.704	2976.38
1001	2984.06
1001.295	2998.3
1001.59	2969.37
1001.885	2933.89
1002.18	2920.33
1002.475	2918.98
1002.77	2883.72
1003.065	2905.64
1003.359	2867.45
1003.654	2865.87
1003.949	2827.23
1004.243	2838.3
1004.538	2800.56
1004.832	2763.27
1005.127	2771.41
1005.421	2752.43
1005.715	2709.04
1006.009	2732.54
1006.304	2686.67
1006.598	2677.63
1006.892	2663.84
1007.186	2662.49
1007.48	2654.8
1007.773	2623.39
1008.067	2611.87
1008.361	2594.01
1008.655	2586.56
1008.948	2538.2
1009.242	2562.38
1009.535	2551.3
1009.829	2496.39
1010.122	2474.02
1010.415	2475.37
1010.708	2478.08
1011.001	2479.89
1011.295	2458.65
1011.588	2441.25
1011.881	2413
1012.173	2409.16
1012.466	2399.22
1012.759	2393.57
1013.052	2336.62
1013.344	2366.68
1013.637	2326.68
1013.93	2282.38
1014.222	2289.61
1014.514	2274.02
1014.807	2288.71
1015.099	2251.65
1015.391	2215.72
1015.683	2253.23
1015.976	2191.76
1016.268	2204.19
1016.56	2154.03
1016.851	2150.64
1017.143	2128.26
1017.435	2135.27
1017.727	2121.26
1018.018	2111.09
1018.31	2113.57
1018.602	2095.27
1018.893	2092.78
1019.185	2030.86
1019.476	2029.28
1019.767	2046.23
1020.058	2010.98
1020.35	2017.31
1020.641	1979.11
1020.932	1962.39
1021.223	1940.02
1021.514	1937.76
1021.804	1920.59
1022.095	1947.48
1022.386	1910.42
1022.677	1894.15
1022.967	1848.95
1023.258	1836.97
1023.548	1836.97
1023.839	1818.21
1024.129	1821.15
1024.419	1821.6
1024.709	1766.46
1025	1796.52
1025.29	1748.61
1025.58	1800.36
1025.87	1723.98
1026.16	1757.43
1026.449	1719.01
1026.739	1679.91
1027.029	1692.57
1027.319	1690.31
1027.608	1665.22
1027.898	1641.04
1028.187	1631.55
1028.477	1638.78
1028.766	1623.42
1029.055	1606.24
1029.344	1605.11
1029.634	1591.33
1029.923	1619.8
1030.212	1578
1030.501	1592.46
1030.79	1539.58
1031.078	1544.32
1031.367	1533.02
1031.656	1546.58
1031.945	1525.57
1032.233	1519.47
1032.522	1493.25
1032.81	1465.46
1033.099	1474.27
1033.387	1443.54
1033.675	1479.69
1033.963	1454.83
1034.251	1416.19
1034.54	1432.01
1034.828	1404.21
1035.116	1399.47
1035.403	1396.31
1035.691	1381.16
1035.979	1355.63
1036.267	1394.5
1036.554	1340.71
1036.842	1322.41
1037.129	1334.61
1037.417	1298.91
1037.704	1323.31
1037.992	1295.29
1038.279	1303.43
1038.566	1305.91
1038.853	1305.91
1039.14	1305.91
