Data from orange_diffuse_book_FLMS001491_00041.txt Node
Date: Wed Feb 08 15:29:36 GMT 2017
User: dcchb
Spectrometer: FLMS00149
Trigger mode: 0
Integration Time (sec): 2.000000E-2
Scans to average: 10
Electric dark correction enabled: true
Nonlinearity correction enabled: false
Boxcar width: 0
XAxis mode: Wavelengths
Number of Pixels in Spectrum: 2048
>>>>>Begin Spectral Data<<<<<
341.393	-34.84
341.776	-34.84
342.16	-34.84
342.543	-82.53
342.927	-87.27
343.31	-62.87
343.693	-47.05
344.077	-88.4
344.46	-87.5
344.843	-42.53
345.226	-52.02
345.61	-25.58
345.993	-10.89
346.376	-19.02
346.759	18.26
347.142	21.88
347.525	44.48
347.908	68.66
348.291	66.85
348.674	98.03
349.057	117.69
349.44	122.21
349.823	152.04
350.206	153.63
350.588	196.79
350.971	203.34
351.354	236.11
351.737	263
352.119	254.87
352.502	252.61
352.884	272.04
353.267	290.8
353.65	303.68
354.032	312.49
354.414	329.21
354.797	321.08
355.179	348.2
355.562	348.88
355.944	328.54
356.326	343
356.709	330.34
357.091	325.82
357.473	333.96
357.855	344.36
358.238	361.98
358.62	336.22
359.002	361.3
359.384	353.39
359.766	370.57
360.148	346.16
360.53	328.31
360.912	336.67
361.294	328.31
361.676	351.59
362.057	342.77
362.439	313.17
362.821	339.16
363.203	344.81
363.584	340.06
363.966	324.02
364.348	300.51
364.729	328.54
365.111	316.11
365.493	329.21
365.874	322.89
366.256	317.46
366.637	316.56
367.019	298.93
367.4	332.6
367.781	328.76
368.163	302.55
368.544	306.39
368.925	297.35
369.306	321.98
369.688	307.75
370.069	323.11
370.45	310.91
370.831	331.25
371.212	304.13
371.593	298.71
371.974	318.59
372.355	313.62
372.736	335.99
373.117	336.22
373.498	305.03
373.879	326.73
374.26	319.05
374.641	328.31
375.021	345.49
375.402	311.14
375.783	321.31
376.163	339.16
376.544	322.44
376.925	346.84
377.305	314.98
377.686	306.62
378.066	327.41
378.447	341.87
378.827	339.38
379.208	321.08
379.588	342.32
379.968	324.24
380.349	334.19
380.729	321.08
381.109	343.9
381.489	333.73
381.87	354.52
382.25	349.78
382.63	346.84
383.01	356.56
383.39	357.91
383.77	360.17
384.15	334.86
384.53	356.33
384.91	342.77
385.29	343.9
385.67	367.41
386.049	348.65
386.429	358.14
386.809	348.88
387.189	352.04
387.568	350.91
387.948	362.21
388.328	350.68
388.707	374.86
389.087	354.98
389.466	354.75
389.846	365.82
390.225	383
390.605	368.99
390.984	363.56
391.363	379.61
391.743	370.34
392.122	383.68
392.501	345.94
392.881	386.39
393.26	353.85
393.639	381.64
394.018	387.29
394.397	378.03
394.776	348.42
395.155	389.33
395.534	387.74
395.913	402.43
396.292	393.17
396.671	398.82
397.05	398.82
397.429	409.21
397.808	412.83
398.186	400.17
398.565	399.72
398.944	406.73
399.323	401.08
399.701	406.73
400.08	386.16
400.458	408.99
400.837	415.77
401.215	412.15
401.594	408.31
401.972	423.68
402.351	421.87
402.729	399.5
403.107	404.47
403.486	444.69
403.864	413.51
404.242	414.86
404.62	418.93
404.999	421.64
405.377	419.61
405.755	421.64
406.133	457.57
406.511	430
406.889	424.13
407.267	430.23
407.645	462.09
408.023	460.51
408.401	466.84
408.779	435.65
409.156	458.02
409.534	460.96
409.912	458.7
410.29	458.25
410.667	466.39
411.045	475.88
411.422	463.67
411.8	470
412.178	452.6
412.555	458.02
412.933	479.72
413.31	500.96
413.687	506.61
414.065	491.02
414.442	493.96
414.819	500.51
415.197	504.8
415.574	514.29
415.951	488.76
416.328	511.13
416.705	510.9
417.082	499.83
417.46	519.72
417.837	531.7
418.214	504.58
418.591	524.24
418.967	530.34
419.344	542.99
419.721	557.01
420.098	547.51
420.475	534.63
420.852	544.12
421.228	563.56
421.605	540.73
421.982	566.72
422.358	548.87
422.735	568.98
423.111	583.9
423.488	564.91
423.864	581.86
424.241	563.33
424.617	590.45
424.994	594.74
425.37	587.06
425.746	584.58
426.123	595.42
426.499	598.81
426.875	601.3
427.251	610.34
427.627	621.18
428.003	601.98
428.379	630.22
428.756	629.09
429.132	620.05
429.507	637.23
429.883	635.42
430.259	649.66
430.635	656.66
431.011	642.2
431.387	654.18
431.763	677.45
432.138	661.18
432.514	684.69
432.89	696.44
433.265	689.66
433.641	699.15
434.016	695.76
434.392	721.75
434.767	720.62
435.143	720.16
435.518	702.09
435.894	712.71
436.269	732.59
436.644	740.05
437.02	777.34
437.395	759.49
437.77	779.6
438.145	768.52
438.52	766.49
438.895	757.23
439.271	779.37
439.646	790.67
440.021	788.86
440.395	794.29
440.77	797.22
441.145	759.03
441.52	848.07
441.895	806.94
442.27	815.76
442.645	816.43
443.019	835.64
443.394	833.61
443.769	825.7
444.143	825.7
444.518	852.82
444.892	848.52
445.267	831.8
445.641	843.33
446.016	857.79
446.39	872.7
446.764	846.49
447.139	876.32
447.513	862.99
447.887	861.4
448.262	875.64
448.636	867.05
449.01	898.01
449.384	881.06
449.758	915.87
450.132	914.28
450.506	912.02
450.88	886.49
451.254	910.67
451.628	934.17
452.002	925.58
452.376	960.16
452.75	939.14
453.123	945.02
453.497	967.16
453.871	956.54
454.244	956.77
454.618	940.95
454.992	993.15
455.365	983.21
455.739	983.89
456.112	1009.42
456.486	1018.24
456.859	1029.76
457.232	1051.46
457.606	1008.52
457.979	1056.88
458.352	1035.64
458.725	1053.04
459.099	1066.82
459.472	1084.9
459.845	1101.17
460.218	1081.96
460.591	1071.57
460.964	1106.6
461.337	1105.24
461.71	1123.54
462.083	1173.71
462.456	1121.06
462.829	1163.54
463.201	1151.79
463.574	1144.79
463.947	1149.98
464.32	1195.18
464.692	1215.74
465.065	1196.76
465.438	1206.03
465.81	1246.48
466.183	1229.98
466.555	1251.68
466.928	1265.01
467.3	1262.98
467.672	1262.52
468.045	1283.09
468.417	1313.82
468.789	1292.13
469.161	1309.08
469.534	1349.07
469.906	1339.81
470.278	1369.41
470.65	1353.37
471.022	1380.71
471.394	1401.95
471.766	1431.78
472.138	1410.32
472.51	1440.15
472.882	1440.6
473.253	1473.82
473.625	1494.38
473.997	1499.35
474.369	1523.53
474.74	1526.47
475.112	1557.2
475.484	1568.96
475.855	1595.17
476.227	1609.18
476.598	1639.24
476.97	1643.3
477.341	1680.82
477.713	1722.17
478.084	1730.99
478.455	1762.17
478.827	1760.36
479.198	1810.53
479.569	1810.31
479.94	1840.81
480.311	1872.45
480.682	1905.44
481.053	1948.83
481.424	1958.78
481.795	1991.54
482.166	2001.49
482.537	2027.25
482.908	2059.79
483.279	2101.82
483.65	2132.33
484.021	2148.83
484.391	2184.98
484.762	2204.19
485.133	2187.92
485.503	2250.29
485.874	2301.37
486.244	2346.79
486.615	2370.74
486.985	2378.65
487.356	2407.8
487.726	2457.29
488.097	2513.11
488.467	2476.05
488.837	2589.27
489.207	2578.19
489.578	2602.15
489.948	2650.28
490.318	2676.5
490.688	2732.99
491.058	2741.81
491.428	2804.63
491.798	2813.89
492.168	2865.19
492.538	2906.32
492.908	2938.41
493.278	2978.86
493.648	2977.51
494.017	2994.91
494.387	3058.41
494.757	3119.88
495.126	3144.06
495.496	3163.94
495.866	3183.15
496.235	3277.61
496.605	3287.78
496.974	3287.33
497.344	3356.93
497.713	3365.52
498.082	3396.7
498.452	3429.47
498.821	3468.34
499.19	3447.1
499.559	3518.51
499.928	3533.65
500.298	3541.79
500.667	3603.7
501.036	3622.01
501.405	3654.1
501.774	3669.47
502.143	3668.79
502.512	3732.06
502.88	3807.54
503.249	3804.83
503.618	3738.62
503.987	3830.14
504.356	3880.08
504.724	3902
505.093	3916.69
505.462	3982.23
505.83	3996.01
506.199	3990.59
506.567	4079.85
506.936	4023.81
507.304	4149.91
507.672	4108.1
508.041	4121.88
508.409	4167.53
508.777	4243.01
509.145	4219.51
509.514	4254.76
509.882	4254.76
510.25	4341.99
510.618	4338.37
510.986	4303.57
511.354	4383.35
511.722	4430.58
512.09	4478.71
512.458	4509.67
512.826	4542.66
513.193	4556.67
513.561	4582.66
513.929	4617.46
514.297	4668.76
514.664	4664.47
515.032	4699.95
515.4	4758.7
515.767	4732.04
516.135	4784.69
516.502	4817.23
516.869	4888.87
517.237	4888.19
517.604	4937.45
517.972	4979.04
518.339	5026.94
518.706	5026.94
519.073	5031.46
519.44	5071.01
519.808	5104.68
520.175	5137.9
520.542	5207.96
520.909	5217.67
521.276	5259.03
521.643	5283.43
522.009	5313.26
522.376	5359.14
522.743	5376.77
523.11	5467.38
523.477	5492.92
523.843	5479.14
524.21	5589.42
524.577	5633.26
524.943	5643.43
525.31	5652.46
525.676	5772.24
526.043	5773.82
526.409	5734.72
526.776	5828.73
527.142	5840.93
527.508	5903.08
527.874	5925
528.241	5995.28
528.607	6009.07
528.973	6063.3
529.339	6071.44
529.705	6104.43
530.071	6144.43
530.437	6155.73
530.803	6213.58
531.169	6246.35
531.535	6259.45
531.901	6265.1
532.267	6299.23
532.632	6361.82
532.998	6370.86
533.364	6409.28
533.73	6425.1
534.095	6478.43
534.461	6484.08
534.826	6558.66
535.192	6512.33
535.557	6601.82
535.923	6593.46
536.288	6605.43
536.653	6623.51
537.019	6646.34
537.384	6665.09
537.749	6692.89
538.114	6758.65
538.479	6821.93
538.845	6765.43
539.21	6823.28
539.575	6873.9
539.94	6870.06
540.305	6917.97
540.67	6929.94
541.034	6975.37
541.399	7009.49
541.764	7072.09
542.129	7034.12
542.494	7045.65
542.858	7087.23
543.223	7137.17
543.587	7211.52
543.952	7188.7
544.316	7204.51
544.681	7234.34
545.045	7278.64
545.41	7343.27
545.774	7386.88
546.138	7358.86
546.503	7391.63
546.867	7471.4
547.231	7534.9
547.595	7526.31
547.959	7575.8
548.324	7564.05
548.688	7630.27
549.052	7652.41
549.416	7681.56
549.779	7741.67
550.143	7785.29
550.507	7839.53
550.871	7890.82
551.235	7842.69
551.599	7940.31
551.962	7979.86
552.326	8051.5
552.689	8085.17
553.053	8010.82
553.417	8088.56
553.78	8257.37
554.143	8240.19
554.507	8257.14
554.87	8317.71
555.234	8407.87
555.597	8378.72
555.96	8403.13
556.323	8540.3
556.686	8577.59
557.05	8646.96
557.413	8709.11
557.776	8667.75
558.139	8843.79
558.502	8860.29
558.865	8940.06
559.228	8960.85
559.59	9027.74
559.953	9075.65
560.316	9189.55
560.679	9176.21
561.041	9269.77
561.404	9391.58
561.767	9439.03
562.129	9497.56
562.492	9636.09
562.854	9619.59
563.217	9724.67
563.579	9800.6
563.941	9853.94
564.304	9943.88
564.666	10053.7
565.028	10180.03
565.39	10251.44
565.753	10368.05
566.115	10406.01
566.477	10587.7
566.839	10656.85
567.201	10744.31
567.563	10876.96
567.925	10963.06
568.287	11038.09
568.648	11163.05
569.01	11343.84
569.372	11475.14
569.734	11506.1
570.095	11709.25
570.457	11802.36
570.819	11869.02
571.18	12016.36
571.542	12129.58
571.903	12247.32
572.265	12532.28
572.626	12674.2
572.987	12767.98
573.349	12993.06
573.71	13140.4
574.071	13320.51
574.432	13468.3
574.794	13747.62
575.155	13916.88
575.516	14012.47
575.877	14339.02
576.238	14436.87
576.599	14723.41
576.96	14876.85
577.32	15095.38
577.681	15389.16
578.042	15621.69
578.403	15732.2
578.763	16021.01
579.124	16388.68
579.485	16620.31
579.845	16960.19
580.206	17245.15
580.566	17499.84
580.927	17705.48
581.287	18140.5
581.648	18352.02
582.008	18651.67
582.368	18831.55
582.728	19334.59
583.089	19511.76
583.449	19876.27
583.809	20302.25
584.169	20544.05
584.529	20830.82
584.889	21471.71
585.249	21678.71
585.609	21956.67
585.969	22504.9
586.329	22732.24
586.688	23252.91
587.048	23647.92
587.408	23855.83
587.768	24232.31
588.127	24715.01
588.487	25118.17
588.846	25690.81
589.206	25884.25
589.565	26328.76
589.925	26736.43
590.284	27140.26
590.643	27632.9
591.003	28086.22
591.362	28565.99
591.721	28931.4
592.08	29394.21
592.44	29965.05
592.799	30292.04
593.158	30748.98
593.517	31205.24
593.876	31583.53
594.235	32077.08
594.593	32513.23
594.952	33110.27
595.311	33415.8
595.67	33911.61
596.029	34374.42
596.387	34934.41
596.746	35351.12
597.104	35653.48
597.463	36156.75
597.822	36671.08
598.18	36921.25
598.538	37268.13
598.897	38008.9
599.255	37968.22
599.613	38960.06
599.972	39037.8
600.33	39526.15
600.688	39837.1
601.046	40420.14
601.404	40798.21
601.762	41192.55
602.12	41735.36
602.478	41944.39
602.836	42399.52
603.194	42580.76
603.552	43108.2
603.91	43249.22
604.268	43814.62
604.625	44029.76
604.983	44511.56
605.341	44483.31
605.698	45133.69
606.056	45416.39
606.413	45615.26
606.771	45976.83
607.128	46298.4
607.485	46314.67
607.843	46670.37
608.2	47137.93
608.557	47425.6
608.914	47483.91
609.272	47714.86
609.629	48099.26
609.986	48417.89
610.343	48374.96
610.7	48785.12
611.057	48980.36
611.414	49130.64
611.771	49429.84
612.127	49570.41
612.484	49626.9
612.841	50032.77
613.198	49881.13
613.554	50133.78
613.911	50566.54
614.267	50544.62
614.624	50622.36
614.98	50818.06
615.337	51113.19
615.693	51188.22
616.05	51209.46
616.406	51518.38
616.762	51437.02
617.118	51462.11
617.475	51618.04
617.831	51749.11
618.187	51802.44
618.543	51999.49
618.899	52161.75
619.255	52255.08
619.611	52173.05
619.967	52471.8
620.323	52499.14
620.678	52530.78
621.034	52504.79
621.39	52531.46
621.746	52455.75
622.101	52885.57
622.457	52669.53
622.812	52843.31
623.168	52994.5
623.523	52947.04
623.879	53135.51
624.234	52907.49
624.589	53075.62
624.945	53141.39
625.3	53176.86
625.655	53158.79
626.01	53256.18
626.365	53241.27
626.72	53199.69
627.075	53281.72
627.43	53302.74
627.785	53343.41
628.14	53370.98
628.495	53403.75
628.85	53416.63
629.205	53401.49
629.559	53540.02
629.914	53472
630.269	53405.11
630.623	53448.04
630.978	53338.44
631.332	53521.04
631.687	53564.65
632.041	53486.91
632.396	53527.14
632.75	53401.27
633.104	53500.25
633.459	53358.33
633.813	53418.44
634.167	53323.75
634.521	53451.66
634.875	53506.8
635.229	53471.77
635.583	53351.55
635.937	53327.82
636.291	53321.04
636.645	53347.48
636.999	53282.17
637.352	53352.23
637.706	53202.63
638.06	53361.49
638.413	53296.18
638.767	53175.51
639.121	53340.93
639.474	53107.04
639.828	53067.49
640.181	53121.27
640.534	53196.3
640.888	53092.8
641.241	53047.6
641.594	53062.74
641.947	53241.04
642.301	53074.27
642.654	53155.17
643.007	53133.93
643.36	53171.44
643.713	53096.64
644.066	53096.41
644.419	52960.15
644.771	52797.89
645.124	52502.31
645.477	52468.63
645.83	52297.79
646.182	52177.34
646.535	52122.2
646.888	52229.09
647.24	52021.64
647.593	52241.97
647.945	52106.84
648.298	51982.32
648.65	52020.51
649.002	51901.64
649.355	52020.74
649.707	51943.22
650.059	52076.55
650.411	52413.04
650.763	52502.31
651.115	52772.58
651.467	52726.71
651.819	52805.12
652.171	52615.07
652.523	52589.54
652.875	52633.15
653.227	52538.24
653.578	52665.69
653.93	52695.3
654.282	52554.96
654.633	52477.45
654.985	52634.51
655.337	52578.69
655.688	52583.89
656.039	52613.04
656.391	52464.34
656.742	52505.02
657.094	52561.51
657.445	52589.08
657.796	52582.76
658.147	52458.47
658.498	52458.92
658.849	52591.8
659.2	52475.19
659.551	52427.28
659.902	52587.95
660.253	52481.74
660.604	52559.03
660.955	52330.11
661.306	52547.28
661.656	52281.52
662.007	52389.31
662.358	52364.23
662.708	52415.3
663.059	52362.87
663.409	52295.53
663.76	52475.41
664.11	52447.62
664.461	52369.65
664.811	52441.74
665.161	52397
665.511	52278.58
665.862	52399.71
666.212	52503.21
666.562	52378.92
666.912	52328.3
667.262	52266.38
667.612	52193.39
667.962	52361.97
668.312	52202.43
668.662	52410.33
669.011	52283.55
669.361	52279.94
669.711	52225.25
670.06	52194.07
670.41	52149.77
670.76	52063.67
671.109	52241.07
671.459	52129.89
671.808	52084.92
672.157	52127.17
672.507	51965.6
672.856	51965.37
673.205	52000.85
673.554	52029.55
673.904	51943.22
674.253	52120.4
674.602	51970.79
674.951	51547.3
675.3	51302.11
675.649	51882.89
675.998	51773.51
676.346	51805.38
676.695	51914.98
677.044	51613.97
677.393	51666.4
677.741	51783.68
678.09	51611.48
678.438	51591.37
678.787	51651.71
679.135	51777.81
679.484	51477.25
679.832	51563.12
680.181	51392.96
680.529	51544.37
680.877	51336.46
681.225	51354.99
681.573	51546.4
681.922	51296.69
682.27	51242.68
682.618	51248.1
682.966	51178.72
683.314	51190.02
683.661	51138.05
684.009	50939.64
684.357	50911.39
684.705	50882.46
685.053	50896.25
685.4	50737.15
685.748	50610.6
686.095	50647.89
686.443	50464.39
686.79	50448.12
687.138	50599.31
687.485	50466.2
687.832	50272.53
688.18	50267.56
688.527	50125.19
688.874	50178.75
689.221	50075.03
689.568	49973.11
689.915	49860.79
690.262	49933.33
690.609	49740.34
690.956	49612.21
691.303	49633.91
691.65	49405.44
691.997	49473.91
692.344	49229.85
692.69	49232.79
693.037	49252.45
693.383	48973.59
693.73	48921.61
694.077	48879.58
694.423	48857.88
694.769	48775.17
695.116	48668.28
695.462	48568.17
695.808	48399.36
696.155	48527.04
696.501	48159.14
696.847	48103.78
697.193	47945.36
697.539	48118.01
697.885	47820.62
698.231	47734.07
698.577	47674.86
698.923	47592.38
699.269	47516.67
699.614	47114.88
699.96	47182.22
700.306	47260.86
700.651	46961.21
700.997	46868.1
701.342	46813.19
701.688	46700.42
702.033	46502.92
702.379	46531.84
702.724	46518.96
703.069	46530.49
703.415	46075.58
703.76	46050.72
704.105	46146.31
704.45	45897.28
704.795	45713.33
705.14	45621.58
705.485	45651.64
705.83	45477.63
706.175	45463.62
706.52	45288.94
706.865	45120.81
707.209	45156.96
707.554	44943.86
707.899	44974.37
708.243	44756.97
708.588	44760.14
708.932	44481.95
709.277	44532.8
709.621	44544.55
709.966	44210.32
710.31	44292.58
710.654	43908.18
710.998	44167.38
711.342	44080.83
711.687	43866.15
712.031	43744.34
712.375	43654.4
712.719	43649.66
713.063	43567.17
713.407	43740.28
713.75	43450.11
714.094	43415.31
714.438	43234.98
714.782	43371.47
715.125	43130.12
715.469	43247.41
715.812	43063.91
716.156	42806.52
716.499	42688.1
716.843	42837.93
717.186	42550.48
717.53	42749.34
717.873	42831.83
718.216	42613.3
718.559	42441.1
718.902	42212.18
719.246	42383.25
719.589	42307.77
719.932	42120.43
720.275	42098.51
720.617	42105.74
720.96	41909.59
721.303	41769.25
721.646	41741.91
721.989	41746.43
722.331	41839.54
722.674	41566.1
723.016	41761.57
723.359	41556.38
723.701	41580.56
724.044	41391.41
724.386	41231.64
724.729	41366.55
725.071	41259.89
725.413	41263.05
725.755	41282.26
726.097	41253.79
726.439	40815.38
726.782	40980.35
727.124	41171.53
727.465	40928.37
727.807	40866.45
728.149	40792.33
728.491	40697.19
728.833	40886.11
729.175	40717.31
729.516	40596.63
729.858	40477.09
730.199	40519.34
730.541	40434.6
730.882	40414.71
731.224	40452.45
731.565	40177.66
731.906	40308.95
732.248	40365.9
732.589	40136.53
732.93	40195.51
733.271	39915.29
733.612	40062.18
733.953	39979.02
734.294	39828.74
734.635	39858.57
734.976	39886.14
735.317	39807.05
735.658	39667.84
735.999	39729.53
736.339	39651.8
736.68	39753.26
737.021	39555.08
737.361	39503.33
737.702	39691.34
738.042	39401.41
738.383	39400.28
738.723	39485.7
739.063	39316.89
739.404	39403.44
739.744	39429.88
740.084	39135.43
740.424	39269.66
740.764	39064.47
741.104	39231.47
741.444	39031.93
741.784	38959.39
742.124	38986.5
742.464	38974.3
742.804	38904.47
743.143	38839.84
743.483	38831.48
743.823	38607.3
744.162	38551.49
744.502	38736.79
744.841	38490.7
745.181	38715.55
745.52	38468.78
745.86	38571.37
746.199	38491.83
746.538	38393.3
746.877	38469.68
747.216	38407.99
747.556	38229.46
747.895	38384.26
748.234	38070.82
748.573	38121.44
748.911	38225.62
749.25	38083.48
749.589	37904.72
749.928	38040.99
750.267	38009.35
750.605	37891.39
750.944	37815.69
751.283	37669.02
751.621	37820.66
751.96	37502.25
752.298	37596.94
752.636	37512.87
752.975	37391.74
753.313	37219.32
753.651	37401.23
753.989	37238.98
754.327	37206.44
754.666	36969.83
755.004	37067.01
755.342	36952.43
755.679	36938.87
756.017	36707.47
756.355	36843.51
756.693	36603.06
757.031	36650.29
757.368	36535.95
757.706	36479.22
758.044	36313.58
758.381	36351.54
758.719	36263.64
759.056	36178.89
759.394	36133.24
759.731	35962.85
760.068	35889.41
760.405	35631.11
760.743	35639.25
761.08	35648.06
761.417	35493.94
761.754	35465.69
762.091	35490.1
762.428	35387.95
762.765	35013.05
763.102	35134.4
763.438	34847.85
763.775	34679.05
764.112	34790.23
764.449	34809.44
764.785	34723.11
765.122	34449
765.458	34315.21
765.795	34292.62
766.131	34284.93
766.467	34212.62
766.804	34001.1
767.14	33847.66
767.476	33711.16
767.812	33752.06
768.148	33620.54
768.485	33491.73
768.821	33401.57
769.157	33305.97
769.492	33256.03
769.828	33252.42
770.164	32892.65
770.5	32767.68
770.836	32822.82
771.171	32587.8
771.507	32562.27
771.842	32318.88
772.178	32286.57
772.513	32288.15
772.849	32143.75
773.184	32032.11
773.519	31927.48
773.855	31761.16
774.19	31748.5
774.525	31497.43
774.86	31572.01
775.195	31553.7
775.53	31407.04
775.865	31167.95
776.2	30977.67
776.535	30810.67
776.87	30749.43
777.205	30621.75
777.539	30491.36
777.874	30623.79
778.209	30289.33
778.543	30239.16
778.878	29970.7
779.212	30047.3
779.547	29903.35
779.881	29922.33
780.215	29730.25
780.55	29713.3
780.884	29507.2
781.218	29448.22
781.552	29486.64
781.886	29098.4
782.22	29086.65
782.554	29009.59
782.888	28894.79
783.222	28752.87
783.556	28561.01
783.889	28638.3
784.223	28370.06
784.557	28389.72
784.89	28378.87
785.224	28308.14
785.557	28115.83
785.891	27952.89
786.224	27878.77
786.558	27973.46
786.891	27751.77
787.224	27601.72
787.557	27495.73
787.891	27577.09
788.224	27466.35
788.557	27307.04
788.89	27299.58
789.223	27154.95
789.556	27020.04
789.888	26874.73
790.221	26887.39
790.554	26533.5
790.887	26670.89
791.219	26641.52
791.552	26373.73
791.884	26361.52
792.217	26347.51
792.549	26136.45
792.882	26045.6
793.214	25921.99
793.546	25825.49
793.879	25794.76
794.211	25703.01
794.543	25693.07
794.875	25565.16
795.207	25638.15
795.539	25491.72
795.871	25373.75
796.203	25338.73
796.535	25039.07
796.867	25051.73
797.198	24998.4
797.53	25012.86
797.862	24960.21
798.193	24880.89
798.525	24688.35
798.856	24664.62
799.188	24430.95
799.519	24426.43
799.85	24297.4
800.182	24296.49
800.513	24346.44
800.844	24001.36
801.175	24247.68
801.506	24124.52
801.837	23914.13
802.168	23947.12
802.499	23796.39
802.83	23687.47
803.161	23655.83
803.491	23725.89
803.822	23691.09
804.153	23500.36
804.483	23350.53
804.814	23222.17
805.145	23207.93
805.475	23184.21
805.805	23152.12
806.136	23156.18
806.466	23153.25
806.796	23032.57
807.126	22717.1
807.457	22736.99
807.787	22885.01
808.117	22656.31
808.447	22581.28
808.777	22597.56
809.107	22532.92
809.436	22432.14
809.766	22441.63
810.096	22415.19
810.426	22222.2
810.755	22218.81
811.085	22323.66
811.414	22216.1
811.744	22082.09
812.073	21972.26
812.403	21939.49
812.732	21755.54
813.061	21828.31
813.39	21705.15
813.719	21635.09
814.049	21743.11
814.378	21592.61
814.707	21478.94
815.036	21477.36
815.365	21326.4
815.693	21246.4
816.022	21224.48
816.351	21181.1
816.68	20985.85
817.008	21174.77
817.337	20941.78
817.665	20955.79
817.994	20911.72
818.322	20913.76
818.651	20739.3
818.979	20753.31
819.307	20830.14
819.636	20687.55
819.964	20624.05
820.292	20652.07
820.62	20586.99
820.948	20582.02
821.276	20589.25
821.604	20498.63
821.932	20512.86
822.259	20498.63
822.587	20520.32
822.915	20434.67
823.243	20554.9
823.57	20536.82
823.898	20522.36
824.225	20434
824.553	20372.76
824.88	20404.84
825.207	20573.2
825.535	20419.08
825.862	20511.73
826.189	20406.65
826.516	20499.53
826.843	20470.83
827.17	20540.21
827.497	20535.24
827.824	20484.84
828.151	20542.92
828.478	20546.54
828.805	20546.76
829.131	20410.49
829.458	20328.46
829.785	20370.27
830.111	20386.09
830.438	20438.74
830.764	20451.85
831.09	20404.62
831.417	20303.15
831.743	20364.85
832.069	20338.63
832.395	20263.15
832.722	20317.62
833.048	20185.19
833.374	20229.03
833.7	20205.75
834.026	20235.81
834.351	20266.54
834.677	20203.04
835.003	20211.63
835.329	20181.35
835.654	20098.64
835.98	20118.52
836.306	20089.6
836.631	20047.79
836.956	20107.9
837.282	20039.43
837.607	19987.91
837.932	19956.95
838.258	19896.16
838.583	19824.3
838.908	19749.04
839.233	19816.16
839.558	19780.68
839.883	19673.11
840.208	19770.29
840.533	19668.14
840.858	19676.28
841.182	19682.83
841.507	19629.95
841.832	19453.23
842.156	19453.01
842.481	19431.76
842.805	19399.9
843.13	19326.23
843.454	19358.32
843.778	19290.3
844.103	19273.12
844.427	19078.1
844.751	19205.78
845.075	19126.01
845.399	19094.82
845.723	18906.35
846.047	18952.91
846.371	18820.48
846.695	18791.78
847.019	18600.37
847.343	18512.01
847.666	18449.87
847.99	18475.18
848.313	18553.14
848.637	18242.64
848.96	18340.27
849.284	18200.16
849.607	18171.68
849.931	18122.19
850.254	17926.72
850.577	17776.67
850.9	17660.06
851.223	17750.45
851.546	17579.38
851.869	17556.33
852.192	17590.46
852.515	17445.15
852.838	17315.21
853.161	17278.83
853.483	17301.42
853.806	17183.69
854.129	17113.41
854.451	16978.04
854.774	16978.04
855.096	16863.47
855.419	16818.72
855.741	16838.84
856.063	16738.5
856.385	16644.72
856.708	16647.88
857.03	16579.41
857.352	16617.15
857.674	16514.55
857.996	16425.74
858.318	16292.18
858.64	16395.46
858.961	16328.12
859.283	16236.14
859.605	16136.71
859.926	16300.55
860.248	16216.48
860.57	16084.28
860.891	16168.8
861.212	16103.71
861.534	16056.03
861.855	16044.96
862.176	15919.77
862.498	15908.24
862.819	15895.81
863.14	15851.29
863.461	15784.18
863.782	15716.61
864.103	15864.17
864.424	15752.09
864.745	15723.61
865.065	15686.55
865.386	15692.43
865.707	15556.16
866.027	15555.93
866.348	15559.55
866.668	15566.55
866.989	15492.21
867.309	15374.02
867.63	15449.27
867.95	15405.2
868.27	15292.66
868.59	15395.71
868.91	15261.25
869.23	15233.68
869.55	15202.95
869.87	15315.04
870.19	15232.55
870.51	15162.5
870.83	15238.43
871.15	15121.37
871.469	15120.24
871.789	15074.36
872.109	14977.42
872.428	15028.94
872.748	15097.87
873.067	14964.76
873.386	15002.28
873.706	14943.07
874.025	14835.95
874.344	14852.45
874.663	14932.45
874.982	14791.43
875.301	14870.75
875.62	14762.96
875.939	14753.47
876.258	14705.56
876.577	14724.09
876.896	14675.5
877.214	14650.87
877.533	14601.16
877.852	14620.59
878.17	14632.57
878.489	14713.7
878.807	14592.79
879.125	14588.95
879.444	14509.18
879.762	14453.59
880.08	14492.01
880.398	14431.44
880.716	14487.71
881.034	14397.09
881.352	14403.65
881.67	14272.12
881.988	14247.72
882.306	14334.95
882.624	14236.65
882.941	14134.95
883.259	14086.37
883.577	14063.99
883.894	14042.98
884.212	14052.7
884.529	13961.4
884.846	13948.52
885.164	13981.96
885.481	13893.6
885.798	13915.07
886.115	13871.23
886.432	13781.29
886.75	13728.64
887.067	13746.94
887.383	13702.87
887.7	13722.99
888.017	13638.24
888.334	13671.91
888.651	13621.52
888.967	13572.48
889.284	13517.12
889.6	13555.31
889.917	13341.53
890.233	13448.87
890.55	13384.24
890.866	13269.67
891.182	13340.62
891.498	13267.63
891.815	13235.09
892.131	13150.35
892.447	13136.11
892.763	13107.64
893.079	13025.83
893.395	13075.32
893.71	12987.19
894.026	12942.22
894.342	12866.96
894.657	12822.22
894.973	12797.81
895.289	12804.59
895.604	12724.14
895.92	12639.63
896.235	12620.19
896.55	12659.96
896.865	12541.77
897.181	12502.45
897.496	12501.32
897.811	12430.59
898.126	12384.26
898.441	12372.74
898.756	12339.07
899.071	12237.15
899.386	12260.65
899.7	12072.18
900.015	12093.65
900.33	12026.76
900.644	12027.21
900.959	11987.21
901.273	12017.49
901.588	11935.24
901.902	11862.24
902.216	11789.25
902.531	11722.36
902.845	11732.76
903.159	11700.21
903.473	11658.18
903.787	11509.71
904.101	11615.92
904.415	11525.76
904.729	11547
905.042	11421.58
905.356	11419.77
905.67	11377.29
905.984	11318.98
906.297	11245.54
906.611	11233.11
906.924	11177.52
907.237	11142.72
907.551	11102.49
907.864	11059.55
908.177	11017.52
908.491	10959.22
908.804	11003.51
909.117	10883.06
909.43	10860.46
909.743	10759
910.056	10786.34
910.368	10664.31
910.681	10666.34
910.994	10602.62
911.307	10613.69
911.619	10459.34
911.932	10455.95
912.244	10429.51
912.557	10377.54
912.869	10321.72
913.181	10279.91
913.494	10261.61
913.806	10165.79
914.118	10132.12
914.43	10112.01
914.742	10101.16
915.054	10036.98
915.366	9953.37
915.678	9901.84
915.99	9870.88
916.302	9818
916.613	9842.18
916.925	9796.08
917.236	9775.29
917.548	9703.88
917.859	9683.32
918.171	9647.39
918.482	9559.71
918.794	9550.89
919.105	9603.77
919.416	9449.43
919.727	9518.13
920.038	9450.78
920.349	9345.25
920.66	9254.18
920.971	9252.82
921.282	9173.28
921.593	9127.18
921.903	9148.19
922.214	9196.33
922.525	9046.27
922.835	9075.88
923.146	8926.28
923.456	8972.6
923.767	8862.55
924.077	8895.54
924.387	8822.1
924.697	8750.91
925.008	8764.25
925.318	8708.66
925.628	8749.78
925.938	8693.97
926.248	8572.61
926.558	8540.75
926.867	8544.82
927.177	8595.89
927.487	8465.5
927.796	8412.17
928.106	8409.68
928.416	8394.99
928.725	8371.71
929.034	8313.64
929.344	8236.35
929.653	8298.72
929.962	8213.53
930.271	8225.96
930.581	8069.12
930.89	8064.6
931.199	8004.94
931.508	7990.93
931.817	7990.26
932.125	7974.66
932.434	7854.21
932.743	7844.72
933.051	7835.01
933.36	7793.65
933.669	7722.01
933.977	7690.6
934.286	7684.28
934.594	7681.11
934.902	7577.39
935.21	7582.36
935.519	7587.1
935.827	7541.91
936.135	7461.68
936.443	7474.11
936.751	7393.21
937.059	7393.44
937.367	7343.27
937.674	7355.24
937.982	7347.34
938.29	7273.21
938.597	7206.1
938.905	7149.83
939.213	7109.38
939.52	7090.62
939.827	7214.01
940.135	7051.75
940.442	7007.68
940.749	7047
941.056	7044.97
941.363	6973.33
941.67	6858.53
941.977	6887.91
942.284	6786.9
942.591	6844.07
942.898	6786.45
943.205	6738.09
943.511	6725.43
943.818	6748.93
944.125	6681.82
944.431	6614.25
944.738	6634.59
945.044	6620.57
945.35	6598.43
945.657	6536.06
945.963	6559.33
946.269	6453.12
946.575	6453.35
946.881	6441.37
947.187	6435.95
947.493	6372.22
947.799	6340.81
948.105	6310.07
948.41	6254.03
948.716	6239.34
949.022	6183.75
949.327	6187.14
949.633	6128.16
949.938	6169.51
950.244	6151.21
950.549	6117.99
950.854	6033.25
951.16	6036.64
951.465	6047.48
951.77	5957.77
952.075	5986.92
952.38	5897.88
952.685	5922.51
952.99	5880.03
953.294	5788.05
953.599	5782.18
953.904	5790.31
954.209	5707.83
954.513	5723.2
954.818	5710.54
955.122	5680.71
955.426	5682.07
955.731	5654.95
956.035	5604.56
956.339	5597.78
956.643	5607.04
956.948	5579.92
957.252	5546.03
957.556	5494.5
957.86	5427.61
958.163	5449.08
958.467	5423.32
958.771	5434.62
959.075	5384
959.378	5369.99
959.682	5391.45
959.985	5314.39
960.289	5300.16
960.592	5259.48
960.896	5222.87
961.199	5222.87
961.502	5227.39
961.805	5158.47
962.108	5151.23
962.411	5103.33
962.714	5086.83
963.017	5070.56
963.32	5063.55
963.623	4982.43
963.926	5001.86
964.228	5053.61
964.531	4955.53
964.833	4925.93
965.136	4900.62
965.438	4845.03
965.741	4859.26
966.043	4838.02
966.345	4867.17
966.648	4810.45
966.95	4800.74
967.252	4701.98
967.554	4788.53
967.856	4686.61
968.158	4721.42
968.46	4647.07
968.761	4642.55
969.063	4583.79
969.365	4633.06
969.666	4615.43
969.968	4554.19
970.269	4574.98
970.571	4545.6
970.872	4489.11
971.174	4484.36
971.475	4546.96
971.776	4479.84
972.077	4459.95
972.378	4357.36
972.679	4419.73
972.98	4345.38
973.281	4368.43
973.582	4306.29
973.883	4327.98
974.183	4309.9
974.484	4298.6
974.785	4286.62
975.085	4267.19
975.386	4266.96
975.686	4241.2
975.986	4163.69
976.287	4207.53
976.587	4145.84
976.887	4154.88
977.187	4132.28
977.487	4094.09
977.787	4128.21
978.087	4074.65
978.387	4064.03
978.687	4031.26
978.987	4009.8
979.286	3980.64
979.586	3962.34
979.885	3931.15
980.185	3934.09
980.484	3902.68
980.784	3886.41
981.083	3903.81
981.382	3854.32
981.682	3838.95
981.981	3826.52
982.28	3852.96
982.579	3797.6
982.878	3764.83
983.177	3751.5
983.475	3781.55
983.774	3692.97
984.073	3725.96
984.372	3684.15
984.67	3678.5
984.969	3665.4
985.267	3637.83
985.566	3592.63
985.864	3633.31
986.162	3604.83
986.461	3531.39
986.759	3505.18
987.057	3516.93
987.355	3528.23
987.653	3547.66
987.951	3431.51
988.249	3479.41
988.547	3488.91
988.844	3444.16
989.142	3411.85
989.44	3410.04
989.737	3372.07
990.035	3402.81
990.332	3395.35
990.63	3370.26
990.927	3339.08
991.224	3312.19
991.521	3254.34
991.819	3285.75
992.116	3246.65
992.413	3248.46
992.71	3234
993.006	3198.97
993.303	3187.67
993.6	3190.38
993.897	3117.84
994.193	3164.85
994.49	3160.78
994.787	3090.27
995.083	3116.49
995.379	3081.23
995.676	3034.45
995.972	3051.63
996.268	3029.93
996.565	3023.83
996.861	3028.13
997.157	2970.95
997.453	3035.13
997.749	2973.66
998.044	2931.86
998.34	2930.73
998.636	2954.23
998.932	2874.23
999.227	2905.64
999.523	2881.69
999.818	2850.05
1000.114	2842.37
1000.409	2839.21
1000.704	2835.14
1001	2795.82
1001.295	2763.05
1001.59	2750.85
1001.885	2730.06
1002.18	2727.12
1002.475	2730.73
1002.77	2710.39
1003.065	2689.6
1003.359	2686.21
1003.654	2642.15
1003.949	2612.09
1004.243	2629.49
1004.538	2597.4
1004.832	2616.61
1005.127	2589.49
1005.421	2589.72
1005.715	2533.68
1006.009	2556.73
1006.304	2550.85
1006.598	2503.62
1006.892	2481.02
1007.186	2502.26
1007.48	2463.4
1007.773	2442.83
1008.067	2441.93
1008.361	2430.63
1008.655	2412.55
1008.948	2389.05
1009.242	2362.83
1009.535	2338.65
1009.829	2373.23
1010.122	2343.17
1010.415	2318.99
1010.708	2316.28
1011.001	2298.43
1011.295	2298.43
1011.588	2279.22
1011.881	2261.37
1012.173	2266.56
1012.466	2261.59
1012.759	2212.55
1013.052	2230.41
1013.344	2193.8
1013.637	2183.4
1013.93	2175.49
1014.222	2149.96
1014.514	2130.98
1014.807	2129.62
1015.099	2124.42
1015.391	2073.35
1015.683	2087.81
1015.976	2074.93
1016.268	2072.9
1016.56	2019.79
1016.851	2036.51
1017.143	1996.97
1017.435	2011.88
1017.727	1994.03
1018.018	1999.23
1018.31	1949.96
1018.602	1962.39
1018.893	1958.1
1019.185	1951.32
1019.476	1918.33
1019.767	1936.4
1020.058	1894.6
1020.35	1878.33
1020.641	1860.47
1020.932	1880.36
1021.223	1829.06
1021.514	1810.98
1021.804	1822.73
1022.095	1806.46
1022.386	1755.39
1022.677	1769.63
1022.967	1757.65
1023.258	1740.7
1023.548	1723.08
1023.839	1738.67
1024.129	1721.72
1024.419	1711.33
1024.709	1703.64
1025	1652.12
1025.29	1699.57
1025.58	1677.88
1025.87	1638.33
1026.16	1624.1
1026.449	1624.32
1026.739	1618.9
1027.029	1612.34
1027.319	1569.63
1027.608	1594.72
1027.898	1576.41
1028.187	1567.37
1028.477	1537.32
1028.766	1558.11
1029.055	1521.27
1029.344	1528.73
1029.634	1496.42
1029.923	1467.26
1030.212	1453.7
1030.501	1478.56
1030.79	1464.55
1031.078	1446.25
1031.367	1417.1
1031.656	1412.58
1031.945	1389.98
1032.233	1414.16
1032.522	1411.22
1032.81	1388.85
1033.099	1366.93
1033.387	1377.77
1033.675	1360.6
1033.963	1345.46
1034.251	1343.2
1034.54	1329.41
1034.828	1328.96
1035.116	1311.56
1035.403	1282.86
1035.691	1274.73
1035.979	1302.52
1036.267	1254.16
1036.554	1285.57
1036.842	1275.86
1037.129	1236.76
1037.417	1246.48
1037.704	1253.48
1037.992	1219.59
1038.279	1235.18
1038.566	1210.32
1038.853	1210.32
1039.14	1210.32
