Data from orange_diffuse_book_FLMS001491_00028.txt Node
Date: Wed Feb 08 15:29:20 GMT 2017
User: dcchb
Spectrometer: FLMS00149
Trigger mode: 0
Integration Time (sec): 2.000000E-2
Scans to average: 10
Electric dark correction enabled: true
Nonlinearity correction enabled: false
Boxcar width: 0
XAxis mode: Wavelengths
Number of Pixels in Spectrum: 2048
>>>>>Begin Spectral Data<<<<<
341.393	-23.64
341.776	-23.64
342.16	-23.64
342.543	-51.21
342.927	-65.22
343.31	-65.45
343.693	-68.84
344.077	-57.54
344.46	-53.02
344.843	-53.47
345.226	-24.55
345.61	-37.65
345.993	-12.34
346.376	-6.69
346.759	14.1
347.142	12.29
347.525	34.21
347.908	59.07
348.291	59.97
348.674	105.39
349.057	94.55
349.44	122.57
349.823	142.23
350.206	166.18
350.588	212.28
350.971	231.27
351.354	243.02
351.737	261.55
352.119	265.16
352.502	260.19
352.884	271.72
353.267	303.58
353.65	303.13
354.032	306.74
354.414	327.08
354.797	311.04
355.179	335.44
355.562	352.62
355.944	351.71
356.326	335.9
356.709	345.84
357.091	351.71
357.473	357.59
357.855	337.7
358.238	342.67
358.62	367.08
359.002	347.65
359.384	362.79
359.766	344.26
360.148	377.25
360.53	345.16
360.912	331.15
361.294	344.93
361.676	351.94
362.057	342
362.439	329.57
362.821	320.75
363.203	347.19
363.584	353.97
363.966	343.13
364.348	340.19
364.729	350.58
365.111	330.7
365.493	320.3
365.874	340.64
366.256	323.01
366.637	335.67
367.019	344.71
367.4	335.67
367.781	333.18
368.163	330.47
368.544	322.79
368.925	333.41
369.306	360.08
369.688	321.88
370.069	336.57
370.45	317.59
370.831	331.15
371.212	336.57
371.593	303.35
371.974	325.73
372.355	320.53
372.736	335.9
373.117	345.84
373.498	319.17
373.879	332.51
374.26	315.78
374.641	343.35
375.021	354.65
375.402	326.63
375.783	355.1
376.163	358.04
376.544	339.06
376.925	352.62
377.305	322.34
377.686	343.13
378.066	316.23
378.447	356.91
378.827	330.7
379.208	325.95
379.588	351.04
379.968	365.72
380.349	362.79
380.729	336.35
381.109	366.85
381.489	357.59
381.87	359.62
382.25	353.07
382.63	367.98
383.01	353.52
383.39	361.43
383.77	366.85
384.15	334.77
384.53	363.01
384.91	369.34
385.29	363.92
385.67	390.36
386.049	386.74
386.429	369.79
386.809	385.16
387.189	375.22
387.568	369.79
387.948	353.75
388.328	385.16
388.707	373.86
389.087	362.11
389.466	378.38
389.846	374.31
390.225	370.24
390.605	396.46
390.984	398.04
391.363	390.13
391.743	382.45
392.122	367.08
392.501	384.26
392.881	383.35
393.26	396.01
393.639	377.48
394.018	418.15
394.397	391.94
394.776	390.36
395.155	385.61
395.534	397.36
395.913	403.01
396.292	393.75
396.671	412.05
397.05	428.32
397.429	414.99
397.808	387.65
398.186	416.12
398.565	417.02
398.944	419.28
399.323	420.41
399.701	428.77
400.08	415.67
400.458	415.89
400.837	436.91
401.215	413.86
401.594	432.84
401.972	418.38
402.351	411.15
402.729	431.94
403.107	428.55
403.486	436.46
403.864	430.13
404.242	447.3
404.62	427.87
404.999	443.91
405.377	454.54
405.755	437.36
406.133	446.85
406.511	471.26
406.889	464.25
407.267	463.58
407.645	455.21
408.023	458.6
408.401	470.35
408.779	460.41
409.156	450.02
409.534	472.16
409.912	457.02
410.29	484.82
410.667	468.1
411.045	489.34
411.422	483.69
411.8	484.82
412.178	502.44
412.555	493.63
412.933	517.81
413.31	515.78
413.687	494.31
414.065	526.4
414.442	516.23
414.819	526.85
415.197	518.94
415.574	530.01
415.951	543.35
416.328	527.53
416.705	509.68
417.082	544.25
417.46	543.57
417.837	548.54
418.214	549.67
418.591	550.35
418.967	554.42
419.344	550.13
419.721	597.58
420.098	574.31
420.475	548.54
420.852	549.45
421.228	579.28
421.605	586.74
421.982	579.96
422.358	579.73
422.735	579.73
423.111	565.72
423.488	597.13
423.864	619.28
424.241	607.07
424.617	586.96
424.994	598.71
425.37	598.71
425.746	592.61
426.123	617.24
426.499	608.66
426.875	612.72
427.251	637.13
427.627	627.64
428.003	625.15
428.379	660.18
428.756	648.66
429.132	659.05
429.507	672.38
429.883	675.32
430.259	678.94
430.635	670.58
431.011	680.74
431.387	702.44
431.763	697.47
432.138	704.25
432.514	729.11
432.89	708.77
433.265	725.94
433.641	743.12
434.016	740.86
434.392	727.52
434.767	768.2
435.143	759.39
435.518	751.93
435.894	766.39
436.269	748.09
436.644	767.3
437.02	772.49
437.395	771.36
437.77	817.92
438.145	784.02
438.52	779.05
438.895	779.05
439.271	801.65
439.646	817.92
440.021	827.18
440.395	828.31
440.77	828.76
441.145	840.51
441.52	861.76
441.895	814.75
442.27	850.01
442.645	830.8
443.019	839.84
443.394	843.23
443.769	842.32
444.143	873.51
444.518	844.13
444.892	853.62
445.267	852.94
445.641	880.06
446.016	901.53
446.39	872.83
446.764	888.42
447.139	912.38
447.513	889.33
447.887	907.86
448.262	908.54
448.636	902.43
449.01	906.5
449.384	914.41
449.758	944.01
450.132	948.53
450.506	949.89
450.88	927.07
451.254	925.71
451.628	965.26
452.002	949.66
452.376	981.3
452.75	965.26
453.123	949.44
453.497	1005.71
453.871	983.11
454.244	1010
454.618	981.08
454.992	1013.39
455.365	1017.69
455.739	1032.83
456.112	1045.71
456.486	1052.71
456.859	1051.58
457.232	1061.07
457.606	1059.72
457.979	1063.33
458.352	1100.39
458.725	1092.49
459.099	1134.52
459.472	1126.38
459.845	1105.37
460.218	1146.95
460.591	1127.51
460.964	1129.32
461.337	1169.32
461.71	1139.72
462.083	1150.79
462.456	1174.07
462.829	1170.68
463.201	1201.18
463.574	1216.1
463.947	1251.13
464.32	1228.53
464.692	1253.84
465.065	1221.75
465.438	1232.37
465.81	1286.38
466.183	1260.84
466.555	1310.11
466.928	1269.2
467.3	1285.47
467.672	1322.54
468.045	1302.2
468.417	1340.61
468.789	1364.57
469.161	1343.55
469.534	1370.9
469.906	1384.23
470.278	1385.81
470.65	1409.77
471.022	1419.26
471.394	1461.74
471.766	1452.48
472.138	1452.48
472.51	1464.9
472.882	1494.73
473.253	1505.36
473.625	1543.1
473.997	1553.72
474.369	1556.65
474.74	1607.95
475.112	1595.3
475.484	1626.26
475.855	1645.24
476.227	1651.79
476.598	1691.57
476.97	1698.8
477.341	1725.24
477.713	1771.11
478.084	1749.19
478.455	1769.98
478.827	1798.68
479.198	1831.45
479.569	1878.68
479.94	1913.25
480.311	1942.63
480.682	1963.2
481.053	1990.54
481.424	2007.49
481.795	2046.36
482.166	2085
482.537	2091.78
482.908	2107.6
483.279	2167.03
483.65	2186.02
484.021	2197.09
484.391	2240.7
484.762	2271.66
485.133	2289.29
485.503	2321.83
485.874	2323.87
486.244	2391.89
486.615	2408.83
486.985	2454.03
487.356	2496.06
487.726	2528.83
488.097	2578.55
488.467	2607.7
488.837	2639.34
489.207	2691.31
489.578	2735.83
489.948	2723.85
490.318	2793.46
490.688	2779.22
491.058	2855.15
491.428	2879.56
491.798	2884.53
492.168	2945.77
492.538	3009.05
492.908	3051.76
493.278	3033.45
493.648	3104.18
494.017	3121.36
494.387	3188.02
494.757	3201.36
495.126	3250.39
495.496	3265.08
495.866	3250.17
496.235	3275.03
496.605	3348.92
496.974	3407.9
497.344	3440.9
497.713	3485.64
498.082	3508.47
498.452	3514.79
498.821	3597.96
499.19	3574.23
499.559	3613.1
499.928	3615.13
500.298	3700.78
500.667	3687.67
501.036	3719.53
501.405	3771.06
501.774	3790.72
502.143	3823.04
502.512	3834.79
502.88	3882.69
503.249	3854.45
503.618	3931.28
503.987	3932.41
504.356	3992.75
504.724	4028.45
505.093	4050.83
505.462	4072.97
505.83	4089.02
506.199	4161.33
506.567	4230.93
506.936	4164.95
507.304	4211.95
507.672	4273.87
508.041	4268.22
508.409	4286.3
508.777	4402.91
509.145	4391.16
509.514	4397.26
509.882	4435
510.25	4500.08
510.618	4518.16
510.986	4523.81
511.354	4562.68
511.722	4621.88
512.09	4635.67
512.458	4653.3
512.826	4673.18
513.193	4780.75
513.561	4749.79
513.929	4768.09
514.297	4813.52
514.664	4898.94
515.032	4856.68
515.4	4935.32
515.767	4970.58
516.135	4987.98
516.502	4943.68
516.869	5026.39
517.237	5055.09
517.604	5079.27
517.972	5126.96
518.339	5154.07
518.706	5161.53
519.073	5214.86
519.44	5223.9
519.808	5316.1
520.175	5325.59
520.542	5371.69
520.909	5446.27
521.276	5440.17
521.643	5475.2
522.009	5545.93
522.376	5576.44
522.743	5576.21
523.11	5661.63
523.477	5690.33
523.843	5721.06
524.21	5775.3
524.577	5828.18
524.943	5876.09
525.31	5840.38
525.676	5938.69
526.043	5980.94
526.409	5998.35
526.776	6039.02
527.142	6068.63
527.508	6086.7
527.874	6147.95
528.241	6211.22
528.607	6204.44
528.973	6224.78
529.339	6283.76
529.705	6276.76
530.071	6313.14
530.437	6392.23
530.803	6370.09
531.169	6435.4
531.535	6408.28
531.901	6483.98
532.267	6498.9
532.632	6521.27
532.998	6637.42
533.364	6611.66
533.73	6681.49
534.095	6728.27
534.461	6719
534.826	6820.92
535.192	6763.52
535.557	6850.07
535.923	6769.85
536.288	6875.84
536.653	6851.43
537.019	6926.23
537.384	6872.67
537.749	6963.29
538.114	6952.67
538.479	6997.19
538.845	7061.59
539.21	7033.57
539.575	7068.37
539.94	7093.01
540.305	7134.81
540.67	7179.78
541.034	7145.66
541.399	7278.09
541.764	7212.1
542.129	7291.87
542.494	7297.07
542.858	7413.22
543.223	7364.18
543.587	7452.77
543.952	7452.77
544.316	7457.06
544.681	7456.84
545.045	7548.59
545.41	7599.21
545.774	7572.77
546.138	7684.85
546.503	7649.6
546.867	7671.75
547.231	7785.42
547.595	7754.91
547.959	7877.39
548.324	7820.22
548.688	7843.49
549.052	7922.59
549.416	8027.22
549.779	7975.92
550.143	8041
550.507	8076.03
550.871	8128.01
551.235	8143.83
551.599	8215.46
551.962	8243.94
552.326	8297.27
552.689	8381.56
553.053	8348.57
553.417	8394.89
553.78	8548.11
554.143	8504.72
554.507	8564.83
554.87	8590.82
555.234	8699.97
555.597	8655
555.96	8772.96
556.323	8857.48
556.686	8818.16
557.05	8897.25
557.413	9041.88
557.776	9031.94
558.139	9111.94
558.502	9148.54
558.865	9188.54
559.228	9340.4
559.59	9302.89
559.953	9471.47
560.316	9458.82
560.679	9607.06
561.041	9660.4
561.404	9702.65
561.767	9791.01
562.129	9824.46
562.492	9994.62
562.854	10041.4
563.217	10097.67
563.579	10214.96
563.941	10295.18
564.304	10420.15
564.666	10553.71
565.028	10566.81
565.39	10639.13
565.753	10737.2
566.115	10824.88
566.477	10973.13
566.839	11044.31
567.201	11210.64
567.563	11258.09
567.925	11484.3
568.287	11554.81
568.648	11595.49
569.01	11738.76
569.372	11926.55
569.734	12058.75
570.095	12133.78
570.457	12276.6
570.819	12441.57
571.18	12523.15
571.542	12783.93
571.903	12909.12
572.265	13043.36
572.626	13187.08
572.987	13450.35
573.349	13581.2
573.71	13748.65
574.071	13913.62
574.432	14130.11
574.794	14425.47
575.155	14525.35
575.516	14643.77
575.877	14943.42
576.238	15176.18
576.599	15414.37
576.96	15576.85
577.32	15848.26
577.681	16123.28
578.042	16403.95
578.403	16609.37
578.763	16961.67
579.124	17244.38
579.485	17547.19
579.845	17921.87
580.206	18145.82
580.566	18431.01
580.927	18692.02
581.287	19098.57
581.648	19294.49
582.008	19648.61
582.368	19950.29
582.728	20359.32
583.089	20655.36
583.449	20950.04
583.809	21411.73
584.169	21878.61
584.529	22087.87
584.889	22708.19
585.249	22800.62
585.609	23236.54
585.969	23783.19
586.329	24144.31
586.688	24561.02
587.048	24858.64
587.408	25286.43
587.768	25804.6
588.127	26153.52
588.487	26548.99
588.846	27238.92
589.206	27368.63
589.565	27984.89
589.925	28447.25
590.284	28814.69
590.643	29348.24
591.003	29823.93
591.362	30295.11
591.721	30705.27
592.08	31219.6
592.44	31737.56
592.799	32262.29
593.158	32642.62
593.517	33237.63
593.876	33648.47
594.235	34046.87
594.593	34603.47
594.952	35073.51
595.311	35483.67
595.67	36053.37
596.029	36755.5
596.387	37070.75
596.746	37597.29
597.104	37840.9
597.463	38284.05
597.822	38892.62
598.18	39205.38
598.538	39736.89
598.897	40291.23
599.255	40403.99
599.613	41309.73
599.972	41492.55
600.33	42031.97
600.688	42394.22
601.046	42938.62
601.404	43405.27
601.762	43667.41
602.12	44264.01
602.478	44485.02
602.836	44861.96
603.194	45176.98
603.552	45528.61
603.91	45764.31
604.268	46267.34
604.625	46504.85
604.983	46956.59
605.341	47013.99
605.698	47594.54
606.056	47928.09
606.413	48176.45
606.771	48501.41
607.128	48711.35
607.485	48839.25
607.843	49056.65
608.2	49442.17
608.557	49869.06
608.914	49882.16
609.272	50264.98
609.629	50502.49
609.986	50753.1
610.343	50803.04
610.7	51160.55
611.057	51321.45
611.414	51427.21
611.771	51571.61
612.127	51785.39
612.484	52015.21
612.841	52164.81
613.198	52184.25
613.554	52290.01
613.911	52547.4
614.267	52704.01
614.624	52734.52
614.98	52906.94
615.337	53175.64
615.693	53138.57
616.05	53294.28
616.406	53487.94
616.762	53490.66
617.118	53565.23
617.475	53584.66
617.831	53787.82
618.187	53898.33
618.543	53997.08
618.899	54279.34
619.255	54143.52
619.611	54285.66
619.967	54415.38
620.323	54567.01
620.678	54441.14
621.034	54401.82
621.39	54510.06
621.746	54527.01
622.101	54860.34
622.457	54602.49
622.812	54751.19
623.168	54858.3
623.523	54884.29
623.879	55023.95
624.234	54887.46
624.589	55042.48
624.945	55070.73
625.3	55140.56
625.655	55095.13
626.01	55119.31
626.365	55235.24
626.72	55247.9
627.075	55324.73
627.43	55250.16
627.785	55194.34
628.14	55387.33
628.495	55416.71
628.85	55400.89
629.205	55264.39
629.559	55468.68
629.914	55357.27
630.269	55439.53
630.623	55319.53
630.978	55359.08
631.332	55463.03
631.687	55509.59
632.041	55352.75
632.396	55487.21
632.75	55394.79
633.104	55393.66
633.459	55268.24
633.813	55260.55
634.167	55246.09
634.521	55323.6
634.875	55319.31
635.229	55357.5
635.583	55260.55
635.937	55302.59
636.291	55284.51
636.645	55255.36
636.999	55159.09
637.352	55241.34
637.706	55151.18
638.06	55239.76
638.413	55166.32
638.767	55190.27
639.121	55154.11
639.474	55101.91
639.828	55141.01
640.181	55146.66
640.534	55183.49
640.888	55132.19
641.241	55029.15
641.594	55037.51
641.947	55162.48
642.301	55015.59
642.654	55121.57
643.007	55161.12
643.36	55142.59
643.713	55063.72
644.066	55112.76
644.419	54954.57
644.771	54812.65
645.124	54516.62
645.477	54451.53
645.83	54311.43
646.182	54239.79
646.535	54176.29
646.888	54251.77
647.24	54114.37
647.593	54318.88
647.945	54324.08
648.298	54093.58
648.65	54035.27
649.002	53978.1
649.355	54107.36
649.707	54009.74
650.059	54264.65
650.411	54453.12
650.763	54554.81
651.115	54915.93
651.467	54667.8
651.819	54722.49
652.171	54694.01
652.523	54660.34
652.875	54690.4
653.227	54550.29
653.578	54783.5
653.93	54597.52
654.282	54523.62
654.633	54440.01
654.985	54580.34
655.337	54603.39
655.688	54608.59
656.039	54678.2
656.391	54421.7
656.742	54584.41
657.094	54535.6
657.445	54661.7
657.796	54559.33
658.147	54470.29
658.498	54569.72
658.849	54561.14
659.2	54491.08
659.551	54475.71
659.902	54590.06
660.253	54478.2
660.604	54558.88
660.955	54370.41
661.306	54516.17
661.656	54461.03
662.007	54433.23
662.358	54467.58
662.708	54423.74
663.059	54475.04
663.409	54288.15
663.76	54491.76
664.11	54440.01
664.461	54440.24
664.811	54446.11
665.161	54416.96
665.511	54390.97
665.862	54448.37
666.212	54534.7
666.562	54488.37
666.912	54404.76
667.262	54325.21
667.612	54370.41
667.962	54400.91
668.312	54358.66
668.662	54473.91
669.011	54407.47
669.361	54337.64
669.711	54294.02
670.06	54174.93
670.41	54236.4
670.76	54146.46
671.109	54198.66
671.459	54202.95
671.808	54157.76
672.157	54269.84
672.507	54070.75
672.856	54093.35
673.205	54038.21
673.554	54115.95
673.904	53984.65
674.253	54151.88
674.602	54044.31
674.951	53557.09
675.3	53474.61
675.649	53936.29
675.998	53912.11
676.346	53908.95
676.695	53987.82
677.044	53756.41
677.393	53828.5
677.741	53900.59
678.09	53773.81
678.438	53771.78
678.787	53836.41
679.135	53733.14
679.484	53582.18
679.832	53679.13
680.181	53522.29
680.529	53631.22
680.877	53494.27
681.225	53441.62
681.573	53690.88
681.922	53378.57
682.27	53476.19
682.618	53347.61
682.966	53388.06
683.314	53365.69
683.661	53238.01
684.009	53106.26
684.357	53091.8
684.705	53111.46
685.053	53114.85
685.4	53024.45
685.748	52859.71
686.095	52785.59
686.443	52774.06
686.79	52750.11
687.138	52795.08
687.485	52709.89
687.832	52584.92
688.18	52571.81
688.527	52483.45
688.874	52500.4
689.221	52398.03
689.568	52252.04
689.915	52114.87
690.262	52261.31
690.609	52037.36
690.956	51934.09
691.303	51972.96
691.65	51822.45
691.997	51835.78
692.344	51571.38
692.69	51544.72
693.037	51591.27
693.383	51344.05
693.73	51525.51
694.077	51233.31
694.423	51236.25
694.769	51241.45
695.116	51143.37
695.462	51044.62
695.808	50856.83
696.155	50841.01
696.501	50650.28
696.847	50658.64
697.193	50434.24
697.539	50549.04
697.885	50243.28
698.231	50219.56
698.577	50137.75
698.923	50125.55
699.269	49893.91
699.614	49771.43
699.96	49729.4
700.306	49754.26
700.651	49530.31
700.997	49448.95
701.342	49438.33
701.688	49368.5
702.033	49164.89
702.379	49177.1
702.724	48950.44
703.069	49217.55
703.415	48719.93
703.76	48751.57
704.105	48754.06
704.45	48647.39
704.795	48347.06
705.14	48203.34
705.485	48319.49
705.83	48037.01
706.175	48165.37
706.52	47947.75
706.865	47834.76
707.209	47704.59
707.554	47608.78
707.899	47635.22
708.243	47460.08
708.588	47417.14
708.932	47162.01
709.277	47124.5
709.621	47184.83
709.966	46763.83
710.31	47069.81
710.654	46699.87
710.998	46763.15
711.342	46640.89
711.687	46604.96
712.031	46331.52
712.375	46291.07
712.719	46407.9
713.063	46229.38
713.407	46509.82
713.75	46151.87
714.094	46163.84
714.438	45944.19
714.782	46056.73
715.125	45832.78
715.469	45728.15
715.812	45649.73
716.156	45485.22
716.499	45477.99
716.843	45605.67
717.186	45289.52
717.53	45455.84
717.873	45501.49
718.216	45241.61
718.559	45159.12
718.902	44819.47
719.246	44997.55
719.589	44857.89
719.932	44748.06
720.275	44840.71
720.617	44692.47
720.96	44620.61
721.303	44709.87
721.646	44581.29
721.989	44317.11
722.331	44591.91
722.674	44416.09
723.016	44363.89
723.359	44259.26
723.701	44329.09
724.044	43911.25
724.386	43835.32
724.729	44215.65
725.071	43868.08
725.413	43922.55
725.755	43836.45
726.097	43699.27
726.439	43651.14
726.782	43539.96
727.124	43738.14
727.465	43553.52
727.807	43405.72
728.149	43523.69
728.491	43386.29
728.833	43391.49
729.175	43175.22
729.516	43220.64
729.858	43258.38
730.199	43243.69
730.541	43070.14
730.882	43177.48
731.224	43112.17
731.565	42878.05
731.906	42934.78
732.248	43008.45
732.589	42896.58
732.93	42747.66
733.271	42764.38
733.612	42686.87
733.953	42683.26
734.294	42504.05
734.635	42413.21
734.976	42688.45
735.317	42390.61
735.658	42405.75
735.999	42425.41
736.339	42315.81
736.68	42481
737.021	42351.06
737.361	42096.6
737.702	42350.16
738.042	42184.51
738.383	42060.67
738.723	42001.01
739.063	41909.27
739.404	42017.74
739.744	41942.48
740.084	41839.66
740.424	41869.49
740.764	41703.62
741.104	41853.22
741.444	41577.75
741.784	41606
742.124	41764.41
742.464	41608.03
742.804	41498.88
743.143	41463.85
743.483	41505.21
743.823	41211.2
744.162	41304.31
744.502	41270.86
744.841	41173.92
745.181	41417.75
745.52	41180.92
745.86	41251.43
746.199	41053.02
746.538	41032.45
746.877	41120.13
747.216	41003.3
747.556	40852.57
747.895	40923.08
748.234	40871.33
748.573	40892.79
748.911	40732.12
749.25	40629.3
749.589	40543.65
749.928	40658.22
750.267	40598.57
750.605	40533.48
750.944	40379.14
751.283	40356.99
751.621	40408.29
751.96	40180.72
752.298	40186.15
752.636	40223.89
752.975	39977.11
753.313	39965.59
753.651	40079.71
753.989	39837.68
754.327	39733.73
754.666	39536.45
755.004	39620.06
755.342	39570.8
755.679	39601.53
756.017	39438.37
756.355	39400.18
756.693	39241.54
757.031	39228.43
757.368	39075.67
757.706	39002.22
758.044	38987.99
758.381	38952.73
758.719	38843.81
759.056	38863.92
759.394	38725.17
759.731	38449.02
760.068	38476.59
760.405	38252.64
760.743	38076.6
761.08	38230.72
761.417	38063.26
761.754	37919.31
762.091	37827.11
762.428	37824.63
762.765	37696.27
763.102	37714.12
763.438	37515.71
763.775	37264.64
764.112	37282.72
764.449	37285.88
764.785	37036.17
765.122	36906.68
765.458	36822.85
765.795	36841.83
766.131	36603.42
766.467	36597.99
766.804	36309.19
767.14	36184.9
767.476	36219.02
767.812	36099.02
768.148	36103.32
768.485	35982.64
768.821	35680.73
769.157	35618.81
769.492	35560.96
769.828	35416.33
770.164	35194.19
770.5	35158.71
770.836	35254.75
771.171	34983.35
771.507	34937.47
771.842	34575.45
772.178	34620.64
772.513	34522.79
772.849	34426.75
773.184	34307.21
773.519	34190.6
773.855	34047.1
774.19	33943.15
774.525	33866.54
774.86	34002.35
775.195	33718.29
775.53	33618.18
775.865	33509.94
776.2	33234.47
776.535	33002.83
776.87	32950.4
777.205	32798.54
777.539	32692.11
777.874	32744.76
778.209	32557.42
778.543	32484.2
778.878	32260.93
779.212	32301.38
779.547	32048.96
779.881	32076.53
780.215	31914.5
780.55	31965.35
780.884	31667.73
781.218	31562.87
781.552	31653.04
781.886	31420.5
782.22	31147.51
782.554	31131.02
782.888	30931.25
783.222	30810.57
783.556	30598.15
783.889	30573.74
784.223	30467.31
784.557	30441.32
784.89	30360.42
785.224	30253.53
785.557	30093.76
785.891	30088.11
786.224	29958.62
786.558	29815.8
786.891	29626.65
787.224	29546.65
787.557	29525.41
787.891	29484.28
788.224	29317.28
788.557	29368.13
788.89	29299.43
789.223	29242.03
789.556	28926.56
789.888	28919.32
790.221	28810.63
790.554	28530.41
790.887	28682.04
791.219	28357.53
791.552	28480.69
791.884	28294.26
792.217	28090.42
792.549	28075.96
792.882	27928.16
793.214	27815.85
793.546	27866.47
793.879	27560.26
794.211	27469.87
794.543	27539.25
794.875	27482.75
795.207	27507.84
795.539	27311.01
795.871	27187.84
796.203	27092.03
796.535	26872.15
796.867	26943.33
797.198	26898.59
797.53	26930
797.862	26680.97
798.193	26598.03
798.525	26407.98
798.856	26429.9
799.188	26168.66
799.519	26148.78
799.85	26074.88
800.182	26169.11
800.513	26067.2
800.844	25878.27
801.175	25894.32
801.506	25863.36
801.837	25696.81
802.168	25651.39
802.499	25553.09
802.83	25307.67
803.161	25407.78
803.491	25421.56
803.822	25208.69
804.153	25069.03
804.483	24983.16
804.814	24943.84
805.145	24858.64
805.475	24855.7
805.805	24697.06
806.136	24770.05
806.466	24726.44
806.796	24644.41
807.126	24391.31
807.457	24473.79
807.787	24464.98
808.117	24286.68
808.447	24154.7
808.777	24280.35
809.107	24281.48
809.436	24079.45
809.766	24075.84
810.096	23921.49
810.426	23875.84
810.755	23942.28
811.085	23751.1
811.414	23764.43
811.744	23547.71
812.073	23462.29
812.403	23545.68
812.732	23414.84
813.061	23389.07
813.39	23272.47
813.719	23277.89
814.049	23289.87
814.378	23088.07
814.707	23041.51
815.036	22972.36
815.365	22887.17
815.693	22758.13
816.022	22816.66
816.351	22667.96
816.68	22627.29
817.008	22651.24
817.337	22500.28
817.665	22473.62
817.994	22660.28
818.322	22368.08
818.651	22332.6
818.979	22188.2
819.307	22271.82
819.636	22269.56
819.964	22125.38
820.292	22208.99
820.62	22136
820.948	22009.68
821.276	22060.07
821.604	21988.89
821.932	22087.41
822.259	22028.43
822.587	22037.92
822.915	22035.89
823.243	22044.25
823.57	22052.61
823.898	22017.58
824.225	21922.45
824.553	21981.2
824.88	21891.71
825.207	21973.07
825.535	21994.08
825.862	21938.72
826.189	21995.44
826.516	22002.9
826.843	22047.87
827.17	21981.2
827.497	22065.27
827.824	21999.96
828.151	21911.15
828.478	22000.86
828.805	21955.67
829.131	21778.27
829.458	21839.28
829.785	21761.77
830.111	21912.5
830.438	21949.11
830.764	21910.02
831.09	21955.67
831.417	21849.45
831.743	21847.87
832.069	21798.83
832.395	21778.72
832.722	21830.47
833.048	21725.84
833.374	21796.12
833.7	21650.59
834.026	21682.23
834.351	21761.32
834.677	21743.92
835.003	21722.23
835.329	21672.06
835.654	21470.71
835.98	21455.11
836.306	21616.47
836.631	21508.67
836.956	21553.64
837.282	21561.33
837.607	21377.38
837.932	21328.56
838.258	21331.95
838.583	21283.14
838.908	21166.53
839.233	21233.2
839.558	21094.67
839.883	21150.72
840.208	21037.27
840.533	21150.26
840.858	21070.04
841.182	21043.15
841.507	20984.62
841.832	20922.92
842.156	20806.77
842.481	20830.72
842.805	20790.95
843.13	20752.31
843.454	20732.42
843.778	20680.44
844.103	20609.94
844.427	20508.7
844.751	20543.73
845.075	20524.06
845.399	20508.92
845.723	20279.78
846.047	20319.55
846.371	20199.78
846.695	20130.4
847.019	20000.24
847.343	20002.27
847.666	19835.72
847.99	19759.11
848.313	19749.85
848.637	19686.8
848.96	19635.27
849.284	19600.25
849.607	19370.87
849.931	19320.48
850.254	19218.11
850.577	19130.43
850.9	18977.66
851.223	19063.76
851.546	18945.35
851.869	18718.24
852.192	18892.02
852.515	18709.65
852.838	18677.79
853.161	18675.3
853.483	18588.3
853.806	18471.92
854.129	18328.19
854.451	18264.69
854.774	18166.16
855.096	18101.3
855.419	18088.2
855.741	18055.2
856.063	17947.41
856.385	17942.44
856.708	17867.86
857.03	17838.71
857.352	17823.8
857.674	17771.14
857.996	17681.43
858.318	17594.65
858.64	17595.1
858.961	17518.49
859.283	17380.64
859.605	17347.88
859.926	17460.87
860.248	17332.06
860.57	17282.79
860.891	17323.92
861.212	17189.92
861.534	17165.51
861.855	17084.38
862.176	17148.33
862.498	17081.22
862.819	17062.23
863.14	16980.88
863.461	17005.29
863.782	16922.58
864.103	16961.9
864.424	16930.26
864.745	16957.15
865.065	16778.63
865.386	16734.79
865.707	16656.37
866.027	16637.39
866.348	16636.48
866.668	16661.57
866.989	16571.4
867.309	16575.47
867.63	16566.2
867.95	16544.96
868.27	16482.82
868.59	16539.31
868.91	16437.39
869.23	16293.22
869.55	16325.98
869.87	16277.85
870.19	16307
870.51	16411.63
870.83	16348.36
871.15	16268.81
871.469	16211.41
871.789	16212.54
872.109	16257.28
872.428	16044.41
872.748	16148.36
873.067	16104.52
873.386	16161.02
873.706	16061.13
874.025	16098.87
874.344	15998.08
874.663	15947.46
874.982	15930.97
875.301	15923.96
875.62	15829.73
875.939	15796.51
876.258	15836.96
876.577	15883.73
876.896	15749.5
877.214	15722.16
877.533	15753.34
877.852	15683.51
878.17	15654.81
878.489	15663.18
878.807	15550.86
879.125	15606.91
879.444	15593.8
879.762	15592.22
880.08	15531.65
880.398	15352.68
880.716	15486.91
881.034	15402.17
881.352	15427.48
881.67	15363.3
881.988	15413.92
882.306	15250.98
882.624	15253.47
882.941	15200.14
883.259	15094.83
883.577	15099.8
883.894	15048.95
884.212	15163.3
884.529	15020.71
884.846	15043.98
885.164	14936.42
885.481	14896.42
885.798	14970.99
886.115	14907.94
886.432	14769.41
886.75	14785.23
887.067	14742.3
887.383	14655.52
887.7	14715.4
888.017	14570.55
888.334	14662.75
888.651	14505.92
888.967	14562.19
889.284	14508.63
889.6	14415.75
889.917	14410.33
890.233	14397.45
890.55	14314.06
890.866	14350.44
891.182	14166.49
891.498	14239.48
891.815	14184.8
892.131	14072.71
892.447	14032.03
892.763	14015.08
893.079	14091.69
893.395	13914.52
893.71	13912.71
894.026	13852.83
894.342	13854.86
894.657	13752.49
894.973	13731.93
895.289	13708.42
895.604	13738.48
895.92	13604.7
896.235	13519.5
896.55	13581.2
896.865	13437.25
897.181	13378.49
897.496	13410.13
897.811	13319.96
898.126	13299.85
898.441	13229.79
898.756	13224.6
899.071	13106.63
899.386	13168.33
899.7	13064.15
900.015	13049.01
900.33	12917.49
900.644	12922.23
900.959	12878.39
901.273	12860.09
901.588	12780.31
901.902	12687.21
902.216	12672.52
902.531	12573.99
902.845	12597.72
903.159	12501.68
903.473	12489.47
903.787	12394.34
904.101	12399.98
904.415	12360.89
904.729	12323.83
905.042	12238.63
905.356	12152.76
905.67	12199.76
905.984	12179.2
906.297	12059.65
906.611	12086.77
906.924	12007.45
907.237	11939.88
907.551	11906.44
907.864	11782.83
908.177	11759.1
908.491	11769.49
908.804	11662.38
909.117	11665.09
909.43	11607.92
909.743	11541.25
910.056	11576.96
910.368	11556.62
910.681	11399.79
910.994	11342.39
911.307	11337.19
911.619	11250.64
911.932	11311.65
912.244	11119.79
912.557	11127.48
912.869	11169.51
913.181	11082.05
913.494	10970.87
913.806	10944.2
914.118	10974.94
914.43	10862.85
914.742	10929.74
915.054	10748.05
915.366	10707.37
915.678	10761.84
915.99	10598.45
916.302	10601.84
916.613	10541.95
916.925	10509.41
917.236	10499.7
917.548	10423.99
917.859	10389.19
918.171	10316.2
918.482	10296.99
918.794	10262.64
919.105	10262.19
919.416	10168.86
919.727	10087.96
920.038	10078.92
920.349	9998.01
920.66	9918.92
920.971	9992.82
921.282	9895.19
921.593	9857.23
921.903	9857.68
922.214	9786.27
922.525	9783.33
922.835	9653.39
923.146	9598.48
923.456	9592.15
923.767	9597.35
924.077	9569.78
924.387	9520.51
924.697	9470.8
925.008	9374.53
925.318	9369.56
925.628	9348.77
925.938	9328.65
926.248	9170.92
926.558	9156.45
926.867	9229.67
927.177	9081.2
927.487	9064.03
927.796	8926.4
928.106	8939.96
928.416	8977.48
928.725	8917.59
929.034	8885.95
929.344	8866.74
929.653	8821.32
929.962	8722.57
930.271	8671.72
930.581	8683.47
930.89	8690.03
931.199	8614.55
931.508	8530.71
931.817	8560.99
932.125	8485.51
932.434	8503.14
932.743	8365.06
933.051	8416.13
933.36	8345.18
933.669	8261.79
933.977	8241.22
934.286	8248
934.594	8200.77
934.902	8098.85
935.21	8115.58
935.519	8133.66
935.827	8115.13
936.135	8056.14
936.443	7918.75
936.751	7877.84
937.059	7867
937.367	7795.36
937.674	7847.79
937.982	7811.4
938.29	7733.44
938.597	7727.79
938.905	7702.48
939.213	7704.51
939.52	7590.39
939.827	7625.65
940.135	7507.23
940.442	7544.75
940.749	7486.22
941.056	7547.23
941.363	7463.62
941.67	7442.37
941.977	7357.86
942.284	7314.24
942.591	7297.75
942.898	7184.53
943.205	7219.78
943.511	7173.46
943.818	7144.76
944.125	7160.35
944.431	7138.43
944.738	7149.5
945.044	7057.75
945.35	7074.25
945.657	6993.12
945.963	6937.98
946.269	6949.28
946.575	6938.43
946.881	6850.98
947.187	6934.37
947.493	6783.18
947.799	6809.85
948.105	6732.11
948.41	6701.15
948.716	6736.86
949.022	6654.37
949.327	6624.32
949.633	6503.87
949.938	6581.38
950.244	6582.74
950.549	6481.95
950.854	6458.22
951.16	6498.9
951.465	6368.73
951.77	6381.16
952.075	6359.92
952.38	6337.32
952.685	6296.19
952.99	6221.39
953.294	6255.06
953.599	6199.7
953.904	6174.61
954.209	6151.34
954.513	6170.09
954.818	6097.1
955.122	6064.56
955.426	6048.74
955.731	6033.15
956.035	5989.31
956.339	6032.47
956.643	5955.63
956.948	5883.09
957.252	5927.61
957.556	5874.73
957.86	5861.63
958.163	5852.59
958.467	5860.72
958.771	5744.11
959.075	5784.79
959.378	5704.57
959.682	5692.59
959.985	5703.21
960.289	5628.41
960.592	5623.44
960.896	5588.19
961.199	5564.68
961.502	5558.36
961.805	5492.6
962.108	5500.96
962.411	5427.29
962.714	5481.52
963.017	5449.21
963.32	5411.92
963.623	5406.27
963.926	5344.35
964.228	5293.73
964.531	5298.02
964.833	5297.35
965.136	5232.26
965.438	5234.52
965.741	5215.09
966.043	5161.53
966.345	5157.69
966.648	5189.1
966.95	5088.76
967.252	5082.21
967.554	5055.77
967.856	5027.52
968.158	4990.91
968.46	4993.85
968.761	4986.39
969.063	4938.94
969.365	4907.53
969.666	4887.19
969.968	4879.28
970.269	4853.74
970.571	4858.94
970.872	4835.21
971.174	4759.28
971.475	4748.21
971.776	4718.83
972.077	4729.9
972.378	4683.13
972.679	4721.77
972.98	4656.91
973.281	4628.21
973.582	4557.48
973.883	4622.11
974.183	4609.91
974.484	4545.05
974.785	4544.82
975.085	4564.71
975.386	4551.6
975.686	4508.67
975.986	4495.56
976.287	4457.82
976.587	4397.94
976.887	4399.29
977.187	4422.12
977.487	4362
977.787	4311.61
978.087	4336.47
978.387	4302.8
978.687	4277.26
978.987	4297.6
979.286	4240.88
979.586	4259.86
979.885	4194.78
980.185	4172.18
980.484	4135.34
980.784	4132.41
981.083	4126.53
981.382	4062.12
981.682	4055.35
981.981	4101.22
982.28	4044.05
982.579	4039.98
982.878	4061.9
983.177	3992.07
983.475	4003.82
983.774	3931.96
984.073	3927.67
984.372	3887.67
984.67	3930.38
984.969	3905.74
985.267	3893.99
985.566	3837.95
985.864	3842.02
986.162	3835.92
986.461	3814.22
986.759	3795.47
987.057	3775.8
987.355	3778.29
987.653	3758.86
987.951	3738.07
988.249	3718.41
988.547	3701
988.844	3653.1
989.142	3689.71
989.44	3631.85
989.737	3602.02
990.035	3570.84
990.332	3560.22
990.63	3543.95
990.927	3513.89
991.224	3491.97
991.521	3505.98
991.819	3511.63
992.116	3489.26
992.413	3474.57
992.71	3441.8
993.006	3432.76
993.303	3371.97
993.6	3401.8
993.897	3379.88
994.193	3367.45
994.49	3363.61
994.787	3313.9
995.083	3288.36
995.379	3272.54
995.676	3247.91
995.972	3242.71
996.268	3222.37
996.565	3190.28
996.861	3198.19
997.157	3217.18
997.453	3174.01
997.749	3147.35
998.044	3171.3
998.34	3118.42
998.636	3106.22
998.932	3128.14
999.227	3035.03
999.523	3036.62
999.818	3038.42
1000.114	3041.36
1000.409	3015.37
1000.704	2974.24
1001	2930.18
1001.295	2966.11
1001.59	2957.07
1001.885	2937.86
1002.18	2888.37
1002.475	2912.78
1002.77	2885.21
1003.065	2842.95
1003.359	2880.91
1003.654	2791.42
1003.949	2787.58
1004.243	2780.58
1004.538	2748.49
1004.832	2777.19
1005.127	2765.89
1005.421	2739.45
1005.715	2730.86
1006.009	2705.32
1006.304	2653.12
1006.598	2645.21
1006.892	2662.84
1007.186	2641.6
1007.48	2634.37
1007.773	2569.28
1008.067	2621.71
1008.361	2578.32
1008.655	2543.52
1008.948	2555.27
1009.242	2548.72
1009.535	2507.14
1009.829	2510.75
1010.122	2466.46
1010.415	2450.19
1010.708	2440.47
1011.001	2448.61
1011.295	2442.73
1011.588	2419
1011.881	2414.26
1012.173	2401.38
1012.466	2376.29
1012.759	2348.27
1013.052	2345.79
1013.344	2346.92
1013.637	2346.24
1013.93	2270.08
1014.222	2287.71
1014.514	2256.07
1014.807	2246.58
1015.099	2225.79
1015.391	2237.99
1015.683	2212
1015.976	2204.77
1016.268	2208.84
1016.56	2169.29
1016.851	2153.47
1017.143	2155.51
1017.435	2139.24
1017.727	2133.81
1018.018	2084.1
1018.31	2082.52
1018.602	2070.54
1018.893	2050.2
1019.185	2052.69
1019.476	2046.81
1019.767	2005.68
1020.058	2009.98
1020.35	1995.06
1020.641	1974.95
1020.932	1972.01
1021.223	1965.46
1021.514	1924.33
1021.804	1926.59
1022.095	1898.79
1022.386	1873.93
1022.677	1871.67
1022.967	1853.14
1023.258	1832.8
1023.548	1810.88
1023.839	1830.55
1024.129	1821.96
1024.419	1807.27
1024.709	1775.41
1025	1730.43
1025.29	1768.85
1025.58	1739.47
1025.87	1762.3
1026.16	1743.32
1026.449	1689.53
1026.739	1716.2
1027.029	1689.31
1027.319	1673.49
1027.608	1675.07
1027.898	1640.49
1028.187	1614.96
1028.477	1650.66
1028.766	1641.62
1029.055	1604.11
1029.344	1598.91
1029.634	1583.55
1029.923	1584.22
1030.212	1571.34
1030.501	1542.42
1030.79	1533.38
1031.078	1536.54
1031.367	1490.67
1031.656	1515.3
1031.945	1507.84
1032.233	1509.65
1032.522	1497.45
1032.81	1466.26
1033.099	1437.11
1033.387	1476.2
1033.675	1421.97
1033.963	1440.72
1034.251	1426.26
1034.54	1402.53
1034.828	1402.31
1035.116	1371.8
1035.403	1377.45
1035.691	1371.8
1035.979	1350.56
1036.267	1356.21
1036.554	1344
1036.842	1326.38
1037.129	1330.67
1037.417	1309.2
1037.704	1302.65
1037.992	1289.32
1038.279	1309.43
1038.566	1269.43
1038.853	1269.43
1039.14	1269.43
