Data from orange_diffuse_book_FLMS001491_00081.txt Node
Date: Wed Feb 08 15:30:09 GMT 2017
User: dcchb
Spectrometer: FLMS00149
Trigger mode: 0
Integration Time (sec): 2.000000E-2
Scans to average: 10
Electric dark correction enabled: true
Nonlinearity correction enabled: false
Boxcar width: 0
XAxis mode: Wavelengths
Number of Pixels in Spectrum: 2048
>>>>>Begin Spectral Data<<<<<
341.393	-23.28
341.776	-23.28
342.16	-23.28
342.543	-85.87
342.927	-81.58
343.31	-75.25
343.693	-65.31
344.077	-65.08
344.46	-49.72
344.843	-65.08
345.226	-56.5
345.61	-46.78
345.993	-4.07
346.376	-1.36
346.759	10.4
347.142	18.08
347.525	69.38
347.908	72.99
348.291	55.37
348.674	80.22
349.057	122.71
349.44	137.85
349.823	144.63
350.206	169.94
350.588	229.37
350.971	223.04
351.354	246.77
351.737	257.62
352.119	257.39
352.502	267.79
352.884	274.12
353.267	297.17
353.65	309.14
354.032	312.08
354.414	323.61
354.797	344.85
355.179	312.53
355.562	334
355.944	340.1
356.326	338.75
356.709	327
357.091	356.6
357.473	363.83
357.855	344.62
358.238	334.23
358.62	336.04
359.002	345.98
359.384	354.57
359.766	335.81
360.148	363.15
360.53	361.12
360.912	337.84
361.294	337.84
361.676	340.78
362.057	345.53
362.439	347.56
362.821	336.94
363.203	337.62
363.584	329.48
363.966	324.96
364.348	329.71
364.729	332.65
365.111	344.62
365.493	332.42
365.874	340.56
366.256	329.03
366.637	327
367.019	331.52
367.4	329.03
367.781	332.65
368.163	331.97
368.544	329.48
368.925	340.56
369.306	328.8
369.688	344.4
370.069	351.18
370.45	339.88
370.831	327
371.212	334.68
371.593	329.26
371.974	331.74
372.355	331.06
372.736	320.22
373.117	325.87
373.498	333.78
373.879	325.42
374.26	335.13
374.641	310.27
375.021	336.71
375.402	347.11
375.783	337.62
376.163	359.54
376.544	343.95
376.925	325.87
377.305	342.82
377.686	350.73
378.066	351.63
378.447	350.5
378.827	361.8
379.208	336.04
379.588	359.54
379.968	363.15
380.349	350.5
380.729	336.26
381.109	344.4
381.489	343.95
381.87	375.58
382.25	345.08
382.63	380.33
383.01	370.16
383.39	324.06
383.77	364.51
384.15	349.6
384.53	362.7
384.91	373.78
385.29	382.81
385.67	371.52
386.049	389.14
386.429	356.15
386.809	357.96
387.189	374
387.568	358.18
387.948	360.22
388.328	372.42
388.707	369.71
389.087	367.22
389.466	377.62
389.846	371.74
390.225	394.57
390.605	386.2
390.984	375.36
391.363	392.76
391.743	399.76
392.122	395.02
392.501	377.62
392.881	373.55
393.26	385.3
393.639	379.88
394.018	378.52
394.397	381.46
394.776	395.47
395.155	395.02
395.534	399.31
395.913	412.42
396.292	388.69
396.671	399.76
397.05	393.89
397.429	407.9
397.808	394.34
398.186	399.31
398.565	413.32
398.944	414.45
399.323	420.33
399.701	402.25
400.08	438.86
400.458	406.09
400.837	430.95
401.215	409.03
401.594	412.87
401.972	408.58
402.351	424.4
402.729	437.73
403.107	411.06
403.486	416.94
403.864	400.22
404.242	423.72
404.62	426.66
404.999	440.67
405.377	422.14
405.755	449.48
406.133	428.92
406.511	422.59
406.889	461
407.267	426.88
407.645	458.52
408.023	454.45
408.401	451.51
408.779	467.56
409.156	466.65
409.534	463.72
409.912	456.03
410.29	480.67
410.667	487.67
411.045	479.08
411.422	472.08
411.8	459.42
412.178	508.46
412.555	470.95
412.933	496.48
413.31	503.72
413.687	497.84
414.065	512.75
414.442	516.14
414.819	515.24
415.197	509.59
415.574	517.73
415.951	515.92
416.328	525.41
416.705	517.73
417.082	515.69
417.46	512.53
417.837	529.7
418.214	534.9
418.591	529.7
418.967	539.19
419.344	534.22
419.721	560.44
420.098	552.08
420.475	554.11
420.852	575.13
421.228	568.57
421.605	560.21
421.982	549.82
422.358	588.91
422.735	570.15
423.111	589.14
423.488	590.72
423.864	599.53
424.241	599.53
424.617	582.58
424.994	591.62
425.37	594.11
425.746	590.04
426.123	595.92
426.499	613.54
426.875	626.42
427.251	624.16
427.627	601.79
428.003	637.72
428.379	637.5
428.756	604.73
429.132	627.1
429.507	619.42
429.883	646.08
430.259	658.97
430.635	660.32
431.011	653.54
431.387	677.5
431.763	697.83
432.138	693.32
432.514	690.6
432.89	679.76
433.265	701.68
433.641	697.38
434.016	731.05
434.392	753.2
434.767	728.57
435.143	720.21
435.518	722.47
435.894	738.96
436.269	725.86
436.644	748.68
437.02	781.22
437.395	760.88
437.77	788.23
438.145	787.1
438.52	763.14
438.895	781.67
439.271	770.83
439.646	818.51
440.021	791.84
440.395	824.39
440.77	771.96
441.145	834.33
441.52	811.96
441.895	818.96
442.27	805.63
442.645	819.41
443.019	845.18
443.394	829.81
443.769	854.67
444.143	852.41
444.518	842.69
444.892	841.11
445.267	842.24
445.641	854.44
446.016	860.32
446.39	866.87
446.764	866.42
447.139	862.12
447.513	861.9
447.887	879.75
448.262	894.67
448.636	905.06
449.01	893.54
449.384	878.62
449.758	909.13
450.132	896.7
450.506	883.37
450.88	904.16
451.254	892.63
451.628	915.46
452.002	926.98
452.376	907.09
452.75	959.3
453.123	958.17
453.497	956.59
453.871	963.14
454.244	995.91
454.618	966.08
454.992	996.81
455.365	974.44
455.739	998.84
456.112	993.19
456.486	1008.79
456.859	997.26
457.232	1008.11
457.606	1016.7
457.979	1038.62
458.352	1051.27
458.725	1051.5
459.099	1044.94
459.472	1055.79
459.845	1077.94
460.218	1107.54
460.591	1091.04
460.964	1117.26
461.337	1129.01
461.71	1140.08
462.083	1122
462.456	1149.57
462.829	1136.24
463.201	1136.92
463.574	1177.6
463.947	1184.38
464.32	1175.11
464.692	1174.66
465.065	1218.73
465.438	1216.69
465.81	1206.52
466.183	1229.57
466.555	1248.55
466.928	1258.27
467.3	1268.22
467.672	1280.42
468.045	1304.6
468.417	1280.64
468.789	1284.49
469.161	1303.02
469.534	1330.36
469.906	1361.55
470.278	1383.24
470.65	1351.6
471.022	1374.2
471.394	1398.38
471.766	1438.61
472.138	1446.97
472.51	1453.3
472.882	1467.31
473.253	1486.97
473.625	1465.27
473.997	1512.5
474.369	1508.66
474.74	1530.58
475.112	1532.39
475.484	1581.2
475.855	1592.05
476.227	1608.77
476.598	1593.86
476.97	1643.8
477.341	1677.02
477.713	1685.38
478.084	1684.7
478.455	1756.11
478.827	1745.94
479.198	1799.27
479.569	1827.52
479.94	1836.56
480.311	1877.46
480.682	1888.54
481.053	1915.66
481.424	1930.12
481.795	1973.96
482.166	1982.77
482.537	1997.24
482.908	2058.02
483.279	2066.84
483.65	2077.01
484.021	2131.47
484.391	2150.9
484.762	2185.25
485.133	2190.45
485.503	2204.69
485.874	2267.29
486.244	2267.29
486.615	2320.84
486.985	2352.48
487.356	2373.5
487.726	2449.65
488.097	2477.45
488.467	2460.05
488.837	2527.84
489.207	2538.24
489.578	2592.7
489.948	2631.8
490.318	2662.3
490.688	2719.25
491.058	2710.44
491.428	2724.9
491.798	2807.38
492.168	2843.99
492.538	2851
492.908	2903.65
493.278	2961.5
493.648	2952.24
494.017	2972.8
494.387	3010.09
494.757	3050.32
495.126	3090.77
495.496	3128.05
495.866	3152.46
496.235	3229.52
496.605	3222.74
496.974	3256.86
497.344	3285.56
497.713	3284.66
498.082	3333.7
498.452	3339.35
498.821	3377.99
499.19	3426.8
499.559	3425.67
499.928	3476.52
500.298	3504.31
500.667	3563.75
501.036	3596.74
501.405	3608.94
501.774	3631.54
502.143	3644.2
502.512	3714.48
502.88	3720.58
503.249	3742.73
503.618	3800.58
503.987	3843.97
504.356	3853.46
504.724	3837.87
505.093	3844.42
505.462	3911.76
505.83	3935.26
506.199	3927.58
506.567	4026.56
506.936	4067.01
507.304	4098.88
507.672	4094.81
508.041	4075.37
508.409	4176.39
508.777	4175.94
509.145	4240.34
509.514	4243.28
509.882	4278.31
510.25	4287.34
510.618	4269.94
510.986	4318.53
511.354	4408.47
511.722	4406.44
512.09	4446.89
512.458	4417.06
512.826	4471.97
513.193	4506.1
513.561	4533.21
513.929	4587.68
514.297	4636.26
514.664	4671.52
515.032	4688.92
515.4	4732.98
515.767	4714
516.135	4764.85
516.502	4714.23
516.869	4804.62
517.237	4844.17
517.604	4895.24
517.972	4907.22
518.339	4949.47
518.706	4953.09
519.073	5007.78
519.44	5000.55
519.808	5119.41
520.175	5130.26
520.542	5139.75
520.909	5199.86
521.276	5204.83
521.643	5235.12
522.009	5291.61
522.376	5343.59
522.743	5293.87
523.11	5439.41
523.477	5405.06
523.843	5416.81
524.21	5591.72
524.577	5550.36
524.943	5572.06
525.31	5552.62
525.676	5683.24
526.043	5682.56
526.409	5719.17
526.776	5785.16
527.142	5806.63
527.508	5808.21
527.874	5912.16
528.241	5879.17
528.607	5920.3
528.973	5922.1
529.339	5966.85
529.705	6031.93
530.071	6073.96
530.437	6095.66
530.803	6133.17
531.169	6200.51
531.535	6142.66
531.901	6169.33
532.267	6227.63
532.632	6246.39
532.998	6244.58
533.364	6302.43
533.73	6344.24
534.095	6389.21
534.461	6419.04
534.826	6442.99
535.192	6499.49
535.557	6516.89
535.923	6532.71
536.288	6553.73
536.653	6521.41
537.019	6575.65
537.384	6596.89
537.749	6616.32
538.114	6700.39
538.479	6694.97
538.845	6736.09
539.21	6732.03
539.575	6724.79
539.94	6773.16
540.305	6802.98
540.67	6826.26
541.034	6897.67
541.399	6898.58
541.764	6890.44
542.129	6947.61
542.494	7015.41
542.858	6997.1
543.223	7045.69
543.587	7068.06
543.952	7056.76
544.316	7138.8
544.681	7084.11
545.045	7170.88
545.41	7227.61
545.774	7315.51
546.138	7328.62
546.503	7265.35
546.867	7339.47
547.231	7395.51
547.595	7428.96
547.959	7436.64
548.324	7493.14
548.688	7521.38
549.052	7538.56
549.416	7594.15
549.779	7584.43
550.143	7678.22
550.507	7690.87
550.871	7772.45
551.235	7778.33
551.599	7851.32
551.962	7889.51
552.326	7951.43
552.689	8006.34
553.053	7992.33
553.417	7979.68
553.78	8136.74
554.143	8091.99
554.507	8150.97
554.87	8207.69
555.234	8299.89
555.597	8317.07
555.96	8317.52
556.323	8439.55
556.686	8462.83
557.05	8527.91
557.413	8573.11
557.776	8618.3
558.139	8729.26
558.502	8724.74
558.865	8828.69
559.228	8913.44
559.59	8938.52
559.953	9075.92
560.316	9070.95
560.679	9161.34
561.041	9201.34
561.404	9321.11
561.767	9390.71
562.129	9477.04
562.492	9602.01
562.854	9603.82
563.217	9666.64
563.579	9802.91
563.941	9847.42
564.304	9935.56
564.666	9966.97
565.028	10159.51
565.39	10144.14
565.753	10265.49
566.115	10423.91
566.477	10558.14
566.839	10537.8
567.201	10657.12
567.563	10770.79
567.925	11002.2
568.287	10999.26
568.648	11092.59
569.01	11275.41
569.372	11400.6
569.734	11460.26
570.095	11645.34
570.457	11766.7
570.819	11986.8
571.18	12071.32
571.542	12239.45
571.903	12329.62
572.265	12564.19
572.626	12707.01
572.987	12835.59
573.349	13062.03
573.71	13206.66
574.071	13381.8
574.432	13686.42
574.794	13895.45
575.155	13989.24
575.516	14088.9
575.877	14440.98
576.238	14699.27
576.599	14930.23
576.96	15094.97
577.32	15324.34
577.681	15626.03
578.042	15850.66
578.403	16037.09
578.763	16326.35
579.124	16617.19
579.485	16894.02
579.845	17241.81
580.206	17639.08
580.566	17822.13
580.927	18181.44
581.287	18486.07
581.648	18795.66
582.008	19178.48
582.368	19443.78
582.728	19786.6
583.089	20182.97
583.449	20437.2
583.809	20862.28
584.169	21284.86
584.529	21537.29
584.889	22094.33
585.249	22338.85
585.609	22693.87
585.969	23231.93
586.329	23552.38
586.688	24003.21
587.048	24427.83
587.408	24849.97
587.768	25317.07
588.127	25682.94
588.487	26034.8
588.846	26730.14
589.206	26922.23
589.565	27430.69
589.925	28025.48
590.284	28244.23
590.643	28865
591.003	29155.62
591.362	29860.46
591.721	30161.01
592.08	30790.15
592.44	31347.88
592.799	31630.81
593.158	32089.55
593.517	32670.78
593.876	33120.49
594.235	33506.92
594.593	33910.52
594.952	34641.35
595.311	34778.75
595.67	35497.82
596.029	36074.53
596.387	36534.86
596.746	37065.01
597.104	37261.39
597.463	37798.55
597.822	38388.14
598.18	38699.1
598.538	39134.56
598.897	39845.96
599.255	40082.11
599.613	40829.89
599.972	40988.98
600.33	41580.83
600.688	41753.03
601.046	42354.59
601.404	42823.73
601.762	43203.38
602.12	43698.29
602.478	43972.18
602.836	44321.55
603.194	44552.05
603.552	45122.43
603.91	45233.61
604.268	45859.81
604.625	45990.88
604.983	46529.4
605.341	46714.7
605.698	47009.61
606.056	47420.67
606.413	47701.8
606.771	48063.14
607.128	48377.49
607.485	48432.62
607.843	48718.27
608.2	48990.35
608.557	49317.35
608.914	49432.15
609.272	49800.72
609.629	50081.4
609.986	50237.78
610.343	50342.18
610.7	50810.42
611.057	50924.76
611.414	50949.17
611.771	51148.49
612.127	51438.87
612.484	51416.73
612.841	51707.12
613.198	51766.55
613.554	51892.42
613.911	52212.86
614.267	52237.72
614.624	52440.2
614.98	52507.55
615.337	52762
615.693	52776.24
616.05	52849.68
616.406	53139.17
616.762	53087.19
617.118	53216.68
617.475	53262.1
617.831	53380.52
618.187	53528.54
618.543	53609.89
618.899	53868.87
619.255	53791.58
619.611	53794.29
619.967	54059.37
620.323	54185.47
620.678	54127.84
621.034	54068.18
621.39	54080.61
621.746	54127.84
622.101	54538
622.457	54315.41
622.812	54446.48
623.168	54510.66
623.523	54537.55
623.879	54572.12
624.234	54576.87
624.589	54626.36
624.945	54627.26
625.3	54669.75
625.655	54753.36
626.01	54818.9
626.365	54813.25
626.72	54802.4
627.075	54806.24
627.43	54864.55
627.785	54836.75
628.14	54916.75
628.495	55004.2
628.85	54999.01
629.205	54991.1
629.559	55125.78
629.914	55029.74
630.269	54996.29
630.623	54999.68
630.978	54967.37
631.332	55136.4
631.687	55205.78
632.041	55074.94
632.396	55096.18
632.75	55000.14
633.104	55064.54
633.459	54908.84
633.813	55019.12
634.167	54875.17
634.521	54975.96
634.875	55071.09
635.229	55050.53
635.583	54814.38
635.937	54967.37
636.291	54911.1
636.645	54950.87
636.999	54832.23
637.352	54975.73
637.706	54820.25
638.06	54854.38
638.413	54846.92
638.767	54779.12
639.121	54869.07
639.474	54695.06
639.828	54667.94
640.181	54759.69
640.534	54803.98
640.888	54663.87
641.241	54639.69
641.594	54700.03
641.947	54779.12
642.301	54678.56
642.654	54673.82
643.007	54702.74
643.36	54706.13
643.713	54678.56
644.066	54737.77
644.419	54612.35
644.771	54429.76
645.124	54096.2
645.477	54130.55
645.83	53914.97
646.182	53830
646.535	53777.57
646.888	53885.81
647.24	53698.48
647.593	53854.86
647.945	53837.23
648.298	53609.44
648.65	53617.57
649.002	53540.06
649.355	53673.17
649.707	53623
650.059	53731.02
650.411	54124.68
650.763	54121.51
651.115	54419.36
651.467	54334.62
651.819	54331.9
652.171	54298.46
652.523	54269.08
652.875	54277.67
653.227	54164.9
653.578	54314.05
653.93	54329.42
654.282	54133.27
654.633	54140.27
654.985	54233.6
655.337	54207.39
655.688	54143.89
656.039	54352.92
656.391	54069.99
656.742	54062.53
657.094	54090.78
657.445	54257.1
657.796	54119.93
658.147	54053.27
658.498	54084
658.849	54192.47
659.2	54108.63
659.551	53986.6
659.902	54239.25
660.253	54047.84
660.604	54134.62
660.955	54045.36
661.306	54160.61
661.656	53987.51
662.007	54100.27
662.358	54018.69
662.708	54054.62
663.059	54008.98
663.409	53876.55
663.76	54160.38
664.11	54107.5
664.461	54035.19
664.811	54064.12
665.161	54014.4
665.511	53937.11
665.862	54009.88
666.212	54109.31
666.562	54120.38
666.912	53886.72
667.262	53936.89
667.612	53932.37
667.962	54023.21
668.312	53902.09
668.662	54042.87
669.011	53940.5
669.361	53889.43
669.711	53889.43
670.06	53823.67
670.41	53802.2
670.76	53795.2
671.109	53856.44
671.459	53784.35
671.808	53699.83
672.157	53797.91
672.507	53632.94
672.856	53586.84
673.205	53740.96
673.554	53728.76
673.904	53577.8
674.253	53711.81
674.602	53606.05
674.951	53192.95
675.3	53086.06
675.649	53495.99
675.998	53489.22
676.346	53497.12
676.695	53564.24
677.044	53378.03
677.393	53342.1
677.741	53533.73
678.09	53328.77
678.438	53270.24
678.787	53451.93
679.135	53372.83
679.484	53224.82
679.832	53286.06
680.181	53056.68
680.529	53189.56
680.877	53055.78
681.225	53128.09
681.573	53232.95
681.922	52984.6
682.27	52863.47
682.618	52953.86
682.966	52880.64
683.314	52950.25
683.661	52889.23
684.009	52701.67
684.357	52705.51
684.705	52622.35
685.053	52571.27
685.4	52441.33
685.748	52432.52
686.095	52345.29
686.443	52241.79
686.79	52256.93
687.138	52223.03
687.485	52232.3
687.832	52175.13
688.18	52173.09
688.527	51953.66
688.874	51953.44
689.221	51882.03
689.568	51915.7
689.915	51658.53
690.262	51713.67
690.609	51606.78
690.956	51543.96
691.303	51538.53
691.65	51352.77
691.997	51321.81
692.344	51112.55
692.69	51160.91
693.037	51252.21
693.383	50847.93
693.73	50997.53
694.077	50742.85
694.423	50780.36
694.769	50748.27
695.116	50624.66
695.462	50602.51
695.808	50281.39
696.155	50510.08
696.501	50134.5
696.847	50203.43
697.193	49973.38
697.539	49978.57
697.885	49794.62
698.231	49751.69
698.577	49638.24
698.923	49560.96
699.269	49440.96
699.614	49250
699.96	49160.97
700.306	49218.82
700.651	49042.78
700.997	48947.64
701.342	48836.46
701.688	48814.08
702.033	48574.77
702.379	48662
702.724	48462.23
703.069	48664.26
703.415	48156.02
703.76	48131.39
704.105	48188.34
704.45	48112.86
704.795	47922.13
705.14	47796.71
705.485	47795.13
705.83	47497.28
706.175	47544.51
706.52	47408.02
706.865	47339.09
707.209	47273.33
707.554	47028.37
707.899	47055.71
708.243	46930.97
708.588	46868.37
708.932	46642.84
709.277	46593.58
709.621	46542.51
709.966	46303.42
710.31	46411.21
710.654	46199.46
710.998	46283.75
711.342	46213.93
711.687	46132.12
712.031	46017.55
712.375	45634.96
712.719	45884.67
713.063	45665.69
713.407	46023.2
713.75	45634.96
714.094	45566.03
714.438	45496.66
714.782	45478.58
715.125	45230
715.469	45315.42
715.812	45133.05
716.156	44909.55
716.499	44979.83
716.843	44970.79
717.186	44777.13
717.53	44924.47
717.873	44939.16
718.216	44829.1
718.559	44522.9
718.902	44248.55
719.246	44553.86
719.589	44370.36
719.932	44117.71
720.275	44247.2
720.617	44164.94
720.96	44023.25
721.303	43952.97
721.646	43988.67
721.989	43692.86
722.331	43897.15
722.674	43867.55
723.016	43914.78
723.359	43766.31
723.701	43786.87
724.044	43586.42
724.386	43376.94
724.729	43500.33
725.071	43367.67
725.413	43400.89
725.755	43338.97
726.097	43113.67
726.439	42985.99
726.782	43032.99
727.124	43235.7
727.465	42968.14
727.807	42962.26
728.149	42868.7
728.491	42884.3
728.833	42917.74
729.175	42731.53
729.516	42670.52
729.858	42536.96
730.199	42684.98
730.541	42516.4
730.882	42515.27
731.224	42605.21
731.565	42330.41
731.906	42405.89
732.248	42444.53
732.589	42145.78
732.93	42077.09
733.271	42110.08
733.612	42344.65
733.953	42045
734.294	41994.83
734.635	42001.16
734.976	42045.67
735.317	41743.76
735.658	41920.25
735.999	41814.72
736.339	41807.04
736.68	41899.24
737.021	41639.13
737.361	41619.02
737.702	41616.98
738.042	41594.84
738.383	41530.66
738.723	41691.33
739.063	41321.63
739.404	41550.09
739.744	41414.28
740.084	41143.1
740.424	41252.47
740.764	41202.08
741.104	41311.91
741.444	41254.51
741.784	40892.48
742.124	41066.94
742.464	40960.05
742.804	41008.41
743.143	40787.18
743.483	40896.1
743.823	40799.83
744.162	40785.59
744.502	40742.21
744.841	40545.37
745.181	40828.98
745.52	40610.46
745.86	40649.55
746.199	40597.12
746.538	40565.94
746.877	40557.58
747.216	40470.35
747.556	40390.8
747.895	40367.07
748.234	40289.34
748.573	40107.65
748.911	40164.59
749.25	40123.24
749.589	39993.98
749.928	40126.63
750.267	39986.52
750.605	39955.11
750.944	39847.77
751.283	39631.73
751.621	39807.54
751.96	39536.81
752.298	39526.64
752.636	39527.55
752.975	39442.8
753.313	39254.34
753.651	39356.71
753.989	39270.15
754.327	39122.81
754.666	38943.38
755.004	38920.78
755.342	39045.98
755.679	39086.2
756.017	38744.07
756.355	38926.43
756.693	38608.48
757.031	38773.44
757.368	38493
757.706	38392.89
758.044	38173.01
758.381	38482.15
758.719	38108.83
759.056	38292.55
759.394	38132.33
759.731	37798.55
760.068	37968.49
760.405	37647.82
760.743	37568.5
761.08	37648.73
761.417	37538
761.754	37323.31
762.091	37329.87
762.428	37180.94
762.765	37032.25
763.102	37208.51
763.438	36859.14
763.775	36738.7
764.112	36700.5
764.449	36770.11
764.785	36605.59
765.122	36363.34
765.458	36263.68
765.795	36179.39
766.131	36109.11
766.467	36053.97
766.804	35813.3
767.14	35677.93
767.476	35643.81
767.812	35546.64
768.148	35465.28
768.485	35234.1
768.821	35148.45
769.157	35105.29
769.492	35023.94
769.828	35002.02
770.164	34660.78
770.5	34631.63
770.836	34479.55
771.171	34417.85
771.507	34292.43
771.842	33977.41
772.178	34058.99
772.513	34069.61
772.849	33872.33
773.184	33760.02
773.519	33703.29
773.855	33564.32
774.19	33332
774.525	33379.46
774.86	33319.58
775.195	33240.26
775.53	32983.31
775.865	32915.97
776.2	32558.24
776.535	32479.37
776.87	32488.64
777.205	32273.05
777.539	32195.99
777.874	32262.2
778.209	31940.86
778.543	31967.3
778.878	31824.93
779.212	31676
779.547	31667.42
779.881	31651.6
780.215	31391.04
780.55	31473.75
780.884	31155.56
781.218	31182.68
781.552	31055.45
781.886	30882.58
782.22	30644.84
782.554	30761.68
782.888	30422.93
783.222	30262.26
783.556	30199.88
783.889	30097.29
784.223	29954.24
784.557	29867.24
784.89	29904.3
785.224	29780.91
785.557	29577.08
785.891	29585.66
786.224	29511.77
786.558	29375.5
786.891	29152.45
787.224	29011.89
787.557	29008.73
787.891	28967.6
788.224	28883.08
788.557	28932.12
788.89	28736.65
789.223	28613.94
789.556	28480.16
789.888	28394.28
790.221	28218.92
790.554	28106.15
790.887	28193.61
791.219	27904.13
791.552	27952.49
791.884	27846.5
792.217	27716.79
792.549	27656
792.882	27536.45
793.214	27310.47
793.546	27352.73
793.879	27169
794.211	27055.33
794.543	27157.25
794.875	27053.53
795.207	27108.89
795.539	26849.01
795.871	26806.3
796.203	26591.84
796.535	26497.16
796.867	26416.48
797.198	26406.76
797.53	26371.74
797.862	26221.46
798.193	26194.57
798.525	25935.82
798.856	26066.66
799.188	25822.15
799.519	25795.71
799.85	25682.04
800.182	25579.89
800.513	25564.07
800.844	25376.51
801.175	25535.15
801.506	25418.31
801.837	25238.43
802.168	25242.5
802.499	25126.8
802.83	25071.88
803.161	25100.81
803.491	24856.75
803.822	24852
804.153	24791.44
804.483	24543.76
804.814	24527.49
805.145	24454.72
805.475	24484.55
805.805	24381.96
806.136	24363.88
806.466	24300.38
806.796	24278.68
807.126	24064.9
807.457	24063.1
807.787	24075.53
808.117	23950.56
808.447	23841.18
808.777	23911.46
809.107	23797.11
809.436	23619.49
809.766	23560.51
810.096	23573.84
810.426	23451.81
810.755	23391.25
811.085	23414.3
811.414	23401.19
811.744	23129.56
812.073	23193.51
812.403	23125.27
812.732	23050.24
813.061	23004.59
813.39	22879.85
813.719	22802.34
814.049	22979.51
814.378	22819.96
814.707	22833.3
815.036	22684.83
815.365	22530.03
815.693	22366.42
816.022	22406.19
816.351	22294.33
816.68	22194.44
817.008	22370.71
817.337	22162.13
817.665	22126.88
817.994	21986.09
818.322	22056.82
818.651	21917.62
818.979	21840.78
819.307	21854.11
819.636	21921.01
819.964	21699.99
820.292	21793.78
820.62	21766.21
820.948	21547.68
821.276	21778.18
821.604	21563.05
821.932	21767.79
822.259	21669.94
822.587	21585.65
822.915	21596.72
823.243	21715.81
823.57	21612.31
823.898	21707.23
824.225	21497.06
824.553	21651.18
824.88	21632.65
825.207	21645.98
825.535	21676.72
825.862	21727.34
826.189	21499.32
826.516	21645.31
826.843	21714.46
827.17	21535.93
827.497	21625.87
827.824	21667.45
828.151	21622.03
828.478	21581.58
828.805	21754.68
829.131	21455.71
829.458	21451.41
829.785	21293.9
830.111	21446.89
830.438	21527.34
830.764	21544.74
831.09	21655.7
831.417	21401.47
831.743	21457.51
832.069	21500
832.395	21426.56
832.722	21453.67
833.048	21341.59
833.374	21519.21
833.7	21244.41
834.026	21280.57
834.351	21334.13
834.677	21349.95
835.003	21305.65
835.329	21314.92
835.654	21274.92
835.98	21230.18
836.306	21161.48
836.631	21143.4
836.956	21206.9
837.282	21266.56
837.607	21040.35
837.932	20967.13
838.258	21005.1
838.583	20913.12
838.908	20824.76
839.233	20900.92
839.558	20839.45
839.883	20761.26
840.208	20672.68
840.533	20748.38
840.858	20702.28
841.182	20720.36
841.507	20628.38
841.832	20520.82
842.156	20512.68
842.481	20517.2
842.805	20474.94
843.13	20397.66
843.454	20357.66
843.778	20322.18
844.103	20286.7
844.427	20163.76
844.751	20218.23
845.075	20148.4
845.399	20105.46
845.723	19945.46
846.047	20001.28
846.371	19765.58
846.695	19795.64
847.019	19640.84
847.343	19587.73
847.666	19499.83
847.99	19485.36
848.313	19400.85
848.637	19330.79
848.96	19297.8
849.284	19259.38
849.607	19076.11
849.931	19095.77
850.254	18939.39
850.577	18851.48
850.9	18746.17
851.223	18626.18
851.546	18574.43
851.869	18482.23
852.192	18596.12
852.515	18432.96
852.838	18350.93
853.161	18337.37
853.483	18271.16
853.806	18146.64
854.129	18091.5
854.451	17938.29
854.774	17919.3
855.096	17879.76
855.419	17761.57
855.741	17766.31
856.063	17701.68
856.385	17691.74
856.708	17562.25
857.03	17531.29
857.352	17474.34
857.674	17400.67
857.996	17415.36
858.318	17223.05
858.64	17298.08
858.961	17247.91
859.283	17218.3
859.605	17143.05
859.926	17057.4
860.248	17031.19
860.57	17031.42
860.891	17072.09
861.212	16957.75
861.534	16976.95
861.855	16885.88
862.176	16863.96
862.498	16849.27
862.819	16816.51
863.14	16753.01
863.461	16546.23
863.782	16744.64
864.103	16663.97
864.424	16566.8
864.745	16723.4
865.065	16582.39
865.386	16504.88
865.707	16480.92
866.027	16425.56
866.348	16375.84
866.668	16377.87
866.989	16345.56
867.309	16283.41
867.63	16325.9
867.95	16279.57
868.27	16072.12
868.59	16289.52
868.91	16135.62
869.23	16080.71
869.55	16033.7
869.87	16206.35
870.19	16016.53
870.51	16078.9
870.83	16033.48
871.15	15912.8
871.469	15945.12
871.789	16061.5
872.109	15959.58
872.428	15799.81
872.748	15948.28
873.067	15912.8
873.386	15847.94
873.706	15841.39
874.025	15682.75
874.344	15610.66
874.663	15672.36
874.982	15623.54
875.301	15559.14
875.62	15606.14
875.939	15645.46
876.258	15627.61
876.577	15512.36
876.896	15597.1
877.214	15471.68
877.533	15437.33
877.852	15389.65
878.17	15371.12
878.489	15434.17
878.807	15345.59
879.125	15327.28
879.444	15278.47
879.762	15281.63
880.08	15244.12
880.398	15161.86
880.716	15201.63
881.034	15118.25
881.352	15101.52
881.67	15073.95
881.988	15116.89
882.306	15074.86
882.624	14938.14
882.941	14997.8
883.259	14794.41
883.577	14868.08
883.894	14848.88
884.212	14694.75
884.529	14814.07
884.846	14726.84
885.164	14701.31
885.481	14636.45
885.798	14689.56
886.115	14550.13
886.432	14524.59
886.75	14512.39
887.067	14573.63
887.383	14463.8
887.7	14402.33
888.017	14351.04
888.334	14393.52
888.651	14295.44
888.967	14191.72
889.284	14220.19
889.6	14188.78
889.917	14087.99
890.233	14134.09
890.55	14101.78
890.866	14111.95
891.182	14043.25
891.498	14004.83
891.815	13892.52
892.131	13930.71
892.447	13867.21
892.763	13806.87
893.079	13826.76
893.395	13697.04
893.71	13736.59
894.026	13657.95
894.342	13584.5
894.657	13594.9
894.973	13462.92
895.289	13511.74
895.604	13511.74
895.92	13391.51
896.235	13321.01
896.55	13236.71
896.865	13245.08
897.181	13170.5
897.496	13231.06
897.811	13076.72
898.126	13116.49
898.441	13025.42
898.756	13031.3
899.071	12948.81
899.386	12860.45
899.7	12843.73
900.015	12830.4
900.33	12712.21
900.644	12667.92
900.959	12638.54
901.273	12642.38
901.588	12543.62
901.902	12476.73
902.216	12427.7
902.531	12404.65
902.845	12315.61
903.159	12314.25
903.473	12269.28
903.787	12217.08
904.101	12133.47
904.415	12104.31
904.729	12130.53
905.042	12060.02
905.356	12006.01
905.67	11954.26
905.984	11950.42
906.297	11796.3
906.611	11855.96
906.924	11775.96
907.237	11705
907.551	11662.07
907.864	11612.58
908.177	11595.85
908.491	11544.1
908.804	11513.37
909.117	11469.08
909.43	11471.11
909.743	11368.06
910.056	11362.87
910.368	11299.36
910.681	11240.83
910.994	11186.15
911.307	11103.89
911.619	10973.95
911.932	11070.22
912.244	10947.73
912.557	11011.24
912.869	10897.11
913.181	10838.59
913.494	10784.12
913.806	10719.72
914.118	10733.73
914.43	10610.34
914.742	10665.26
915.054	10603.34
915.366	10545.26
915.678	10511.14
915.99	10460.52
916.302	10400.4
916.613	10350.69
916.925	10331.03
917.236	10295.77
917.548	10230.01
917.859	10237.92
918.171	10176.23
918.482	10086.74
918.794	10089.9
919.105	10078.61
919.416	9955.67
919.727	9944.6
920.038	9873.86
920.349	9853.07
920.66	9774.88
920.971	9786.86
921.282	9788.9
921.593	9686.75
921.903	9579.64
922.214	9588
922.525	9576.7
922.835	9516.59
923.146	9444.5
923.456	9456.47
923.767	9388.91
924.077	9374.89
924.387	9352.97
924.697	9224.16
925.008	9185.97
925.318	9235.46
925.628	9168.35
925.938	9072.3
926.248	9021.23
926.558	9063.49
926.867	8960.22
927.177	8961.12
927.487	8914.34
927.796	8904.4
928.106	8795.25
928.416	8802.03
928.725	8778.3
929.034	8752.99
929.344	8659.43
929.653	8678.42
929.962	8635.48
930.271	8548.48
930.581	8531.53
930.89	8453.11
931.199	8464.41
931.508	8407.69
931.817	8360.91
932.125	8404.75
932.434	8258.99
932.743	8282.95
933.051	8220.35
933.36	8220.35
933.669	8135.83
933.977	8119.11
934.286	8141.71
934.594	8044.76
934.902	8063.52
935.21	7942.62
935.519	8038.21
935.827	7929.06
936.135	7892.9
936.443	7824.88
936.751	7851.54
937.059	7733.36
937.367	7724.09
937.674	7702.62
937.982	7613.81
938.29	7675.73
938.597	7603.87
938.905	7591.21
939.213	7548.28
939.52	7498.79
939.827	7479.13
940.135	7430.09
940.442	7393.03
940.749	7419.47
941.056	7398.68
941.363	7283.2
941.67	7315.51
941.977	7282.75
942.284	7207.72
942.591	7200.49
942.898	7135.63
943.205	7151
943.511	7114.16
943.818	7101.28
944.125	7037.56
944.431	7018.35
944.738	6988.06
945.044	6933.6
945.35	6859.71
945.657	6853.61
945.963	6837.33
946.269	6800.05
946.575	6794.4
946.881	6729.99
947.187	6700.84
947.493	6664.68
947.799	6668.98
948.105	6610.45
948.41	6538.13
948.716	6596.66
949.022	6547.62
949.327	6531.58
949.633	6501.75
949.938	6487.29
950.244	6449.1
950.549	6384.46
950.854	6306.73
951.16	6340.17
951.465	6339.95
951.77	6313.05
952.075	6269.21
952.38	6237.35
952.685	6163.45
952.99	6181.98
953.294	6124.13
953.599	6151.02
953.904	6076.9
954.209	6062.21
954.513	6016.11
954.818	5990.35
955.122	6017.92
955.426	5984.02
955.731	5919.84
956.035	5861.77
956.339	5846.63
956.643	5888.88
956.948	5814.31
957.252	5773.18
957.556	5797.59
957.86	5764.82
958.163	5738.38
958.467	5702.45
958.771	5733.63
959.075	5619.29
959.378	5627.42
959.682	5598.95
959.985	5607.76
960.289	5558.95
960.592	5511.49
960.896	5496.35
961.199	5484.83
961.502	5433.3
961.805	5432.17
962.108	5423.59
962.411	5384.27
962.714	5332.97
963.017	5352.63
963.32	5342.46
963.623	5271.73
963.926	5252.97
964.228	5193.08
964.531	5200.09
964.833	5198.96
965.136	5155.34
965.438	5172.75
965.741	5144.5
966.043	5088.68
966.345	5067.44
966.648	5087.1
966.95	4969.13
967.252	5006.2
967.554	4995.35
967.856	4948.57
968.158	4902.47
968.46	4915.58
968.761	4924.84
969.063	4891.4
969.365	4857.5
969.666	4843.71
969.968	4791.06
970.269	4766.65
970.571	4782.93
970.872	4753.55
971.174	4743.15
971.475	4718.29
971.776	4612.08
972.077	4651.86
972.378	4633.78
972.679	4589.48
972.98	4557.62
973.281	4564.85
973.582	4511.75
973.883	4528.02
974.183	4529.6
974.484	4495.48
974.785	4441.24
975.085	4423.16
975.386	4505.42
975.686	4415.03
975.986	4368.92
976.287	4389.26
976.587	4283.28
976.887	4340.68
977.187	4302.49
977.487	4275.14
977.787	4269.72
978.087	4242.15
978.387	4259.32
978.687	4187.91
978.987	4209.15
979.286	4169.83
979.586	4185.88
979.885	4132.55
980.185	4094.81
980.484	4078.76
980.784	4057.75
981.083	4045.09
981.382	3997.18
981.682	4034.92
981.981	4031.98
982.28	3981.82
982.579	3978.65
982.878	3961.03
983.177	3977.52
983.475	3960.35
983.774	3890.52
984.073	3901.37
984.372	3822.72
984.67	3857.75
984.969	3846.23
985.267	3878.32
985.566	3798.77
985.864	3754.93
986.162	3738.88
986.461	3728.49
986.759	3704.31
987.057	3708.38
987.355	3669.28
987.653	3660.02
987.951	3689.17
988.249	3637.19
988.547	3658.21
988.844	3612.11
989.142	3613.24
989.44	3571.88
989.737	3549.96
990.035	3547.7
990.332	3551.09
990.63	3523.75
990.927	3480.36
991.224	3460.93
991.521	3448.95
991.819	3445.79
992.116	3441.04
992.413	3419.12
992.71	3413.92
993.006	3359.23
993.303	3331.89
993.6	3332.12
993.897	3343.19
994.193	3325.56
994.49	3279.24
994.787	3305.22
995.083	3270.42
995.379	3246.24
995.676	3222.51
995.972	3208.96
996.268	3205.57
996.565	3221.61
996.861	3148.39
997.157	3175.51
997.453	3112.23
997.749	3102.52
998.044	3086.25
998.34	3069.07
998.636	3066.59
998.932	3026.36
999.227	3022.97
999.523	3047.15
999.818	2977.1
1000.114	2989.75
1000.409	2947.95
1000.704	2949.08
1001	2924.67
1001.295	2914.27
1001.59	2883.54
1001.885	2917.44
1002.18	2883.99
1002.475	2831.11
1002.77	2821.17
1003.065	2818.01
1003.359	2794.05
1003.654	2782.53
1003.949	2761.96
1004.243	2743.2
1004.538	2752.7
1004.832	2725.58
1005.127	2687.61
1005.421	2674.96
1005.715	2664.79
1006.009	2654.39
1006.304	2614.17
1006.598	2634.73
1006.892	2607.16
1007.186	2575.3
1007.48	2584.79
1007.773	2597.22
1008.067	2565.81
1008.361	2538.69
1008.655	2477.67
1008.948	2514.28
1009.242	2520.61
1009.535	2456.43
1009.829	2459.14
1010.122	2452.14
1010.415	2427.96
1010.708	2416.89
1011.001	2389.09
1011.295	2401.97
1011.588	2383.21
1011.881	2361.52
1012.173	2366.72
1012.466	2338.7
1012.759	2338.24
1013.052	2305.25
1013.344	2337.34
1013.637	2304.57
1013.93	2254.18
1014.222	2234.97
1014.514	2244.91
1014.807	2224.12
1015.099	2196.33
1015.391	2220.05
1015.683	2187.97
1015.976	2135.54
1016.268	2137.34
1016.56	2128.98
1016.851	2107.97
1017.143	2121.3
1017.435	2109.55
1017.727	2091.92
1018.018	2068.87
1018.31	2052.38
1018.602	2042.88
1018.893	2044.92
1019.185	2015.54
1019.476	1989.1
1019.767	2004.92
1020.058	2017.8
1020.35	1947.52
1020.641	1939.16
1020.932	1906.39
1021.223	1935.09
1021.514	1879.05
1021.804	1877.46
1022.095	1858.48
1022.386	1865.04
1022.677	1830.01
1022.967	1828.43
1023.258	1816.9
1023.548	1821.2
1023.839	1814.64
1024.129	1830.23
1024.419	1787.52
1024.709	1755.21
1025	1767.41
1025.29	1736.9
1025.58	1742.1
1025.87	1731.48
1026.16	1707.75
1026.449	1681.31
1026.739	1667.3
1027.029	1649
1027.319	1705.04
1027.608	1630.92
1027.898	1619.39
1028.187	1635.21
1028.477	1606.96
1028.766	1593.18
1029.055	1591.82
1029.344	1596.12
1029.634	1592.5
1029.923	1531.49
1030.212	1540.07
1030.501	1511.6
1030.79	1518.83
1031.078	1513.41
1031.367	1512.73
1031.656	1510.47
1031.945	1486.51
1032.233	1482.67
1032.522	1460.53
1032.81	1419.4
1033.099	1436.35
1033.387	1439.96
1033.675	1414.88
1033.963	1389.57
1034.251	1378.72
1034.54	1392.73
1034.828	1349.12
1035.116	1358.16
1035.403	1361.77
1035.691	1355.9
1035.979	1338.95
1036.267	1338.04
1036.554	1303.02
1036.842	1282.23
1037.129	1314.32
1037.417	1290.81
1037.704	1289.23
1037.992	1254.88
1038.279	1280.19
1038.566	1286.52
1038.853	1286.52
1039.14	1286.52
