Data from orange_diffuse_book_FLMS001491_00070.txt Node
Date: Wed Feb 08 15:29:54 GMT 2017
User: dcchb
Spectrometer: FLMS00149
Trigger mode: 0
Integration Time (sec): 2.000000E-2
Scans to average: 10
Electric dark correction enabled: true
Nonlinearity correction enabled: false
Boxcar width: 0
XAxis mode: Wavelengths
Number of Pixels in Spectrum: 2048
>>>>>Begin Spectral Data<<<<<
341.393	-18.18
341.776	-18.18
342.16	-18.18
342.543	-51.17
342.927	-62.47
343.31	-62.7
343.693	-76.71
344.077	-69.02
344.46	-42.36
344.843	-56.14
345.226	-33.32
345.61	-27.22
345.993	-29.02
346.376	-10.04
346.759	14.82
347.142	26.34
347.525	35.61
347.908	53.23
348.291	66.79
348.674	84.19
349.057	125.55
349.44	113.57
349.823	149.5
350.206	169.39
350.588	211.42
350.971	215.49
351.354	229.95
351.737	257.52
352.119	248.71
352.502	269.95
352.884	286
353.267	303.85
353.65	306.79
354.032	297.07
354.414	309.05
354.797	323.28
355.179	325.32
355.562	326.9
355.944	342.04
356.326	358.76
356.709	340.91
357.091	346.78
357.473	367.8
357.855	339.55
358.238	348.14
358.62	351.53
359.002	358.99
359.384	357.86
359.766	331.64
360.148	352.89
360.53	332.77
360.912	350.4
361.294	345.2
361.676	343.85
362.057	361.7
362.439	350.4
362.821	340.91
363.203	325.99
363.584	326.9
363.966	344.07
364.348	354.92
364.729	335.71
365.111	332.1
365.493	326.9
365.874	314.02
366.256	310.85
366.637	316.73
367.019	328.03
367.4	325.77
367.781	324.64
368.163	330.29
368.544	322.83
368.925	339.1
369.306	316.05
369.688	333
370.069	329.16
370.45	330.29
370.831	335.49
371.212	335.49
371.593	320.34
371.974	323.51
372.355	342.04
372.736	314.02
373.117	321.47
373.498	334.58
373.879	331.19
374.26	318.99
374.641	335.71
375.021	330.97
375.402	322.6
375.783	329.38
376.163	359.89
376.544	355.15
376.925	330.97
377.305	319.89
377.686	335.03
378.066	357.18
378.447	327.58
378.827	333.23
379.208	335.49
379.588	335.26
379.968	346.11
380.349	348.14
380.729	350.85
381.109	347.01
381.489	366.67
381.87	363.51
382.25	332.1
382.63	363.06
383.01	348.59
383.39	343.62
383.77	362.83
384.15	357.41
384.53	371.87
384.91	359.67
385.29	352.66
385.67	375.26
386.049	382.49
386.429	358.31
386.809	365.99
387.189	354.69
387.568	361.02
387.948	363.73
388.328	366.67
388.707	361.47
389.087	386.56
389.466	374.13
389.846	374.58
390.225	369.61
390.605	403.51
390.984	365.99
391.363	391.76
391.743	386.11
392.122	389.72
392.501	376.16
392.881	409.61
393.26	396.27
393.639	400.57
394.018	383.39
394.397	375.71
394.776	413.22
395.155	403.28
395.534	401.92
395.913	381.81
396.292	392.66
396.671	402.83
397.05	395.82
397.429	375.71
397.808	407.35
398.186	392.66
398.565	410.96
398.944	439.66
399.323	418.87
399.701	431.08
400.08	416.39
400.458	434.01
400.837	422.71
401.215	415.26
401.594	421.36
401.972	431.08
402.351	412.55
402.729	419.55
403.107	413.9
403.486	433.79
403.864	431.53
404.242	424.07
404.62	426.33
404.999	431.98
405.377	433.79
405.755	440.34
406.133	437.86
406.511	457.74
406.889	459.1
407.267	442.15
407.645	464.52
408.023	450.74
408.401	457.97
408.779	470.17
409.156	463.39
409.534	474.24
409.912	481.24
410.29	456.61
410.667	463.17
411.045	452.32
411.422	468.59
411.8	486.67
412.178	483.73
412.555	492.77
412.933	499.55
413.31	488.48
413.687	506.78
414.065	528.7
414.442	512.88
414.819	505.65
415.197	527.12
415.574	514.01
415.951	537.29
416.328	546.55
416.705	506.55
417.082	544.29
417.46	531.41
417.837	528.7
418.214	530.73
418.591	538.64
418.967	544.75
419.344	544.97
419.721	550.17
420.098	541.81
420.475	565.99
420.852	566.89
421.228	560.56
421.605	574.58
421.982	585.65
422.358	558.76
422.735	578.87
423.111	564.63
423.488	578.19
423.864	586.78
424.241	603.73
424.617	603.73
424.994	594.91
425.37	604.41
425.746	620.22
426.123	631.75
426.499	638.53
426.875	614.57
427.251	640.11
427.627	643.27
428.003	641.47
428.379	643.27
428.756	654.12
429.132	636.27
429.507	664.06
429.883	683.27
430.259	666.32
430.635	650.73
431.011	677.62
431.387	669.49
431.763	680.56
432.138	712.42
432.514	722.82
432.89	717.4
433.265	716.27
433.641	725.08
434.016	744.51
434.392	716.04
434.767	729.15
435.143	750.84
435.518	760.79
435.894	760.79
436.269	754.46
436.644	761.91
437.02	774.57
437.395	774.8
437.77	791.74
438.145	784.29
438.52	796.04
438.895	788.81
439.271	791.52
439.646	818.41
440.021	827.9
440.395	812.54
440.77	812.54
441.145	831.74
441.52	848.47
441.895	813.89
442.27	837.39
442.645	818.64
443.019	827.9
443.394	866.32
443.769	844.62
444.143	866.32
444.518	875.36
444.892	873.32
445.267	894.11
445.641	867.67
446.016	863.61
446.39	857.96
446.764	863.16
447.139	899.54
447.513	891.63
447.887	889.14
448.262	893.21
448.636	900.44
449.01	893.89
449.384	909.93
449.758	908.58
450.132	927.33
450.506	913.1
450.88	916.94
451.254	933.66
451.628	919.65
452.002	945.19
452.376	942.25
452.75	956.26
453.123	957.39
453.497	973.66
453.871	987.45
454.244	994.45
454.618	971.18
454.992	992.87
455.365	995.36
455.739	1018.41
456.112	1022.47
456.486	1019.54
456.859	1019.31
457.232	1036.48
457.606	1033.09
457.979	1063.38
458.352	1050.27
458.725	1079.19
459.099	1061.34
459.472	1095.92
459.845	1120.1
460.218	1120.1
460.591	1121.68
460.964	1092.75
461.337	1107.22
461.71	1139.98
462.083	1150.61
462.456	1171.85
462.829	1161.68
463.201	1155.12
463.574	1149.25
463.947	1184.73
464.32	1219.08
464.692	1198.29
465.065	1220.66
465.438	1217.04
465.81	1259.53
466.183	1231.73
466.555	1262.92
466.928	1285.29
467.3	1255.69
467.672	1295.69
468.045	1297.72
468.417	1300.66
468.789	1296.59
469.161	1329.81
469.534	1324.84
469.906	1381.33
470.278	1360.77
470.65	1387.44
471.022	1394.21
471.394	1406.42
471.766	1434.44
472.138	1445.74
472.51	1436.47
472.882	1467.21
473.253	1478.96
473.625	1483.03
473.997	1504.27
474.369	1531.84
474.74	1511.95
475.112	1542.91
475.484	1582.68
475.855	1614.55
476.227	1632.17
476.598	1646.19
476.97	1636.92
477.341	1670.82
477.713	1692.74
478.084	1718.5
478.455	1735.22
478.827	1769.12
479.198	1784.04
479.569	1809.12
479.94	1830.81
480.311	1847.08
480.682	1880.3
481.053	1926.4
481.424	1960.3
481.795	1989.45
482.166	1970.47
482.537	1993.07
482.908	2054.99
483.279	2025.38
483.65	2100.41
484.021	2140.86
484.391	2160.07
484.762	2182.22
485.133	2201.2
485.503	2236.9
485.874	2275.55
486.244	2284.81
486.615	2393.74
486.985	2393.51
487.356	2406.62
487.726	2417.69
488.097	2493.62
488.467	2490.01
488.837	2544.69
489.207	2579.04
489.578	2620.62
489.948	2638.7
490.318	2681.19
490.688	2692.94
491.058	2747.4
491.428	2752.15
491.798	2786.04
492.168	2851.8
492.538	2893.84
492.908	2948.07
493.278	2985.36
493.648	2962.08
494.017	2998.47
494.387	3079.59
494.757	3096.77
495.126	3153.26
495.496	3155.3
495.866	3210.66
496.235	3214.51
496.605	3243.43
496.974	3290.66
497.344	3304.67
497.713	3369.3
498.082	3384.22
498.452	3413.14
498.821	3433.48
499.19	3445.91
499.559	3523.88
499.928	3525.23
500.298	3553.71
500.667	3595.96
501.036	3658.34
501.405	3640.71
501.774	3712.35
502.143	3719.8
502.512	3716.64
502.88	3790.99
503.249	3760.03
503.618	3817.88
503.987	3866.92
504.356	3849.07
504.724	3917.99
505.093	3948.72
505.462	3945.79
505.83	3974.71
506.199	3987.14
506.567	4065.33
506.936	4096.06
507.304	4087.7
507.672	4145.78
508.041	4143.97
508.409	4197.53
508.777	4241.37
509.145	4276.62
509.514	4314.59
509.882	4356.62
510.25	4352.33
510.618	4346.91
510.986	4393.91
511.354	4434.13
511.722	4489.27
512.09	4529.05
512.458	4491.99
512.826	4531.99
513.193	4568.37
513.561	4620.34
513.929	4644.07
514.297	4706.22
514.664	4745.31
515.032	4763.84
515.4	4774.24
515.767	4816.5
516.135	4836.84
516.502	4800.23
516.869	4903.95
517.237	4903.5
517.604	4938.98
517.972	5032.99
518.339	5013.33
518.706	5018.3
519.073	5043.61
519.44	5094
519.808	5206.54
520.175	5180.33
520.542	5231.4
520.909	5291.74
521.276	5311.4
521.643	5314.56
522.009	5358.4
522.376	5419.87
522.743	5446.31
523.11	5493.09
523.477	5540.32
523.843	5560.21
524.21	5609.02
524.577	5652.41
524.943	5677.72
525.31	5683.14
525.676	5729.02
526.043	5733.31
526.409	5828.45
526.776	5828.67
527.142	5914.1
527.508	5896.47
527.874	5991.83
528.241	5984.15
528.607	5978.05
528.973	6079.52
529.339	6053.53
529.705	6135.78
530.071	6140.08
530.437	6239.74
530.803	6195.67
531.169	6263.24
531.535	6270.24
531.901	6259.17
532.267	6309.11
532.632	6381.2
532.998	6383.91
533.364	6401.09
533.73	6430.69
534.095	6532.61
534.461	6557.69
534.826	6523.8
535.192	6553.4
535.557	6596.56
535.923	6617.13
536.288	6657.81
536.653	6646.73
537.019	6696.67
537.384	6688.31
537.749	6730.57
538.114	6772.15
538.479	6757.24
538.845	6867.74
539.21	6835.65
539.575	6831.13
539.94	6833.85
540.305	6907.06
540.67	6935.54
541.034	7044.24
541.399	7019.15
541.764	7032.26
542.129	7060.05
542.494	7128.08
542.858	7172.14
543.223	7146.83
543.587	7227.73
543.952	7231.12
544.316	7235.42
544.681	7254.4
545.045	7311.8
545.41	7354.51
545.774	7334.17
546.138	7385.47
546.503	7405.58
546.867	7444.45
547.231	7533.04
547.595	7500.49
547.959	7612.81
548.324	7639.93
548.688	7667.95
549.052	7686.25
549.416	7705.91
549.779	7797.66
550.143	7789.98
550.507	7861.84
550.871	7899.13
551.235	7930.99
551.599	8026.58
551.962	7972.8
552.326	8067.94
552.689	8152.46
553.053	8173.92
553.417	8175.28
553.78	8245.33
554.143	8300.7
554.507	8323.75
554.87	8375.27
555.234	8491.66
555.597	8446.68
555.96	8544.54
556.323	8610.52
556.686	8671.54
557.05	8720.8
557.413	8782.04
557.776	8791.08
558.139	8880.35
558.502	8971.87
558.865	8955.37
559.228	9027.01
559.59	9132.99
559.953	9175.25
560.316	9256.61
560.679	9277.17
561.041	9456.38
561.404	9447.11
561.767	9584.96
562.129	9583.15
562.492	9702.47
562.854	9727.78
563.217	9915.8
563.579	9830.6
563.941	9989.92
564.304	10124.38
564.666	10276.92
565.028	10248.67
565.39	10421.55
565.753	10501.55
566.115	10620.19
566.477	10669
566.839	10772.27
567.201	10987.41
567.563	11034.41
567.925	11209.32
568.287	11271.02
568.648	11312.6
569.01	11503.33
569.372	11590.78
569.734	11699.03
570.095	11822.19
570.457	11974.28
570.819	12113.48
571.18	12214.72
571.542	12408.39
571.903	12627.82
572.265	12702.17
572.626	12867.59
572.987	13107.58
573.349	13261.7
573.71	13501.02
574.071	13688.13
574.432	13879.99
574.794	14032.98
575.155	14232.52
575.516	14325.63
575.877	14676.58
576.238	14773.52
576.599	15041.54
576.96	15303.23
577.32	15517.46
577.681	15885.13
578.042	16073.83
578.403	16223.88
578.763	16604.21
579.124	16833.13
579.485	17131.88
579.845	17525.77
580.206	17787.23
580.566	17980.45
580.927	18267.22
581.287	18629.92
581.648	18888.22
582.008	19327.08
582.368	19691.13
582.728	19933.84
583.089	20344
583.449	20648.4
583.809	21026.69
584.169	21334.03
584.529	21568.6
584.889	22261.69
585.249	22511.4
585.609	22794.56
585.969	23382.34
586.329	23715.44
586.688	24147.51
587.048	24647.84
587.408	24924.9
587.768	25316.3
588.127	25695.5
588.487	26074.92
588.846	26721.23
589.206	26966.65
589.565	27485.05
589.925	28183.57
590.284	28419.94
590.643	28947.61
591.003	29435.51
591.362	29991.43
591.721	30304.19
592.08	30866.21
592.44	31418.28
592.799	31761.1
593.158	32197.02
593.517	32647.4
593.876	33279.7
594.235	33500.49
594.593	34193.58
594.952	34765.99
595.311	35005.99
595.67	35528.46
596.029	36190.14
596.387	36737.69
596.746	37201.86
597.104	37471.23
597.463	37988.96
597.822	38573.58
598.18	38881.36
598.538	39190.74
598.897	39830.27
599.255	39856.03
599.613	40842.44
599.972	41067.52
600.33	41606.04
600.688	41927.61
601.046	42374.15
601.404	42996.96
601.762	43195.6
602.12	43779.09
602.478	44169.59
602.836	44453.65
603.194	44648.67
603.552	45140.18
603.91	45142.67
604.268	45874.63
604.625	46007.5
604.983	46601.39
605.341	46623.08
605.698	47188.26
606.056	47565.66
606.413	47658.76
606.771	48041.8
607.128	48342.36
607.485	48372.19
607.843	48654.22
608.2	49206.74
608.557	49538.94
608.914	49585.49
609.272	49885.37
609.629	50076.1
609.986	50396.99
610.343	50271.35
610.7	50761.28
611.057	50787.27
611.414	51105.22
611.771	51179.8
612.127	51387.7
612.484	51506.8
612.841	51789.95
613.198	51787.47
613.554	51920.12
613.911	52171.41
614.267	52281.69
614.624	52313.33
614.98	52551.51
615.337	52749.93
615.693	52839.19
616.05	52897.72
616.406	53046.42
616.762	53113.31
617.118	53245.28
617.475	53262
617.831	53432.39
618.187	53495.44
618.543	53612.95
618.899	53839.16
619.255	53899.05
619.611	53998.48
619.967	54071.47
620.323	54170
620.678	54032.83
621.034	54053.4
621.39	54119.83
621.746	54098.82
622.101	54439.83
622.457	54294.07
622.812	54488.86
623.168	54567.51
623.523	54552.82
623.879	54644.34
624.234	54395.31
624.589	54616.09
624.945	54646.15
625.3	54730.67
625.655	54707.16
626.01	54766.6
626.365	54793.26
626.72	54815.18
627.075	54837.78
627.43	54855.86
627.785	54821.51
628.14	54868.29
628.495	54972.02
628.85	54955.74
629.205	54945.8
629.559	55115.29
629.914	54990.09
630.269	55026.02
630.623	54938.12
630.978	54853.83
631.332	55066.7
631.687	55108.06
632.041	55002.3
632.396	55062.86
632.75	54943.54
633.104	55010.88
633.459	54988.96
633.813	54955.07
634.167	54936.54
634.521	54961.17
634.875	55000.26
635.229	55053.59
635.583	54833.26
635.937	54918.91
636.291	54820.61
636.645	54882.53
636.999	54835.75
637.352	54969.76
637.706	54774.51
638.06	54880.04
638.413	54798.46
638.767	54731.34
639.121	54770.44
639.474	54616.77
639.828	54778.35
640.181	54725.02
640.534	54756.43
640.888	54755.07
641.241	54639.14
641.594	54662.19
641.947	54747.16
642.301	54732.25
642.654	54729.76
643.007	54769.53
643.36	54620.84
643.713	54644.79
644.066	54696.09
644.419	54525.47
644.771	54413.39
645.124	54065.82
645.477	54079.38
645.83	53959.16
646.182	53827.19
646.535	53818.83
646.888	53883
647.24	53751.26
647.593	53920.74
647.945	53741.54
648.298	53680.3
648.65	53679.62
649.002	53533.41
649.355	53737.02
649.707	53636.23
650.059	53741.76
650.411	54089.55
650.763	54130.23
651.115	54452.48
651.467	54313.05
651.819	54366.16
652.171	54359.15
652.523	54232.15
652.875	54197.12
653.227	54132.72
653.578	54352.37
653.93	54277.8
654.282	54162.77
654.633	54065.15
654.985	54175.65
655.337	54204.8
655.688	54207.74
656.039	54322.99
656.391	53969.78
656.742	54117.57
657.094	54171.36
657.445	54292.71
657.796	54139.04
658.147	54132.26
658.498	54057.69
658.849	54125.26
659.2	54070.57
659.551	54014.3
659.902	54213.84
660.253	54091.59
660.604	54245.25
660.955	53971.36
661.306	54120.06
661.656	54006.84
662.007	54069.67
662.358	54044.36
662.708	54098.82
663.059	54074.41
663.409	53963
663.76	54143.56
664.11	54044.13
664.461	54042.1
664.811	54100.4
665.161	54098.14
665.511	53985.15
665.862	53940.4
666.212	54027.41
666.562	54176.33
666.912	54073.73
667.262	53983.57
667.612	53968.2
667.962	54013.17
668.312	53937.01
668.662	54055.65
669.011	53989.44
669.361	53924.13
669.711	53884.81
670.06	53800.29
670.41	53843.23
670.76	53741.54
671.109	53816.79
671.459	53764.36
671.808	53708.32
672.157	53777.02
672.507	53668.32
672.856	53574.31
673.205	53666.74
673.554	53787.41
673.904	53587.42
674.253	53764.82
674.602	53662.22
674.951	53136.58
675.3	52974.1
675.649	53574.09
675.998	53635.55
676.346	53611.82
676.695	53622.67
677.044	53335.22
677.393	53431.72
677.741	53344.71
678.09	53470.59
678.438	53364.83
678.787	53379.51
679.135	53384.49
679.484	53209.58
679.832	53334.09
680.181	53080.31
680.529	53208.22
680.877	53126.64
681.225	53122.35
681.573	53246.86
681.922	53006.42
682.27	52968.9
682.618	52986.3
682.966	52951.5
683.314	53013.65
683.661	52812.52
684.009	52640.78
684.357	52656.37
684.705	52641.45
685.053	52640.55
685.4	52631.29
685.748	52445.75
686.095	52472.19
686.443	52414.34
686.79	52245.99
687.138	52301.12
687.485	52270.84
687.832	52192.43
688.18	52189.72
688.527	52051.87
688.874	52061.81
689.221	51927.35
689.568	51853.9
689.915	51774.13
690.262	51795.83
690.609	51648.03
690.956	51532.56
691.303	51601.93
691.65	51337.53
691.997	51337.53
692.344	51213.7
692.69	51209.18
693.037	51196.97
693.383	50854.61
693.73	51050.54
694.077	50809.86
694.423	50798.57
694.769	50746.82
695.116	50735.97
695.462	50649.64
695.808	50398.8
696.155	50485.58
696.501	50232.25
696.847	50199.03
697.193	49903.22
697.539	50075.65
697.885	49844.01
698.231	49823.9
698.577	49646.28
698.923	49643.34
699.269	49423.69
699.614	49263.92
699.96	49307.08
700.306	49291.26
700.651	49106.41
700.997	49038.84
701.342	48905.73
701.688	48891.5
702.033	48713.65
702.379	48832.97
702.724	48642.46
703.069	48597.72
703.415	48150.95
703.76	48218.75
704.105	48228.01
704.45	48102.59
704.795	47810.85
705.14	47834.8
705.485	47691.53
705.83	47542.83
706.175	47618.08
706.52	47491.53
706.865	47371.99
707.209	47321.14
707.554	47122.73
707.899	47215.38
708.243	47097.19
708.588	46961.15
708.932	46645.91
709.277	46648.84
709.621	46705.79
709.966	46381.96
710.31	46470.09
710.654	46152.13
710.998	46183.09
711.342	46178.8
711.687	46056.09
712.031	45871.69
712.375	45731.81
712.719	45888.86
713.063	45783.33
713.407	45917.79
713.75	45655.88
714.094	45555.54
714.438	45352.38
714.782	45433.28
715.125	45319.39
715.469	45444.36
715.812	45128.43
716.156	45017.7
716.499	44975.44
716.843	45014.31
717.186	44812.73
717.53	45011.6
717.873	44892.96
718.216	44776.58
718.559	44556.92
718.902	44408
719.246	44624.94
719.589	44266.76
719.932	44316.02
720.275	44366.19
720.617	44126.88
720.96	44051.85
721.303	44034.68
721.646	44087.78
721.989	43858.63
722.331	44069.48
722.674	43832.19
723.016	43902.7
723.359	43719.2
723.701	43855.7
724.044	43471.07
724.386	43223.85
724.729	43496.38
725.071	43494.35
725.413	43435.37
725.755	43362.38
726.097	43236.28
726.439	43169.84
726.782	43158.31
727.124	43353.79
727.465	43035.83
727.807	42946.34
728.149	42980.24
728.491	42888.49
728.833	42938.21
729.175	42847.36
729.516	42738.89
729.858	42726.91
730.199	42742.96
730.541	42539.57
730.882	42684.43
731.224	42652.79
731.565	42409.63
731.906	42585
732.248	42579.57
732.589	42320.82
732.93	42228.85
733.271	42192.92
733.612	42236.98
733.953	42363.31
734.294	41942.98
734.635	41857.33
734.976	42007.16
735.317	41918.8
735.658	41934.39
735.999	41816.2
736.339	41740.72
736.68	41975.29
737.021	41688.75
737.361	41566.04
737.702	41814.85
738.042	41565.36
738.383	41523.33
738.723	41647.85
739.063	41415.99
739.404	41456.44
739.744	41521.97
740.084	41350.9
740.424	41600.16
740.764	41319.27
741.104	41435.42
741.444	41296.67
741.784	41012.61
742.124	41256.67
742.464	41056.45
742.804	41079.27
743.143	40889
743.483	40992.5
743.823	40753.63
744.162	40793.18
744.502	40862.1
744.841	40656.69
745.181	40849.45
745.52	40783.46
745.86	40719.96
746.199	40532.39
746.538	40674.76
746.877	40670.47
747.216	40552.28
747.556	40472.06
747.895	40394.32
748.234	40118.39
748.573	40248.33
748.911	40081.33
749.25	40127.89
749.589	40152.29
749.928	40090.37
750.267	40233.65
750.605	40017.61
750.944	39856.25
751.283	39776.71
751.621	39895.8
751.96	39635.7
752.298	39678.63
752.636	39745.97
752.975	39534.68
753.313	39336.72
753.651	39499.2
753.989	39290.39
754.327	39199.55
754.666	39037.07
755.004	39179.21
755.342	39000.46
755.679	39011.76
756.017	38823.74
756.355	38966.79
756.693	38858.99
757.031	38856.96
757.368	38603.63
757.706	38511.88
758.044	38391.66
758.381	38435.05
758.719	38289.06
759.056	38347.59
759.394	38176.98
759.731	38064.89
760.068	37866.25
760.405	37817.89
760.743	37543.55
761.08	37836.65
761.417	37487.5
761.754	37398.01
762.091	37503.32
762.428	37243.67
762.765	37177
763.102	37155.99
763.438	37099.26
763.775	36861.08
764.112	36724.81
764.449	36795.09
764.785	36594.87
765.122	36490.69
765.458	36245.05
765.795	36345.16
766.131	36142.23
766.467	36032.17
766.804	35954.21
767.14	35751.73
767.476	35762.58
767.812	35592.41
768.148	35779.53
768.485	35487.56
768.821	35225.19
769.157	35163.72
769.492	35048.25
769.828	35036.04
770.164	34790.85
770.5	34654.58
770.836	34756.73
771.171	34489.39
771.507	34449.62
771.842	34301.37
772.178	34225.89
772.513	34119.68
772.849	34013.92
773.184	33785.91
773.519	33780.71
773.855	33661.84
774.19	33578.68
774.525	33361.74
774.86	33495.29
775.195	33429.3
775.53	33107.96
775.865	33040.16
776.2	32774.41
776.535	32526.73
776.87	32591.13
777.205	32532.15
777.539	32339.39
777.874	32351.14
778.209	32065.5
778.543	31948.44
778.878	31740.76
779.212	31767.88
779.547	31751.38
779.881	31813.3
780.215	31430.04
780.55	31637.26
780.884	31268.23
781.218	31289.93
781.552	31242.7
781.886	30977.17
782.22	30762.71
782.554	30725.19
782.888	30511.87
783.222	30417.63
783.556	30234.59
783.889	30206.11
784.223	29983.07
784.557	29968.38
784.89	30064.42
785.224	29868.49
785.557	29724.09
785.891	29644.77
786.224	29581.27
786.558	29520.25
786.891	29134.95
787.224	29113.03
787.557	29027.61
787.891	29003.21
788.224	28984.45
788.557	28936.99
788.89	28910.33
789.223	28760.73
789.556	28591.92
789.888	28528.42
790.221	28372.71
790.554	28395.31
790.887	28217.24
791.219	28139.05
791.552	28181.98
791.884	27995.1
792.217	27885.95
792.549	27713.3
792.882	27538.39
793.214	27491.38
793.546	27530.25
793.879	27329.35
794.211	27215.46
794.543	27256.59
794.875	27135.91
795.207	27147.44
795.539	26941.79
795.871	27022.69
796.203	26662.02
796.535	26624.29
796.867	26529.6
797.198	26443.5
797.53	26530.95
797.862	26309.72
798.193	26345.2
798.525	26063.85
798.856	26106.33
799.188	25781.14
799.519	25907.92
799.85	25744.76
800.182	25764.87
800.513	25592.9
800.844	25413.02
801.175	25574.6
801.506	25516.74
801.837	25341.83
802.168	25334.38
802.499	25234.27
802.83	25180.93
803.161	25004.67
803.491	25001.73
803.822	25110.88
804.153	24841.73
804.483	24733.94
804.814	24597.9
805.145	24771
805.475	24598.35
805.805	24506.15
806.136	24481.97
806.466	24478.81
806.796	24426.38
807.126	24163.79
807.457	24128.53
807.787	24092.37
808.117	24045.37
808.447	24018.7
808.777	24013.96
809.107	23838.6
809.436	23846.73
809.766	23762.89
810.096	23686.06
810.426	23651.48
810.755	23590.92
811.085	23506.63
811.414	23377.14
811.744	23275.45
812.073	23265.28
812.403	23264.6
812.732	23131.95
813.061	23076.36
813.39	23005.62
813.719	22874.55
814.049	22947.32
814.378	23004.95
814.707	22895.12
815.036	22725.18
815.365	22582.36
815.693	22456.26
816.022	22395.47
816.351	22289.26
816.68	22316.83
817.008	22392.76
817.337	22174.91
817.665	22223.95
817.994	22212.42
818.322	22121.35
818.651	21999.32
818.979	21905.31
819.307	22020.11
819.636	21944.63
819.964	21858.54
820.292	21961.36
820.62	21843.85
820.948	21733.34
821.276	21800.68
821.604	21727.92
821.932	21800.68
822.259	21790.74
822.587	21795.03
822.915	21698.31
823.243	21802.94
823.57	21799.78
823.898	21732.89
824.225	21671.65
824.553	21670.74
824.88	21681.36
825.207	21690.18
825.535	21666
825.862	21800.91
826.189	21694.02
826.516	21737.18
826.843	21730.86
827.17	21753.23
827.497	21686.11
827.824	21701.03
828.151	21731.76
828.478	21634.81
828.805	21837.29
829.131	21696.96
829.458	21600.69
829.785	21424.65
830.111	21554.81
830.438	21708.26
830.764	21664.64
831.09	21633.46
831.417	21516.85
831.743	21583.74
832.069	21615.6
832.395	21543.74
832.722	21602.72
833.048	21425.1
833.374	21530.41
833.7	21402.5
834.026	21442.95
834.351	21492.67
834.677	21451.54
835.003	21374.71
835.329	21414.25
835.654	21263.3
835.98	21314.82
836.306	21324.09
836.631	21135.84
836.956	21268.04
837.282	21243.41
837.607	21208.83
837.932	21030.76
838.258	21066.01
838.583	20974.49
838.908	20816.53
839.233	20891.78
839.558	20877.32
839.883	20838.22
840.208	20863.31
840.533	20856.53
840.858	20830.54
841.182	20866.92
841.507	20773.37
841.832	20579.47
842.156	20567.95
842.481	20585.8
842.805	20512.58
843.13	20489.08
843.454	20401.85
843.778	20368.18
844.103	20408.63
844.427	20336.77
844.751	20343.1
845.075	20230.78
845.399	20200.27
845.723	20007.74
846.047	20029.66
846.371	19831.47
846.695	19800.06
847.019	19773.84
847.343	19624.24
847.666	19579.05
847.99	19540.18
848.313	19567.75
848.637	19469.67
848.96	19407.53
849.284	19337.47
849.607	19247.3
849.931	19139.28
850.254	19023.36
850.577	18885.28
850.9	18831.72
851.223	18827.88
851.546	18744.27
851.869	18574.1
852.192	18597.6
852.515	18462.69
852.838	18473.09
853.161	18413.88
853.483	18341.11
853.806	18177.28
854.129	18159.88
854.451	18038.07
854.774	17996.72
855.096	17904.97
855.419	17900.45
855.741	17791.07
856.063	17825.65
856.385	17794.01
856.708	17565.09
857.03	17540
857.352	17609.83
857.674	17527.58
857.996	17466.79
858.318	17448.26
858.64	17394.25
858.961	17348.15
859.283	17275.15
859.605	17123.97
859.926	17180.69
860.248	17074.48
860.57	17057.53
860.891	17039.23
861.212	17035.84
861.534	16952.9
861.855	16956.97
862.176	16874.94
862.498	17001.26
862.819	16812.11
863.14	16689.86
863.461	16718.78
863.782	16719.91
864.103	16702.29
864.424	16664.1
864.745	16745.68
865.065	16609.63
865.386	16501.84
865.707	16447.38
866.027	16484.21
866.348	16473.59
866.668	16339.81
866.989	16389.75
867.309	16272.92
867.63	16336.65
867.95	16344.78
868.27	16248.29
868.59	16312.47
868.91	16154.96
869.23	16246.71
869.55	16040.16
869.87	16196.31
870.19	16185.46
870.51	16073.15
870.83	16217.78
871.15	16062.98
871.469	16040.61
871.789	16011.23
872.109	15980.5
872.428	15899.14
872.748	15909.99
873.067	15810.78
873.386	15906.6
873.706	15892.82
874.025	15790.67
874.344	15787.51
874.663	15795.64
874.982	15730.79
875.301	15759.26
875.62	15625.48
875.939	15653.73
876.258	15624.12
876.577	15527.4
876.896	15528.31
877.214	15596.1
877.533	15481.53
877.852	15412.15
878.17	15475.2
878.489	15406.05
878.807	15488.76
879.125	15437.01
879.444	15432.72
879.762	15406.5
880.08	15357.92
880.398	15160.86
880.716	15262.78
881.034	15241.76
881.352	15181.65
881.67	15144.36
881.988	15153.63
882.306	15043.8
882.624	15024.82
882.941	15017.13
883.259	14896.23
883.577	14915.22
883.894	14849
884.212	14769.23
884.529	14813.75
884.846	14823.47
885.164	14812.39
885.481	14704.6
885.798	14814.65
886.115	14604.49
886.432	14673.41
886.75	14623.7
887.067	14583.47
887.383	14488.33
887.7	14478.62
888.017	14541.89
888.334	14531.95
888.651	14390.48
888.967	14406.75
889.284	14293.31
889.6	14312.97
889.917	14239.07
890.233	14232.97
890.55	14158.4
890.866	14203.82
891.182	14065.07
891.498	14002.02
891.815	13922.92
892.131	13957.73
892.447	13822.59
892.763	13806.32
893.079	13789.37
893.395	13815.58
893.71	13785.53
894.026	13718.18
894.342	13560.9
894.657	13482.03
894.973	13555.7
895.289	13485.87
895.604	13551.64
895.92	13417.85
896.235	13376.72
896.55	13404.07
896.865	13344.63
897.181	13268.48
897.496	13204.53
897.811	13139.44
898.126	13070.07
898.441	13040.46
898.756	13072.33
899.071	12964.31
899.386	12953.23
899.7	12875.49
900.015	12813.8
900.33	12736.97
900.644	12731.77
900.959	12670.98
901.273	12564.77
901.588	12569.74
901.902	12525
902.216	12492.68
902.531	12517.09
902.845	12356.19
903.159	12318
903.473	12331.1
903.787	12227.38
904.101	12183.31
904.415	12192.35
904.729	12181.28
905.042	12038.91
905.356	12020.83
905.67	12065.35
905.984	12012.69
906.297	11883.88
906.611	11838.46
906.924	11946.25
907.237	11863.32
907.551	11700.38
907.864	11717.11
908.177	11666.04
908.491	11649.99
908.804	11564.34
909.117	11455.65
909.43	11443.89
909.743	11394.63
910.056	11381.07
910.368	11354.86
910.681	11218.14
910.994	11258.81
911.307	11141.76
911.619	11050.01
911.932	11080.51
912.244	11021.76
912.557	11046.16
912.869	10932.95
913.181	10852.95
913.494	10834.42
913.806	10751.26
914.118	10779.05
914.43	10674.65
914.742	10691.15
915.054	10609.11
915.366	10589.68
915.678	10513.52
915.99	10463.58
916.302	10466.07
916.613	10408.89
916.925	10395.56
917.236	10340.42
917.548	10280.53
917.859	10240.76
918.171	10191.5
918.482	10056.13
918.794	10130.03
919.105	10046.42
919.416	9948.79
919.727	9927.1
920.038	9960.09
920.349	9951.05
920.66	9842.35
920.971	9819.53
921.282	9751.74
921.593	9691.85
921.903	9663.38
922.214	9682.36
922.525	9634.45
922.835	9544.06
923.146	9536.6
923.456	9439.43
923.767	9386.1
924.077	9385.42
924.387	9267
924.697	9282.14
925.008	9279.43
925.318	9227.91
925.628	9257.06
925.938	9151.3
926.248	9098.64
926.558	9049.61
926.867	9010.74
927.177	9017.97
927.487	8966.22
927.796	8908.14
928.106	8832.66
928.416	8877.86
928.725	8779.11
929.034	8712.21
929.344	8740.01
929.653	8708.37
929.962	8622.73
930.271	8710.86
930.581	8549.96
930.89	8489.4
931.199	8520.13
931.508	8448.04
931.817	8411.66
932.125	8387.7
932.434	8365.56
932.743	8303.64
933.051	8312.45
933.36	8213.47
933.669	8167.37
933.977	8149.07
934.286	8179.35
934.594	8114.04
934.902	8049.86
935.21	8034.72
935.519	7990.43
935.827	7959.24
936.135	7926.02
936.443	7820.94
936.751	7850.99
937.059	7776.65
937.367	7702.07
937.674	7799.92
937.982	7714.95
938.29	7722.86
938.597	7643.09
938.905	7541.4
939.213	7560.15
939.52	7529.65
939.827	7497.78
940.135	7446.71
940.442	7425.92
940.749	7414.17
941.056	7414.62
941.363	7314.96
941.67	7308.41
941.977	7281.97
942.284	7168.3
942.591	7156.1
942.898	7117.68
943.205	7112.03
943.511	7123.56
943.818	7116.32
944.125	7017.57
944.431	7061.41
944.738	6994.75
945.044	6967.4
945.35	6938.93
945.657	6813.28
945.963	6875.65
946.269	6778.93
946.575	6823.9
946.881	6756.33
947.187	6733.06
947.493	6666.39
947.799	6658.26
948.105	6679.27
948.41	6613.06
948.716	6610.57
949.022	6526.96
949.327	6546.17
949.633	6509.33
949.938	6480.41
950.244	6462.1
950.549	6384.82
950.854	6389.79
951.16	6328.55
951.465	6376.68
951.77	6326.97
952.075	6329.68
952.38	6281.54
952.685	6227.08
952.99	6196.8
953.294	6191.15
953.599	6088.78
953.904	6085.39
954.209	6011.72
954.513	6105.5
954.818	6034.09
955.122	5978.05
955.426	5991.38
955.731	5972.17
956.035	5887.2
956.339	5945.06
956.643	5887.66
956.948	5842.01
957.252	5811.95
957.556	5797.94
957.86	5783.93
958.163	5766.98
958.467	5729.02
958.771	5697.15
959.075	5660.09
959.378	5578.96
959.682	5619.19
959.985	5570.38
960.289	5545.07
960.592	5541.68
960.896	5545.52
961.199	5499.87
961.502	5498.74
961.805	5452.64
962.108	5454.9
962.411	5413.54
962.714	5347.11
963.017	5365.41
963.32	5373.32
963.623	5285.19
963.926	5254.23
964.228	5230.72
964.531	5225.3
964.833	5234.34
965.136	5128.58
965.438	5157.73
965.741	5080.67
966.043	5075.47
966.345	5041.35
966.648	5067.11
966.95	5065.98
967.252	5044.06
967.554	4969.71
967.856	4981.92
968.158	4931.75
968.46	4938.75
968.761	4880
969.063	4896.72
969.365	4859.21
969.666	4835.93
969.968	4800.68
970.269	4835.03
970.571	4806.1
970.872	4772.88
971.174	4720.91
971.475	4713.9
971.776	4696.73
972.077	4684.75
972.378	4642.04
972.679	4615.15
972.98	4612.89
973.281	4612.66
973.582	4551.65
973.883	4539.44
974.183	4546
974.484	4543.06
974.785	4474.13
975.085	4487.69
975.386	4466.45
975.686	4433
975.986	4410.18
976.287	4395.94
976.587	4403.18
976.887	4370.18
977.187	4335.61
977.487	4335.83
977.787	4294.25
978.087	4289.05
978.387	4258.09
978.687	4279.56
978.987	4234.82
979.286	4226
979.586	4178.32
979.885	4129.51
980.185	4104.43
980.484	4122.05
980.784	4121.6
981.083	4082.05
981.382	4109.4
981.682	4063.98
981.981	4003.64
982.28	3994.37
982.579	3943.98
982.878	3961.38
983.177	3926.13
983.475	3958.89
983.774	3901.95
984.073	3891.78
984.372	3882.74
984.67	3873.25
984.969	3860.14
985.267	3845
985.566	3770.2
985.864	3809.97
986.162	3743.53
986.461	3753.47
986.759	3757.99
987.057	3697.21
987.355	3723.42
987.653	3671.89
987.951	3650.43
988.249	3655.62
988.547	3626.25
988.844	3603.65
989.142	3586.93
989.44	3594.16
989.737	3538.34
990.035	3533.37
990.332	3542.63
990.63	3516.19
990.927	3477.55
991.224	3494.72
991.521	3459.7
991.819	3472.58
992.116	3394.16
992.413	3372.92
992.71	3371.79
993.006	3382.86
993.303	3380.6
993.6	3354.16
993.897	3331.56
994.193	3332.92
994.49	3277.33
994.787	3295.18
995.083	3284.33
995.379	3241.17
995.676	3235.97
995.972	3161.4
996.268	3191.91
996.565	3195.07
996.861	3155.52
997.157	3148.74
997.453	3091.57
997.749	3103.55
998.044	3117.56
998.34	3095.86
998.636	3019.71
998.932	3084.11
999.227	3029.88
999.523	3021.74
999.818	2991.91
1000.114	2962.54
1000.409	2940.61
1000.704	2908.53
1001	2921.41
1001.295	2946.04
1001.59	2943.33
1001.885	2911.01
1002.18	2858.13
1002.475	2843.67
1002.77	2837.34
1003.065	2828.08
1003.359	2806.16
1003.654	2809.54
1003.949	2765.93
1004.243	2770
1004.538	2752.37
1004.832	2761.18
1005.127	2697.01
1005.421	2666.5
1005.715	2673.73
1006.009	2693.84
1006.304	2691.81
1006.598	2636.67
1006.892	2622.43
1007.186	2590.34
1007.48	2615.88
1007.773	2601.41
1008.067	2577.91
1008.361	2535.43
1008.655	2541.08
1008.948	2527.07
1009.242	2526.39
1009.535	2470.12
1009.829	2506.5
1010.122	2476.45
1010.415	2411.82
1010.708	2416.56
1011.001	2432.15
1011.295	2405.04
1011.588	2400.06
1011.881	2390.8
1012.173	2337.24
1012.466	2338.37
1012.759	2341.53
1013.052	2346.05
1013.344	2286.85
1013.637	2269.45
1013.93	2279.16
1014.222	2252.72
1014.514	2248.66
1014.807	2222.67
1015.099	2217.47
1015.391	2185.83
1015.683	2178.83
1015.976	2179.28
1016.268	2144.7
1016.56	2169.56
1016.851	2145.38
1017.143	2094.76
1017.435	2115.55
1017.727	2093.41
1018.018	2059.73
1018.31	2056.57
1018.602	2040.98
1018.893	2036.23
1019.185	2038.27
1019.476	2033.07
1019.767	2000.3
1020.058	1983.8
1020.35	1954.65
1020.641	1958.49
1020.932	1934.31
1021.223	1890.02
1021.514	1903.58
1021.804	1886.86
1022.095	1890.92
1022.386	1894.77
1022.677	1839.85
1022.967	1838.72
1023.258	1818.16
1023.548	1822
1023.839	1828.33
1024.129	1813.19
1024.419	1754.66
1024.709	1761.89
1025	1762.11
1025.29	1728.67
1025.58	1713.08
1025.87	1730.25
1026.16	1708.56
1026.449	1715.79
1026.739	1691.38
1027.029	1679.63
1027.319	1686.86
1027.608	1643.25
1027.898	1633.08
1028.187	1652.74
1028.477	1609.8
1028.766	1629.46
1029.055	1589.46
1029.344	1579.29
1029.634	1565.28
1029.923	1566.19
1030.212	1545.62
1030.501	1546.98
1030.79	1542.91
1031.078	1488.68
1031.367	1551.5
1031.656	1472.18
1031.945	1473.31
1032.233	1486.64
1032.522	1478.51
1032.81	1444.38
1033.099	1439.86
1033.387	1443.93
1033.675	1429.02
1033.963	1410.71
1034.251	1396.47
1034.54	1397.15
1034.828	1401.9
1035.116	1343.14
1035.403	1366.64
1035.691	1338.4
1035.979	1369.36
1036.267	1333.88
1036.554	1335.69
1036.842	1321.67
1037.129	1296.82
1037.417	1294.78
1037.704	1262.24
1037.992	1272.41
1038.279	1255.91
1038.566	1264.73
1038.853	1264.73
1039.14	1264.73
