Data from orange_diffuse_book_FLMS001491_00058.txt Node
Date: Wed Feb 08 15:29:46 GMT 2017
User: dcchb
Spectrometer: FLMS00149
Trigger mode: 0
Integration Time (sec): 2.000000E-2
Scans to average: 10
Electric dark correction enabled: true
Nonlinearity correction enabled: false
Boxcar width: 0
XAxis mode: Wavelengths
Number of Pixels in Spectrum: 2048
>>>>>Begin Spectral Data<<<<<
341.393	-15.14
341.776	-15.14
342.16	-15.14
342.543	-68.02
342.927	-67.57
343.31	-81.58
343.693	-66.21
344.077	-68.25
344.46	-61.92
344.843	-54.24
345.226	-40.68
345.61	-33.9
345.993	-13.78
346.376	-25.08
346.759	7.68
347.142	45.2
347.525	65.99
347.908	57.85
348.291	64.41
348.674	97.17
349.057	107.34
349.44	112.77
349.823	130.17
350.206	160.22
350.588	211.29
350.971	220.11
351.354	233.67
351.737	236.83
352.119	258.52
352.502	266.43
352.884	296.26
353.267	292.2
353.65	300.56
354.032	305.08
354.414	329.71
354.797	325.64
355.179	324.51
355.562	314.79
355.944	342.82
356.326	344.4
356.709	357.73
357.091	362.93
357.473	355.92
357.855	351.63
358.238	365.19
358.62	335.36
359.002	364.74
359.384	361.12
359.766	361.8
360.148	348.24
360.53	332.65
360.912	365.41
361.294	344.62
361.676	343.72
362.057	353.21
362.439	341.91
362.821	328.13
363.203	344.17
363.584	345.75
363.966	341.23
364.348	337.17
364.729	343.04
365.111	329.03
365.493	349.6
365.874	354.11
366.256	345.98
366.637	318.18
367.019	341.46
367.4	322.7
367.781	347.56
368.163	344.62
368.544	313.89
368.925	326.77
369.306	335.36
369.688	333.1
370.069	311.63
370.45	335.81
370.831	320.44
371.212	350.05
371.593	339.88
371.974	351.86
372.355	346.21
372.736	308.47
373.117	324.96
373.498	340.78
373.879	337.84
374.26	329.71
374.641	315.7
375.021	315.25
375.402	347.11
375.783	326.09
376.163	322.7
376.544	357.5
376.925	335.13
377.305	333.1
377.686	354.57
378.066	345.08
378.447	346.43
378.827	352.08
379.208	354.34
379.588	358.41
379.968	347.56
380.349	343.72
380.729	366.32
381.109	345.53
381.489	355.02
381.87	348.47
382.25	361.57
382.63	365.87
383.01	344.17
383.39	376.49
383.77	348.69
384.15	349.37
384.53	356.37
384.91	379.65
385.29	350.27
385.67	355.7
386.049	359.54
386.429	363.83
386.809	364.96
387.189	383.49
387.568	370.39
387.948	371.29
388.328	357.96
388.707	374.45
389.087	362.7
389.466	381.23
389.846	371.52
390.225	388.01
390.605	372.65
390.984	376.49
391.363	380.78
391.743	368.8
392.122	366.09
392.501	381.68
392.881	394.79
393.26	394.34
393.639	406.77
394.018	386.2
394.397	378.97
394.776	395.02
395.155	406.54
395.534	409.48
395.913	374.45
396.292	376.04
396.671	393.89
397.05	390.5
397.429	402.25
397.808	392.53
398.186	402.02
398.565	412.64
398.944	416.26
399.323	380.55
399.701	412.19
400.08	423.72
400.458	417.62
400.837	416.71
401.215	426.88
401.594	446.32
401.972	431.4
402.351	421.23
402.729	452.42
403.107	412.19
403.486	392.76
403.864	409.71
404.242	438.63
404.62	425.53
404.999	428.24
405.377	417.84
405.755	432.98
406.133	456.03
406.511	433.21
406.889	445.64
407.267	439.99
407.645	461.68
408.023	460.1
408.401	468.91
408.779	451.06
409.156	444.28
409.534	452.87
409.912	475.69
410.29	471.17
410.667	491.51
411.045	472.98
411.422	486.09
411.8	484.06
412.178	493.77
412.555	479.31
412.933	496.03
413.31	495.81
413.687	497.61
414.065	482.47
414.442	480.67
414.819	513.88
415.197	512.98
415.574	491.96
415.951	518.4
416.328	535.13
416.705	503.04
417.082	534
417.46	526.99
417.837	543.94
418.214	538.52
418.591	526.31
418.967	524.05
419.344	543.26
419.721	533.32
420.098	544.39
420.475	536.94
420.852	538.74
421.228	553.43
421.605	567.89
421.982	569.7
422.358	570.38
422.735	577.39
423.111	555.47
423.488	585.97
423.864	588.01
424.241	576.26
424.617	595.69
424.994	582.81
425.37	581.91
425.746	616.03
426.123	609.48
426.499	591.17
426.875	614
427.251	608.35
427.627	617.16
428.003	621.68
428.379	619.64
428.756	614.22
429.132	607.44
429.507	632.3
429.883	646.54
430.259	646.99
430.635	666.42
431.011	662.13
431.387	684.5
431.763	674.56
432.138	676.82
432.514	683.37
432.89	696.25
433.265	717.95
433.641	674.11
434.016	709.13
434.392	724.95
434.767	728.34
435.143	728.34
435.518	751.39
435.894	748.23
436.269	761.56
436.644	766.99
437.02	752.3
437.395	753.65
437.77	744.84
438.145	755.91
438.52	784.84
438.895	783.03
439.271	774.89
439.646	769.7
440.021	793.65
440.395	786.65
440.77	781.67
441.145	793.2
441.52	775.57
441.895	818.28
442.27	809.24
442.645	814.67
443.019	809.92
443.394	858.51
443.769	811.05
444.143	815.8
444.518	847.21
444.892	815.12
445.267	819.41
445.641	840.43
446.016	860.54
446.39	866.42
446.764	861.9
447.139	850.37
447.513	861.45
447.887	873.42
448.262	858.51
448.636	870.49
449.01	882.01
449.384	872.75
449.758	921.78
450.132	883.59
450.506	912.29
450.88	931.73
451.254	905.51
451.628	903.93
452.002	912.97
452.376	928.79
452.75	944.61
453.123	928.79
453.497	951.84
453.871	937.83
454.244	958.84
454.618	957.26
454.992	980.09
455.365	968.79
455.739	982.12
456.112	997.26
456.486	1000.2
456.859	1014.21
457.232	1004.72
457.606	1012.18
457.979	1026.19
458.352	1069.12
458.725	1047.88
459.099	1039.52
459.472	1060.99
459.845	1097.15
460.218	1062.34
460.591	1104.38
460.964	1098.73
461.337	1127.65
461.71	1115.9
462.083	1143.02
462.456	1119.29
462.829	1119.52
463.201	1155.9
463.574	1150.7
463.947	1152.96
464.32	1174.66
464.692	1161.33
465.065	1181.44
465.438	1201.55
465.81	1206.52
466.183	1220.53
466.555	1231.83
466.928	1227.99
467.3	1279.29
467.672	1264.15
468.045	1261.44
468.417	1282.9
468.789	1273.19
469.161	1300.98
469.534	1319.97
469.906	1351.15
470.278	1357.25
470.65	1330.81
471.022	1369
471.394	1388.21
471.766	1388.66
472.138	1409.23
472.51	1390.92
472.882	1442.45
473.253	1455.33
473.625	1473.18
473.997	1489.68
474.369	1463.24
474.74	1509.56
475.112	1510.69
475.484	1572.84
475.855	1564.03
476.227	1574.65
476.598	1615.32
476.97	1624.82
477.341	1673.85
477.713	1685.38
478.084	1677.47
478.455	1717.24
478.827	1735.55
479.198	1791.37
479.569	1779.16
479.94	1813.74
480.311	1869.78
480.682	1897.8
481.053	1919.5
481.424	1930.8
481.795	1957.91
482.166	1976.67
482.537	1977.58
482.908	2058.48
483.279	2076.56
483.65	2078.36
484.021	2102.32
484.391	2153.39
484.762	2165.37
485.133	2187.74
485.503	2224.8
485.874	2254.4
486.244	2295.76
486.615	2314.97
486.985	2320.84
487.356	2383.67
487.726	2403.1
488.097	2473.16
488.467	2473.38
488.837	2503.21
489.207	2542.76
489.578	2574.85
489.948	2587.5
490.318	2644.68
490.688	2642.42
491.058	2698.46
491.428	2728.52
491.798	2790.89
492.168	2821.62
492.538	2828.4
492.908	2895.07
493.278	2876.76
493.648	2922.86
494.017	2972.13
494.387	2956.76
494.757	3049.64
495.126	3068.39
495.496	3073.14
495.866	3118.11
496.235	3147.04
496.605	3187.03
496.974	3170.76
497.344	3236.07
497.713	3233.59
498.082	3291.89
498.452	3339.35
498.821	3345.67
499.19	3401.27
499.559	3419.8
499.928	3443.75
500.298	3428.38
500.667	3513.13
501.036	3566.69
501.405	3532.56
501.774	3547.93
502.143	3604.2
502.512	3638.32
502.88	3632.67
503.249	3666.34
503.618	3734.82
503.987	3707.25
504.356	3783.4
504.724	3778.88
505.093	3790.41
505.462	3759.9
505.83	3866.56
506.199	3873.8
506.567	3880.35
506.936	3933
507.304	4014.81
507.672	4001.7
508.041	4040.57
508.409	4074.92
508.777	4110.85
509.145	4118.76
509.514	4151.08
509.882	4145.88
510.25	4199.21
510.618	4204.64
510.986	4252.32
511.354	4305.65
511.722	4301.13
512.09	4351.52
512.458	4355.59
512.826	4399.66
513.193	4408.02
513.561	4443.27
513.929	4483.05
514.297	4518.07
514.664	4571.41
515.032	4603.72
515.4	4631.29
515.767	4625.19
516.135	4691.85
516.502	4676.49
516.869	4747.22
517.237	4745.19
517.604	4782.02
517.972	4799.2
518.339	4842.81
518.706	4867.89
519.073	4913.09
519.44	4911.28
519.808	4975.46
520.175	5041.45
520.542	5050.94
520.909	5075.57
521.276	5084.16
521.643	5104.5
522.009	5160.77
522.376	5168.9
522.743	5239.41
523.11	5286.64
523.477	5375
523.843	5354.89
524.21	5418.61
524.577	5433.98
524.943	5483.25
525.31	5521.66
525.676	5563.02
526.043	5618.84
526.409	5607.54
526.776	5645.95
527.142	5650.47
527.508	5756.46
527.874	5781.09
528.241	5770.7
528.607	5778.38
528.973	5831.49
529.339	5787.64
529.705	5901.09
530.071	5953.52
530.437	5904.25
530.803	5986.51
531.169	5990.12
531.535	6032.38
531.901	6059.73
532.267	6038.71
532.632	6142.44
532.998	6130.01
533.364	6155.77
533.73	6220.18
534.095	6233.51
534.461	6303.11
534.826	6332.26
535.192	6384.46
535.557	6348.53
535.923	6360.96
536.288	6398.48
536.653	6487.74
537.019	6440.73
537.384	6486.84
537.749	6474.18
538.114	6499.72
538.479	6504.24
538.845	6557.12
539.21	6567.06
539.575	6621.07
539.94	6618.58
540.305	6680.73
540.67	6715.98
541.034	6745.36
541.399	6772.25
541.764	6755.08
542.129	6855.86
542.494	6870.78
542.858	6920.95
543.223	6882.98
543.587	6985.35
543.952	6944.22
544.316	7002.3
544.681	7024.45
545.045	7072.13
545.41	7040.49
545.774	7114.39
546.138	7104.22
546.503	7149.42
546.867	7214.05
547.231	7206.59
547.595	7246.59
547.959	7345.34
548.324	7325.23
548.688	7360.26
549.052	7369.52
549.416	7449.07
549.779	7479.8
550.143	7461.27
550.507	7513.02
550.871	7627.37
551.235	7605.68
551.599	7633.92
551.962	7717.99
552.326	7692.45
552.689	7865.33
553.053	7825.78
553.417	7851.77
553.78	7914.37
554.143	7922.5
554.507	8019.22
554.87	8042.05
555.234	8230.07
555.597	8128.6
555.96	8188.49
556.323	8271.65
556.686	8335.37
557.05	8360.23
557.413	8420.57
557.776	8393.23
558.139	8543.96
558.502	8552.32
558.865	8672.54
559.228	8710.05
559.59	8732.2
559.953	8776.04
560.316	8913.21
560.679	8919.99
561.041	9054.9
561.404	9190.04
561.767	9183.26
562.129	9241.34
562.492	9351.84
562.854	9389.81
563.217	9422.35
563.579	9486.3
563.941	9580.77
564.304	9728.11
564.666	9811.49
565.028	9933.3
565.39	9983.24
565.753	10142.11
566.115	10167.19
566.477	10307.75
566.839	10368.09
567.201	10481.31
567.563	10574.64
567.925	10734.63
568.287	10766.95
568.648	10908.87
569.01	11075.42
569.372	11206.71
569.734	11311.12
570.095	11439.02
570.457	11524.67
570.819	11755.62
571.18	11899.57
571.542	11996.29
571.903	12139.57
572.265	12302.28
572.626	12504.76
572.987	12623.85
573.349	12758.76
573.71	12943.61
574.071	13166.43
574.432	13274.68
574.794	13566.65
575.155	13791.73
575.516	13890.03
575.877	14078.73
576.238	14334.09
576.599	14646.62
576.96	14755.77
577.32	15001.64
577.681	15309.43
578.042	15551.46
578.403	15844.78
578.763	16157.09
579.124	16320.02
579.485	16640.24
579.845	16910.52
580.206	17247.46
580.566	17478.86
580.927	17814.45
581.287	18181.22
581.648	18474.54
582.008	18785.72
582.368	19051.02
582.728	19464.12
583.089	19767.84
583.449	20086.93
583.809	20446.92
584.169	20749.28
584.529	21129.39
584.889	21727.34
585.249	21871.06
585.609	22228.34
585.969	22732.74
586.329	23062.22
586.688	23504.69
587.048	23928.18
587.408	24343.77
587.768	24754.6
588.127	25179
588.487	25596.84
588.846	26191.85
589.206	26362.24
589.565	26841.78
589.925	27320.86
590.284	27834.52
590.643	28342.98
591.003	28758.11
591.362	29276.52
591.721	29680.35
592.08	30153.11
592.44	30726.65
592.799	31113.31
593.158	31604.14
593.517	31971.36
593.876	32563.44
594.235	32874.84
594.593	33440.48
594.952	33932.67
595.311	34223.05
595.67	34925.86
596.029	35611.49
596.387	36035.89
596.746	36546.84
597.104	36790.45
597.463	37287.83
597.822	37867.48
598.18	38163.29
598.538	38495.94
598.897	39217.05
599.255	39265.63
599.613	40284.14
599.972	40343.12
600.33	40899.94
600.688	41230.33
601.046	41719.36
601.404	42324.31
601.762	42526.57
602.12	43095.59
602.478	43426.43
602.836	43761.34
603.194	43997.04
603.552	44433.41
603.91	44646.74
604.268	45320.84
604.625	45510.89
604.983	45867.49
605.341	45982.07
605.698	46609.85
606.056	46876.73
606.413	47101.13
606.771	47562.14
607.128	47730.27
607.485	47790.61
607.843	48140.43
608.2	48527.99
608.557	48855.44
608.914	48960.97
609.272	49422.2
609.629	49535.42
609.986	49885.69
610.343	49829.42
610.7	50281.16
611.057	50560.7
611.414	50597.09
611.771	50728.61
612.127	50872.79
612.484	51040.92
612.841	51385.77
613.198	51369.04
613.554	51489.95
613.911	51868.92
614.267	51921.35
614.624	51984.17
614.98	52037.28
615.337	52433.2
615.693	52378.51
616.05	52469.13
616.406	52736.24
616.762	52720.65
617.118	52789.8
617.475	52901.89
617.831	52977.14
618.187	53200.86
618.543	53277.24
618.899	53477.69
619.255	53509.33
619.611	53526.73
619.967	53639.49
620.323	53788.42
620.678	53795.2
621.034	53769.89
621.39	53729.43
621.746	53788.87
622.101	54213.26
622.457	53894.85
622.812	54086.94
623.168	54215.75
623.523	54150.21
623.879	54300.72
624.234	54111.35
624.589	54340.27
624.945	54354.5
625.3	54454.84
625.655	54307.5
626.01	54404.67
626.365	54532.13
626.72	54495.97
627.075	54494.16
627.43	54497.1
627.785	54579.81
628.14	54634.27
628.495	54605.57
628.85	54698
629.205	54625.23
629.559	54774.6
629.914	54706.81
630.269	54702.29
630.623	54582.75
630.978	54660.48
631.332	54786.36
631.687	54834.26
632.041	54761.95
632.396	54817.32
632.75	54667.04
633.104	54804.89
633.459	54701.61
633.813	54621.39
634.167	54691.44
634.521	54696.41
634.875	54729.86
635.229	54678.56
635.583	54643.31
635.937	54608.73
636.291	54558.11
636.645	54567.38
636.999	54499.81
637.352	54560.37
637.706	54493.26
638.06	54492.35
638.413	54480.6
638.767	54480.6
639.121	54526.02
639.474	54362.64
639.828	54462.52
640.181	54397.89
640.534	54433.37
640.888	54335.29
641.241	54302.75
641.594	54368.29
641.947	54456.42
642.301	54312.92
642.654	54389.53
643.007	54441.73
643.36	54407.38
643.713	54251.68
644.066	54409.64
644.419	54205.58
644.771	54026.15
645.124	53753.61
645.477	53693.5
645.83	53595.65
646.182	53485.37
646.535	53390.69
646.888	53468.2
647.24	53368.09
647.593	53511.36
647.945	53507.07
648.298	53341.2
648.65	53255.32
649.002	53220.97
649.355	53356.79
649.707	53311.59
650.059	53451.02
650.411	53799.72
650.763	53785.03
651.115	54100.27
651.467	53967.39
651.819	54001.74
652.171	53974.4
652.523	53923.55
652.875	53933.27
653.227	53785.25
653.578	54109.99
653.93	53958.13
654.282	53803.78
654.633	53769.89
654.985	53802.65
655.337	53885.14
655.688	53806.04
656.039	53928.3
656.391	53665.71
656.742	53772.15
657.094	53819.83
657.445	53876.32
657.796	53842.2
658.147	53813.27
658.498	53755.2
658.849	53874.06
659.2	53800.62
659.551	53679.72
659.902	53808.98
660.253	53739.15
660.604	53824.35
660.955	53639.49
661.306	53777.34
661.656	53650.57
662.007	53773.95
662.358	53695.54
662.708	53735.99
663.059	53671.81
663.409	53437.24
663.76	53735.99
664.11	53750.23
664.461	53730.11
664.811	53698.48
665.161	53649.21
665.511	53537.12
665.862	53645.37
666.212	53768.08
666.562	53673.84
666.912	53666.84
667.262	53691.7
667.612	53590
667.962	53658.7
668.312	53502.32
668.662	53669.1
669.011	53625.93
669.361	53484.47
669.711	53510.68
670.06	53443.57
670.41	53523.56
670.76	53363.12
671.109	53514.75
671.459	53448.09
671.808	53404.47
672.157	53388.43
672.507	53232.5
672.856	53180.3
673.205	53229.33
673.554	53311.37
673.904	53231.59
674.253	53389.1
674.602	53315.43
674.951	52839.74
675.3	52660.54
675.649	53189.11
675.998	53084.71
676.346	53080.64
676.695	53181.65
677.044	52885.62
677.393	53041.09
677.741	53061.88
678.09	53073.18
678.438	52980.98
678.787	53013.97
679.135	52978.04
679.484	52813.75
679.832	52875.22
680.181	52704.6
680.529	52837.03
680.877	52787.31
681.225	52653.76
681.573	52872.96
681.922	52642.91
682.27	52567.21
682.618	52610.14
682.966	52602.91
683.314	52586.41
683.661	52442.91
684.009	52306.65
684.357	52262.81
684.705	52247.89
685.053	52279.08
685.4	52164.05
685.748	52012.64
686.095	52061.91
686.443	51945.75
686.79	51916.6
687.138	51869.37
687.485	51971.06
687.832	51732.88
688.18	51850.61
688.527	51654.01
688.874	51607.46
689.221	51462.83
689.568	51475.48
689.915	51328.59
690.262	51272.55
690.609	51282.95
690.956	51162.27
691.303	51092.44
691.65	51029.39
691.997	50994.37
692.344	50766.35
692.69	50734.03
693.037	50754.15
693.383	50463.08
693.73	50595.96
694.077	50270.32
694.423	50346.92
694.769	50230.09
695.116	50223.76
695.462	50129.08
695.808	49947.39
696.155	50042.3
696.501	49786.94
696.847	49742.87
697.193	49472.15
697.539	49625.81
697.885	49326.61
698.231	49196.9
698.577	49246.16
698.923	49069.67
699.269	48865.16
699.614	48821.54
699.96	48659.29
700.306	48714.43
700.651	48522.34
700.997	48415.45
701.342	48295
701.688	48264.27
702.033	48212.07
702.379	48148.56
702.724	48029.02
703.069	48067.44
703.415	47707.9
703.76	47713.77
704.105	47665.64
704.45	47567.79
704.795	47353.11
705.14	47205.31
705.485	47337.51
705.83	47087.58
706.175	47044.19
706.52	46924.19
706.865	46818.66
707.209	46814.36
707.554	46698.89
707.899	46711.77
708.243	46497.31
708.588	46472.22
708.932	46187.26
709.277	46020.48
709.621	46286.24
709.966	45971.67
710.31	46012.12
710.654	45644
710.998	45872.69
711.342	45698.46
711.687	45662.98
712.031	45517.45
712.375	45421.63
712.719	45390.22
713.063	45379.82
713.407	45442.65
713.75	45125.37
714.094	45102.32
714.438	44911.36
714.782	45030
715.125	44771.03
715.469	44937.35
715.812	44490.81
716.156	44409.91
716.499	44493.97
716.843	44477.47
717.186	44285.16
717.53	44395.67
717.873	44387.76
718.216	44376.69
718.559	44174.21
718.902	43870.94
719.246	43867.77
719.589	43874.55
719.932	43843.59
720.275	43652.86
720.617	43790.71
720.96	43574.67
721.303	43597.95
721.646	43668.46
721.989	43291.29
722.331	43503.49
722.674	43393.21
723.016	43373.55
723.359	43381.91
723.701	43243.61
724.044	43013.11
724.386	42680.69
724.729	43032.54
725.071	42956.38
725.413	42842.94
725.755	42880
726.097	42648.37
726.439	42421.26
726.782	42515.94
727.124	42728.82
727.465	42556.85
727.807	42478.66
728.149	42370.19
728.491	42347.36
728.833	42425.33
729.175	42215.16
729.516	42179.23
729.858	42116.86
730.199	42149.85
730.541	42011.55
730.882	41955.51
731.224	42139.46
731.565	41786.7
731.906	41894.27
732.248	41932.91
732.589	41741.5
732.93	41588.06
733.271	41699.92
733.612	41621.73
733.953	41834.38
734.294	41513.26
734.635	41345.81
734.976	41540.6
735.317	41345.58
735.658	41496.99
735.999	41417.44
736.339	41395.52
736.68	41309.65
737.021	41012.71
737.361	41066.72
737.702	41227.62
738.042	41118.47
738.383	41080.95
738.723	41174.96
739.063	40946.95
739.404	41046.83
739.744	40887.51
740.084	40705.82
740.424	40805.48
740.764	40692.94
741.104	40832.37
741.444	40509.67
741.784	40527.75
742.124	40686.16
742.464	40524.58
742.804	40387.64
743.143	40357.13
743.483	40395.55
743.823	40258.15
744.162	40114.43
744.502	40222.9
744.841	40213.41
745.181	40185.38
745.52	40071.71
745.86	40181.77
746.199	40044.37
746.538	40030.81
746.877	40072.84
747.216	39924.83
747.556	39925.05
747.895	39919.4
748.234	39662.91
748.573	39730.48
748.911	39617.72
749.25	39657.94
749.589	39498.4
749.928	39622.46
750.267	39533.88
750.605	39517.15
750.944	39387.21
751.283	39219.08
751.621	39324.62
751.96	39124.85
752.298	39138.86
752.636	39134.79
752.975	38865.64
753.313	38934.57
753.651	38930.95
753.989	38787.45
754.327	38832.88
754.666	38466.11
755.004	38463.17
755.342	38664.52
755.679	38549.27
756.017	38370.29
756.355	38379.78
756.693	38205.1
757.031	38247.36
757.368	37892.56
757.706	37996.06
758.044	37786.8
758.381	37789.97
758.719	37768.72
759.056	37707.03
759.394	37567.6
759.731	37365.57
760.068	37365.8
760.405	37236.31
760.743	37177.33
761.08	37167.38
761.417	36959.93
761.754	36838.35
762.091	36927.62
762.428	36738.7
762.765	36514.07
763.102	36548.64
763.438	36332.38
763.775	36209.67
764.112	36347.74
764.449	36382.77
764.785	36216.45
765.122	35996.57
765.458	35714.77
765.795	35736.01
766.131	35735.56
766.467	35468.67
766.804	35298.51
767.14	35162.01
767.476	35263.25
767.812	35119.53
768.148	35095.8
768.485	34894.45
768.821	34794.79
769.157	34632.31
769.492	34618.07
769.828	34464.4
770.164	34236.61
770.5	34188.71
770.836	34172.21
771.171	33899.9
771.507	33939.22
771.842	33630.53
772.178	33600.47
772.513	33620.36
772.849	33534.49
773.184	33222.18
773.519	33339.01
773.855	33201.61
774.19	32972.69
774.525	32927.95
774.86	32896.08
775.195	32975.86
775.53	32609.99
775.865	32402.76
776.2	32212.26
776.535	31975.88
776.87	32079.83
777.205	31971.59
777.539	31871.03
777.874	31874.42
778.209	31586.74
778.543	31506.06
778.878	31343.81
779.212	31161.44
779.547	31059.75
779.881	31242.34
780.215	30966.19
780.55	30996.25
780.884	30840.09
781.218	30713.54
781.552	30801.9
781.886	30561.23
782.22	30432.65
782.554	30245.53
782.888	30077.63
783.222	29885.09
783.556	29802.83
783.889	29840.57
784.223	29543.4
784.557	29630.18
784.89	29602.84
785.224	29448.49
785.557	29209.4
785.891	29212.57
786.224	29111.55
786.558	29089.4
786.891	28668.85
787.224	28654.39
787.557	28639.7
787.891	28564.9
788.224	28677.66
788.557	28525.35
788.89	28357.67
789.223	28373.04
789.556	28216.43
789.888	28087.85
790.221	27861.41
790.554	27736.45
790.887	27767.63
791.219	27696.22
791.552	27640.4
791.884	27488.54
792.217	27355.66
792.549	27294.2
792.882	27175.33
793.214	26970.36
793.546	26977.6
793.879	26934.66
794.211	26720.65
794.543	26797.71
794.875	26762.69
795.207	26804.27
795.539	26570.37
795.871	26472.98
796.203	26367.44
796.535	26116.83
796.867	26149.14
797.198	26097.39
797.53	25980.79
797.862	25767.01
798.193	25950.73
798.525	25755.48
798.856	25678.65
799.188	25385.77
799.519	25388.03
799.85	25312.78
800.182	25310.07
800.513	25395.26
800.844	25054.03
801.175	25153.91
801.506	25050.41
801.837	24990.08
802.168	24903.53
802.499	24834.15
802.83	24756.86
803.161	24632.57
803.491	24749.41
803.822	24645
804.153	24533.82
804.483	24297.44
804.814	24165.69
805.145	24228.29
805.475	24263.54
805.805	24084.56
806.136	24050.22
806.466	23987.62
806.796	24017.9
807.126	23825.59
807.457	23792.59
807.787	23678.02
808.117	23652.49
808.447	23527.29
808.777	23657.23
809.107	23531.36
809.436	23424.92
809.766	23357.8
810.096	23330.91
810.426	23190.58
810.755	23184.7
811.085	23125.04
811.414	23100.64
811.744	22865.39
812.073	22904.03
812.403	22865.39
812.732	22752.4
813.061	22730.93
813.39	22582.91
813.719	22561.89
814.049	22568.67
814.378	22576.13
814.707	22396.47
815.036	22480.31
815.365	22248.45
815.693	21982.25
816.022	22154.45
816.351	22005.3
816.68	21904.28
817.008	21982.47
817.337	21816.15
817.665	21782.7
817.994	21849.37
818.322	21740.67
818.651	21742.25
818.979	21621.35
819.307	21598.53
819.636	21561.69
819.964	21423.62
820.292	21467.01
820.62	21523.95
820.948	21307.24
821.276	21484.63
821.604	21504.52
821.932	21438.98
822.259	21366.9
822.587	21427.23
822.915	21303.17
823.243	21373.9
823.57	21304.75
823.898	21288.25
824.225	21201.02
824.553	21245.77
824.88	21249.61
825.207	21323.06
825.535	21314.24
825.862	21410.74
826.189	21202.83
826.516	21386.33
826.843	21455.48
827.17	21348.37
827.497	21346.78
827.824	21370.96
828.151	21359.21
828.478	21309.27
828.805	21339.1
829.131	21221.36
829.458	21264.3
829.785	21194.02
830.111	21212.78
830.438	21340.68
830.764	21227.92
831.09	21306.11
831.417	21186.56
831.743	21273.34
832.069	21168.93
832.395	21006.45
832.722	21275.15
833.048	21111.99
833.374	21123.51
833.7	21054.59
834.026	21087.36
834.351	20983.86
834.677	21078.99
835.003	21048.03
835.329	21041.25
835.654	20943.18
835.98	20883.29
836.306	20900.24
836.631	20831.32
836.956	20936.4
837.282	20964.42
837.607	20686.46
837.932	20723.07
838.258	20659.57
838.583	20682.85
838.908	20634.26
839.233	20655.5
839.558	20615.28
839.883	20524.66
840.208	20455.06
840.533	20503.87
840.858	20426.13
841.182	20444.43
841.507	20333.48
841.832	20307.26
842.156	20275.63
842.481	20185.68
842.805	20170.09
843.13	20161.96
843.454	20114.27
843.778	19982.53
844.103	19999.25
844.427	19879.25
844.751	20000.15
845.075	19837.67
845.399	19841.06
845.723	19688.07
846.047	19715.41
846.371	19607.17
846.695	19558.58
847.019	19415.76
847.343	19266.16
847.666	19264.8
847.99	19280.4
848.313	19224.58
848.637	19059.84
848.96	19059.39
849.284	19090.35
849.607	18866.4
849.931	18771.71
850.254	18762.22
850.577	18550.02
850.9	18471.83
851.223	18427.99
851.546	18368.78
851.869	18195.68
852.192	18335.56
852.515	18136.25
852.838	18116.81
853.161	18133.08
853.483	17989.36
853.806	17965.4
854.129	17882.92
854.451	17832.07
854.774	17638.41
855.096	17572.65
855.419	17591.85
855.741	17602.02
856.063	17475.25
856.385	17446.32
856.708	17304.86
857.03	17297.4
857.352	17251.52
857.674	17223.5
857.996	17207.46
858.318	17114.8
858.64	17126.33
858.961	17040.91
859.283	16980.12
859.605	16806.56
859.926	16977.41
860.248	16817.18
860.57	16744.87
860.891	16863.74
861.212	16690.86
861.534	16663.97
861.855	16602.73
862.176	16632.11
862.498	16592.33
862.819	16619.9
863.14	16466.69
863.461	16449.74
863.782	16369.97
864.103	16451.32
864.424	16435.27
864.745	16348.5
865.065	16345.33
865.386	16121.38
865.707	16261.27
866.027	16199.12
866.348	16232.34
866.668	16206.35
866.989	16082.06
867.309	16036.41
867.63	16087.94
867.95	16042.74
868.27	16030.99
868.59	16097.2
868.91	15920.26
869.23	15832.8
869.55	15753.48
869.87	15831
870.19	15857.66
870.51	15825.35
870.83	15887.94
871.15	15731.56
871.469	15773.6
871.789	15873.25
872.109	15758
872.428	15670.77
872.748	15710.77
873.067	15668.51
873.386	15706.48
873.706	15615.63
874.025	15501.51
874.344	15501.29
874.663	15495.64
874.982	15455.86
875.301	15511.91
875.62	15497.67
875.939	15445.92
876.258	15416.32
876.577	15289.32
876.896	15337.68
877.214	15224.91
877.533	15347.39
877.852	15253.84
878.17	15141.75
878.489	15217.45
878.807	15262.2
879.125	15197.11
879.444	15095.87
879.762	15112.15
880.08	15073.95
880.398	14931.58
880.716	14974.3
881.034	14912.83
881.352	14901.76
881.67	14866.73
881.988	14958.7
882.306	14814.3
882.624	14895.2
882.941	14733.62
883.259	14622.21
883.577	14588.54
883.894	14609.11
884.212	14656.11
884.529	14596.9
884.846	14567.07
885.164	14529.34
885.481	14525.04
885.798	14415.67
886.115	14321.66
886.432	14385.16
886.75	14280.3
887.067	14397.59
887.383	14208.67
887.7	14254.09
888.017	14248.89
888.334	14204.82
888.651	14237.37
888.967	14124.15
889.284	14089.8
889.6	14066.52
889.917	14000.54
890.233	13963.93
890.55	13937.03
890.866	13939.29
891.182	13834.21
891.498	13812.74
891.815	13725.74
892.131	13682.13
892.447	13685.97
892.763	13641.22
893.079	13564.62
893.395	13562.81
893.71	13473.32
894.026	13567.1
894.342	13440.32
894.657	13372.3
894.973	13362.81
895.289	13437.61
895.604	13375.02
895.92	13222.25
896.235	13226.54
896.55	13161.69
896.865	13211.18
897.181	13091.41
897.496	13025.42
897.811	12938.19
898.126	12857.97
898.441	12858.87
898.756	12868.59
899.071	12719.89
899.386	12827.46
899.7	12617.97
900.015	12666.79
900.33	12533.68
900.644	12554.02
900.959	12603.28
901.273	12423.63
901.588	12382.27
901.902	12379.34
902.216	12240.13
902.531	12259.11
902.845	12290.3
903.159	12150.19
903.473	12056.18
903.787	12008.05
904.101	12017.76
904.415	11968.72
904.729	11897.99
905.042	11861.61
905.356	11862.96
905.67	11795.4
905.984	11755.85
906.297	11794.72
906.611	11634.27
906.924	11653.7
907.237	11609.64
907.551	11489.19
907.864	11455.29
908.177	11524.44
908.491	11428.4
908.804	11378.01
909.117	11318.57
909.43	11250.1
909.743	11286.93
910.056	11213.72
910.368	11139.14
910.681	11026.38
910.994	11051.01
911.307	10909.32
911.619	10886.72
911.932	10967.62
912.244	10796.1
912.557	10823.67
912.869	10770.79
913.181	10760.85
913.494	10705.93
913.806	10572.83
914.118	10554.98
914.43	10540.29
914.742	10580.96
915.054	10444.25
915.366	10441.53
915.678	10360.41
915.99	10358.37
916.302	10240.86
916.613	10177.13
916.925	10263.23
917.236	10151.37
917.548	10093.97
917.859	10124.48
918.171	10027.53
918.482	9998.38
918.794	9962.45
919.105	9926.29
919.416	9812.85
919.727	9836.8
920.038	9813.53
920.349	9712.96
920.66	9674.32
920.971	9674.1
921.282	9666.86
921.593	9585.74
921.903	9537.38
922.214	9542.57
922.525	9459.19
922.835	9451.5
923.146	9350.26
923.456	9300.77
923.767	9322.01
924.077	9273.43
924.387	9226.88
924.697	9196.59
925.008	9073.66
925.318	9051.29
925.628	9087.9
925.938	8988.69
926.248	8895.81
926.558	8951.63
926.867	8888.58
927.177	8838.19
927.487	8814.91
927.796	8746.66
928.106	8686.33
928.416	8666.44
928.725	8704.63
929.034	8533.56
929.344	8550.28
929.653	8507.8
929.962	8487.69
930.271	8476.39
930.581	8454.69
930.89	8404.75
931.199	8320.01
931.508	8352.1
931.817	8287.24
932.125	8243.17
932.434	8235.49
932.743	8198.65
933.051	8161.14
933.36	8113.46
933.669	7991.88
933.977	7952.11
934.286	7990.98
934.594	8009.73
934.902	7959.56
935.21	7894.26
935.519	7849.29
935.827	7861.04
936.135	7777.42
936.443	7743.75
936.751	7626.69
937.059	7689.52
937.367	7574.72
937.674	7605.9
937.982	7570.42
938.29	7533.81
938.597	7564.09
938.905	7456.53
939.213	7415.85
939.52	7374.27
939.827	7348.28
940.135	7333.14
940.442	7260.6
940.749	7283.65
941.056	7300.6
941.363	7235.29
941.67	7165.69
941.977	7147.38
942.284	7153.71
942.591	7103.09
942.898	7080.27
943.205	7058.12
943.511	6984
943.818	6973.6
944.125	6920.5
944.431	6950.33
944.738	6863.32
945.044	6851.12
945.35	6848.86
945.657	6791.69
945.963	6754.62
946.269	6737
946.575	6708.75
946.881	6671.46
947.187	6664.91
947.493	6595.98
947.799	6571.13
948.105	6539.49
948.41	6544.91
948.716	6484.35
949.022	6471.02
949.327	6490.45
949.633	6395.99
949.938	6395.54
950.244	6358.02
950.549	6254.3
950.854	6308.31
951.16	6273.51
951.465	6233.96
951.77	6197.13
952.075	6169.1
952.38	6168.2
952.685	6130.23
952.99	6078.71
953.294	6087.3
953.599	6002.55
953.904	6031.71
954.209	5991.03
954.513	5962.78
954.818	5931.82
955.122	5927.98
955.426	5902.22
955.731	5826.97
956.035	5767.31
956.339	5782.22
956.643	5796.46
956.948	5763.01
957.252	5770.92
957.556	5723.24
957.86	5650.02
958.163	5680.3
958.467	5589.46
958.771	5603.92
959.075	5584.26
959.378	5585.84
959.682	5522.57
959.985	5555.11
960.289	5509.69
960.592	5454.77
960.896	5451.61
961.199	5413.64
961.502	5365.73
961.805	5337.49
962.108	5325.96
962.411	5348.11
962.714	5275.57
963.017	5304.95
963.32	5245.29
963.623	5263.36
963.926	5223.82
964.228	5166.42
964.531	5167.32
964.833	5117.38
965.136	5105.4
965.438	5124.39
965.741	5089.36
966.043	4999.64
966.345	4998.74
966.648	5024.73
966.95	4981.34
967.252	4922.36
967.554	4924.16
967.856	4939.31
968.158	4836.93
968.46	4810.95
968.761	4836.48
969.063	4787.22
969.365	4808.01
969.666	4788.35
969.968	4749.03
970.269	4714
970.571	4716.03
970.872	4678.52
971.174	4651.4
971.475	4637.39
971.776	4581.57
972.077	4604.62
972.378	4573.44
972.679	4568.02
972.98	4546.32
973.281	4467.68
973.582	4524.85
973.883	4451.86
974.183	4474.68
974.484	4445.53
974.785	4410.73
975.085	4427.23
975.386	4363.95
975.686	4404.86
975.986	4368.47
976.287	4329.6
976.587	4323.73
976.887	4238.53
977.187	4260.23
977.487	4251.19
977.787	4221.13
978.087	4187.46
978.387	4189.95
978.687	4139.33
978.987	4172.32
979.286	4129.61
979.586	4116.95
979.885	4054.58
980.185	4133
980.484	4013
980.784	4008.71
981.083	4029.95
981.382	4016.62
981.682	3974.13
981.981	3958.99
982.28	3942.95
982.579	3914.47
982.878	3927.13
983.177	3904.76
983.475	3889.39
983.774	3854.14
984.073	3837.41
984.372	3787.7
984.67	3828.6
984.969	3788.6
985.267	3797.87
985.566	3776.4
985.864	3774.59
986.162	3709.51
986.461	3734.82
986.759	3654.37
987.057	3651.43
987.355	3648.49
987.653	3675.38
987.951	3564.2
988.249	3591.09
988.547	3584.54
988.844	3576.86
989.142	3592.22
989.44	3506.12
989.737	3526.46
990.035	3462.28
990.332	3464.09
990.63	3485.11
990.927	3443.98
991.224	3459.12
991.521	3410.08
991.819	3401.72
992.116	3420.7
992.413	3386.13
992.71	3355.62
993.006	3324.66
993.303	3303.87
993.6	3333.02
993.897	3300.25
994.193	3299.57
994.49	3272.68
994.787	3241.95
995.083	3213.47
995.379	3170.99
995.676	3226.36
995.972	3170.76
996.268	3195.17
996.565	3155.85
996.861	3124.89
997.157	3122.86
997.453	3090.77
997.749	3093.7
998.044	3043.99
998.34	3039.69
998.636	3036.76
998.932	3016.42
999.227	3000.15
999.523	2991.33
999.818	2944.56
1000.114	2924.67
1000.409	2924.22
1000.704	2897.32
1001	2903.65
1001.295	2864.56
1001.59	2886.03
1001.885	2862.75
1002.18	2787.95
1002.475	2819.13
1002.77	2775.29
1003.065	2772.81
1003.359	2735.07
1003.654	2762.87
1003.949	2731.23
1004.243	2761.51
1004.538	2708.4
1004.832	2685.58
1005.127	2672.92
1005.421	2667.5
1005.715	2640.61
1006.009	2630.67
1006.304	2574.85
1006.598	2549.54
1006.892	2582.3
1007.186	2561.97
1007.48	2568.75
1007.773	2553.61
1008.067	2504.79
1008.361	2499.6
1008.655	2497.34
1008.948	2490.33
1009.242	2473.38
1009.535	2445.81
1009.829	2447.85
1010.122	2412.37
1010.415	2406.72
1010.708	2374.4
1011.001	2367.62
1011.295	2338.47
1011.588	2333.95
1011.881	2304.8
1012.173	2316.55
1012.466	2294.85
1012.759	2297.34
1013.052	2317.91
1013.344	2291.01
1013.637	2253.27
1013.93	2223.44
1014.222	2173.28
1014.514	2176.89
1014.807	2209.21
1015.099	2169.21
1015.391	2163.56
1015.683	2131.02
1015.976	2137.8
1016.268	2125.14
1016.56	2117.91
1016.851	2089.66
1017.143	2075.2
1017.435	2027.07
1017.727	2048.76
1018.018	2050.34
1018.31	1999.04
1018.602	2008.31
1018.893	1980.74
1019.185	2003.79
1019.476	1992.72
1019.767	1946.39
1020.058	1981.64
1020.35	1951.59
1020.641	1912.49
1020.932	1907.75
1021.223	1881.31
1021.514	1875.66
1021.804	1835.21
1022.095	1845.83
1022.386	1841.08
1022.677	1823.23
1022.967	1834.53
1023.258	1794.98
1023.548	1821.65
1023.839	1807.41
1024.129	1773.74
1024.419	1784.81
1024.709	1747.3
1025	1736.23
1025.29	1714.76
1025.58	1714.08
1025.87	1698.26
1026.16	1657.36
1026.449	1701.2
1026.739	1666.4
1027.029	1654.65
1027.319	1640.86
1027.608	1634.53
1027.898	1619.62
1028.187	1625.95
1028.477	1607.42
1028.766	1581.65
1029.055	1587.53
1029.344	1555.21
1029.634	1521.77
1029.923	1521.54
1030.212	1540.3
1030.501	1515.44
1030.79	1499.4
1031.078	1481.54
1031.367	1483.8
1031.656	1465.27
1031.945	1466.4
1032.233	1452.62
1032.522	1452.17
1032.81	1479.06
1033.099	1416.69
1033.387	1380.3
1033.675	1385.95
1033.963	1391.83
1034.251	1383.69
1034.54	1375.78
1034.828	1376.69
1035.116	1363.13
1035.403	1349.12
1035.691	1316.8
1035.979	1312.28
1036.267	1282.68
1036.554	1303.47
1036.842	1287.65
1037.129	1282.68
1037.417	1271.83
1037.704	1249.68
1037.992	1274.32
1038.279	1285.16
1038.566	1218.95
1038.853	1218.95
1039.14	1218.95
