Data from orange_diffuse_book_FLMS001491_00011.txt Node
Date: Wed Feb 08 15:29:11 GMT 2017
User: dcchb
Spectrometer: FLMS00149
Trigger mode: 0
Integration Time (sec): 2.000000E-2
Scans to average: 10
Electric dark correction enabled: true
Nonlinearity correction enabled: false
Boxcar width: 0
XAxis mode: Wavelengths
Number of Pixels in Spectrum: 2048
>>>>>Begin Spectral Data<<<<<
341.393	-10.37
341.776	-10.37
342.16	-10.37
342.543	-60.76
342.927	-84.94
343.31	-80.65
343.693	-73.87
344.077	-53.53
344.46	-61.21
344.843	-60.08
345.226	-51.95
345.61	-41.1
345.993	-23.02
346.376	7.03
346.759	4.55
347.142	41.84
347.525	36.19
347.908	49.74
348.291	93.59
348.674	100.82
349.057	111.66
349.44	113.47
349.823	141.95
350.206	161.61
350.588	191.66
350.971	198.44
351.354	237.08
351.737	246.58
352.119	268.27
352.502	271.66
352.884	291.77
353.267	301.04
353.65	317.76
354.032	321.38
354.414	317.99
354.797	301.49
355.179	335.61
355.562	334.93
355.944	328.61
356.326	343.75
356.709	326.35
357.091	368.15
357.473	350.08
357.855	345.56
358.238	350.08
358.62	348.49
359.002	380.81
359.384	366.35
359.766	378.1
360.148	365.22
360.53	370.64
360.912	347.59
361.294	360.92
361.676	342.62
362.057	350.08
362.439	344.88
362.821	353.92
363.203	338.78
363.584	313.24
363.966	331.77
364.348	317.53
364.729	343.75
365.111	320.7
365.493	323.18
365.874	317.08
366.256	320.02
366.637	327.93
367.019	329.06
367.4	339.68
367.781	327.93
368.163	320.47
368.544	311.88
368.925	320.47
369.306	320.47
369.688	334.03
370.069	315.73
370.45	306.01
370.831	314.6
371.212	313.01
371.593	310.3
371.974	327.03
372.355	310.75
372.736	312.56
373.117	327.7
373.498	324.99
373.879	319.12
374.26	329.29
374.641	313.24
375.021	329.06
375.402	334.03
375.783	352.11
376.163	334.71
376.544	340.13
376.925	381.04
377.305	339
377.686	357.31
378.066	336.52
378.447	319.57
378.827	336.06
379.208	333.35
379.588	336.52
379.968	349.85
380.349	330.42
380.729	331.54
381.109	350.53
381.489	358.89
381.87	328.61
382.25	352.56
382.63	341.26
383.01	356.4
383.39	360.02
383.77	348.04
384.15	356.86
384.53	355.27
384.91	354.82
385.29	364.54
385.67	356.18
386.049	358.21
386.429	346.23
386.809	346.01
387.189	372.22
387.568	344.2
387.948	369.28
388.328	362.96
388.707	362.05
389.087	380.81
389.466	367.93
389.846	378.55
390.225	380.13
390.605	370.19
390.984	390.75
391.363	362.96
391.743	361.15
392.122	403.41
392.501	394.37
392.881	383.3
393.26	393.46
393.639	392.56
394.018	375.39
394.397	404.54
394.776	389.62
395.155	404.54
395.534	380.81
395.913	409.96
396.292	394.14
396.671	400.47
397.05	393.24
397.429	394.59
397.808	398.89
398.186	394.14
398.565	414.03
398.944	392.11
399.323	406.12
399.701	430.98
400.08	388.49
400.458	424.2
400.837	417.64
401.215	407.48
401.594	411.54
401.972	414.71
402.351	419.45
402.729	411.77
403.107	412.67
403.486	433.01
403.864	431.66
404.242	433.69
404.62	427.36
404.999	448.38
405.377	431.88
405.755	416.97
406.133	436.63
406.511	441.37
406.889	446.8
407.267	434.14
407.645	449.28
408.023	453.8
408.401	453.58
408.779	460.81
409.156	455.61
409.534	453.12
409.912	484.76
410.29	470.07
410.667	459.23
411.045	473.69
411.422	461.03
411.8	506
412.178	469.85
412.555	479.56
412.933	499.45
413.31	473.46
413.687	504.65
414.065	497.42
414.442	509.17
414.819	511.88
415.197	492.9
415.574	523.4
415.951	516.17
416.328	534.25
416.705	534.93
417.082	520.69
417.46	519.11
417.837	528.6
418.214	504.2
418.591	525.89
418.967	544.19
419.344	550.97
419.721	564.31
420.098	548.26
420.475	530.18
420.852	565.66
421.228	555.49
421.605	552.56
421.982	559.56
422.358	562.27
422.735	567.02
423.111	575.61
423.488	567.02
423.864	584.87
424.241	592.56
424.617	609.73
424.994	578.54
425.37	590.52
425.746	591.65
426.123	588.71
426.499	602.05
426.875	608.15
427.251	606.11
427.627	625.1
428.003	629.84
428.379	633.01
428.756	649.28
429.132	634.81
429.507	628.94
429.883	629.16
430.259	652.21
430.635	680.46
431.011	644.31
431.387	687.47
431.763	678.43
432.138	670.75
432.514	696.06
432.89	699.22
433.265	697.19
433.641	701.03
434.016	687.24
434.392	748.94
434.767	703.29
435.143	710.97
435.518	741.25
435.894	720.69
436.269	725.21
436.644	758.88
437.02	747.13
437.395	766.34
437.77	769.05
438.145	765.66
438.52	787.35
438.895	796.17
439.271	776.51
439.646	801.59
440.021	798.65
440.395	799.1
440.77	801.14
441.145	805.66
441.52	817.18
441.895	801.14
442.27	795.94
442.645	815.37
443.019	831.87
443.394	834.81
443.769	816.96
444.143	817.63
444.518	844.3
444.892	845.88
445.267	875.03
445.641	857.18
446.016	858.31
446.39	868.03
446.764	847.92
447.139	856.28
447.513	875.71
447.887	865.09
448.262	874.58
448.636	912.32
449.01	901.02
449.384	905.77
449.758	895.15
450.132	904.19
450.506	898.99
450.88	916.39
451.254	904.19
451.628	920.91
452.002	934.69
452.376	963.62
452.75	953.9
453.123	958.42
453.497	949.38
453.871	990.28
454.244	976.73
454.618	986.22
454.992	997.06
455.365	989.38
455.739	986.44
456.112	1025.76
456.486	1006.56
456.859	1000.91
457.232	1047.68
457.606	1029.38
457.979	1036.61
458.352	1059.21
458.725	1056.05
459.099	1035.71
459.472	1106.21
459.845	1078.42
460.218	1084.75
460.591	1106.89
460.964	1096.72
461.337	1124.97
461.71	1137.17
462.083	1150.28
462.456	1146.21
462.829	1152.99
463.201	1169.94
463.574	1165.87
463.947	1164.74
464.32	1167.91
464.692	1214.23
465.065	1184.86
465.438	1196.38
465.81	1218.08
466.183	1251.75
466.555	1269.6
466.928	1244.52
467.3	1253.55
467.672	1245.42
468.045	1322.93
468.417	1322.93
468.789	1321.12
469.161	1294.46
469.534	1332.2
469.906	1357.96
470.278	1333.78
470.65	1376.04
471.022	1379.2
471.394	1407
471.766	1425.53
472.138	1391.4
472.51	1451.74
472.882	1471.4
473.253	1474.34
473.625	1505.75
473.997	1521.34
474.369	1552.3
474.74	1553.21
475.112	1560.21
475.484	1574.9
475.855	1617.61
476.227	1650.61
476.598	1655.58
476.97	1646.54
477.341	1697.84
477.713	1696.25
478.084	1685.86
478.455	1741.68
478.827	1773.77
479.198	1818.51
479.569	1811.28
479.94	1840.43
480.311	1868.68
480.682	1905.74
481.053	1941.22
481.424	1938.06
481.795	1995.91
482.166	2031.61
482.537	2030.26
482.908	2045.4
483.279	2092.4
483.65	2131.72
484.021	2166.3
484.391	2181.44
484.762	2206.98
485.133	2243.36
485.503	2241.33
485.874	2274.54
486.244	2336.46
486.615	2359.97
486.985	2388.67
487.356	2435.22
487.726	2471.6
488.097	2503.47
488.467	2521.77
488.837	2569.23
489.207	2610.36
489.578	2644.03
489.948	2667.98
490.318	2716.12
490.688	2729.67
491.058	2752.05
491.428	2853.74
491.798	2841.54
492.168	2919.73
492.538	2886.05
492.908	2968.09
493.278	2952.27
493.648	2998.82
494.017	3041.76
494.387	3092.15
494.757	3100.96
495.126	3162.88
495.496	3155.2
495.866	3214.63
496.235	3235.88
496.605	3265.03
496.974	3318.59
497.344	3352.71
497.713	3372.59
498.082	3382.99
498.452	3465.02
498.821	3488.75
499.19	3469.09
499.559	3516.32
499.928	3589.54
500.298	3560.39
500.667	3622.98
501.036	3615.98
501.405	3665.24
501.774	3674.51
502.143	3709.08
502.512	3725.58
502.88	3802.19
503.249	3780.95
503.618	3822.3
503.987	3855.29
504.356	3892.81
504.724	3891.68
505.093	3968.96
505.462	3941.17
505.83	3968.06
506.199	3954.73
506.567	4080.82
506.936	4032.69
507.304	4123.76
507.672	4173.93
508.041	4151.56
508.409	4166.02
508.777	4210.31
509.145	4299.12
509.514	4277.66
509.882	4330.54
510.25	4334.6
510.618	4346.58
510.986	4345.68
511.354	4427.71
511.722	4489.63
512.09	4518.33
512.458	4475.84
512.826	4530.53
513.193	4592
513.561	4624.77
513.929	4606.23
514.297	4690.98
514.664	4688.04
515.032	4730.07
515.4	4775.27
515.767	4766.68
516.135	4821.82
516.502	4801.71
516.869	4902.05
517.237	4936.85
517.604	4959.22
517.972	5005.32
518.339	5037.18
518.706	5046.68
519.073	5065.21
519.44	5026.56
519.808	5141.59
520.175	5144.53
520.542	5166.9
520.909	5280.79
521.276	5284.64
521.643	5320.57
522.009	5325.99
522.376	5353.79
522.743	5389.49
523.11	5525.53
523.477	5525.76
523.843	5549.94
524.21	5600.11
524.577	5654.57
524.943	5647.34
525.31	5682.59
525.676	5743.61
526.043	5749.48
526.409	5813.43
526.776	5834.9
527.142	5840.78
527.508	5886.88
527.874	5944.96
528.241	5968.68
528.607	5982.7
528.973	6048.91
529.339	6061.56
529.705	6102.24
530.071	6157.83
530.437	6227.44
530.803	6232.63
531.169	6219.07
531.535	6210.94
531.901	6200.32
532.267	6282.12
532.632	6302.91
532.998	6312.18
533.364	6317.15
533.73	6399.18
534.095	6476.92
534.461	6472.63
534.826	6507.65
535.192	6532.51
535.557	6638.95
535.923	6569.35
536.288	6638.27
536.653	6663.13
537.019	6621.1
537.384	6674.2
537.749	6724.37
538.114	6766.18
538.479	6730.92
538.845	6775.44
539.21	6760.53
539.575	6844.59
539.94	6847.76
540.305	6901.09
540.67	6902.45
541.034	6943.12
541.399	7007.75
541.764	6989
542.129	7029
542.494	7097.92
542.858	7085.72
543.223	7186.51
543.587	7184.25
543.952	7176.79
544.316	7227.18
544.681	7292.94
545.045	7226.96
545.41	7304.24
545.774	7383.79
546.138	7391.7
546.503	7440.74
546.867	7440.51
547.231	7490.9
547.595	7564.58
547.959	7538.59
548.324	7606.38
548.688	7570.68
549.052	7612.71
549.416	7714.4
549.779	7736.32
550.143	7792.59
550.507	7834.4
550.871	7819.26
551.235	7867.84
551.599	7946.71
551.962	7961.85
552.326	7961.63
552.689	8052.7
553.053	8091.34
553.417	8051.34
553.78	8254.05
554.143	8200.94
554.507	8249.98
554.87	8305.35
555.234	8405.23
555.597	8389.64
555.96	8464.21
556.323	8546.7
556.686	8497.88
557.05	8705.56
557.413	8658.11
557.776	8692.23
558.139	8842.06
558.502	8785.79
558.865	8919.12
559.228	8977.87
559.59	9035.72
559.953	9107.13
560.316	9259.45
560.679	9275.72
561.041	9343.96
561.404	9398.65
561.767	9541.92
562.129	9458.76
562.492	9677.97
562.854	9750.28
563.217	9718.87
563.579	9821.92
563.941	9965.42
564.304	10036.15
564.666	10038.18
565.028	10164.05
565.39	10307.55
565.753	10446.99
566.115	10471.84
566.477	10649.24
566.839	10711.84
567.201	10807.88
567.563	10834.32
567.925	11125.39
568.287	11097.36
568.648	11217.13
569.01	11326.51
569.372	11545.71
569.734	11590.01
570.095	11755.88
570.457	11939.83
570.819	12113.83
571.18	12147.96
571.542	12362.64
571.903	12491.68
572.265	12700.03
572.626	12797.43
572.987	12961.95
573.349	13084.43
573.71	13270.19
574.071	13494.14
574.432	13680.35
574.794	14013.45
575.155	14042.14
575.516	14241.01
575.877	14466.77
576.238	14728.23
576.599	14954.44
576.96	15177.71
577.32	15325.05
577.681	15560.98
578.042	15802.78
578.403	15958.25
578.763	16327.06
579.124	16621.06
579.485	16899.92
579.845	17199.35
580.206	17514.6
580.566	17870.07
580.927	18052.43
581.287	18417.17
581.648	18575.13
582.008	19051.73
582.368	19390.25
582.728	19652.39
583.089	19837.7
583.449	20280.17
583.809	20649.2
584.169	21021.17
584.529	21288.51
584.889	21920.13
585.249	22024.31
585.609	22486.89
585.969	22877.39
586.329	23231.28
586.688	23709.91
587.048	23990.81
587.408	24355.09
587.768	24852.48
588.127	25200.5
588.487	25585.34
588.846	26274.14
589.206	26494.47
589.565	26954.57
589.925	27513.2
590.284	27860.76
590.643	28275.44
591.003	28845.6
591.362	29329.65
591.721	29832.46
592.08	30162.4
592.44	30708.15
592.799	31218.87
593.158	31574.79
593.517	32029.02
593.876	32563.47
594.235	33013.4
594.593	33535.19
594.952	34002.75
595.311	34421.72
595.67	34775.84
596.029	35531.75
596.387	35950.95
596.746	36476.36
597.104	36614.88
597.463	37091.48
597.822	37755.42
598.18	38156.54
598.538	38390.88
598.897	39163.07
599.255	39183.4
599.613	40155.13
599.972	40375.46
600.33	40760.31
600.688	41076.46
601.046	41684.58
601.404	42045.48
601.762	42404.11
602.12	43021.5
602.478	43204.77
602.836	43668.03
603.194	43767.69
603.552	44263.5
603.91	44554.11
604.268	45197.03
604.625	45221.89
604.983	45769.67
605.341	45935.09
605.698	46399.49
606.056	46650.78
606.413	46911.56
606.771	47323.98
607.128	47582.73
607.485	47681.03
607.843	47906.11
608.2	48309.04
608.557	48691.18
608.914	48714.68
609.272	49069.47
609.629	49441.89
609.986	49615.22
610.343	49743.58
610.7	50074.19
611.057	50189.67
611.414	50401.41
611.771	50468.76
612.127	50870.56
612.484	50946.94
612.841	51078.91
613.198	51145.58
613.554	51343.31
613.911	51635.73
614.267	51667.37
614.624	51739.68
614.98	51924.76
615.337	52150.52
615.693	52220.35
616.05	52214.02
616.406	52535.37
616.762	52523.62
617.118	52503.96
617.475	52722.03
617.831	52876.38
618.187	52920.67
618.543	53063.72
618.899	53209.7
619.255	53309.36
619.611	53398.17
619.967	53482.46
620.323	53582.12
620.678	53502.58
621.034	53469.36
621.39	53563.14
621.746	53564.5
622.101	53967.42
622.457	53694.66
622.812	53871.15
623.168	53922.45
623.523	54065.95
623.879	54168.32
624.234	53883.36
624.589	54149.34
624.945	54201.99
625.3	54221.2
625.655	54193.41
626.01	54224.37
626.365	54205.83
626.72	54312.27
627.075	54327.87
627.43	54369.45
627.785	54330.8
628.14	54512.95
628.495	54552.94
628.85	54564.24
629.205	54405.15
629.559	54581.87
629.914	54406.06
630.269	54569.21
630.623	54504.36
630.978	54442.89
631.332	54531.48
631.687	54553.62
632.041	54512.49
632.396	54580.29
632.75	54460.97
633.104	54491.25
633.459	54290.58
633.813	54472.72
634.167	54458.48
634.521	54406.06
634.875	54462.55
635.229	54499.61
635.583	54335.1
635.937	54413.96
636.291	54306.62
636.645	54401.31
636.999	54313.18
637.352	54403.34
637.706	54213.97
638.06	54338.71
638.413	54221.43
638.767	54194.31
639.121	54335.77
639.474	54157.93
639.828	54240.18
640.181	54189.56
640.534	54218.49
640.888	54215.78
641.241	54056.69
641.594	54161.99
641.947	54259.84
642.301	54167.64
642.654	54141.88
643.007	54163.35
643.36	54225.72
643.713	54087.19
644.066	54137.59
644.419	53957.93
644.771	53798.16
645.124	53572.63
645.477	53529.47
645.83	53324.28
646.182	53202.25
646.535	53277.27
646.888	53339.19
647.24	53152.08
647.593	53298.97
647.945	53221.23
648.298	53081.34
648.65	53038.86
649.002	53030.27
649.355	53122.47
649.707	53091.97
650.059	53206.76
650.411	53595.46
650.763	53598.62
651.115	53887.88
651.467	53714.1
651.819	53860.08
652.171	53712.06
652.523	53698.5
652.875	53723.59
653.227	53616.02
653.578	53810.59
653.93	53752.29
654.282	53589.81
654.633	53593.42
654.985	53635.45
655.337	53704.6
655.688	53590.71
656.039	53735.56
656.391	53523.14
656.742	53575.57
657.094	53558.62
657.445	53764.04
657.796	53668.22
658.147	53603.59
658.498	53579.41
658.849	53632.29
659.2	53576.92
659.551	53460.77
659.902	53725.85
660.253	53558.39
660.604	53559.98
660.955	53457.61
661.306	53570.37
661.656	53555.23
662.007	53535.12
662.358	53537.15
662.708	53410.15
663.059	53496.7
663.409	53341.22
663.76	53539.86
664.11	53491.96
664.461	53546.64
664.811	53559.75
665.161	53532.86
665.511	53441.56
665.862	53387.55
666.212	53456.7
666.562	53477.04
666.912	53436.59
667.262	53395.23
667.612	53322.69
667.962	53418.51
668.312	53377.61
668.662	53373.09
669.011	53497.38
669.361	53399.3
669.711	53353.2
670.06	53284.5
670.41	53174.45
670.76	53180.78
671.109	53312.52
671.459	53235.92
671.808	53179.65
672.157	53289.47
672.507	53029.37
672.856	53033.66
673.205	53112.3
673.554	53181.23
673.904	53035.02
674.253	53218.06
674.602	53111.85
674.951	52632.54
675.3	52425.77
675.649	52995.02
675.998	52923.61
676.346	52931.07
676.695	53031.4
677.044	52680
677.393	52864.4
677.741	52863.5
678.09	52824.85
678.438	52733.1
678.787	52810.17
679.135	52826.89
679.484	52556.39
679.832	52751.41
680.181	52534.47
680.529	52658.3
680.877	52533.56
681.225	52524.52
681.573	52738.3
681.922	52369.95
682.27	52311.42
682.618	52360.23
682.966	52334.7
683.314	52408.14
683.661	52226.23
684.009	52086.12
684.357	52150.97
684.705	52100.13
685.053	52046.57
685.4	51922.28
685.748	51807.93
686.095	51869.85
686.443	51809.51
686.79	51703.08
687.138	51869.62
687.485	51740.81
687.832	51601.61
688.18	51612.68
688.527	51375.63
688.874	51532.91
689.221	51322.29
689.568	51177.67
689.915	51129.53
690.262	51142.64
690.609	51020.83
690.956	51034.84
691.303	50956.43
691.65	50718.02
691.997	50680.96
692.344	50492.94
692.69	50496.33
693.037	50536.78
693.383	50193.51
693.73	50440.96
694.077	50339.04
694.423	50156.22
694.769	50124.81
695.116	49929.79
695.462	49967.98
695.808	49768.21
696.155	49907.19
696.501	49729.12
696.847	49600.08
697.193	49286.19
697.539	49620.42
697.885	49200.54
698.231	49075.12
698.577	49150.83
698.923	48982.92
699.269	48671.06
699.614	48631.74
699.96	48535.7
700.306	48566.89
700.651	48414.8
700.997	48233.34
701.342	48175.03
701.688	48113.11
702.033	47964.87
702.379	48006.45
702.724	47817.08
703.069	47888.49
703.415	47451.66
703.76	47590.42
704.105	47457.76
704.45	47363.08
704.795	47213.48
705.14	47055.97
705.485	47062.07
705.83	46727.61
706.175	46893.94
706.52	46714.73
706.865	46537.34
707.209	46423.21
707.554	46451.24
707.899	46460.28
708.243	46291.92
708.588	46136.89
708.932	45831.82
709.277	45856.45
709.621	45925.83
709.966	45701.2
710.31	45791.59
710.654	45405.16
710.998	45550.02
711.342	45550.47
711.687	45439.51
712.031	45184.6
712.375	44980.31
712.719	44997.04
713.063	45083.36
713.407	45141.67
713.75	44876.14
714.094	44869.81
714.438	44695.12
714.782	44724.28
715.125	44442.93
715.469	44556.14
715.812	44426.43
716.156	44198.19
716.499	44301.69
716.843	44166.1
717.186	44123.84
717.53	44215.59
717.873	44232.99
718.216	43952.09
718.559	43854.69
718.902	43535.61
719.246	43725.66
719.589	43613.8
719.932	43534.7
720.275	43524.08
720.617	43467.59
720.96	43428.26
721.303	43382.39
721.646	43313.24
721.989	43033.7
722.331	43346.46
722.674	43114.37
723.016	43151.44
723.359	43018.33
723.701	43004.55
724.044	42639.13
724.386	42627.83
724.729	42962.51
725.071	42668.74
725.413	42763.88
725.755	42753.48
726.097	42441.4
726.439	42175.42
726.782	42434.39
727.124	42631.45
727.465	42329.99
727.807	42314.62
728.149	42381.74
728.491	42125.02
728.833	42096.55
729.175	42061.3
729.516	42003.22
729.858	41965.48
730.199	41997.79
730.541	41886.84
730.882	42025.36
731.224	42123.89
731.565	41669.44
731.906	41854.97
732.248	41733.39
732.589	41516.22
732.93	41521.42
733.271	41470.12
733.612	41554.42
733.953	41510.58
734.294	41396.23
734.635	41256.34
734.976	41360.97
735.317	41306.29
735.658	41154.2
735.999	41224.71
736.339	41104.03
736.68	41208.21
737.021	41052.51
737.361	40894.55
737.702	41066.97
738.042	41021.77
738.383	40890.25
738.723	40943.36
739.063	40784.27
739.404	40767.54
739.744	40730.93
740.084	40580.43
740.424	40579.53
740.764	40556.25
741.104	40727.09
741.444	40254.11
741.784	40334.79
742.124	40461.79
742.464	40459.76
742.804	40321.45
743.143	40152.87
743.483	40361.45
743.823	40088.92
744.162	40085.75
744.502	40169.59
744.841	40048.69
745.181	40224.51
745.52	40014.57
745.86	39957.85
746.199	40026.09
746.538	39891.41
746.877	40046.88
747.216	39836.04
747.556	39848.7
747.895	39766.44
748.234	39628.36
748.573	39608.93
748.911	39438.31
749.25	39580.23
749.589	39298.66
749.928	39442.38
750.267	39531.19
750.605	39367.58
750.944	39319.67
751.283	39150.19
751.621	39262.72
751.96	38887.14
752.298	39014.37
752.636	38934.82
752.975	38846.24
753.313	38746.81
753.651	38878.33
753.989	38667.03
754.327	38514.5
754.666	38386.36
755.004	38483.99
755.342	38430.2
755.679	38342.07
756.017	38177.56
756.355	38222.53
756.693	38038.8
757.031	38080.83
757.368	37846.04
757.706	37995.41
758.044	37739.6
758.381	37727.85
758.719	37619.15
759.056	37594.29
759.394	37457.35
759.731	37270.46
760.068	37202.21
760.405	37209.45
760.743	36884.71
761.08	37024.37
761.417	36893.07
761.754	36834.09
762.091	36853.3
762.428	36591.38
762.765	36441.56
763.102	36448.11
763.438	36367.21
763.775	36039.31
764.112	36198.17
764.449	36303.03
764.785	36019.65
765.122	35863.72
765.458	35691.97
765.795	35683.16
766.131	35553.44
766.467	35483.39
766.804	35302.15
767.14	35104.64
767.476	35144.41
767.812	34840.69
768.148	34919.34
768.485	34768.83
768.821	34712.56
769.157	34551.21
769.492	34533.36
769.828	34317.32
770.164	34130.2
770.5	34110.32
770.836	34197.77
771.171	33884.11
771.507	33888.18
771.842	33552.37
772.178	33625.36
772.513	33565.93
772.849	33412.71
773.184	33285.03
773.519	33217.23
773.855	33063.57
774.19	32891.14
774.525	32847.3
774.86	32852.27
775.195	32676.91
775.53	32577.02
775.865	32407.09
776.2	32227.88
776.535	31915.57
776.87	31997.15
777.205	31942.69
777.539	31709.93
777.874	31816.37
778.209	31512.42
778.543	31403.95
778.878	31336.61
779.212	31296.61
779.547	31123.28
779.881	31161.92
780.215	30954.02
780.55	30975.71
780.884	30808.26
781.218	30671.76
781.552	30581.37
781.886	30414.6
782.22	30256.41
782.554	30152.68
782.888	29947.94
783.222	29898.68
783.556	29794.95
783.889	29730.32
784.223	29512.25
784.557	29411.91
784.89	29539.82
785.224	29341.86
785.557	29208.53
785.891	29087.4
786.224	29021.64
786.558	29046.04
786.891	28758.82
787.224	28668.2
787.557	28479.51
787.891	28565.15
788.224	28442.22
788.557	28495.1
788.89	28427.76
789.223	28372.39
789.556	28011.72
789.888	28018.27
790.221	27904.38
790.554	27639.53
790.887	27740.32
791.219	27533.32
791.552	27462.58
791.884	27440.21
792.217	27266.2
792.549	27148.92
792.882	26889.94
793.214	26919.77
793.546	26944.4
793.879	26747.8
794.211	26724.98
794.543	26784.18
794.875	26627.12
795.207	26695.37
795.539	26401.37
795.871	26489.28
796.203	26245.44
796.535	26035.5
796.867	26064.88
797.198	26019.01
797.53	25983.07
797.862	25906.24
798.193	25845.45
798.525	25622.18
798.856	25589.86
799.188	25367.72
799.519	25349.64
799.85	25229.87
800.182	25267.16
800.513	25344.9
800.844	25067.84
801.175	25142.42
801.506	25046.38
801.837	24936.77
802.168	24837.12
802.499	24797.57
802.83	24688.87
803.161	24548.76
803.491	24591.92
803.822	24480.74
804.153	24443.91
804.483	24214.76
804.814	24202.56
805.145	24196.68
805.475	24150.58
805.805	23961.88
806.136	24018.61
806.466	23923.24
806.796	23952.62
807.126	23753.53
807.457	23633.31
807.787	23689.35
808.117	23574.1
808.447	23531.84
808.777	23653.19
809.107	23422.01
809.436	23420.88
809.766	23395.12
810.096	23220.21
810.426	23203.26
810.755	23124.62
811.085	23066.09
811.414	23042.81
811.744	22829.71
812.073	22816.15
812.403	22822.25
812.732	22741.35
813.061	22709.49
813.39	22511.3
813.719	22464.75
814.049	22674.69
814.378	22469.95
814.707	22339.78
815.036	22407.12
815.365	22132.1
815.693	22044.19
816.022	22017.75
816.351	21971.43
816.68	21919
817.008	21949.96
817.337	21743.64
817.665	21711.55
817.994	21684.88
818.322	21714.94
818.651	21638.56
818.979	21438.11
819.307	21600.59
819.636	21536.41
819.964	21441.72
820.292	21489.86
820.62	21465.9
820.948	21394.95
821.276	21416.19
821.604	21295.74
821.932	21368.51
822.259	21385
822.587	21320.15
822.915	21333.48
823.243	21385.68
823.57	21212.58
823.898	21317.66
824.225	21166.7
824.553	21339.81
824.88	21285.57
825.207	21339.58
825.535	21211.67
825.862	21317.43
826.189	21286.47
826.516	21361.95
826.843	21336.64
827.17	21359.24
827.497	21320.37
827.824	21249.86
828.151	21394.72
828.478	21297.32
828.805	21331.44
829.131	21306.59
829.458	21163.54
829.785	20995.86
830.111	21274.05
830.438	21295.29
830.764	21216.42
831.09	21201.05
831.417	21135.74
831.743	21185.46
832.069	21287.38
832.395	21139.81
832.722	21115.86
833.048	21064.33
833.374	21060.27
833.7	20996.99
834.026	21029.98
834.351	21053.26
834.677	21065.46
835.003	21030.66
835.329	20994.73
835.654	20995.86
835.98	20812.59
836.306	20951.12
836.631	20797
836.956	20933.72
837.282	20796.54
837.607	20736.21
837.932	20698.47
838.258	20777.34
838.583	20763.55
838.908	20615.98
839.233	20561.52
839.558	20487.85
839.883	20405.14
840.208	20460.96
840.533	20515.42
840.858	20449.43
841.182	20485.59
841.507	20408.98
841.832	20251.7
842.156	20250.8
842.481	20066.39
842.805	20198.59
843.13	20124.24
843.454	20074.98
843.778	20053.06
844.103	19945.04
844.427	19855.1
844.751	19985.94
845.075	19877.47
845.399	19784.82
845.723	19779.85
846.047	19810.58
846.371	19527.2
846.695	19548.67
847.019	19422.79
847.343	19441.32
847.666	19276.13
847.99	19192.52
848.313	19181.9
848.637	19030.04
848.96	18982.13
849.284	18920.66
849.607	18874.33
849.931	18856.03
850.254	18618.52
850.577	18467.57
850.9	18323.39
851.223	18378.3
851.546	18391.41
851.869	18197.52
852.192	18238.64
852.515	18123.39
852.838	18087.01
853.161	17981.7
853.483	17963.17
853.806	17820.58
854.129	17803.63
854.451	17694.25
854.774	17677.53
855.096	17526.8
855.419	17580.81
855.741	17449.51
856.063	17512.34
856.385	17435.28
856.708	17268.73
857.03	17263.08
857.352	17332.91
857.674	17155.06
857.996	17191.44
858.318	17016.98
858.64	17114.61
858.961	16972.69
859.283	16986.93
859.605	16894.73
859.926	16939.24
860.248	16877.32
860.57	16765.24
860.891	16823.54
861.212	16613.15
861.534	16725.24
861.855	16582.64
862.176	16622.42
862.498	16594.17
862.819	16501.29
863.14	16439.6
863.461	16398.02
863.782	16431.01
864.103	16480.5
864.424	16409.09
864.745	16440.73
865.065	16209.32
865.386	16179.72
865.707	16211.13
866.027	16170.68
866.348	16209.32
866.668	16215.2
866.989	16095.65
867.309	16045.26
867.63	16166.38
867.95	16089.77
868.27	15924.58
868.59	16018.59
868.91	15864.7
869.23	15939.04
869.55	15787.41
869.87	15870.57
870.19	15743.34
870.51	15857.46
870.83	15815.21
871.15	15742.44
871.469	15710.8
871.789	15776.79
872.109	15710.12
872.428	15553.97
872.748	15636.45
873.067	15633.06
873.386	15605.04
873.706	15696.11
874.025	15484.59
874.344	15452.96
874.663	15467.42
874.982	15415.44
875.301	15383.8
875.62	15306.07
875.939	15311.49
876.258	15374.31
876.577	15330.25
876.896	15308.78
877.214	15222.9
877.533	15291.6
877.852	15274.2
878.17	15172.74
878.489	15165.73
878.807	15157.37
879.125	15181.1
879.444	15115.79
879.762	15030.59
880.08	15152.62
880.398	14937.26
880.716	14982.01
881.034	14875.57
881.352	14914.44
881.67	14919.18
881.988	14892.97
882.306	14803.03
882.624	14738.85
882.941	14700.43
883.259	14680.09
883.577	14594.9
883.894	14535.01
884.212	14579.76
884.529	14547.44
884.846	14537.5
885.164	14539.08
885.481	14462.02
885.798	14536.14
886.115	14313.32
886.432	14369.82
886.75	14315.58
887.067	14361.91
887.383	14139.54
887.7	14276.72
888.017	14129.15
888.334	14139.77
888.651	14260.22
888.967	14154.23
889.284	14038.08
889.6	14003.05
889.917	13926.67
890.233	13950.17
890.55	13804.86
890.866	13901.36
891.182	13835.82
891.498	13775.26
891.815	13649.84
892.131	13641.93
892.447	13650.97
892.763	13582.72
893.079	13662.04
893.395	13447.58
893.71	13478.32
894.026	13341.15
894.342	13452.33
894.657	13322.84
894.973	13302.5
895.289	13286.91
895.604	13313.58
895.92	13227.25
896.235	13158.78
896.55	13136.63
896.865	13085.33
897.181	13058.67
897.496	13017.09
897.811	12896.19
898.126	12856.41
898.441	12823.19
898.756	12799.69
899.071	12730.77
899.386	12721.28
899.7	12666.36
900.015	12585.01
900.33	12521.51
900.644	12502.07
900.959	12506.14
901.273	12468.4
901.588	12361.06
901.902	12331.46
902.216	12273.83
902.531	12248.75
902.845	12195.41
903.159	12111.35
903.473	12098.24
903.787	11994.52
904.101	12035.42
904.415	11985.25
904.729	11916.55
905.042	11869.55
905.356	11900.51
905.67	11834.29
905.984	11836.78
906.297	11710
906.611	11637.91
906.924	11629.55
907.237	11604.47
907.551	11534.19
907.864	11438.82
908.177	11448.77
908.491	11414.64
908.804	11347.07
909.117	11286.96
909.43	11135.1
909.743	11208.1
910.056	11165.38
910.368	11131.71
910.681	11048.78
910.994	10997.48
911.307	11000.64
911.619	10822.79
911.932	10918.84
912.244	10832.74
912.557	10786.86
912.869	10790.25
913.181	10634.32
913.494	10709.8
913.806	10570.6
914.118	10590.48
914.43	10491.5
914.742	10506.64
915.054	10450.37
915.366	10418.74
915.678	10393.2
915.99	10292.86
916.302	10188.23
916.613	10229.36
916.925	10198.4
917.236	10109.59
917.548	10058.52
917.859	10171.51
918.171	9997.73
918.482	9979.2
918.794	9894.68
919.105	9943.72
919.416	9771.07
919.727	9786.89
920.038	9725.65
920.349	9674.8
920.66	9651.98
920.971	9671.86
921.282	9604.97
921.593	9521.13
921.903	9443.62
922.214	9463.51
922.525	9408.82
922.835	9376.96
923.146	9327.92
923.456	9273.46
923.767	9261.93
924.077	9271.87
924.387	9220.8
924.697	9162.73
925.008	9139.67
925.318	9019.45
925.628	9007.25
925.938	8991.43
926.248	8958.89
926.558	8907.82
926.867	8841.83
927.177	8899.46
927.487	8778.55
927.796	8677.54
928.106	8706.24
928.416	8694.94
928.725	8619.69
929.034	8545.11
929.344	8547.15
929.653	8608.62
929.962	8512.57
930.271	8457.66
930.581	8446.81
930.89	8316.87
931.199	8330.66
931.508	8331.11
931.817	8249.75
932.125	8223.09
932.434	8225.12
932.743	8154.16
933.051	8088.63
933.36	8096.31
933.669	8014.51
933.977	7993.04
934.286	8003.66
934.594	7947.84
934.902	7919.37
935.21	7816.55
935.519	7807.05
935.827	7823.55
936.135	7758.24
936.443	7666.72
936.751	7656.55
937.059	7636.66
937.367	7641.64
937.674	7639.83
937.982	7600.05
938.29	7505.14
938.597	7501.3
938.905	7409.32
939.213	7473.28
939.52	7323.23
939.827	7349.44
940.135	7341.98
940.442	7261.53
940.749	7291.59
941.056	7295.88
941.363	7178.6
941.67	7187.41
941.977	7119.62
942.284	7039.39
942.591	7063.12
942.898	7050.92
943.205	6997.81
943.511	6990.58
943.818	7040.97
944.125	6913.29
944.431	6937.92
944.738	6923.91
945.044	6848.89
945.35	6810.7
945.657	6788.32
945.963	6749.23
946.269	6755.33
946.575	6690.47
946.881	6682.79
947.187	6612.74
947.493	6602.11
947.799	6630.14
948.105	6565.28
948.41	6554.88
948.716	6510.37
949.022	6456.13
949.327	6387.88
949.633	6358.51
949.938	6405.06
950.244	6354.66
950.549	6262.69
950.854	6273.54
951.16	6267.43
951.465	6243.25
951.77	6260.2
952.075	6216.36
952.38	6151.96
952.685	6161.22
952.99	6102.01
953.294	6087.55
953.599	5975.69
953.904	6046.87
954.209	5975.92
954.513	5965.52
954.818	5954
955.122	5940.21
955.426	5902.47
955.731	5872.87
956.035	5836.71
956.339	5777.73
956.643	5777.73
956.948	5768.46
957.252	5719.43
957.556	5743.38
957.86	5672.87
958.163	5652.53
958.467	5581.35
958.771	5636.26
959.075	5596.04
959.378	5541.8
959.682	5541.35
959.985	5476.49
960.289	5489.6
960.592	5450.05
960.896	5401.69
961.199	5340.45
961.502	5386.1
961.805	5354.69
962.108	5323.28
962.411	5300.23
962.714	5245.77
963.017	5310.4
963.32	5236.5
963.623	5215.94
963.926	5161.25
964.228	5203.28
964.531	5182.72
964.833	5182.94
965.136	5112.21
965.438	5073.12
965.741	5086.22
966.043	4960.8
966.345	5036.96
966.648	4975.26
966.95	4979.78
967.252	4947.47
967.554	4929.62
967.856	4931.2
968.158	4891.65
968.46	4848.49
968.761	4842.61
969.063	4786.57
969.365	4768.94
969.666	4759.68
969.968	4744.99
970.269	4716.06
970.571	4680.36
970.872	4666.12
971.174	4687.36
971.475	4599
971.776	4595.16
972.077	4596.52
972.378	4613.92
972.679	4566.91
972.98	4532.11
973.281	4491.66
973.582	4487.37
973.883	4478.78
974.183	4417.77
974.484	4420.7
974.785	4439.69
975.085	4428.84
975.386	4387.03
975.686	4408.95
975.986	4396.07
976.287	4357.88
976.587	4304.77
976.887	4254.15
977.187	4276.07
977.487	4215.51
977.787	4167.6
978.087	4233.36
978.387	4166.02
978.687	4163.76
978.987	4130.77
979.286	4136.42
979.586	4076.31
979.885	4086.25
980.185	4040.37
980.484	4001.05
980.784	4076.31
981.083	4037.89
981.382	4005.8
981.682	3975.97
981.981	3943.88
982.28	3961.73
982.579	3949.75
982.878	3894.62
983.177	3889.64
983.475	3841.06
983.774	3857.78
984.073	3796.09
984.372	3803.32
984.67	3799.7
984.969	3814.62
985.267	3753.15
985.566	3761.06
985.864	3726.03
986.162	3735.98
986.461	3692.59
986.759	3669.08
987.057	3663.66
987.355	3643.55
987.653	3638.35
987.951	3605.81
988.249	3586.6
988.547	3582.98
988.844	3561.97
989.142	3542.31
989.44	3537.79
989.737	3493.27
990.035	3476.55
990.332	3478.81
990.63	3461.86
990.927	3453.95
991.224	3443.1
991.521	3414.4
991.819	3407.17
992.116	3386.61
992.413	3364.69
992.71	3381.41
993.006	3349.09
993.303	3322.2
993.6	3315.42
993.897	3284.01
994.193	3272.94
994.49	3267.96
994.787	3259.38
995.083	3246.04
995.379	3188.42
995.676	3191.13
995.972	3206.05
996.268	3107.07
996.565	3156.1
996.861	3096.44
997.157	3103.22
997.453	3072.26
997.749	3108.87
998.044	3058.7
998.34	3048.54
998.636	3023.45
998.932	3050.57
999.227	2994.07
999.523	2974.19
999.818	2940.29
1000.114	2935.32
1000.409	2941.65
1000.704	2920.4
1001	2875.21
1001.295	2875.43
1001.59	2875.43
1001.885	2866.62
1002.18	2825.49
1002.475	2815.32
1002.77	2773.97
1003.065	2759.73
1003.359	2757.02
1003.654	2755.21
1003.949	2732.16
1004.243	2681.54
1004.538	2710.47
1004.832	2719.5
1005.127	2690.8
1005.421	2652.39
1005.715	2649
1006.009	2643.8
1006.304	2641.54
1006.598	2590.47
1006.892	2605.38
1007.186	2562.9
1007.48	2538.49
1007.773	2561.32
1008.067	2537.36
1008.361	2489.68
1008.655	2477.7
1008.948	2451.26
1009.242	2474.77
1009.535	2442
1009.829	2396.58
1010.122	2404.03
1010.415	2389.34
1010.708	2382.11
1011.001	2370.81
1011.295	2358.16
1011.588	2344.83
1011.881	2295.56
1012.173	2346.86
1012.466	2285.84
1012.759	2299.85
1013.052	2298.27
1013.344	2275
1013.637	2249.69
1013.93	2239.29
1014.222	2203.81
1014.514	2166.75
1014.807	2240.65
1015.099	2191.84
1015.391	2176.69
1015.683	2162.46
1015.976	2162.01
1016.268	2130.37
1016.56	2143.25
1016.851	2077.71
1017.143	2087.88
1017.435	2094.44
1017.727	2054.44
1018.018	2040.65
1018.31	2022.12
1018.602	2033.2
1018.893	1977.83
1019.185	1998.62
1019.476	1980.99
1019.767	1953.2
1020.058	1949.58
1020.35	1935.8
1020.641	1895.12
1020.932	1905.51
1021.223	1892.18
1021.514	1858.06
1021.804	1852.86
1022.095	1852.41
1022.386	1836.59
1022.677	1855.35
1022.967	1812.41
1023.258	1789.81
1023.548	1785.97
1023.839	1779.64
1024.129	1811.05
1024.419	1749.59
1024.709	1742.58
1025	1710.49
1025.29	1711.4
1025.58	1739.42
1025.87	1684.5
1026.16	1699.42
1026.449	1662.81
1026.739	1655.8
1027.029	1663.26
1027.319	1646.54
1027.608	1605.86
1027.898	1627.33
1028.187	1605.86
1028.477	1602.02
1028.766	1576.03
1029.055	1571.51
1029.344	1562.47
1029.634	1542.59
1029.923	1538.52
1030.212	1514.11
1030.501	1556.82
1030.79	1515.92
1031.078	1505.75
1031.367	1509.14
1031.656	1438.18
1031.945	1472.31
1032.233	1449.03
1032.522	1441.8
1032.81	1433.21
1033.099	1413.32
1033.387	1412.65
1033.675	1411.74
1033.963	1387.11
1034.251	1394.34
1034.54	1380.56
1034.828	1347.34
1035.116	1331.97
1035.403	1330.84
1035.691	1322.48
1035.979	1312.31
1036.267	1338.52
1036.554	1324.06
1036.842	1274.12
1037.129	1296.49
1037.417	1274.57
1037.704	1249.26
1037.992	1263.05
1038.279	1222.82
1038.566	1214.69
1038.853	1214.69
1039.14	1214.69
