Data from orange_diffuse_book_FLMS001491_00072.txt Node
Date: Wed Feb 08 15:30:01 GMT 2017
User: dcchb
Spectrometer: FLMS00149
Trigger mode: 0
Integration Time (sec): 2.000000E-2
Scans to average: 10
Electric dark correction enabled: true
Nonlinearity correction enabled: false
Boxcar width: 0
XAxis mode: Wavelengths
Number of Pixels in Spectrum: 2048
>>>>>Begin Spectral Data<<<<<
341.393	-25.17
341.776	-25.17
342.16	-25.17
342.543	-47.54
342.927	-90.93
343.31	-74.66
343.693	-86.41
344.077	-61.33
344.46	-56.81
344.843	-49.57
345.226	-47.32
345.61	-25.39
345.993	-3.93
346.376	-6.19
346.759	1.5
347.142	14.6
347.525	59.8
347.908	56.18
348.291	73.13
348.674	98.22
349.057	108.16
349.44	128.73
349.823	168.72
350.206	183.41
350.588	200.36
350.971	215.28
351.354	238.78
351.737	239.23
352.119	254.37
352.502	266.35
352.884	269.51
353.267	276.29
353.65	310.87
354.032	312.45
354.414	330.3
354.797	305.9
355.179	340.92
355.562	336.18
355.944	332.11
356.326	336.63
356.709	340.02
357.091	331.21
357.473	362.39
357.855	333.01
358.238	356.52
358.62	337.31
359.002	326.46
359.384	361.04
359.766	349.51
360.148	365.1
360.53	349.06
360.912	363.75
361.294	352
361.676	328.27
362.057	344.09
362.439	340.7
362.821	333.24
363.203	334.37
363.584	339.79
363.966	342.96
364.348	357.42
364.729	334.6
365.111	321.94
365.493	314.48
365.874	323.52
366.256	330.08
366.637	325.33
367.019	324.2
367.4	325.1
367.781	328.95
368.163	325.78
368.544	323.3
368.925	331.43
369.306	315.16
369.688	344.76
370.069	314.48
370.45	310.64
370.831	308.61
371.212	339.34
371.593	309.74
371.974	322.62
372.355	315.16
372.736	323.97
373.117	316.07
373.498	331.43
373.879	332.11
374.26	310.64
374.641	322.62
375.021	328.04
375.402	316.07
375.783	320.36
376.163	315.39
376.544	336.86
376.925	321.26
377.305	319.68
377.686	333.24
378.066	340.02
378.447	311.55
378.827	337.53
379.208	348.83
379.588	352.45
379.968	333.01
380.349	341.6
380.729	338.66
381.109	340.47
381.489	351.32
381.87	339.34
382.25	342.96
382.63	342.96
383.01	362.62
383.39	347.48
383.77	357.87
384.15	342.96
384.53	319.91
384.91	374.14
385.29	347.48
385.67	328.72
386.049	358.78
386.429	360.36
386.809	383.18
387.189	351.77
387.568	359
387.948	355.39
388.328	383.18
388.707	384.09
389.087	356.74
389.466	351.77
389.846	391.09
390.225	373.92
390.605	377.98
390.984	393.8
391.363	378.44
391.743	381.83
392.122	363.3
392.501	390.19
392.881	376.4
393.26	383.63
393.639	375.95
394.018	382.96
394.397	370.53
394.776	391.54
395.155	380.7
395.534	373.01
395.913	392.22
396.292	384.31
396.671	406.01
397.05	389.74
397.429	420.7
397.808	395.16
398.186	428.15
398.565	405.78
398.944	405.33
399.323	393.58
399.701	422.05
400.08	389.28
400.458	403.75
400.837	408.49
401.215	412.11
401.594	417.08
401.972	404.2
402.351	400.58
402.729	422.5
403.107	424.99
403.486	414.37
403.864	436.29
404.242	419.57
404.62	438.77
404.999	422.05
405.377	429.96
405.755	436.74
406.133	417.08
406.511	440.13
406.889	455.04
407.267	420.47
407.645	446.68
408.023	460.47
408.401	441.71
408.779	445.33
409.156	468.6
409.534	450.75
409.912	480.58
410.29	442.62
410.667	497.76
411.045	460.02
411.422	468.6
411.8	468.38
412.178	481.48
412.555	479.9
412.933	480.81
413.31	478.77
413.687	500.24
414.065	506.34
414.442	515.16
414.819	509.96
415.197	486
415.574	504.53
415.951	504.08
416.328	527.36
416.705	502.5
417.082	528.71
417.46	531.43
417.837	545.44
418.214	544.08
418.591	524.42
418.967	530.07
419.344	558.77
419.721	555.15
420.098	535.95
420.475	538.88
420.852	562.16
421.228	562.84
421.605	542.27
421.982	563.06
422.358	575.04
422.735	546.57
423.111	584.53
423.488	596.06
423.864	608.03
424.241	601.48
424.617	599
424.994	569.62
425.37	601.26
425.746	602.84
426.123	620.01
426.499	624.08
426.875	625.21
427.251	629.5
427.627	676.73
428.003	636.73
428.379	631.76
428.756	647.13
429.132	654.59
429.507	646.45
429.883	669.5
430.259	645.77
430.635	654.81
431.011	699.33
431.387	663.17
431.763	692.1
432.138	711.76
432.514	698.43
432.89	691.2
433.265	712.66
433.641	676.28
434.016	718.77
434.392	755.38
434.767	735.94
435.143	713.79
435.518	764.64
435.894	763.51
436.269	722.38
436.644	748.37
437.02	762.61
437.395	754.47
437.77	795.15
438.145	774.36
438.52	773.91
438.895	784.75
439.271	794.47
439.646	820.91
440.021	800.57
440.395	811.42
440.77	805.77
441.145	809.84
441.52	817.97
441.895	831.98
442.27	841.48
442.645	835.37
443.019	838.76
443.394	839.67
443.769	866.56
444.143	853.68
444.518	867.69
444.892	858.2
445.267	848.25
445.641	850.06
446.016	848.48
446.39	874.47
446.764	879.44
447.139	861.36
447.513	894.13
447.887	879.89
448.262	869.5
448.636	914.47
449.01	914.92
449.384	927.57
449.758	899.55
450.132	909.72
450.506	925.09
450.88	942.49
451.254	911.98
451.628	940.91
452.002	954.47
452.376	930.51
452.75	942.26
453.123	969.16
453.497	949.95
453.871	965.31
454.244	963.73
454.618	982.49
454.992	970.29
455.365	964.64
455.739	975.93
456.112	1011.87
456.486	1027.23
456.859	1051.64
457.232	1036.5
457.606	1030.62
457.979	1038.08
458.352	1059.1
458.725	1079.43
459.099	1070.17
459.472	1086.89
459.845	1088.25
460.218	1096.61
460.591	1117.17
460.964	1094.12
461.337	1122.37
461.71	1134.35
462.083	1132.99
462.456	1132.99
462.829	1124.41
463.201	1131.64
463.574	1161.47
463.947	1191.07
464.32	1183.16
464.692	1168.92
465.065	1184.74
465.438	1189.26
465.81	1209.15
466.183	1241.92
466.555	1252.76
466.928	1249.6
467.3	1255.48
467.672	1256.15
468.045	1280.11
468.417	1288.24
468.789	1309.26
469.161	1332.76
469.534	1323.72
469.906	1320.56
470.278	1338.64
470.65	1354.68
471.022	1371.63
471.394	1414.12
471.766	1428.13
472.138	1400.33
472.51	1415.47
472.882	1425.64
473.253	1436.71
473.625	1477.16
473.997	1492.31
474.369	1502.02
474.74	1492.53
475.112	1537.73
475.484	1545.19
475.855	1568.01
476.227	1581.57
476.598	1591.51
476.97	1597.84
477.341	1646.2
477.713	1670.15
478.084	1700.21
478.455	1725.97
478.827	1749.25
479.198	1771.17
479.569	1793.77
479.94	1836.03
480.311	1841
480.682	1843.03
481.053	1903.37
481.424	1964.84
481.795	1919.19
482.166	1971.16
482.537	2002.8
482.908	2017.49
483.279	2051.61
483.65	2067.88
484.021	2087.54
484.391	2154.89
484.762	2158.28
485.133	2168.9
485.503	2234.43
485.874	2226.3
486.244	2287.99
486.615	2326.86
486.985	2335.22
487.356	2388.55
487.726	2413.41
488.097	2498.83
488.467	2486.86
488.837	2535.44
489.207	2575.21
489.578	2579.73
489.948	2580.41
490.318	2657.02
490.688	2706.74
491.058	2749.45
491.428	2796.23
491.798	2793.06
492.168	2819.28
492.538	2899.05
492.908	2883.46
493.278	2955.32
493.648	3004.58
494.017	3000.29
494.387	3033.28
494.757	3085.71
495.126	3140.17
495.496	3129.55
495.866	3182.43
496.235	3244.58
496.605	3268.76
496.974	3243.67
497.344	3310.56
497.713	3324.8
498.082	3367.74
498.452	3386.04
498.821	3418.13
499.19	3447.96
499.559	3512.59
499.928	3584.45
500.298	3540.84
500.667	3596.43
501.036	3632.36
501.405	3669.42
501.774	3685.47
502.143	3721.17
502.512	3743.77
502.88	3766.82
503.249	3837.78
503.618	3814.96
503.987	3838.46
504.356	3903.54
504.724	3918.46
505.093	3932.69
505.462	3941.51
505.83	3988.06
506.199	4047.94
506.567	4064.44
506.936	4080.49
507.304	4160.03
507.672	4158.45
508.041	4158
508.409	4236.87
508.777	4243.19
509.145	4282.74
509.514	4317.32
509.882	4342.85
510.25	4402.29
510.618	4364.32
510.986	4384.43
511.354	4452.68
511.722	4501.27
512.09	4531.1
512.458	4566.35
512.826	4625.33
513.193	4579.91
513.561	4636.18
513.929	4708.49
514.297	4758.21
514.664	4750.98
515.032	4753.91
515.4	4828.26
515.767	4875.27
516.135	4870.97
516.502	4914.59
516.869	4943.74
517.237	4982.84
517.604	4961.59
517.972	5015.6
518.339	5050.4
518.706	5114.81
519.073	5133.79
519.44	5178.31
519.808	5234.13
520.175	5239.33
520.542	5306.67
520.909	5271.42
521.276	5323.17
521.643	5398.42
522.009	5451.52
522.376	5466.66
522.743	5440.22
523.11	5561.58
523.477	5621.91
523.843	5624.17
524.21	5675.25
524.577	5670.73
524.943	5733.32
525.31	5755.47
525.676	5841.12
526.043	5843.38
526.409	5854.9
526.776	5925.64
527.142	5963.37
527.508	5942.36
527.874	6081.11
528.241	6051.96
528.607	6025.52
528.973	6181.22
529.339	6125.18
529.705	6242.91
530.071	6251.28
530.437	6299.18
530.803	6294.66
531.169	6322.69
531.535	6333.08
531.901	6394.78
532.267	6347.09
532.632	6440.88
532.998	6479.07
533.364	6493.08
533.73	6503.25
534.095	6522.46
534.461	6579.63
534.826	6625.73
535.192	6613.3
535.557	6721.32
535.923	6643.81
536.288	6716.12
536.653	6768.55
537.019	6734.88
537.384	6790.25
537.749	6816.91
538.114	6810.13
538.479	6886.06
538.845	6897.14
539.21	6925.83
539.575	6917.25
539.94	6984.36
540.305	6987.3
540.67	7129.9
541.034	7067.53
541.399	7083.57
541.764	7143.68
542.129	7165.38
542.494	7168.31
542.858	7226.39
543.223	7221.87
543.587	7307.52
543.952	7319.5
544.316	7368.54
544.681	7347.29
545.045	7371.25
545.41	7432.04
545.774	7479.04
546.138	7430.45
546.503	7560.85
546.867	7534.41
547.231	7606.04
547.595	7606.49
547.959	7651.24
548.324	7691.92
548.688	7757.68
549.052	7767.39
549.416	7774.63
549.779	7799.71
550.143	7928.97
550.507	7930.78
550.871	8017.78
551.235	7985.69
551.599	8052.13
551.962	8060.27
552.326	8149.08
552.689	8220.26
553.053	8180.27
553.417	8234.95
553.78	8339.81
554.143	8329.64
554.507	8413.71
554.87	8453.25
555.234	8507.94
555.597	8495.51
555.96	8554.49
556.323	8681.72
556.686	8733.02
557.05	8756.75
557.413	8801.04
557.776	8880.59
558.139	8918.78
558.502	8960.36
558.865	9054.82
559.228	9123.97
559.59	9185.89
559.953	9206
560.316	9327.35
560.679	9344.75
561.041	9444.86
561.404	9542.26
561.767	9637.4
562.129	9544.75
562.492	9763.5
562.854	9861.35
563.217	9876.94
563.579	9911.97
563.941	9977.51
564.304	10166.65
564.666	10253.43
565.028	10336.14
565.39	10351.28
565.753	10560.77
566.115	10575.68
566.477	10705.85
566.839	10809.8
567.201	10942.9
567.563	10953.3
567.925	11141.54
568.287	11271.03
568.648	11381.54
569.01	11542.44
569.372	11626.5
569.734	11766.16
570.095	11873.95
570.457	11984.01
570.819	12113.27
571.18	12245.02
571.542	12415.63
571.903	12641.84
572.265	12698.79
572.626	12982.4
572.987	13035.28
573.349	13240.47
573.71	13373.57
574.071	13567.02
574.432	13818.99
574.794	14023.05
575.155	14206.32
575.516	14370.38
575.877	14624.62
576.238	14862.35
576.599	15081.33
576.96	15187.31
577.32	15480.41
577.681	15774.42
578.042	16072.94
578.403	16197
578.763	16527.84
579.124	16788.17
579.485	17218.45
579.845	17425.22
580.206	17620.69
580.566	18047.8
580.927	18203.05
581.287	18662.25
581.648	18860.21
582.008	19290.03
582.368	19507.2
582.728	19867.87
583.089	20231.02
583.449	20575.65
583.809	20906.94
584.169	21300.82
584.529	21563.64
584.889	22124.08
585.249	22387.35
585.609	22721.35
585.969	23204.95
586.329	23533.53
586.688	24072.5
587.048	24385.04
587.408	24744.12
587.768	25242.42
588.127	25600.15
588.487	26008.27
588.846	26659.55
589.206	26853.67
589.565	27392.87
589.925	27903.36
590.284	28257.93
590.643	28784.02
591.003	29164.35
591.362	29744.22
591.721	30200.25
592.08	30614.25
592.44	31062.6
592.799	31612.19
593.158	31961.11
593.517	32428.22
593.876	32920.86
594.235	33390.68
594.593	33837.44
594.952	34430.2
595.311	34692.56
595.67	35261.59
596.029	35931.85
596.387	36388.56
596.746	36887.31
597.104	37206.39
597.463	37577.46
597.822	38095.64
598.18	38471.67
598.538	38890.19
598.897	39467.8
599.255	39573.79
599.613	40577.15
599.972	40760.43
600.33	41282.45
600.688	41452.84
601.046	42025.48
601.404	42486.71
601.762	42701.39
602.12	43315.39
602.478	43714.47
602.836	44046.44
603.194	44327.56
603.552	44699.3
603.91	44873.54
604.268	45515.33
604.625	45664.7
604.983	46098.14
605.341	46304.46
605.698	46739.25
606.056	47089.52
606.413	47262.18
606.771	47722.5
607.128	47946.9
607.485	47970.41
607.843	48291.07
608.2	48742.81
608.557	48972.41
608.914	49086.99
609.272	49460.08
609.629	49739.4
609.986	49905.5
610.343	49909.34
610.7	50338.48
611.057	50487.85
611.414	50665.25
611.771	50860.5
612.127	51029.08
612.484	51207.61
612.841	51434.27
613.198	51393.82
613.554	51541.38
613.911	51829.74
614.267	51891.88
614.624	52005.1
614.98	52196.51
615.337	52389.5
615.693	52394.92
616.05	52602.83
616.406	52797.62
616.762	52705.42
617.118	52715.82
617.475	52941.35
617.831	53145.18
618.187	53163.72
618.543	53270.15
618.899	53418.85
619.255	53509.69
619.611	53586.75
619.967	53709.92
620.323	53742.23
620.678	53651.61
621.034	53701.1
621.39	53855.45
621.746	53761.21
622.101	54093.41
622.457	53933.86
622.812	54041.66
623.168	54212.73
623.523	54201.65
623.879	54295.89
624.234	54191.03
624.589	54309.9
624.945	54378.6
625.3	54406.17
625.655	54398.94
626.01	54448.65
626.365	54527.97
626.72	54454.75
627.075	54467.86
627.43	54639.16
627.785	54507.41
628.14	54591.7
628.495	54708.31
628.85	54670.79
629.205	54616.11
629.559	54798.25
629.914	54687.29
630.269	54642.32
630.623	54595.77
630.978	54584.24
631.332	54792.82
631.687	54831.24
632.041	54668.31
632.396	54805.48
632.75	54586.05
633.104	54739.72
633.459	54634.86
633.813	54563.9
634.167	54669.89
634.521	54638.25
634.875	54799.15
635.229	54625.82
635.583	54594.86
635.937	54605.49
636.291	54556.22
636.645	54531.59
636.999	54517.35
637.352	54608.65
637.706	54403.23
638.06	54522.32
638.413	54490.69
638.767	54359.62
639.121	54528.2
639.474	54276.45
639.828	54393.97
640.181	54445.49
640.534	54382.44
640.888	54348.77
641.241	54261.31
641.594	54326.62
641.947	54391.48
642.301	54322.33
642.654	54396.45
643.007	54325.49
643.36	54351.48
643.713	54320.97
644.066	54439.61
644.419	54171.6
644.771	54015.67
645.124	53807.77
645.477	53745.39
645.83	53474.67
646.182	53453.88
646.535	53457.72
646.888	53514.89
647.24	53408.68
647.593	53598.51
647.945	53430.83
648.298	53225.41
648.65	53313.77
649.002	53178.86
649.355	53399.42
649.707	53350.6
650.059	53393.77
650.411	53791.72
650.763	53841.21
651.115	54091.83
651.467	53963.24
651.819	53931.38
652.171	53992.17
652.523	53951.72
652.875	53925.73
653.227	53703.81
653.578	53966.86
653.93	53961.43
654.282	53786.75
654.633	53709.69
654.985	53806.86
655.337	53776.35
655.688	53837.6
656.039	53880.76
656.391	53720.99
656.742	53760.08
657.094	53793.76
657.445	53921.44
657.796	53840.99
658.147	53725.06
658.498	53765.06
658.849	53774.55
659.2	53765.06
659.551	53654.32
659.902	53776.35
660.253	53688.22
660.604	53775
660.955	53629.69
661.306	53766.86
661.656	53687.09
662.007	53711.27
662.358	53647.32
662.708	53634.66
663.059	53647.32
663.409	53476.93
663.76	53703.59
664.11	53646.19
664.461	53747.88
664.811	53705.4
665.161	53652.97
665.511	53553.76
665.862	53622.46
666.212	53753.53
666.562	53737.71
666.912	53651.16
667.262	53598.05
667.612	53560.99
667.962	53570.94
668.312	53515.34
668.662	53656.58
669.011	53514.89
669.361	53520.09
669.711	53451.84
670.06	53422.47
670.41	53350.38
670.76	53355.12
671.109	53434.44
671.459	53394.44
671.808	53330.26
672.157	53396.7
672.507	53232.41
672.856	53187.67
673.205	53302.69
673.554	53296.37
673.904	53104.73
674.253	53309.7
674.602	53178.86
674.951	52810.73
675.3	52618.64
675.649	53082.59
675.998	53085.98
676.346	53054.57
676.695	53205.3
677.044	52956.04
677.393	53042.14
677.741	53023.38
678.09	52970.05
678.438	52878.52
678.787	52883.72
679.135	52976.38
679.484	52760.56
679.832	52870.62
680.181	52652.32
680.529	52796.95
680.877	52723.5
681.225	52631.53
681.573	52819.54
681.922	52632.88
682.27	52553.56
682.618	52604.41
682.966	52509.27
683.314	52573.45
683.661	52446.9
684.009	52213.46
684.357	52198.54
684.705	52218.88
685.053	52221.59
685.4	52146.57
685.748	52031.54
686.095	51970.53
686.443	51892.79
686.79	51820.93
687.138	51935.27
687.485	51899.12
687.832	51695.28
688.18	51751.55
688.527	51505.68
688.874	51500.48
689.221	51558.33
689.568	51379.13
689.915	51266.14
690.262	51263.2
690.609	51191.11
690.956	51098.23
691.303	51117.89
691.65	50952.93
691.997	50961.51
692.344	50775.3
692.69	50735.76
693.037	50722.65
693.383	50419.61
693.73	50588.64
694.077	50286.73
694.423	50337.12
694.769	50201.08
695.116	50215.09
695.462	50109.33
695.808	49945.95
696.155	50063.01
696.501	49780.3
696.847	49804.48
697.193	49392.51
697.539	49623.7
697.885	49288.11
698.231	49147.1
698.577	49221.9
698.923	49098.06
699.269	48935.58
699.614	48714.79
699.96	48875.01
700.306	48695.81
700.651	48583.27
700.997	48475.93
701.342	48308.02
701.688	48283.17
702.033	48125.88
702.379	48172.43
702.724	47964.98
703.069	48072.32
703.415	47673.46
703.76	47689.73
704.105	47645.22
704.45	47548.04
704.795	47244.55
705.14	47221.95
705.485	47158.68
705.83	47059.92
706.175	47141.27
706.52	46965.69
706.865	46781.51
707.209	46702.87
707.554	46508.3
707.899	46714.39
708.243	46396.44
708.588	46496.32
708.932	46122.54
709.277	46262.65
709.621	46249.32
709.966	45905.6
710.31	45961.19
710.654	45641.88
710.998	45694.53
711.342	45796.23
711.687	45545.84
712.031	45297.03
712.375	45319.85
712.719	45250.48
713.063	45133.87
713.407	45388.78
713.75	45166.41
714.094	45042.35
714.438	44854.78
714.782	44934.78
715.125	44572.75
715.469	44799.42
715.812	44667.67
716.156	44411.63
716.499	44338.86
716.843	44531.17
717.186	44157.62
717.53	44364.4
717.873	44373.89
718.216	44327.79
718.559	44042.15
718.902	43841.93
719.246	43995.82
719.589	43816.84
719.932	43681.93
720.275	43652.78
720.617	43719.9
720.96	43550.18
721.303	43629.5
721.646	43502.27
721.989	43135.28
722.331	43428.6
722.674	43314.48
723.016	43306.12
723.359	43210.53
723.701	43197.2
724.044	42898.67
724.386	42871.56
724.729	43108.84
725.071	42994.26
725.413	42903.65
725.755	42913.36
726.097	42696.19
726.439	42510.44
726.782	42492.13
727.124	42664.78
727.465	42470.21
727.807	42436.31
728.149	42362.87
728.491	42402.64
728.833	42422.53
729.175	42121.07
729.516	42107.73
729.858	42055.98
730.199	42119.71
730.541	42050.34
730.882	42040.62
731.224	42178.47
731.565	41818.25
731.906	41907.97
732.248	41835.88
732.589	41710.68
732.93	41508.88
733.271	41653.28
733.612	41544.36
733.953	41639.5
734.294	41517.92
734.635	41507.75
734.976	41532.83
735.317	41355.89
735.658	41209.68
735.999	41298.49
736.339	41241.09
736.68	41296.91
737.021	41185.05
737.361	41180.75
737.702	41196.57
738.042	41151.38
738.383	40996.35
738.723	41068.21
739.063	40924.71
739.404	40887.2
739.744	40775.34
740.084	40742.8
740.424	40788.9
740.764	40679.07
741.104	40853.98
741.444	40533.99
741.784	40557.72
742.124	40533.54
742.464	40510.04
742.804	40472.3
743.143	40376.03
743.483	40297.39
743.823	40163.38
744.162	40060.33
744.502	40291.29
744.841	40045.19
745.181	40202.7
745.52	39983.27
745.86	40156.15
746.199	39955.47
746.538	39924.97
746.877	40036.6
747.216	40087.9
747.556	39924.97
747.895	39896.95
748.234	39743.05
748.573	39572.21
748.911	39594.81
749.25	39667.8
749.589	39564.98
749.928	39661.25
750.267	39449.73
750.605	39511.87
750.944	39404.75
751.283	39324.3
751.621	39294.02
751.96	38979.46
752.298	39076.18
752.636	39099
752.975	38909.4
753.313	38761.61
753.651	38903.75
753.989	38711.21
754.327	38588.05
754.666	38436.42
755.004	38727.03
755.342	38588.28
755.679	38407.49
756.017	38422.18
756.355	38309.64
756.693	38196.2
757.031	38276.42
757.368	37940.16
757.706	37912.82
758.044	37843.67
758.381	37857.68
758.719	37746.95
759.056	37755.31
759.394	37634.63
759.731	37324.58
760.068	37338.82
760.405	37192.16
760.743	37209.78
761.08	37149.67
761.417	36987.64
761.754	36972.05
762.091	36920.07
762.428	36694.09
762.765	36519.86
763.102	36626.3
763.438	36433.08
763.775	36286.19
764.112	36212.07
764.449	36351.73
764.785	36135.24
765.122	35981.79
765.458	35747.9
765.795	35730.28
766.131	35866.54
766.467	35611.41
766.804	35467.68
767.14	35182.49
767.476	35436.95
767.812	35086
768.148	35128.94
768.485	34927.58
768.821	34742.73
769.157	34756.97
769.492	34596.07
769.828	34444.89
770.164	34354.49
770.5	34302.29
770.836	34141.16
771.171	34035.18
771.507	33984.33
771.842	33642.42
772.178	33605.81
772.513	33645.36
772.849	33473.84
773.184	33311.13
773.519	33311.13
773.855	33204.01
774.19	33142.09
774.525	32901.87
774.86	33000.63
775.195	32773.97
775.53	32715.21
775.865	32422.57
776.2	32207.2
776.535	32038.39
776.87	32030.49
777.205	31930.83
777.539	31851.96
777.874	31929.02
778.209	31439.54
778.543	31581.23
778.878	31266.66
779.212	31315.93
779.547	31167.01
779.881	31278.19
780.215	31064.86
780.55	30999.33
780.884	30774.47
781.218	30740.35
781.552	30686.57
781.886	30545.78
782.22	30408.61
782.554	30318.44
782.888	29981.5
783.222	29946.7
783.556	29869.86
783.889	29688.4
784.223	29647.72
784.557	29601.17
784.89	29607.05
785.224	29433.04
785.557	29285.92
785.891	29285.47
786.224	29175.87
786.558	28994.18
786.891	28803
787.224	28818.82
787.557	28623.57
787.891	28656.34
788.224	28690.01
788.557	28538.37
788.89	28411.37
789.223	28440.3
789.556	28135.22
789.888	28072.17
790.221	27925.28
790.554	27717.15
790.887	27805.06
791.219	27807.32
791.552	27635.12
791.884	27421.34
792.217	27405.75
792.549	27328.01
792.882	27013.67
793.214	27010.05
793.546	27106.1
793.879	26951.75
794.211	26716.73
794.543	26867.01
794.875	26540.69
795.207	26819.78
795.539	26513.12
795.871	26625.88
796.203	26237.42
796.535	26156.29
796.867	26089.17
797.198	26180.24
797.53	26040.13
797.862	25950.87
798.193	25981.6
798.525	25696.41
798.856	25787.94
799.188	25525.57
799.519	25454.39
799.85	25330.55
800.182	25443.77
800.513	25353.6
800.844	25153.15
801.175	25234.96
801.506	25078.13
801.837	25045.13
802.168	24923.78
802.499	24945.7
802.83	24737.34
803.161	24700.96
803.491	24625.93
803.822	24653.96
804.153	24526.95
804.483	24328.54
804.814	24244.7
805.145	24241.54
805.475	24173.06
805.805	24095.78
806.136	24083.58
806.466	24061.2
806.796	23967.87
807.126	23898.04
807.457	23713.19
807.787	23653.53
808.117	23651.04
808.447	23560.43
808.777	23588.22
809.107	23528.34
809.436	23465.29
809.766	23366.08
810.096	23320.88
810.426	23220.55
810.755	23271.85
811.085	23093.77
811.414	23134.67
811.744	23032.53
812.073	22829.37
812.403	22912.53
812.732	22699.88
813.061	22698.3
813.39	22570.85
813.719	22561.81
814.049	22610.39
814.378	22432.55
814.707	22396.16
815.036	22357.97
815.365	22284.75
815.693	22150.75
816.022	22219.67
816.351	22120.24
816.68	22004.08
817.008	22039.34
817.337	21814.93
817.665	21820.13
817.994	21842.73
818.322	21807.93
818.651	21663.53
818.979	21597.77
819.307	21752.56
819.636	21633.02
819.964	21545.56
820.292	21434.38
820.62	21517.54
820.948	21398
821.276	21492.01
821.604	21446.13
821.932	21303.99
822.259	21483.87
822.587	21415.85
822.915	21389.64
823.243	21339.47
823.57	21293.82
823.898	21360.48
824.225	21246.81
824.553	21327.94
824.88	21268.96
825.207	21376.53
825.535	21266.93
825.862	21380.37
826.189	21325
826.516	21385.79
826.843	21339.24
827.17	21342.4
827.497	21262.63
827.824	21227.61
828.151	21305.34
828.478	21241.62
828.805	21354.38
829.131	21276.19
829.458	21208.85
829.785	21087.27
830.111	21133.14
830.438	21280.49
830.764	21134.73
831.09	21322.07
831.417	21187.61
831.743	21240.71
832.069	21181.05
832.395	21078.23
832.722	21229.64
833.048	21105.12
833.374	21089.53
833.7	21024
834.026	21109.42
834.351	21130.43
834.677	21107.83
835.003	21063.32
835.329	21098.12
835.654	21056.31
835.98	20858.35
836.306	21011.57
836.631	20900.38
836.956	20891.12
837.282	20985.35
837.607	20662.2
837.932	20749.2
838.258	20773.15
838.583	20710.56
838.908	20631.92
839.233	20607.73
839.558	20628.53
839.883	20603.89
840.208	20416.1
840.533	20581.52
840.858	20572.03
841.182	20469.66
841.507	20429.43
841.832	20269.89
842.156	20285.03
842.481	20311.47
842.805	20107.86
843.13	20144.24
843.454	20091.82
843.778	20086.17
844.103	19947.64
844.427	19901.76
844.751	19983.12
845.075	19859.73
845.399	19872.61
845.723	19687.99
846.047	19733.86
846.371	19589.46
846.695	19628.55
847.019	19355.34
847.343	19410.03
847.666	19351.27
847.99	19236.25
848.313	19176.13
848.637	19168.45
848.96	19081.67
849.284	18943.82
849.607	18917.84
849.931	18768.46
850.254	18644.62
850.577	18526.43
850.9	18445.98
851.223	18454.57
851.546	18350.85
851.869	18207.8
852.192	18378.87
852.515	18211.64
852.838	18095.26
853.161	18159.21
853.483	17987.01
853.806	17835.6
854.129	17834.7
854.451	17796.51
854.774	17741.14
855.096	17704.08
855.419	17645.78
855.741	17589.28
856.063	17512.68
856.385	17436.74
856.708	17410.76
857.03	17220.25
857.352	17256.41
857.674	17261.38
857.996	17055.96
858.318	17137.77
858.64	17020.71
858.961	16994.72
859.283	17102.52
859.605	16867.72
859.926	16977.1
860.248	16823.88
860.57	16740.27
860.891	16801.96
861.212	16673.83
861.534	16593.6
861.855	16719.48
862.176	16686.93
862.498	16604.9
862.819	16599.7
863.14	16415.08
863.461	16433.16
863.782	16329.88
864.103	16443.78
864.424	16288.3
864.745	16438.13
865.065	16312.48
865.386	16225.7
865.707	16207.17
866.027	16197.23
866.348	16149.1
866.668	16178.25
866.989	16064.13
867.309	16061.19
867.63	16068.65
867.95	16040.4
868.27	15918.14
868.59	16030.91
868.91	15948.2
869.23	15908.2
869.55	15766.73
869.87	15895.09
870.19	15750.24
870.51	15921.76
870.83	15855.32
871.15	15756.11
871.469	15690.12
871.789	15785.49
872.109	15730.8
872.428	15578.04
872.748	15687.19
873.067	15725.6
873.386	15681.99
873.706	15725.15
874.025	15503.46
874.344	15509.79
874.663	15534.2
874.982	15469.11
875.301	15478.6
875.62	15458.72
875.939	15440.41
876.258	15396.12
876.577	15427.98
876.896	15365.16
877.214	15235.9
877.533	15289.91
877.852	15254.66
878.17	15190.02
878.489	15183.92
878.807	15305.5
879.125	15094.66
879.444	15144.38
879.762	15005.4
880.08	15131.04
880.398	14955
880.716	15025.06
881.034	14945.28
881.352	14987.54
881.67	14962.91
881.988	14950.03
882.306	14837.94
882.624	14842.91
882.941	14786.19
883.259	14685.4
883.577	14653.99
883.894	14651.96
884.212	14540.32
884.529	14619.42
884.846	14525.86
885.164	14477.95
885.481	14484.28
885.798	14538.97
886.115	14307.79
886.432	14417.39
886.75	14281.57
887.067	14320.22
887.383	14214.23
887.7	14330.16
888.017	14179.88
888.334	14225.98
888.651	14203.16
888.967	14205.87
889.284	14036.16
889.6	14062.14
889.917	13968.14
890.233	13941.92
890.55	13901.02
890.866	13854.92
891.182	13784.41
891.498	13775.6
891.815	13633.91
892.131	13611.76
892.447	13689.5
892.763	13598.2
893.079	13628.71
893.395	13551.65
893.71	13522.95
894.026	13502.16
894.342	13424.42
894.657	13226.01
894.973	13326.34
895.289	13341.49
895.604	13407.92
895.92	13211.55
896.235	13232.11
896.55	13061.27
896.865	13055.84
897.181	13052.45
897.496	13019.01
897.811	13040.7
898.126	12902.85
898.441	12939.46
898.756	12817.66
899.071	12756.64
899.386	12766.36
899.7	12709.64
900.015	12631.22
900.33	12579.92
900.644	12532.24
900.959	12463.77
901.273	12506.48
901.588	12458.8
901.902	12335.41
902.216	12258.35
902.531	12248.86
902.845	12135.19
903.159	12154.17
903.473	12081.41
903.787	12066.26
904.101	12026.49
904.415	11912.14
904.729	11941.97
905.042	11906.04
905.356	11905.14
905.67	11768.42
905.984	11802.77
906.297	11761.87
906.611	11659.27
906.924	11635.54
907.237	11584.47
907.551	11469.67
907.864	11456.56
908.177	11462.89
908.491	11423.12
908.804	11364.14
909.117	11307.64
909.43	11317.81
909.743	11249.79
910.056	11152.84
910.368	11036.24
910.681	11064.71
910.994	11017.25
911.307	11000.08
911.619	10902.23
911.932	10903.36
912.244	10827.88
912.557	10758.05
912.869	10707.66
913.181	10711.5
913.494	10649.35
913.806	10573.2
914.118	10624.04
914.43	10486.65
914.742	10532.97
915.054	10361.22
915.366	10390.15
915.678	10392.18
915.99	10269.7
916.302	10182.25
916.613	10223.38
916.925	10155.81
917.236	10165.98
917.548	10077.16
917.859	10144.73
918.171	10011.4
918.482	9971.4
918.794	9986.55
919.105	9932.76
919.416	9855.02
919.727	9799.43
920.038	9769.38
920.349	9692.54
920.66	9661.81
920.971	9708.81
921.282	9670.62
921.593	9524.18
921.903	9577.29
922.214	9411.87
922.525	9512.21
922.835	9388.37
923.146	9310.4
923.456	9350.86
923.767	9259.78
924.077	9300.91
924.387	9205.77
924.697	9161.48
925.008	9150.41
925.318	9093.91
925.628	9021.6
925.938	9018.89
926.248	8900.25
926.558	8922.62
926.867	8891.21
927.177	8868.16
927.487	8777.31
927.796	8743.19
928.106	8704.09
928.416	8668.39
928.725	8633.36
929.034	8520.6
929.344	8558.56
929.653	8573.7
929.962	8407.15
930.271	8454.83
930.581	8360.6
930.89	8292.13
931.199	8238.79
931.508	8317.66
931.817	8327.38
932.125	8276.53
932.434	8202.41
932.743	8119.02
933.051	8075.86
933.36	8042.19
933.669	8026.14
933.977	8005.58
934.286	7961.06
934.594	7951.57
934.902	7873.61
935.21	7827.51
935.519	7890.78
935.827	7861.4
936.135	7765.59
936.443	7722.2
936.751	7636.32
937.059	7663.67
937.367	7637
937.674	7597.23
937.982	7546.38
938.29	7510.68
938.597	7508.42
938.905	7451.7
939.213	7385.94
939.52	7380.51
939.827	7346.16
940.135	7287.18
940.442	7273.17
940.749	7245.15
941.056	7254.64
941.363	7192.04
941.67	7216.45
941.977	7189.1
942.284	7063.01
942.591	7092.16
942.898	7018.49
943.205	7038.83
943.511	6997.25
943.818	7037.24
944.125	6918.38
944.431	6966.29
944.738	6884.48
945.044	6860.07
945.35	6800.41
945.657	6759.74
945.963	6726.97
946.269	6732.39
946.575	6729.46
946.881	6685.16
947.187	6670.25
947.493	6575.34
947.799	6564.26
948.105	6582.57
948.41	6559.97
948.716	6496.47
949.022	6456.92
949.327	6419.18
949.633	6366.08
949.938	6345.29
950.244	6396.13
950.549	6279.75
950.854	6315.91
951.16	6238.17
951.465	6239.75
951.77	6201.79
952.075	6161.56
952.38	6106.42
952.685	6101.22
952.99	6083.6
953.294	6064.39
953.599	6042.47
953.904	5997.72
954.209	5967.22
954.513	5966.54
954.818	5908.91
955.122	5894
955.426	5844.28
955.731	5804.96
956.035	5811.97
956.339	5766.77
956.643	5814.9
956.948	5744.85
957.252	5715.92
957.556	5739.88
957.86	5645.64
958.163	5682.25
958.467	5590.95
958.771	5609.49
959.075	5572.65
959.378	5503.27
959.682	5494.69
959.985	5498.98
960.289	5459.66
960.592	5464.63
960.896	5407.23
961.199	5392.32
961.502	5360.45
961.805	5324.52
962.108	5301.24
962.411	5272.09
962.714	5197.74
963.017	5260.57
963.32	5222.38
963.623	5188.71
963.926	5241.59
964.228	5131.53
964.531	5124.98
964.833	5111.42
965.136	5117.29
965.438	5062.83
965.741	5048.14
966.043	5013.12
966.345	4995.04
966.648	5043.4
966.95	5001.14
967.252	4939.22
967.554	4912.33
967.856	4933.12
968.158	4866.45
968.46	4828.26
968.761	4822.16
969.063	4793.24
969.365	4792.33
969.666	4764.99
969.968	4736.97
970.269	4759.56
970.571	4702.16
970.872	4686.35
971.174	4680.92
971.475	4618.55
971.776	4627.82
972.077	4602.05
972.378	4570.19
972.679	4586.69
972.98	4558.89
973.281	4492.68
973.582	4516.63
973.883	4457.88
974.183	4417.88
974.484	4468.72
974.785	4444.54
975.085	4356.41
975.386	4353.02
975.686	4373.59
975.986	4325.45
976.287	4321.38
976.587	4283.87
976.887	4273.93
977.187	4256.98
977.487	4250.65
977.787	4204.1
978.087	4173.82
978.387	4203.42
978.687	4132.91
978.987	4147.15
979.286	4123.65
979.586	4130.2
979.885	4053.37
980.185	4068.96
980.484	3998.68
980.784	4011.79
981.083	4005.23
981.382	4009.98
981.682	4007.04
981.981	3980.38
982.28	3955.07
982.579	3876.2
982.878	3884.11
983.177	3897.89
983.475	3857.44
983.774	3851.79
984.073	3842.3
984.372	3805.69
984.67	3815.86
984.969	3784
985.267	3748.29
985.566	3728.18
985.864	3741.06
986.162	3721.4
986.461	3691.8
986.759	3697.45
987.057	3663.1
987.355	3661.29
987.653	3639.59
987.951	3600.72
988.249	3618.13
988.547	3570.89
988.844	3551.69
989.142	3564.79
989.44	3512.14
989.737	3495.64
990.035	3470.33
990.332	3471.69
990.63	3456.1
990.927	3457.68
991.224	3436.44
991.521	3419.49
991.819	3367.06
992.116	3391.01
992.413	3359.37
992.71	3382.65
993.006	3373.61
993.303	3311.24
993.6	3282.54
993.897	3274.18
994.193	3270.34
994.49	3255.87
994.787	3239.38
995.083	3222.88
995.379	3186.95
995.676	3207.06
995.972	3186.27
996.268	3158.25
996.565	3145.14
996.861	3119.61
997.157	3118.7
997.453	3112.6
997.749	3079.16
998.044	3057.91
998.34	3054.52
998.636	3047.29
998.932	3003.68
999.227	2966.39
999.523	2963.23
999.818	2946.96
1000.114	2920.74
1000.409	2912.83
1000.704	2897.69
1001	2884.81
1001.295	2878.94
1001.59	2845.94
1001.885	2869.67
1002.18	2805.04
1002.475	2786.73
1002.77	2781.99
1003.065	2805.27
1003.359	2720.97
1003.654	2755.77
1003.949	2724.82
1004.243	2707.87
1004.538	2708.32
1004.832	2689.34
1005.127	2685.27
1005.421	2638.04
1005.715	2647.53
1006.009	2621.32
1006.304	2602.11
1006.598	2605.5
1006.892	2553.29
1007.186	2553.97
1007.48	2558.27
1007.773	2518.27
1008.067	2489.57
1008.361	2511.26
1008.655	2510.81
1008.948	2487.53
1009.242	2456.8
1009.535	2409.57
1009.829	2391.94
1010.122	2338.84
1010.415	2393.07
1010.708	2403.47
1011.001	2396.24
1011.295	2343.13
1011.588	2338.84
1011.881	2324.6
1012.173	2317.37
1012.466	2282.12
1012.759	2296.13
1013.052	2250.7
1013.344	2248.67
1013.637	2221.55
1013.93	2211.16
1014.222	2250.48
1014.514	2193.98
1014.807	2186.52
1015.099	2181.33
1015.391	2145.17
1015.683	2177.26
1015.976	2117.37
1016.268	2106.75
1016.56	2125.51
1016.851	2108.56
1017.143	2103.14
1017.435	2071.73
1017.727	2049.35
1018.018	2031.05
1018.31	2024.04
1018.602	2025.62
1018.893	1967.1
1019.185	1968.23
1019.476	1993.31
1019.767	1975.91
1020.058	1941.56
1020.35	1944.5
1020.641	1951.95
1020.932	1885.06
1021.223	1889.36
1021.514	1828.57
1021.804	1845.74
1022.095	1837.83
1022.386	1840.54
1022.677	1850.26
1022.967	1805.74
1023.258	1777.72
1023.548	1775.24
1023.839	1778.85
1024.129	1763.94
1024.419	1742.47
1024.709	1729.36
1025	1710.83
1025.29	1696.82
1025.58	1700.89
1025.87	1659.31
1026.16	1677.39
1026.449	1681.68
1026.739	1681.68
1027.029	1654.11
1027.319	1655.92
1027.608	1622.92
1027.898	1599.42
1028.187	1595.35
1028.477	1592.19
1028.766	1556.71
1029.055	1558.74
1029.344	1570.5
1029.634	1537.95
1029.923	1520.33
1030.212	1505.64
1030.501	1499.31
1030.79	1529.59
1031.078	1474.9
1031.367	1494.79
1031.656	1462.02
1031.945	1447.11
1032.233	1457.05
1032.522	1466.09
1032.81	1427
1033.099	1409.37
1033.387	1422.93
1033.675	1423.61
1033.963	1382.03
1034.251	1370.27
1034.54	1350.39
1034.828	1345.42
1035.116	1344.74
1035.403	1327.34
1035.691	1330.95
1035.979	1328.02
1036.267	1297.96
1036.554	1320.78
1036.842	1269.26
1037.129	1271.07
1037.417	1276.72
1037.704	1245.08
1037.992	1285.08
1038.279	1220
1038.566	1216.83
1038.853	1216.83
1039.14	1216.83
