Data from orange_diffuse_book_FLMS001491_00077.txt Node
Date: Wed Feb 08 15:30:02 GMT 2017
User: dcchb
Spectrometer: FLMS00149
Trigger mode: 0
Integration Time (sec): 2.000000E-2
Scans to average: 10
Electric dark correction enabled: true
Nonlinearity correction enabled: false
Boxcar width: 0
XAxis mode: Wavelengths
Number of Pixels in Spectrum: 2048
>>>>>Begin Spectral Data<<<<<
341.393	-4.66
341.776	-4.66
342.16	-4.66
342.543	-61.61
342.927	-54.83
343.31	-55.73
343.693	-70.65
344.077	-60.25
344.46	-66.35
344.843	-38.33
345.226	-61.16
345.61	-17.54
345.993	-19.35
346.376	-8.28
346.759	8.22
347.142	39.63
347.525	38.73
347.908	56.35
348.291	62.68
348.674	85.96
349.057	106.07
349.44	136.8
349.823	143.36
350.206	150.14
350.588	194.88
350.971	209.12
351.354	240.76
351.737	243.69
352.119	262.9
352.502	265.16
352.884	289.34
353.267	295.22
353.65	297.25
354.032	319.4
354.414	306.74
354.797	325.27
355.179	338.38
355.562	325.5
355.944	335.67
356.326	334.54
356.709	331.15
357.091	351.71
357.473	365.05
357.855	365.95
358.238	360.98
358.62	348.1
359.002	348.55
359.384	355.33
359.766	368.44
360.148	366.85
360.53	359.17
360.912	344.26
361.294	361.88
361.676	340.87
362.057	379.06
362.439	339.51
362.821	340.87
363.203	345.16
363.584	339.74
363.966	348.55
364.348	347.87
364.729	321.43
365.111	331.38
365.493	330.47
365.874	336.8
366.256	332.96
366.637	352.62
367.019	345.39
367.4	315.56
367.781	334.54
368.163	321.66
368.544	291.15
368.925	348.1
369.306	350.81
369.688	328.89
370.069	328.21
370.45	306.74
370.831	332.28
371.212	320.75
371.593	338.83
371.974	329.12
372.355	324.82
372.736	345.16
373.117	345.39
373.498	304.48
373.879	321.43
374.26	327.08
374.641	329.12
375.021	327.08
375.402	335.22
375.783	353.07
376.163	321.66
376.544	337.7
376.925	330.25
377.305	353.3
377.686	345.39
378.066	330.92
378.447	346.97
378.827	346.29
379.208	357.59
379.588	349
379.968	357.82
380.349	336.12
380.729	318.04
381.109	345.16
381.489	356.46
381.87	377.7
382.25	336.35
382.63	353.52
383.01	367.53
383.39	369.79
383.77	361.88
384.15	370.47
384.53	365.5
384.91	357.14
385.29	355.33
385.67	385.39
386.049	372.28
386.429	373.41
386.809	372.73
387.189	380.87
387.568	355.1
387.948	356.69
388.328	381.09
388.707	371.6
389.087	386.06
389.466	369.11
389.846	365.05
390.225	394.42
390.605	367.53
390.984	384.71
391.363	383.35
391.743	383.58
392.122	379.74
392.501	380.64
392.881	401.43
393.26	403.24
393.639	386.97
394.018	391.71
394.397	419.51
394.776	405.27
395.155	413.41
395.534	408.44
395.913	382
396.292	407.31
396.671	401.88
397.05	403.24
397.429	406.63
397.808	406.4
398.186	395.1
398.565	421.77
398.944	417.25
399.323	401.43
399.701	417.25
400.08	430.36
400.458	416.12
400.837	422.9
401.215	396.01
401.594	409.79
401.972	435.55
402.351	396.01
402.729	427.87
403.107	426.74
403.486	421.09
403.864	438.94
404.242	433.07
404.62	419.06
404.999	428.1
405.377	450.02
405.755	444.82
406.133	447.3
406.511	455.44
406.889	455.21
407.267	461.32
407.645	446.4
408.023	470.81
408.401	458.15
408.779	452.95
409.156	467.42
409.534	456.8
409.912	487.08
410.29	480.3
410.667	490.69
411.045	475.78
411.422	495.44
411.8	481.43
412.178	509
412.555	487.98
412.933	480.98
413.31	508.77
413.687	487.3
414.065	511.48
414.442	502.67
414.819	534.99
415.197	517.81
415.574	521.43
415.951	522.33
416.328	530.24
416.705	528.66
417.082	515.33
417.46	537.02
417.837	544.48
418.214	541.54
418.591	529.34
418.967	568.43
419.344	541.77
419.721	558.26
420.098	561.88
420.475	561.43
420.852	568.66
421.228	557.58
421.605	544.7
421.982	569.11
422.358	576.79
422.735	566.4
423.111	579.96
423.488	575.21
423.864	589.9
424.241	595.55
424.617	605.27
424.994	601.88
425.37	605.27
425.746	593.74
426.123	633.97
426.499	627.64
426.875	642.55
427.251	626.73
427.627	631.48
428.003	652.5
428.379	670.8
428.756	675.77
429.132	645.72
429.507	670.35
429.883	640.29
430.259	672.38
430.635	654.53
431.011	688.65
431.387	695.89
431.763	715.09
432.138	683.23
432.514	717.35
432.89	707.41
433.265	716.45
433.641	717.81
434.016	714.64
434.392	748.31
434.767	730.46
435.143	741.53
435.518	707.18
435.894	720.52
436.269	756.45
436.644	759.39
437.02	774.53
437.395	767.3
437.77	792.15
438.145	766.17
438.52	827.86
438.895	813.85
439.271	807.97
439.646	791.25
440.021	816.56
440.395	815.66
440.77	814.98
441.145	824.7
441.52	835.32
441.895	813.85
442.27	847.29
442.645	833.51
443.019	838.71
443.394	847.07
443.769	857.24
444.143	845.94
444.518	860.4
444.892	861.53
445.267	880.06
445.641	861.76
446.016	873.73
446.39	898.14
446.764	891.59
447.139	865.37
447.513	874.64
447.887	890.68
448.262	861.31
448.636	878.93
449.01	897.69
449.384	918.7
449.758	911.7
450.132	905.37
450.506	941.3
450.88	929.1
451.254	931.36
451.628	922.09
452.002	941.98
452.376	961.19
452.75	938.37
453.123	945.6
453.497	957.8
453.871	978.36
454.244	983.79
454.618	979.72
454.992	984.24
455.365	986.27
455.739	1000.96
456.112	1026.27
456.486	1031.24
456.859	1017.01
457.232	1040.06
457.606	1051.13
457.979	1018.36
458.352	1082.32
458.725	1061.98
459.099	1087.06
459.472	1076.21
459.845	1078.47
460.218	1120.06
460.591	1099.04
460.964	1110.34
461.337	1136.1
461.71	1128.64
462.083	1140.85
462.456	1134.97
462.829	1141.75
463.201	1174.07
463.574	1171.58
463.947	1173.16
464.32	1203.44
464.692	1206.83
465.065	1240.73
465.438	1233.05
465.81	1236.44
466.183	1236.44
466.555	1247.96
466.928	1242.31
467.3	1248.19
467.672	1272.82
468.045	1281.86
468.417	1291.12
468.789	1282.76
469.161	1303.1
469.534	1342.42
469.906	1327.51
470.278	1352.37
470.65	1357.79
471.022	1413.15
471.394	1383.1
471.766	1391.46
472.138	1417.45
472.51	1455.64
472.882	1442.08
473.253	1449.09
473.625	1487.96
473.997	1513.72
474.369	1520.5
474.74	1521.17
475.112	1559.14
475.484	1574.51
475.855	1577.67
476.227	1578.8
476.598	1612.92
476.97	1626.03
477.341	1641.85
477.713	1691.34
478.084	1678.01
478.455	1718.68
478.827	1747.61
479.198	1779.47
479.569	1792.35
479.94	1827.83
480.311	1863.09
480.682	1880.71
481.053	1915.74
481.424	1951.45
481.795	1937.66
482.166	1970.65
482.537	1981.73
482.908	2022.18
483.279	2040.71
483.65	2085.45
484.021	2170.65
484.391	2143.31
484.762	2157.54
485.133	2175.62
485.503	2165.9
485.874	2260.82
486.244	2307.59
486.615	2336.97
486.985	2330.42
487.356	2389.63
487.726	2441.38
488.097	2470.98
488.467	2502.39
488.837	2526.12
489.207	2589.85
489.578	2616.97
489.948	2607.7
490.318	2661.71
490.688	2705.78
491.058	2738.77
491.428	2791.2
491.798	2789.62
492.168	2859.22
492.538	2904.64
492.908	2909.84
493.278	2913.23
493.648	2971.53
494.017	2993.9
494.387	3044.75
494.757	3112.77
495.126	3127.46
495.496	3140.79
495.866	3217.85
496.235	3204.29
496.605	3279.09
496.974	3286.78
497.344	3303.27
497.713	3350.96
498.082	3366.32
498.452	3413.1
498.821	3411.52
499.19	3489.94
499.559	3517.28
499.928	3551.63
500.298	3571.06
500.667	3586.66
501.036	3606.54
501.405	3633.44
501.774	3678.86
502.143	3739.87
502.512	3719.08
502.88	3741.46
503.249	3816.48
503.618	3786.65
503.987	3826.42
504.356	3909.81
504.724	3918.4
505.093	3960.21
505.462	3926.99
505.83	3965.4
506.199	4027.32
506.567	4122.24
506.936	4116.36
507.304	4182.57
507.672	4192.97
508.041	4210.82
508.409	4242.69
508.777	4268
509.145	4304.6
509.514	4302.12
509.882	4353.64
510.25	4379.86
510.618	4406.3
510.986	4435.67
511.354	4464.6
511.722	4544.15
512.09	4506.86
512.458	4552.73
512.826	4607.42
513.193	4590.92
513.561	4631.6
513.929	4679.51
514.297	4729.45
514.664	4773.52
515.032	4783.46
515.4	4856.45
515.767	4855.1
516.135	4853.97
516.502	4845.83
516.869	4958.82
517.237	4987.07
517.604	5006.51
517.972	5051.25
518.339	5114.98
518.706	5144.81
519.073	5135.32
519.44	5097.35
519.808	5247.18
520.175	5248.31
520.542	5308.19
520.909	5359.72
521.276	5317.69
521.643	5373.05
522.009	5411.92
522.376	5415.08
522.743	5477.23
523.11	5528.75
523.477	5624.12
523.843	5616.21
524.21	5646.72
524.577	5698.92
524.943	5790.21
525.31	5756.77
525.676	5883.32
526.043	5823.66
526.409	5916.54
526.776	5944.56
527.142	5958.12
527.508	5972.58
527.874	6049.19
528.241	6032.69
528.607	6048.74
528.973	6174.61
529.339	6115.63
529.705	6187.94
530.071	6227.72
530.437	6308.62
530.803	6316.3
531.169	6333.48
531.535	6345.23
531.901	6349.3
532.267	6419.58
532.632	6446.47
532.998	6463.87
533.364	6573.02
533.73	6541.61
534.095	6553.36
534.461	6594.71
534.826	6652.57
535.192	6607.82
535.557	6703.41
535.923	6721.72
536.288	6702.96
536.653	6737.99
537.019	6736.18
537.384	6790.41
537.749	6835.84
538.114	6871.77
538.479	6881.03
538.845	6922.61
539.21	6939.34
539.575	6946.57
539.94	7027.92
540.305	7007.81
540.67	7034.25
541.034	7049.39
541.399	7089.16
541.764	7118.09
542.129	7137.75
542.494	7194.25
542.858	7247.8
543.223	7268.14
543.587	7287.58
543.952	7300.01
544.316	7282.15
544.681	7351.3
545.045	7456.39
545.41	7470.17
545.774	7453.45
546.138	7507.46
546.503	7545.65
546.867	7601.47
547.231	7651.41
547.595	7587.46
547.959	7660.22
548.324	7706.1
548.688	7727.11
549.052	7788.35
549.416	7813.44
549.779	7801.46
550.143	7854.79
550.507	7925.75
550.871	7945.86
551.235	8017.05
551.599	8077.61
551.962	8116.03
552.326	8090.95
552.689	8224.73
553.053	8166.88
553.417	8232.41
553.78	8260.43
554.143	8371.62
554.507	8419.52
554.87	8459.98
555.234	8545.85
555.597	8557.6
555.96	8636.02
556.323	8674.88
556.686	8685.73
557.05	8721.21
557.413	8789.91
557.776	8822
558.139	8960.98
558.502	9006.85
558.865	8946.74
559.228	9075.33
559.59	9149
559.953	9165.95
560.316	9364.36
560.679	9372.49
561.041	9426.73
561.404	9578.36
561.767	9587.86
562.129	9591.92
562.492	9775.42
562.854	9851.58
563.217	9874.18
563.579	9965.47
563.941	10036.43
564.304	10109.2
564.666	10268.29
565.028	10322.53
565.39	10383.09
565.753	10553.93
566.115	10616.75
566.477	10669.86
566.839	10841.61
567.201	10916.63
567.563	11051.55
567.925	11192.33
568.287	11214.71
568.648	11349.84
569.01	11456.28
569.372	11658.99
569.734	11651.3
570.095	11830.73
570.457	12013.1
570.819	12118.64
571.18	12258.75
571.542	12442.24
571.903	12663.03
572.265	12729.92
572.626	12915.23
572.987	13110.47
573.349	13181.43
573.71	13438.6
574.071	13557.47
574.432	13827.52
574.794	14040.39
575.155	14276.32
575.516	14326.04
575.877	14614.62
576.238	14843.99
576.599	15199.91
576.96	15219.35
577.32	15539.34
577.681	15802.38
578.042	16018.19
578.403	16297.51
578.763	16526.43
579.124	16870.83
579.485	17118.28
579.845	17365.05
580.206	17631.71
580.566	17955.77
580.927	18307.17
581.287	18640.27
581.648	18806.6
582.008	19179.02
582.368	19501.04
582.728	19933.12
583.089	20105.77
583.449	20478.87
583.809	20872.76
584.169	21338.96
584.529	21735.56
584.889	22201.76
585.249	22471.36
585.609	22817.79
585.969	23288.06
586.329	23542.52
586.688	24087.81
587.048	24304.53
587.408	24843.5
587.768	25220.21
588.127	25568.23
588.487	25968.44
588.846	26621.31
589.206	26811.13
589.565	27335.86
589.925	27914.61
590.284	28153.02
590.643	28691.31
591.003	29167.23
591.362	29675.69
591.721	30087.66
592.08	30661.88
592.44	31173.05
592.799	31622.3
593.158	31880.83
593.517	32460.25
593.876	32832.22
594.235	33354.46
594.593	33909.93
594.952	34452.29
595.311	34785.61
595.67	35264.69
596.029	35802.31
596.387	36462.63
596.746	36855.84
597.104	37101.26
597.463	37554.35
597.822	38125.18
598.18	38384.39
598.538	38921.32
598.897	39329.22
599.255	39551.81
599.613	40560.83
599.972	40704.33
600.33	41250.3
600.688	41470.18
601.046	41962.15
601.404	42524.39
601.762	42755.34
602.12	43361.66
602.478	43560.07
602.836	43998.48
603.194	44306.72
603.552	44652.92
603.91	44918
604.268	45452.45
604.625	45651.77
604.983	46202.94
605.341	46332.43
605.698	46793.43
606.056	47058.06
606.413	47385.05
606.771	47591.38
607.128	47973.74
607.485	48071.59
607.843	48222.09
608.2	48683.32
608.557	48995.63
608.914	49085.12
609.272	49453.47
609.629	49610.08
609.986	49935.95
610.343	49955.38
610.7	50448.02
611.057	50510.17
611.414	50660.22
611.771	50807.34
612.127	51102.7
612.484	51073.32
612.841	51398.73
613.198	51351.73
613.554	51496.81
613.911	51926.63
614.267	51871.49
614.624	52077.36
614.98	52138.15
615.337	52421.08
615.693	52485.48
616.05	52581.53
616.406	52770.22
616.762	52816.32
617.118	52827.4
617.475	53002.98
617.831	53130.89
618.187	53141.29
618.543	53236.88
618.899	53515.51
619.255	53483.42
619.611	53528.85
619.967	53715.06
620.323	53809.97
620.678	53708.05
621.034	53643.65
621.39	53766.13
621.746	53748.05
622.101	54166.12
622.457	53928.61
622.812	54087.02
623.168	54180.13
623.523	54232.11
623.879	54402.5
624.234	54195.72
624.589	54341.03
624.945	54373.57
625.3	54426.9
625.655	54410.18
626.01	54489.05
626.365	54455.15
626.72	54496.96
627.075	54442.27
627.43	54510.52
627.785	54507.58
628.14	54649.95
628.495	54642.72
628.85	54621.7
629.205	54569.27
629.559	54794.12
629.914	54614.02
630.269	54679.78
630.623	54647.01
630.978	54623.06
631.332	54799.55
631.687	54785.31
632.041	54701.47
632.396	54790.28
632.75	54647.46
633.104	54681.58
633.459	54574.69
633.813	54609.72
634.167	54598.42
634.521	54656.5
634.875	54640.91
635.229	54648.14
635.583	54503.51
635.937	54591.19
636.291	54586.67
636.645	54641.81
636.999	54467.81
637.352	54691.3
637.706	54373.57
638.06	54583.51
638.413	54496.73
638.767	54449.05
639.121	54567.92
639.474	54379.9
639.828	54422.16
640.181	54408.15
640.534	54517.3
640.888	54368.15
641.241	54264.19
641.594	54283.4
641.947	54440.01
642.301	54278.21
642.654	54297.64
643.007	54411.08
643.36	54317.75
643.713	54307.58
644.066	54393
644.419	54190.98
644.771	54059.91
645.124	53767.71
645.477	53709.86
645.83	53484.55
646.182	53497.89
646.535	53385.57
646.888	53493.37
647.24	53355.97
647.593	53514.16
647.945	53502.86
648.298	53320.49
648.65	53341.51
649.002	53262.87
649.355	53428.74
649.707	53258.57
650.059	53422.18
650.411	53756.86
650.763	53748.5
651.115	54111.2
651.467	53999.79
651.819	53960.47
652.171	53904.2
652.523	53889.97
652.875	53939.46
653.227	53795.73
653.578	53945.11
653.93	53932.9
654.282	53889.74
654.633	53774.94
654.985	53872.34
655.337	53905.56
655.688	53850.19
656.039	53886.13
656.391	53739.01
656.742	53809.52
657.094	53746.92
657.445	53879.35
657.796	53872.11
658.147	53709.18
658.498	53737.2
658.849	53847.71
659.2	53795.28
659.551	53597.09
659.902	53761.61
660.253	53700.14
660.604	53819.23
660.955	53685.23
661.306	53737.2
661.656	53709.86
662.007	53692.01
662.358	53707.6
662.708	53660.82
663.059	53660.82
663.409	53466.25
663.76	53666.92
664.11	53674.15
664.461	53704.66
664.811	53743.98
665.161	53677.77
665.511	53511.9
665.862	53583.31
666.212	53692.68
666.562	53621.5
666.912	53643.87
667.262	53548.28
667.612	53565.68
667.962	53554.83
668.312	53522.75
668.662	53595.74
669.011	53600.71
669.361	53476.42
669.711	53507.15
670.06	53356.87
670.41	53416.99
670.76	53355.74
671.109	53418.12
671.459	53367.72
671.808	53333.82
672.157	53464.89
672.507	53182.42
672.856	53245.01
673.205	53246.14
673.554	53334.28
673.904	53273.49
674.253	53322.98
674.602	53166.37
674.951	52801.41
675.3	52600.74
675.649	53105.81
675.998	53056.32
676.346	53028.75
676.695	53217.22
677.044	52934.29
677.393	52999.6
677.741	52968.18
678.09	52998.47
678.438	52867.62
678.787	52904.91
679.135	52985.13
679.484	52758.47
679.832	52879.15
680.181	52675.08
680.529	52884.57
680.877	52679.6
681.225	52713.05
681.573	52937.22
681.922	52547.18
682.27	52528.42
682.618	52541.08
682.966	52497.91
683.314	52472.6
683.661	52448.2
684.009	52273.29
684.357	52237.81
684.705	52219.5
685.053	52216.11
685.4	52230.35
685.748	51952.39
686.095	52004.37
686.443	51892.28
686.79	51921.43
687.138	51916.46
687.485	51942
687.832	51723.24
688.18	51690.25
688.527	51567.09
688.874	51567.32
689.221	51443.7
689.568	51286.65
689.915	51340.66
690.262	51209.13
690.609	51161
690.956	51082.58
691.303	51040.1
691.65	50885.75
691.997	50929.37
692.344	50670.62
692.69	50699.77
693.037	50733.67
693.383	50461.36
693.73	50477.85
694.077	50308.14
694.423	50401.92
694.769	50317.41
695.116	50250.74
695.462	50090.52
695.808	49982.5
696.155	50018.66
696.501	49758.1
696.847	49877.64
697.193	49490.31
697.539	49653.92
697.885	49279.92
698.231	49262.29
698.577	49268.62
698.923	49102.75
699.269	48921.06
699.614	48807.16
699.96	48861.62
700.306	48806.03
700.651	48470.9
700.997	48438.36
701.342	48531.01
701.688	48285.37
702.033	48188.2
702.379	48242.66
702.724	48033.4
703.069	48151.36
703.415	47628.89
703.76	47630.92
704.105	47702.79
704.45	47485.16
704.795	47339.18
705.14	47308.67
705.485	47269.35
705.83	47152.29
706.175	47047.44
706.52	47087.43
706.865	46809.02
707.209	46814.9
707.554	46581.46
707.899	46651.97
708.243	46423.95
708.588	46513.66
708.932	46106.44
709.277	46173.33
709.621	46176.95
709.966	45737.41
710.31	45993.9
710.654	45598.43
710.998	45699.45
711.342	45737.19
711.687	45527.48
712.031	45464.43
712.375	45240.03
712.719	45304.88
713.063	45322.28
713.407	45367.03
713.75	45148.95
714.094	45064.21
714.438	44888.85
714.782	44885.68
715.125	44777.66
715.469	44839.13
715.812	44602.53
716.156	44375.19
716.499	44429.43
716.843	44459.48
717.186	44227.85
717.53	44433.27
717.873	44303.33
718.216	44297.45
718.559	44140.62
718.902	43781.76
719.246	43961.64
719.589	43746.51
719.932	43608.66
720.275	43667.19
720.617	43716.9
720.96	43581.09
721.303	43478.94
721.646	43412.95
721.989	43322.11
722.331	43458.38
722.674	43431.03
723.016	43266.97
723.359	43139.74
723.701	43272.62
724.044	42998.28
724.386	42943.14
724.729	43020.65
725.071	42965.73
725.413	42972.06
725.755	42792.86
726.097	42543.15
726.439	42383.83
726.782	42544.28
727.124	42601.68
727.465	42484.62
727.807	42505.63
728.149	42314
728.491	42295.7
728.833	42337.5
729.175	42243.49
729.516	42130.73
729.858	42094.35
730.199	42041.69
730.541	42102.25
730.882	42019.54
731.224	42140.45
731.565	41808.7
731.906	42000.56
732.248	41821.81
732.589	41638.54
732.93	41627.69
733.271	41605.09
733.612	41742.49
733.953	41624.3
734.294	41545.89
734.635	41341.37
734.976	41575.71
735.317	41339.56
735.658	41424.98
735.999	41295.5
736.339	41329.39
736.68	41399.9
737.021	41243.52
737.361	41109.74
737.702	41309.73
738.042	41080.36
738.383	41066.58
738.723	41125.78
739.063	40877.2
739.404	40952.91
739.744	40908.61
740.084	40831.55
740.424	40840.37
740.764	40757.43
741.104	40714.72
741.444	40608.73
741.784	40573.26
742.124	40684.66
742.464	40557.21
742.804	40518.34
743.143	40356.31
743.483	40376.65
743.823	40168.07
744.162	40276.54
744.502	40301.17
744.841	40068.41
745.181	40194.73
745.52	40029.54
745.86	40048.3
746.199	40037.22
746.538	39926.27
746.877	40075.87
747.216	39948.86
747.556	39781.86
747.895	39868.64
748.234	39726.95
748.573	39511.81
748.911	39602.21
749.25	39656.9
749.589	39516.79
749.928	39622.77
750.267	39573.28
750.605	39386.62
750.944	39475.2
751.283	39301.42
751.621	39491.93
751.96	39160.41
752.298	39154.31
752.636	39049.23
752.975	39013.52
753.313	38855.11
753.651	38987.08
753.989	38857.37
754.327	38646.53
754.666	38534.21
755.004	38626.87
755.342	38652.63
755.679	38518.62
756.017	38420.77
756.355	38360.66
756.693	38205.41
757.031	38244.28
757.368	37996.37
757.706	37983.94
758.044	37809.49
758.381	37800.22
758.719	37848.58
759.056	37698.3
759.394	37646.1
759.731	37339.22
760.068	37242.95
760.405	37245.89
760.743	37086.34
761.08	37158.88
761.417	36904.43
761.754	36978.55
762.091	36841.38
762.428	36763.64
762.765	36559.12
763.102	36610.2
763.438	36546.69
763.775	36254.72
764.112	36379.47
764.449	36348.96
764.785	36152.58
765.122	35979.93
765.458	35938.8
765.795	35708.75
766.131	35771.8
766.467	35663.55
766.804	35527.06
767.14	35244.58
767.476	35244.36
767.812	35086.62
768.148	35196.9
768.485	34910.58
768.821	34743.58
769.157	34644.15
769.492	34605.73
769.828	34579.06
770.164	34423.81
770.5	34190.82
770.836	34279.64
771.171	34030.38
771.507	33927.78
771.842	33593.33
772.178	33768.91
772.513	33582.25
772.849	33559.43
773.184	33518.07
773.519	33304.97
773.855	33276.27
774.19	32975.26
774.525	32943.85
774.86	32958.77
775.195	32911.31
775.53	32515.39
775.865	32428.16
776.2	32380.48
776.535	32102.97
776.87	32105
777.205	31896.87
777.539	31790.89
777.874	31815.52
778.209	31508.86
778.543	31502.08
778.878	31334.18
779.212	31361.52
779.547	31151.81
779.881	31322.2
780.215	31110
780.55	31097.8
780.884	30693.06
781.218	30859.84
781.552	30729.9
781.886	30517.02
782.22	30407.42
782.554	30224.37
782.888	30134.21
783.222	29989.13
783.556	29903.93
783.889	29760.66
784.223	29587.33
784.557	29613.54
784.89	29586.65
785.224	29465.52
785.557	29338.07
785.891	29227.11
786.224	29049.04
786.558	29021.47
786.891	28936.95
787.224	28793.45
787.557	28596.39
787.891	28764.98
788.224	28644.08
788.557	28515.95
788.89	28351.66
789.223	28251.55
789.556	28218.33
789.888	28144.88
790.221	27961.16
790.554	27740.82
790.887	27768.17
791.219	27667.15
791.552	27661.5
791.884	27532.47
792.217	27346.03
792.549	27315.52
792.882	27052.03
793.214	27085.47
793.546	27119.82
793.879	26884.35
794.211	26727.74
794.543	26830.57
794.875	26755.99
795.207	26813.39
795.539	26620.4
795.871	26551.48
796.203	26317.58
796.535	26158.49
796.867	26128.21
797.198	26079.4
797.53	26031.04
797.862	25900.87
798.193	25871.49
798.525	25730.48
798.856	25712.4
799.188	25495.91
799.519	25465.63
799.85	25402.35
800.182	25412.52
800.513	25403.71
800.844	25052.31
801.175	25305.41
801.506	25044.85
801.837	24951.52
802.168	24936.6
802.499	24722.6
802.83	24724.63
803.161	24709.49
803.491	24626.1
803.822	24602.15
804.153	24627.23
804.483	24286.68
804.814	24235.61
805.145	24143.4
805.475	24184.53
805.805	24209.39
806.136	24093.24
806.466	23974.37
806.796	23944.99
807.126	23883.52
807.457	23713.36
807.787	23660.71
808.117	23542.52
808.447	23619.12
808.777	23641.72
809.107	23477.21
809.436	23442.41
809.766	23316.31
810.096	23305.01
810.426	23282.18
810.755	23193.6
811.085	23192.47
811.414	22981.4
811.744	22988.18
812.073	23008.97
812.403	22957.22
812.732	22655.53
813.061	22675.42
813.39	22581.86
813.719	22502.32
814.049	22606.72
814.378	22525.37
814.707	22393.62
815.036	22338.25
815.365	22373.28
815.693	22115.21
816.022	22131.71
816.351	22064.59
816.68	21916.57
817.008	22081.99
817.337	21832.05
817.665	21798.38
817.994	21899.17
818.322	21843.35
818.651	21650.14
818.979	21598.16
819.307	21696.92
819.636	21538.95
819.964	21489.46
820.292	21611.49
820.62	21611.72
820.948	21419.41
821.276	21519.74
821.604	21353.87
821.932	21555.68
822.259	21451.95
822.587	21345.06
822.915	21333.99
823.243	21422.57
823.57	21266.19
823.898	21383.48
824.225	21333.08
824.553	21323.37
824.88	21248.34
825.207	21285.85
825.535	21301.9
825.862	21348.9
826.189	21339.86
826.516	21341.22
826.843	21374.66
827.17	21288.56
827.497	21301.45
827.824	21324.5
828.151	21358.39
828.478	21313.2
828.805	21420.99
829.131	21356.36
829.458	21216.93
829.785	21132.18
830.111	21209.47
830.438	21236.36
830.764	21253.76
831.09	21375.79
831.417	21205.18
831.743	21264.16
832.069	21213.76
832.395	21153.88
832.722	21156.59
833.048	21134.44
833.374	21105.97
833.7	21074.11
834.026	21072.75
834.351	21063.49
834.677	21168.57
835.003	21112.52
835.329	21124.5
835.654	21003.15
835.98	20971.74
836.306	20952.75
836.631	20892.42
836.956	20835.47
837.282	20997.27
837.607	20827.33
837.932	20814.23
838.258	20754.57
838.583	20809.26
838.908	20677.28
839.233	20669.82
839.558	20592.54
839.883	20570.62
840.208	20578.98
840.533	20494.69
840.858	20515.7
841.182	20449.72
841.507	20433.67
841.832	20351.87
842.156	20130.85
842.481	20303.96
842.805	20258.31
843.13	20211.08
843.454	20172.44
843.778	20050.41
844.103	20048.37
844.427	19998.2
844.751	19901.26
845.075	19874.14
845.399	19857.87
845.723	19762.95
846.047	19808.6
846.371	19647.48
846.695	19503.75
847.019	19435.28
847.343	19267.15
847.666	19222.18
847.99	19259.69
848.313	19281.16
848.637	19108.96
848.96	19017.44
849.284	18985.8
849.607	18902.86
849.931	18835.97
850.254	18800.95
850.577	18590.56
850.9	18501.52
851.223	18464.91
851.546	18441.63
851.869	18219.94
852.192	18328.19
852.515	18147.86
852.838	18174.75
853.161	18140.85
853.483	18038.48
853.806	17859.05
854.129	17883.23
854.451	17831.48
854.774	17693.4
855.096	17650.69
855.419	17630.13
855.741	17584.71
856.063	17432.62
856.385	17424.26
856.708	17367.54
857.03	17309.46
857.352	17328.67
857.674	17267.65
857.996	17165.96
858.318	17131.39
858.64	17129.13
858.961	17064.72
859.283	16951.96
859.605	16933.2
859.926	16969.81
860.248	16889.58
860.57	16853.2
860.891	16924.84
861.212	16712.19
861.534	16756.48
861.855	16695.24
862.176	16616.6
862.498	16603.04
862.819	16605.75
863.14	16528.92
863.461	16489.14
863.782	16361.24
864.103	16440.78
864.424	16383.38
864.745	16430.16
865.065	16320.11
865.386	16195.37
865.707	16191.75
866.027	16276.94
866.348	16115.14
866.668	16166.44
866.989	16069.04
867.309	16078.98
867.63	16110.17
867.95	16109.94
868.27	15973.45
868.59	16066.78
868.91	15938.42
869.23	15861.81
869.55	15794.47
869.87	15852.1
870.19	15822.27
870.51	15857.52
870.83	15811.42
871.15	15741.37
871.469	15738.65
871.789	15698.66
872.109	15665.44
872.428	15625.66
872.748	15654.81
873.067	15678.32
873.386	15681.03
873.706	15600.35
874.025	15590.86
874.344	15502.73
874.663	15524.65
874.982	15485.78
875.301	15418.44
875.62	15329.63
875.939	15403.07
876.258	15432.67
876.577	15313.58
876.896	15370.3
877.214	15197.88
877.533	15262.96
877.852	15285.33
878.17	15155.62
878.489	15255.95
878.807	15196.52
879.125	15158.78
879.444	15114.04
879.762	15147.48
880.08	15044.66
880.398	15032.01
880.716	14956.98
881.034	14895.96
881.352	14976.41
881.67	14919.47
881.988	14895.96
882.306	14843.99
882.624	14779.81
882.941	14724.44
883.259	14652.81
883.577	14603.99
883.894	14669.98
884.212	14542.08
884.529	14602.86
884.846	14610.1
885.164	14555.63
885.481	14455.3
885.798	14483.77
886.115	14348.86
886.432	14334.85
886.75	14353.15
887.067	14382.08
887.383	14230.67
887.7	14340.95
888.017	14190.22
888.334	14219.15
888.651	14112.93
888.967	14187.96
889.284	14057.34
889.6	14088.08
889.917	13945.48
890.233	13991.36
890.55	13984.58
890.866	13890.79
891.182	13862.55
891.498	13821.64
891.815	13765.15
892.131	13764.47
892.447	13623.68
892.763	13648.99
893.079	13631.82
893.395	13537.36
893.71	13597.69
894.026	13468.66
894.342	13385.95
894.657	13348.21
894.973	13388.21
895.289	13350.69
895.604	13303.24
895.92	13207.65
896.235	13174.2
896.55	13150.25
896.865	13191.15
897.181	13090.59
897.496	13072.51
897.811	12958.16
898.126	12882.68
898.441	12883.36
898.756	12859.63
899.071	12805.85
899.386	12781.44
899.7	12626.87
900.015	12651.5
900.33	12519.76
900.644	12545.74
900.959	12528.34
901.273	12499.42
901.588	12359.76
901.902	12287.45
902.216	12275.24
902.531	12224.4
902.845	12224.85
903.159	12143.49
903.473	12088.35
903.787	11986.21
904.101	12000.9
904.415	11978.75
904.729	11892.65
905.042	11889.72
905.356	11826.21
905.67	11843.16
905.984	11722.04
906.297	11743.05
906.611	11707.57
906.924	11677.52
907.237	11547.58
907.551	11532.44
907.864	11473.23
908.177	11443.63
908.491	11388.26
908.804	11344.19
909.117	11299.45
909.43	11293.8
909.743	11229.62
910.056	11284.31
910.368	11061.26
910.681	11107.36
910.994	10988.72
911.307	10906.92
911.619	10945.11
911.932	10937.88
912.244	10834.6
912.557	10808.39
912.869	10754.38
913.181	10665.34
913.494	10644.1
913.806	10610.88
914.118	10592.35
914.43	10553.93
914.742	10491.33
915.054	10422.18
915.366	10374.73
915.678	10319.81
915.99	10297.89
916.302	10267.61
916.613	10193.26
916.925	10226.26
917.236	10144.9
917.548	10076.66
917.859	10122.08
918.171	10002.08
918.482	10003.21
918.794	9904.91
919.105	9928.64
919.416	9860.16
919.727	9849.09
920.038	9797.79
920.349	9728.19
920.66	9676.21
920.971	9737.68
921.282	9682.09
921.593	9566.39
921.903	9497.24
922.214	9514.41
922.525	9458.37
922.835	9372.72
923.146	9379.95
923.456	9344.25
923.767	9294.76
924.077	9298.37
924.387	9190.58
924.697	9190.8
925.008	9182.44
925.318	9094.53
925.628	9003.24
925.938	8992.84
926.248	8906.07
926.558	8903.35
926.867	8894.77
927.177	8846.18
927.487	8866.74
927.796	8760.31
928.106	8806.86
928.416	8650.93
928.725	8624.72
929.034	8643.25
929.344	8544.72
929.653	8560.31
929.962	8462.24
930.271	8438.28
930.581	8440.54
930.89	8397.15
931.199	8354.89
931.508	8275.35
931.817	8318.51
932.125	8282.8
932.434	8194.45
932.743	8191.06
933.051	8110.38
933.36	8084.62
933.669	8045.75
933.977	8032.87
934.286	7947.22
934.594	7960.55
934.902	7883.49
935.21	7884.62
935.519	7859.54
935.827	7855.92
936.135	7784.96
936.443	7759.88
936.751	7724.18
937.059	7640.11
937.367	7505.2
937.674	7585.2
937.982	7609.83
938.29	7560.56
938.597	7563.95
938.905	7460.23
939.213	7453.67
939.52	7387.69
939.827	7431.75
940.135	7342.49
940.442	7258.2
940.749	7336.39
941.056	7285.99
941.363	7221.59
941.67	7202.16
941.977	7176.39
942.284	7081.03
942.591	7122.38
942.898	7050.29
943.205	6990.18
943.511	6954.48
943.818	6956.74
944.125	6949.05
944.431	6962.61
944.738	6913.12
945.044	6859.11
945.35	6818.66
945.657	6825.44
945.963	6778.21
946.269	6694.37
946.575	6674.94
946.881	6683.98
947.187	6667.93
947.493	6578.67
947.799	6539.35
948.105	6570.99
948.41	6528.05
948.716	6518.78
949.022	6480.59
949.327	6450.54
949.633	6373.93
949.938	6387.04
950.244	6356.53
950.549	6223.88
950.854	6301.61
951.16	6245.12
951.465	6214.61
951.77	6203.54
952.075	6167.61
952.38	6151.11
952.685	6114.95
952.99	6085.12
953.294	6086.03
953.599	6031.56
953.904	6017.55
954.209	5944.11
954.513	5966.71
954.818	5959.25
955.122	5919.7
955.426	5870.21
955.731	5836.09
956.035	5811.91
956.339	5788.41
956.643	5764.68
956.948	5722.65
957.252	5753.83
957.556	5689.65
957.86	5675.42
958.163	5668.64
958.467	5584.34
958.771	5601.29
959.075	5546.15
959.378	5558.58
959.682	5521.3
959.985	5501.64
960.289	5530.33
960.592	5476.55
960.896	5424.8
961.199	5427.74
961.502	5366.95
961.805	5321.75
962.108	5332.37
962.411	5298.48
962.714	5293.05
963.017	5293.28
963.32	5273.39
963.623	5193.62
963.926	5212.6
964.228	5176.22
964.531	5149.78
964.833	5135.32
965.136	5154.98
965.438	5103
965.741	5045.6
966.043	4976.45
966.345	5058.71
966.648	4960.41
966.95	4973.97
967.252	4931.25
967.554	4906.85
967.856	4942.55
968.158	4844.7
968.46	4875.21
968.761	4833.63
969.063	4816.68
969.365	4799.51
969.666	4786.4
969.968	4753.86
970.269	4712.96
970.571	4720.41
970.872	4727.87
971.174	4706.18
971.475	4643.8
971.776	4591.83
972.077	4603.81
972.378	4583.92
972.679	4557.03
972.98	4534.88
973.281	4512.96
973.582	4463.7
973.883	4487.42
974.183	4459.63
974.484	4447.88
974.785	4432.51
975.085	4411.04
975.386	4404.71
975.686	4365.39
975.986	4337.15
976.287	4343.02
976.587	4295.34
976.887	4292.85
977.187	4267.77
977.487	4266.64
977.787	4239.3
978.087	4197.94
978.387	4195.45
978.687	4170.82
978.987	4152.74
979.286	4128.11
979.586	4106.64
979.885	4082.46
980.185	4045.63
980.484	4041.33
980.784	4020.54
981.083	4001.11
981.382	4002.69
981.682	3962.47
981.981	3976.93
982.28	3890.6
982.579	3945.74
982.878	3929.47
983.177	3882.69
983.475	3847.89
983.774	3848.12
984.073	3817.84
984.372	3810.61
984.67	3802.92
984.969	3796.6
985.267	3769.93
985.566	3747.1
985.864	3757.95
986.162	3732.19
986.461	3692.19
986.759	3698.07
987.057	3709.37
987.355	3654
987.653	3624.85
987.951	3604.96
988.249	3572.42
988.547	3562.48
988.844	3566.77
989.142	3546.88
989.44	3550.05
989.737	3513.21
990.035	3498.75
990.332	3498.98
990.63	3456.72
990.927	3409.26
991.224	3417.62
991.521	3415.81
991.819	3415.36
992.116	3379.43
992.413	3351.41
992.71	3348.7
993.006	3319.32
993.303	3340.56
993.6	3327
993.897	3269.6
994.193	3305.08
994.49	3249.94
994.787	3252.88
995.083	3207.46
995.379	3189.15
995.676	3161.13
995.972	3153.45
996.268	3159.78
996.565	3147.12
996.861	3189.83
997.157	3148.7
997.453	3123.39
997.749	3112.09
998.044	3040
998.34	3035.49
998.636	3036.39
998.932	2971.31
999.227	2995.71
999.523	2958.88
999.818	2984.19
1000.114	2982.83
1000.409	2953.45
1000.704	2887.69
1001	2884.53
1001.295	2877.98
1001.59	2887.47
1001.885	2833
1002.18	2857.18
1002.475	2823.06
1002.77	2807.02
1003.065	2779.45
1003.359	2787.36
1003.654	2745.78
1003.949	2709.17
1004.243	2702.61
1004.538	2720.47
1004.832	2684.31
1005.127	2678.88
1005.421	2656.06
1005.715	2642.95
1006.009	2605.21
1006.304	2609.73
1006.598	2602.05
1006.892	2578.77
1007.186	2598.89
1007.48	2552.79
1007.773	2522.28
1008.067	2507.59
1008.361	2518.21
1008.655	2478.89
1008.948	2476.86
1009.242	2468.27
1009.535	2433.69
1009.829	2435.95
1010.122	2399.12
1010.415	2397.76
1010.708	2404.54
1011.001	2385.78
1011.295	2367.71
1011.588	2366.58
1011.881	2353.92
1012.173	2326.35
1012.466	2305.33
1012.759	2343.07
1013.052	2280.7
1013.344	2272.57
1013.637	2246.13
1013.93	2232.57
1014.222	2230.76
1014.514	2191.89
1014.807	2203.87
1015.099	2186.92
1015.391	2178.33
1015.683	2153.7
1015.976	2113.25
1016.268	2118
1016.56	2109.18
1016.851	2106.7
1017.143	2085.91
1017.435	2073.25
1017.727	2044.78
1018.018	2061.73
1018.31	2026.25
1018.602	2052.91
1018.893	2003.65
1019.185	1991.22
1019.476	1993.03
1019.767	1976.98
1020.058	1950.32
1020.35	1959.36
1020.641	1924.1
1020.932	1897.66
1021.223	1914.61
1021.514	1871.9
1021.804	1852.92
1022.095	1835.74
1022.386	1877.32
1022.677	1840.94
1022.967	1854.95
1023.258	1785.35
1023.548	1775.63
1023.839	1766.37
1024.129	1776.08
1024.419	1751.45
1024.709	1710.55
1025	1725.92
1025.29	1709.42
1025.58	1705.8
1025.87	1699.02
1026.16	1696.54
1026.449	1676.42
1026.739	1650.21
1027.029	1647.73
1027.319	1614.05
1027.608	1617.9
1027.898	1615.86
1028.187	1605.69
1028.477	1586.03
1028.766	1545.13
1029.055	1558.91
1029.344	1541.74
1029.634	1544
1029.923	1540.38
1030.212	1541.97
1030.501	1500.61
1030.79	1473.94
1031.078	1509.2
1031.367	1478.24
1031.656	1457.45
1031.945	1462.65
1032.233	1473.49
1032.522	1432.82
1032.81	1438.47
1033.099	1417.67
1033.387	1403.21
1033.675	1400.95
1033.963	1361.86
1034.251	1398.47
1034.54	1353.27
1034.828	1359.6
1035.116	1325.25
1035.403	1314.4
1035.691	1322.76
1035.979	1334.74
1036.267	1295.19
1036.554	1318.47
1036.842	1290.67
1037.129	1298.81
1037.417	1304.01
1037.704	1268.75
1037.992	1284.12
1038.279	1216.55
1038.566	1255.19
1038.853	1255.19
1039.14	1255.19
