Data from orange_diffuse_book_FLMS001491_00085.txt Node
Date: Wed Feb 08 15:30:10 GMT 2017
User: dcchb
Spectrometer: FLMS00149
Trigger mode: 0
Integration Time (sec): 2.000000E-2
Scans to average: 10
Electric dark correction enabled: true
Nonlinearity correction enabled: false
Boxcar width: 0
XAxis mode: Wavelengths
Number of Pixels in Spectrum: 2048
>>>>>Begin Spectral Data<<<<<
341.393	-20.11
341.776	-20.11
342.16	-20.11
342.543	-66.44
342.927	-65.31
343.31	-56.04
343.693	-53.11
344.077	-61.24
344.46	-57.17
344.843	-55.59
345.226	-41.35
345.61	-48.81
345.993	-14.91
346.376	-2.71
346.759	8.81
347.142	31.86
347.525	45.42
347.908	49.72
348.291	63.05
348.674	91.07
349.057	101.01
349.44	130.84
349.823	144.18
350.206	162.71
350.588	190.5
350.971	233.67
351.354	243.16
351.737	260.33
352.119	258.52
352.502	279.99
352.884	262.59
353.267	293.78
353.65	295.81
354.032	316.38
354.414	324.74
354.797	321.35
355.179	341.69
355.562	335.81
355.944	338.97
356.326	357.5
356.709	334.68
357.091	339.65
357.473	356.15
357.855	354.57
358.238	352.08
358.62	351.18
359.002	353.66
359.384	341.01
359.766	347.34
360.148	330.39
360.53	358.63
360.912	337.62
361.294	356.37
361.676	352.76
362.057	330.16
362.439	348.69
362.821	330.84
363.203	324.96
363.584	329.71
363.966	342.59
364.348	313.89
364.729	318.86
365.111	336.26
365.493	331.29
365.874	331.52
366.256	339.2
366.637	334
367.019	337.39
367.4	326.09
367.781	318.18
368.163	331.74
368.544	339.88
368.925	316.15
369.306	335.36
369.688	324.06
370.069	332.87
370.45	328.58
370.831	327.45
371.212	332.65
371.593	316.38
371.974	318.41
372.355	346.43
372.736	338.07
373.117	308.47
373.498	304.4
373.879	323.16
374.26	342.36
374.641	329.03
375.021	330.16
375.402	322.03
375.783	330.61
376.163	331.52
376.544	352.53
376.925	338.52
377.305	337.17
377.686	355.47
378.066	347.34
378.447	345.08
378.827	343.27
379.208	322.25
379.588	324.06
379.968	359.99
380.349	335.58
380.729	352.99
381.109	349.6
381.489	331.97
381.87	336.04
382.25	341.91
382.63	346.43
383.01	371.52
383.39	367.9
383.77	371.74
384.15	353.44
384.53	356.37
384.91	354.79
385.29	347.11
385.67	352.99
386.049	362.48
386.429	355.7
386.809	381.46
387.189	368.58
387.568	352.99
387.948	363.38
388.328	395.24
388.707	360.67
389.087	369.03
389.466	373.1
389.846	378.97
390.225	379.2
390.605	367.22
390.984	383.94
391.363	373.32
391.743	382.36
392.122	393.89
392.501	387.56
392.881	405.41
393.26	395.47
393.639	371.74
394.018	387.33
394.397	377.17
394.776	396.6
395.155	402.48
395.534	362.02
395.913	376.71
396.292	400.22
396.671	409.25
397.05	407.45
397.429	387.33
397.808	422.81
398.186	406.32
398.565	397.73
398.944	400.22
399.323	402.93
399.701	403.38
400.08	400.89
400.458	422.81
400.837	424.85
401.215	405.64
401.594	427.56
401.972	412.87
402.351	442.7
402.729	417.16
403.107	416.94
403.486	436.15
403.864	418.07
404.242	417.39
404.62	439.08
404.999	432.98
405.377	430.5
405.755	449.71
406.133	446.77
406.511	435.69
406.889	445.41
407.267	465.3
407.645	453.77
408.023	487.67
408.401	483.6
408.779	445.86
409.156	457.39
409.534	445.19
409.912	473.21
410.29	483.15
410.667	474.34
411.045	493.77
411.422	472.08
411.8	482.7
412.178	483.83
412.555	501.46
412.933	492.64
413.31	499.2
413.687	496.94
414.065	506.65
414.442	503.49
414.819	514.34
415.197	512.98
415.574	521.79
415.951	530.38
416.328	522.02
416.705	521.12
417.082	517.95
417.46	532.19
417.837	511.85
418.214	524.28
418.591	538.52
418.967	558.18
419.344	533.77
419.721	549.59
420.098	545.07
420.475	565.18
420.852	561.57
421.228	557.05
421.605	553.43
421.982	562.47
422.358	553.43
422.735	577.16
423.111	566.31
423.488	568.8
423.864	582.13
424.241	601.57
424.617	594.56
424.994	599.31
425.37	606.09
425.746	606.99
426.123	604.73
426.499	617.16
426.875	619.42
427.251	603.83
427.627	624.39
428.003	642.69
428.379	614.45
428.756	652.19
429.132	649.47
429.507	654.9
429.883	652.86
430.259	665.52
430.635	667.33
431.011	669.81
431.387	672.07
431.763	687.67
432.138	673.65
432.514	682.24
432.89	699.87
433.265	690.83
433.641	717.04
434.016	721.34
434.392	734.22
434.767	739.42
435.143	748.91
435.518	727.44
435.894	719.76
436.269	748
436.644	754.33
437.02	775.12
437.395	755.46
437.77	771.96
438.145	795.91
438.52	757.95
438.895	794.56
439.271	803.59
439.646	809.47
440.021	791.62
440.395	806.76
440.77	818.51
441.145	821.9
441.52	833.2
441.895	817.83
442.27	814.89
442.645	817.83
443.019	838.4
443.394	851.28
443.769	858.96
444.143	830.26
444.518	852.18
444.892	847.44
445.267	862.8
445.641	874.55
446.016	856.25
446.39	842.24
446.764	877.27
447.139	846.76
447.513	871.16
447.887	872.07
448.262	879.98
448.636	878.85
449.01	882.46
449.384	896.02
449.758	886.3
450.132	920.2
450.506	884.5
450.88	905.51
451.254	908.9
451.628	912.97
452.002	918.62
452.376	919.07
452.75	941.67
453.123	959.07
453.497	966.98
453.871	964.04
454.244	971.73
454.618	973.53
454.992	982.35
455.365	979.64
455.739	978.73
456.112	988
456.486	1011.5
456.859	1023.48
457.232	1032.97
457.606	1027.77
457.979	1034.55
458.352	1028.67
458.725	1028.67
459.099	1060.76
459.472	1084.94
459.845	1081.33
460.218	1108.9
460.591	1082.91
460.964	1103.25
461.337	1105.06
461.71	1125.17
462.083	1142.57
462.456	1154.09
462.829	1158.84
463.201	1148.9
463.574	1151.61
463.947	1146.64
464.32	1190.93
464.692	1209.46
465.065	1178.5
465.438	1195.9
465.81	1215.11
466.183	1201.32
466.555	1251.49
466.928	1263.02
467.3	1274.32
467.672	1271.38
468.045	1284.03
468.417	1300.3
468.789	1304.37
469.161	1315.22
469.534	1336.01
469.906	1346.86
470.278	1336.24
470.65	1345.5
471.022	1357.7
471.394	1399.06
471.766	1384.37
472.138	1403.13
472.51	1444.26
472.882	1460.98
473.253	1470.7
473.625	1456.91
473.997	1512.28
474.369	1515.44
474.74	1559.51
475.112	1580.3
475.484	1570.58
475.855	1580.75
476.227	1613.52
476.598	1624.82
476.97	1645.83
477.341	1683.8
477.713	1705.04
478.084	1719.95
478.455	1742.33
478.827	1774.64
479.198	1813.06
479.569	1794.53
479.94	1829.33
480.311	1851.7
480.682	1881.76
481.053	1912.27
481.424	1886.05
481.795	1932.38
482.166	1987.29
482.537	2029.1
482.908	2024.58
483.279	2027.07
483.65	2084.69
484.021	2131.7
484.391	2152.71
484.762	2174.18
485.133	2185.93
485.503	2218.25
485.874	2270.22
486.244	2308.41
486.615	2371.01
486.985	2374.85
487.356	2399.71
487.726	2437.9
488.097	2478.35
488.467	2455.53
488.837	2538.01
489.207	2573.49
489.578	2636.54
489.948	2629.31
490.318	2673.6
490.688	2660.72
491.058	2686.26
491.428	2772.13
491.798	2791.57
492.168	2827.27
492.538	2861.62
492.908	2889.64
493.278	2926.7
493.648	2965.12
494.017	2971.67
494.387	3032.46
494.757	3098
495.126	3106.81
495.496	3098.9
495.866	3166.7
496.235	3217.32
496.605	3221.16
496.974	3254.15
497.344	3300.7
497.713	3364.43
498.082	3316.75
498.452	3405.56
498.821	3376.63
499.19	3411.66
499.559	3491.66
499.928	3494.15
500.298	3511.09
500.667	3585.67
501.036	3596.97
501.405	3641.26
501.774	3622.28
502.143	3674.48
502.512	3676.51
502.88	3728.49
503.249	3751.09
503.618	3768.26
503.987	3837.41
504.356	3801.48
504.724	3849.84
505.093	3878.77
505.462	3890.07
505.83	3906.11
506.199	3954.25
506.567	4041.25
506.936	4034.02
507.304	4095.49
507.672	4082.15
508.041	4154.69
508.409	4143.85
508.777	4184.97
509.145	4272.88
509.514	4217.97
509.882	4256.84
510.25	4300.9
510.618	4304.75
510.986	4340.9
511.354	4364.63
511.722	4401.92
512.09	4401.01
512.458	4467.23
512.826	4496.6
513.193	4504.29
513.561	4500.9
513.929	4572.54
514.297	4628.35
514.664	4604.17
515.032	4658.63
515.4	4744.28
515.767	4762.81
516.135	4763.49
516.502	4733.21
516.869	4830.61
517.237	4829.25
517.604	4832.19
517.972	4920.32
518.339	4973.65
518.706	5001.68
519.073	5019.3
519.44	5030.6
519.808	5114.22
520.175	5068.57
520.542	5145.4
520.909	5162.35
521.276	5174.1
521.643	5273.08
522.009	5298.17
522.376	5379.29
522.743	5329.58
523.11	5412.74
523.477	5436.24
523.843	5445.51
524.21	5481.21
524.577	5585.84
524.943	5569.35
525.31	5598.04
525.676	5677.82
526.043	5681.66
526.409	5731.83
526.776	5762.33
527.142	5773.18
527.508	5783.12
527.874	5924.14
528.241	5873.07
528.607	5901.99
528.973	5965.04
529.339	5946.96
529.705	6031.48
530.071	6092.04
530.437	6104.92
530.803	6123
531.169	6141.31
531.535	6195.77
531.901	6179.72
532.267	6217.24
532.632	6302.89
532.998	6246.84
533.364	6317.57
533.73	6337.46
534.095	6443.22
534.461	6384.24
534.826	6439.83
535.192	6438.7
535.557	6467.17
535.923	6542.43
536.288	6555.08
536.653	6579.49
537.019	6533.61
537.384	6599.15
537.749	6637.11
538.114	6699.71
538.479	6711.24
538.845	6712.14
539.21	6701.52
539.575	6779.26
539.94	6804.79
540.305	6797.34
540.67	6861.06
541.034	6866.71
541.399	6876.88
541.764	6928.18
542.129	6970.66
542.494	7013.6
542.858	7020.38
543.223	7037.33
543.587	7092.69
543.952	7113.26
544.316	7095.41
544.681	7165.91
545.045	7142.86
545.41	7232.8
545.774	7288.85
546.138	7289.75
546.503	7329.75
546.867	7336.98
547.231	7380.37
547.595	7412.69
547.959	7477.54
548.324	7488.39
548.688	7500.14
549.052	7506.92
549.416	7550.31
549.779	7609.74
550.143	7623.98
550.507	7757.54
550.871	7718.44
551.235	7758.44
551.599	7870.3
551.962	7900.36
552.326	7947.81
552.689	8021.71
553.053	7962.73
553.417	8016.29
553.78	8111.65
554.143	8082.73
554.507	8233
554.87	8248.82
555.234	8275.94
555.597	8308.48
555.96	8408.14
556.323	8460.57
556.686	8451.3
557.05	8570.4
557.413	8493.11
557.776	8611.75
558.139	8675.25
558.502	8745.53
558.865	8809.26
559.228	8908.69
559.59	8937.62
559.953	8974.68
560.316	9099.2
560.679	9171.06
561.041	9285.86
561.404	9309.59
561.767	9408.34
562.129	9431.16
562.492	9555.91
562.854	9591.16
563.217	9699.18
563.579	9736.02
563.941	9889.01
564.304	9967.2
564.666	10049.23
565.028	10175.33
565.39	10187.53
565.753	10314.08
566.115	10439.27
566.477	10536.22
566.839	10566.73
567.201	10744.12
567.563	10809.89
567.925	10939.15
568.287	11029.77
568.648	11107.96
569.01	11282.87
569.372	11485.8
569.734	11434.95
570.095	11643.08
570.457	11831.78
570.819	11874.49
571.18	12101.15
571.542	12227.02
571.903	12340.69
572.265	12573.91
572.626	12685.99
572.987	12839.44
573.349	13060
573.71	13275.81
574.071	13476.03
574.432	13680.54
574.794	13854.32
575.155	14029.91
575.516	14217.93
575.877	14457.7
576.238	14647.52
576.599	14955.99
576.96	15101.52
577.32	15311.46
577.681	15638.46
578.042	15829.87
578.403	16109.41
578.763	16443.41
579.124	16660.35
579.485	16995.71
579.845	17275.48
580.206	17548.69
580.566	17919.98
580.927	18140.54
581.287	18460.53
581.648	18746.85
582.008	19206.27
582.368	19341.19
582.728	19858.69
583.089	20075.4
583.449	20377.09
583.809	20805.1
584.169	21270.4
584.529	21544.07
584.889	22146.76
585.249	22254.56
585.609	22676.69
585.969	23254.98
586.329	23490.91
586.688	24043.89
587.048	24392.13
587.408	24661.72
587.768	25270.97
588.127	25713.67
588.487	25932.2
588.846	26661.67
589.206	26934.89
589.565	27418.49
589.925	27932.6
590.284	28222.53
590.643	28934.61
591.003	29249.63
591.362	29787.01
591.721	30116.5
592.08	30645.3
592.44	31246.86
592.799	31709.9
593.158	32141.53
593.517	32539.94
593.876	33100.37
594.235	33529.06
594.593	33991.65
594.952	34624.4
595.311	34942.81
595.67	35439.75
596.029	36056.68
596.387	36663.22
596.746	37042.87
597.104	37336.19
597.463	37756.75
597.822	38390.63
598.18	38723.28
598.538	39136.15
598.897	39704.49
599.255	39985.39
599.613	40896.78
599.972	41014.74
600.33	41476.65
600.688	41727.26
601.046	42412.9
601.404	42787.8
601.762	43147.79
602.12	43703.03
602.478	44087.65
602.836	44380.53
603.194	44437.93
603.552	45064.8
603.91	45223.44
604.268	45799.47
604.625	45949.3
604.983	46471.77
605.341	46562.39
605.698	47185.43
606.056	47500.45
606.413	47453.44
606.771	47958.29
607.128	48209.81
607.485	48558.27
607.843	48613.19
608.2	49048.2
608.557	49349.21
608.914	49405.25
609.272	49813.15
609.629	50031.9
609.986	50328.17
610.343	50334.27
610.7	50708.72
611.057	50778.1
611.414	50974.7
611.771	51176.73
612.127	51430.06
612.484	51505.31
612.841	51784.18
613.198	51795.47
613.554	51898.52
613.911	52165.18
614.267	52261.22
614.624	52344.16
614.98	52521.1
615.337	52770.59
615.693	52816.46
616.05	52854.43
616.406	53130.58
616.762	53100.07
617.118	53109.56
617.475	53300.75
617.831	53417.58
618.187	53579.38
618.543	53595.88
618.899	53925.36
619.255	53839.71
619.611	53856.21
619.967	53952.93
620.323	54162.42
620.678	54109.54
621.034	54057.79
621.39	54187.73
621.746	54144.34
622.101	54478.57
622.457	54230.21
622.812	54444.67
623.168	54532.13
623.523	54516.31
623.879	54643.99
624.234	54405.8
624.589	54683.76
624.945	54724.89
625.3	54695.96
625.655	54745.68
626.01	54770.09
626.365	54834.94
626.72	54788.62
627.075	54833.59
627.43	54959.23
627.785	54845.79
628.14	54970.98
628.495	55063.41
628.85	54952.91
629.205	54909.97
629.559	55117.87
629.914	55010.3
630.269	55079.91
630.623	54948.16
630.978	54965.33
631.332	55091.66
631.687	55156.29
632.041	55015.5
632.396	55075.16
632.75	54999.01
633.104	55094.37
633.459	54935.28
633.813	54990.42
634.167	54933.7
634.521	55022.96
634.875	55005.11
635.229	54940.7
635.583	54921.04
635.937	54950.19
636.291	54956.3
636.645	54853.02
636.999	54806.92
637.352	54920.59
637.706	54794.27
638.06	54906.35
638.413	54842.4
638.767	54730.31
639.121	54818.67
639.474	54687.83
639.828	54777.99
640.181	54711.33
640.534	54754.49
640.888	54731.67
641.241	54569.41
641.594	54776.19
641.947	54855.05
642.301	54730.99
642.654	54720.37
643.007	54693.7
643.36	54755.17
643.713	54649.86
644.066	54762.85
644.419	54614.16
644.771	54329.19
645.124	54145.24
645.477	54080.61
645.83	53912.93
646.182	53892.14
646.535	53820.05
646.888	53866.83
647.24	53669.32
647.593	53940.73
647.945	53814.63
648.298	53706.16
648.65	53589.55
649.002	53557.69
649.355	53784.57
649.707	53677.91
650.059	53784.8
650.411	54159.03
650.763	54136.2
651.115	54433.82
651.467	54344.11
651.819	54349.53
652.171	54258.23
652.523	54262.98
652.875	54315.86
653.227	54155.86
653.578	54341.85
653.93	54293.04
654.282	54145.02
654.633	54099.59
654.985	54202.64
655.337	54211.23
655.688	54191.57
656.039	54282.41
656.391	54062.53
656.742	54069.54
657.094	54117.45
657.445	54286.93
657.796	54187.05
658.147	54119.71
658.498	54081.06
658.849	54151.57
659.2	54088.07
659.551	54024.57
659.902	54117
660.253	54133.27
660.604	54174.39
660.955	54016.21
661.306	54119.25
661.656	54035.19
662.007	54054.4
662.358	54093.72
662.708	54047.62
663.059	54007.17
663.409	53843.56
663.76	54036.09
664.11	54066.15
664.461	54152.02
664.811	54139.82
665.161	54012.14
665.511	53969.88
665.862	54034.96
666.212	54031.57
666.562	54084.45
666.912	54009.65
667.262	53933.27
667.612	53964.68
667.962	53984.34
668.312	53917.68
668.662	54043.1
669.011	53984.8
669.361	53834.29
669.711	53889.2
670.06	53877.45
670.41	53813.27
670.76	53735.99
671.109	53890.11
671.459	53740.96
671.808	53816.44
672.157	53839.04
672.507	53542.55
672.856	53665.48
673.205	53679.72
673.554	53699.6
673.904	53635.88
674.253	53761.75
674.602	53639.04
674.951	53227.98
675.3	53010.36
675.649	53527.86
675.998	53492.38
676.346	53439.5
676.695	53553.17
677.044	53306.62
677.393	53392.95
677.741	53490.57
678.09	53435.43
678.438	53320.86
678.787	53382.33
679.135	53404.02
679.484	53179.39
679.832	53374.64
680.181	53084.03
680.529	53244.93
680.877	53142.56
681.225	53065.72
681.573	53229.79
681.922	53006.52
682.27	52874.32
682.618	52954.99
682.966	52974.88
683.314	52990.92
683.661	52825.5
684.009	52657.15
684.357	52633.87
684.705	52531.27
685.053	52613.08
685.4	52553.19
685.748	52358.17
686.095	52427.55
686.443	52415.8
686.79	52429.36
687.138	52393.42
687.485	52265.07
687.832	52116.37
688.18	52198.18
688.527	52005.41
688.874	51926.32
689.221	51941.69
689.568	51903.95
689.915	51658.75
690.262	51752.54
690.609	51713.67
690.956	51555.48
691.303	51524.97
691.65	51350.74
691.997	51419.44
692.344	51171.31
692.69	51110.52
693.037	51222.61
693.383	50919.57
693.73	51013.8
694.077	50831.43
694.423	50698.78
694.769	50662.17
695.116	50679.35
695.462	50638.67
695.808	50420.6
696.155	50459.24
696.501	50207.49
696.847	50151.9
697.193	50078.68
697.539	50144.9
697.885	49792.59
698.231	49748.97
698.577	49597.79
698.923	49511.92
699.269	49390.11
699.614	49234.64
699.96	49254.3
700.306	49178.37
700.651	49086.17
700.997	48967.53
701.342	48719.85
701.688	48843.46
702.033	48691.6
702.379	48635.33
702.724	48498.61
703.069	48630.81
703.415	48199.41
703.76	48096.14
704.105	48229.47
704.45	48081
704.795	47908.57
705.14	47709.93
705.485	47766.2
705.83	47524.63
706.175	47625.41
706.52	47520.78
706.865	47302.49
707.209	47323.05
707.554	47138.42
707.899	47152.66
708.243	46828.15
708.588	46808.26
708.932	46574.59
709.277	46643.52
709.621	46668.6
709.966	46315.84
710.31	46474.48
710.654	46194.04
710.998	46243.3
711.342	46199.01
711.687	46042.86
712.031	45901.39
712.375	45687.16
712.719	45965.35
713.063	45780.49
713.407	45964.89
713.75	45696.65
714.094	45607.16
714.438	45402.2
714.782	45419.6
715.125	45175.54
715.469	45372.37
715.812	45166.04
716.156	44858.93
716.499	44914.3
716.843	45016.67
717.186	44725.38
717.53	45006.73
717.873	44883.11
718.216	44780.52
718.559	44534.42
718.902	44424.14
719.246	44522.67
719.589	44362.22
719.932	44168.78
720.275	44274.99
720.617	44196.8
720.96	44056.24
721.303	44073.42
721.646	44130.37
721.989	43829.13
722.331	43970.6
722.674	43835.46
723.016	43887.89
723.359	43699.87
723.701	43650.83
724.044	43476.82
724.386	43476.37
724.729	43437.5
725.071	43401.8
725.413	43365.19
725.755	43333.78
726.097	43051.75
726.439	43132.43
726.782	42927.23
727.124	43237.51
727.465	43077.06
727.807	42934.24
728.149	42964.07
728.491	42847.01
728.833	42860.12
729.175	42788.71
729.516	42685.43
729.858	42626.22
730.199	42741.93
730.541	42515.27
730.882	42560.46
731.224	42626.68
731.565	42341.03
731.906	42439.11
732.248	42480.46
732.589	42370.19
732.93	42212.9
733.271	42143.07
733.612	42248.83
733.953	42094.03
734.294	42005.68
734.635	41999.12
734.976	42072.11
735.317	41796.42
735.658	41826.92
735.999	41785.34
736.339	41779.92
736.68	41842.74
737.021	41778.34
737.361	41532.47
737.702	41870.54
738.042	41597.1
738.383	41490.89
738.723	41532.24
739.063	41367.5
739.404	41485.46
739.744	41407.27
740.084	41226.94
740.424	41362.08
740.764	41210.67
741.104	41324.56
741.444	41085.7
741.784	40939.71
742.124	41127.05
742.464	41017.68
742.804	41018.81
743.143	40845.71
743.483	40853.62
743.823	40639.38
744.162	40792.37
744.502	40789.89
744.841	40704.92
745.181	40729.78
745.52	40583.11
745.86	40658.59
746.199	40707.63
746.538	40506.28
746.877	40605.71
747.216	40603.68
747.556	40387.41
747.895	40191.71
748.234	40164.14
748.573	40248.21
748.911	40198.72
749.25	40110.58
749.589	39934.09
749.928	39955.11
750.267	40064.26
750.605	39933.87
750.944	39832.85
751.283	39829.01
751.621	39793.53
751.96	39534.1
752.298	39590.15
752.636	39485.97
752.975	39340.43
753.313	39286.65
753.651	39416.59
753.989	39286.42
754.327	39200.1
754.666	38987.68
755.004	39020.22
755.342	38975.02
755.679	38865.87
756.017	38813.67
756.355	39077.84
756.693	38795.36
757.031	38659.1
757.368	38504.07
757.706	38492.55
758.044	38283.29
758.381	38404.87
758.719	38167.58
759.056	38180.69
759.394	37986.12
759.731	37923.97
760.068	37777.99
760.405	37696.64
760.743	37574.15
761.08	37590.42
761.417	37526.24
761.754	37296.65
762.091	37374.61
762.428	37158.12
762.765	36943.89
763.102	37183.2
763.438	36862.08
763.775	36631.35
764.112	36790.67
764.449	36723.78
764.785	36531.92
765.122	36360.85
765.458	36144.13
765.795	36152.72
766.131	36224.36
766.467	36030.92
766.804	35892.84
767.14	35631.38
767.476	35679.74
767.812	35418.28
768.148	35583.92
768.485	35357.49
768.821	35073.65
769.157	35148.23
769.492	34966.76
769.828	34874.11
770.164	34710.5
770.5	34514.8
770.836	34577.4
771.171	34387.8
771.507	34370.62
771.842	34038.2
772.178	34115.04
772.513	34027.81
772.849	33879.79
773.184	33622.39
773.519	33730.41
773.855	33494.71
774.19	33316.86
774.525	33321.38
774.86	33391.89
775.195	33256.75
775.53	33053.37
775.865	32871.68
776.2	32666.71
776.535	32449.09
776.87	32481.41
777.205	32283.9
777.539	32172.26
777.874	32185.59
778.209	31965.71
778.543	31730.92
778.878	31747.19
779.212	31745.83
779.547	31581.54
779.881	31712.61
780.215	31360.53
780.55	31398.27
780.884	31251.38
781.218	31064.27
781.552	31069.69
781.886	30959.86
782.22	30736.82
782.554	30695.92
782.888	30450.5
783.222	30245.76
783.556	30227
783.889	30037.4
784.223	29953.11
784.557	29950.17
784.89	29884.41
785.224	29682.84
785.557	29589.5
785.891	29478.55
786.224	29430.86
786.558	29267.48
786.891	29189.74
787.224	29039.24
787.557	29038.33
787.891	28887.38
788.224	28983.64
788.557	28937.54
788.89	28713.6
789.223	28725.35
789.556	28425.02
789.888	28380.04
790.221	28390.44
790.554	28223.89
790.887	28143.89
791.219	27935.31
791.552	28016.44
791.884	27859.15
792.217	27763.34
792.549	27564.7
792.882	27543
793.214	27249.23
793.546	27338.04
793.879	27188.89
794.211	27034.09
794.543	27199.74
794.875	27018.27
795.207	27091.49
795.539	26856.02
795.871	26954.09
796.203	26708.45
796.535	26523.6
796.867	26482.69
797.198	26454.67
797.53	26429.36
797.862	26286.09
798.193	26310.72
798.525	26008.58
798.856	26086.32
799.188	25785.31
799.519	25795.03
799.85	25601.59
800.182	25638.2
800.513	25636.39
800.844	25386.45
801.175	25470.52
801.506	25521.81
801.837	25235.27
802.168	25178.1
802.499	25213.57
802.83	25032.56
803.161	24984.88
803.491	25070.53
803.822	24960.7
804.153	24722.74
804.483	24644.78
804.814	24510.09
805.145	24544.67
805.475	24465.35
805.805	24483.2
806.136	24349.87
806.466	24393.03
806.796	24253.83
807.126	24052.25
807.457	23975.87
807.787	24088.63
808.117	23941.29
808.447	23723.44
808.777	23935.19
809.107	23885.93
809.436	23694.07
809.766	23713.5
810.096	23628.31
810.426	23515.77
810.755	23537.46
811.085	23410.23
811.414	23467.63
811.744	23186.06
812.073	23216.79
812.403	23210.01
812.732	23046.4
813.061	23021.32
813.39	22835.78
813.719	22839.85
814.049	22894.31
814.378	22817.03
814.707	22630.14
815.036	22730.25
815.365	22587.88
815.693	22398.96
816.022	22398.96
816.351	22304.05
816.68	22259.98
817.008	22294.56
817.337	22032.19
817.665	22101.57
817.994	22064.05
818.322	22071.74
818.651	21897.28
818.979	21928.01
819.307	21905.19
819.636	21910.16
819.964	21718.98
820.292	21805.98
820.62	21727.56
820.948	21655.7
821.276	21665.65
821.604	21584.52
821.932	21743.84
822.259	21765.98
822.587	21616.38
822.915	21621.58
823.243	21742.93
823.57	21649.37
823.898	21583.61
824.225	21608.7
824.553	21520.79
824.88	21545.2
825.207	21728.92
825.535	21567.79
825.862	21610.05
826.189	21573.44
826.516	21662.71
826.843	21721.01
827.17	21689.83
827.497	21592.2
827.824	21567.12
828.151	21528.7
828.478	21631.52
828.805	21740.9
829.131	21548.13
829.458	21550.39
829.785	21424.97
830.111	21495.48
830.438	21566.21
830.764	21521.47
831.09	21610.05
831.417	21421.13
831.743	21498.19
832.069	21554.01
832.395	21402.6
832.722	21439.21
833.048	21270.4
833.374	21438.76
833.7	21281.93
834.026	21341.36
834.351	21400.57
834.677	21300
835.003	21392.43
835.329	21390.62
835.654	21221.36
835.98	21255.49
836.306	21238.99
836.631	21056.17
836.956	21218.2
837.282	21266.79
837.607	21027.47
837.932	21003.74
838.258	21114.02
838.583	20940.24
838.908	20840.58
839.233	20901.82
839.558	20829.06
839.883	20894.37
840.208	20744.77
840.533	20780.7
840.858	20681.72
841.182	20758.1
841.507	20569.85
841.832	20481.95
842.156	20620.7
842.481	20556.97
842.805	20488.27
843.13	20391.1
843.454	20379.58
843.778	20268.85
844.103	20327.15
844.427	20214.61
844.751	20228.62
845.075	20053.26
845.399	20088.29
845.723	20025.01
846.047	19986.59
846.371	19796.99
846.695	19851
847.019	19659.82
847.343	19561.52
847.666	19539.15
847.99	19518.13
848.313	19399.72
848.637	19404.24
848.96	19328.53
849.284	19277.01
849.607	19075.66
849.931	19051.93
850.254	18957.47
850.577	18851.48
850.9	18689.23
851.223	18688.77
851.546	18534.43
851.869	18520.42
852.192	18608.1
852.515	18378.27
852.838	18312.74
853.161	18341.66
853.483	18250.82
853.806	18186.87
854.129	18082.01
854.451	18051.73
854.774	17998.4
855.096	17844.05
855.419	17786.42
855.741	17753.66
856.063	17643.38
856.385	17621.68
856.708	17543.72
857.03	17512.99
857.352	17511.18
857.674	17442.03
857.996	17408.81
858.318	17263.73
858.64	17289.04
858.961	17261.92
859.283	17158.87
859.605	17096.05
859.926	17136.27
860.248	17106.44
860.57	17025.77
860.891	17001.13
861.212	16941.93
861.534	16875.49
861.855	16765.89
862.176	16832.1
862.498	16826
862.819	16818.09
863.14	16694.02
863.461	16628.72
863.782	16745.77
864.103	16700.13
864.424	16647.7
864.745	16663.29
865.065	16556.85
865.386	16474.6
865.707	16456.52
866.027	16441.38
866.348	16384.88
866.668	16388.5
866.989	16321.15
867.309	16266.92
867.63	16353.02
867.95	16356.41
868.27	16214.04
868.59	16286.13
868.91	16224.21
869.23	16106.02
869.55	16083.64
869.87	16138.33
870.19	16028.51
870.51	16042.06
870.83	16051.33
871.15	16047.49
871.469	15923.88
871.789	15946.25
872.109	15941.05
872.428	15741.73
872.748	15875.74
873.067	15925.91
873.386	15878
873.706	15859.02
874.025	15673.49
874.344	15712.81
874.663	15683.66
874.982	15618.35
875.301	15640.04
875.62	15574.51
875.939	15538.57
876.258	15592.13
876.577	15449.76
876.896	15445.24
877.214	15473.49
877.533	15456.09
877.852	15350.1
878.17	15413.61
878.489	15400.73
878.807	15390.33
879.125	15394.4
879.444	15351.23
879.762	15226.04
880.08	15196.89
880.398	15179.26
880.716	15179.94
881.034	15150.34
881.352	15112.82
881.67	15111.69
881.988	15190.34
882.306	15018.14
882.624	14976.78
882.941	14845.26
883.259	14852.72
883.577	14836.9
883.894	14739.5
884.212	14700.18
884.529	14781.31
884.846	14767.07
885.164	14769.33
885.481	14599.39
885.798	14646.62
886.115	14637.36
886.432	14548.77
886.75	14519.84
887.067	14551.26
887.383	14415.44
887.7	14530.47
888.017	14379.51
888.334	14414.76
888.651	14359.62
888.967	14421.32
889.284	14189.46
889.6	14232.39
889.917	14113.08
890.233	14217.71
890.55	14075.56
890.866	14107.88
891.182	14056.13
891.498	13981.33
891.815	13896.36
892.131	13820.43
892.447	13818.85
892.763	13844.61
893.079	13865.62
893.395	13766.64
893.71	13643.03
894.026	13701.79
894.342	13601.68
894.657	13481.23
894.973	13491.85
895.289	13473.54
895.604	13450.27
895.92	13302.25
896.235	13313.55
896.55	13308.58
896.865	13306.99
897.181	13199.2
897.496	13184.06
897.811	13116.04
898.126	13066.78
898.441	12950.17
898.756	13057.96
899.071	12919.89
899.386	12971.41
899.7	12805.99
900.015	12791.3
900.33	12714.24
900.644	12615.94
900.959	12723.28
901.273	12596.05
901.588	12551.76
901.902	12517.19
902.216	12430.41
902.531	12454.81
902.845	12341.82
903.159	12195.61
903.473	12290.3
903.787	12207.59
904.101	12172.56
904.415	12221.15
904.729	12120.81
905.042	12105.22
905.356	12019.57
905.67	11932.79
905.984	11995.84
906.297	11815.06
906.611	11783.19
906.924	11757.43
907.237	11783.87
907.551	11730.31
907.864	11698.68
908.177	11551.33
908.491	11601.28
908.804	11538.45
909.117	11473.6
909.43	11408.06
909.743	11346.82
910.056	11327.16
910.368	11249.65
910.681	11203.1
910.994	11138.46
911.307	11086.49
911.619	11097.34
911.932	11088.75
912.244	10964.46
912.557	10960.84
912.869	10885.82
913.181	10831.35
913.494	10852.37
913.806	10753.62
914.118	10682.88
914.43	10690.57
914.742	10671.13
915.054	10648.76
915.366	10525.82
915.678	10514.07
915.99	10432.04
916.302	10357.24
916.613	10244.48
916.925	10355.66
917.236	10253.74
917.548	10192.5
917.859	10194.53
918.171	10136
918.482	10112.95
918.794	10069.57
919.105	10086.29
919.416	9933.07
919.727	9943.02
920.038	9928.33
920.349	9782.12
920.66	9835.67
920.971	9765.62
921.282	9699.86
921.593	9649.01
921.903	9677.03
922.214	9616.47
922.525	9612.85
922.835	9553.2
923.146	9467.1
923.456	9383.71
923.767	9400.2
924.077	9348.23
924.387	9284.5
924.697	9280.66
925.008	9219.19
925.318	9239.76
925.628	9128.35
925.938	9094.22
926.248	9021.91
926.558	8954.11
926.867	8991.85
927.177	8985.75
927.487	8908.24
927.796	8813.1
928.106	8804.06
928.416	8763.39
928.725	8747.11
929.034	8702.6
929.344	8684.74
929.653	8649.49
929.962	8569.72
930.271	8575.37
930.581	8570.17
930.89	8463.73
931.199	8423.73
931.508	8369.95
931.817	8377.63
932.125	8343.96
932.434	8282.49
932.743	8267.35
933.051	8229.61
933.36	8138.54
933.669	8156.17
933.977	8110.75
934.286	8124.98
934.594	8032.78
934.902	8009.96
935.21	7950.98
935.519	7944.88
935.827	7986.68
936.135	7877.98
936.443	7832.79
936.751	7814.26
937.059	7783.52
937.367	7710.98
937.674	7722.28
937.982	7632.79
938.29	7623.53
938.597	7666.69
938.905	7515.28
939.213	7492.23
939.52	7508.28
939.827	7487.03
940.135	7461.95
940.442	7421.5
940.749	7379.47
941.056	7379.47
941.363	7324.78
941.67	7233.48
941.977	7214.05
942.284	7201.17
942.591	7214.27
942.898	7109.87
943.205	7130.89
943.511	7096.31
943.818	7069.87
944.125	7030.78
944.431	7069.64
944.738	7018.57
945.044	6971.12
945.35	6896.77
945.657	6902.19
945.963	6828.75
946.269	6806.15
946.575	6760.95
946.881	6741.29
947.187	6716.43
947.493	6690.22
947.799	6666.49
948.105	6646.38
948.41	6567.74
948.716	6554.63
949.022	6523.67
949.327	6488.42
949.633	6427.85
949.938	6440.51
950.244	6448.87
950.549	6386.27
950.854	6399.38
951.16	6354.41
951.465	6344.69
951.77	6309.66
952.075	6322.55
952.38	6219.95
952.685	6275.32
952.99	6116
953.294	6166.17
953.599	6113.29
953.904	6111.93
954.209	6106.51
954.513	6038.26
954.818	6055.21
955.122	6047.52
955.426	5934.76
955.731	5903.57
956.035	5901.31
956.339	5892.73
956.643	5898.83
956.948	5809.56
957.252	5792.16
957.556	5796.68
957.86	5714.43
958.163	5751.49
958.467	5718.72
958.771	5682.11
959.075	5683.24
959.378	5569.8
959.682	5643.02
959.985	5595.11
960.289	5552.85
960.592	5503.36
960.896	5483.47
961.199	5521.44
961.502	5467.43
961.805	5452.06
962.108	5425.62
962.411	5354.89
962.714	5362.12
963.017	5322.12
963.32	5346.75
963.623	5276.02
963.926	5275.34
964.228	5237.6
964.531	5208.9
964.833	5242.12
965.136	5194.89
965.438	5112.63
965.741	5139.07
966.043	5089.13
966.345	5064.27
966.648	5026.99
966.95	5072.41
967.252	5017.5
967.554	4997.16
967.856	5010.04
968.158	4894.79
968.46	4925.52
968.761	4866.09
969.063	4880.1
969.365	4888.23
969.666	4826.77
969.968	4827.22
970.269	4748.8
970.571	4751.51
970.872	4775.47
971.174	4702.7
971.475	4680.55
971.776	4652.08
972.077	4639.65
972.378	4636.04
972.679	4611.18
972.98	4617.05
973.281	4592.65
973.582	4564.17
973.883	4533.21
974.183	4486.44
974.484	4508.58
974.785	4485.31
975.085	4479.43
975.386	4479.88
975.686	4407.57
975.986	4386.33
976.287	4397.85
976.587	4333.67
976.887	4349.26
977.187	4314.46
977.487	4261.13
977.787	4258.19
978.087	4248.25
978.387	4235.59
978.687	4204.18
978.987	4213.22
979.286	4194.24
979.586	4188.59
979.885	4146.11
980.185	4133.9
980.484	4075.83
980.784	4090.97
981.083	4051.64
981.382	4058.88
981.682	4050.97
981.981	4010.74
982.28	3982.49
982.579	3957.64
982.878	3998.09
983.177	3940.69
983.475	3936.85
983.774	3893.68
984.073	3890.97
984.372	3804.65
984.67	3867.02
984.969	3874.25
985.267	3809.17
985.566	3822.72
985.864	3776.62
986.162	3771.65
986.461	3739.11
986.759	3738.21
987.057	3702.95
987.355	3687.81
987.653	3704.99
987.951	3649.62
988.249	3617.08
988.547	3669.06
988.844	3614.59
989.142	3616.63
989.44	3573.01
989.737	3552.45
990.035	3518.33
990.332	3540.92
990.63	3532.79
990.927	3512.22
991.224	3439.23
991.521	3511.09
991.819	3483.07
992.116	3402.17
992.413	3440.59
992.71	3402.62
993.006	3380.93
993.303	3348.39
993.6	3317.65
993.897	3319.69
994.193	3299.8
994.49	3269.74
994.787	3260.48
995.083	3205.34
995.379	3228.84
995.676	3204.66
995.972	3208.96
996.268	3227.03
996.565	3163.76
996.861	3157.21
997.157	3153.36
997.453	3119.01
997.749	3117.88
998.044	3103.87
998.34	3059.35
998.636	3060.48
998.932	3046.02
999.227	3010.32
999.523	3045.57
999.818	3012.58
1000.114	2980.49
1000.409	2963.99
1000.704	2947.27
1001	2942.97
1001.295	2846.25
1001.59	2861.17
1001.885	2869.08
1002.18	2828.85
1002.475	2878.79
1002.77	2798.34
1003.065	2823.88
1003.359	2808.97
1003.654	2797.89
1003.949	2781.17
1004.243	2753.15
1004.538	2733.49
1004.832	2721.06
1005.127	2746.37
1005.421	2701.17
1005.715	2661.17
1006.009	2675.86
1006.304	2641.51
1006.598	2598.58
1006.892	2601.97
1007.186	2615.52
1007.48	2593.6
1007.773	2559.48
1008.067	2581.63
1008.361	2522.42
1008.655	2540.5
1008.948	2518.13
1009.242	2513.83
1009.535	2458.47
1009.829	2474.06
1010.122	2444.91
1010.415	2425.25
1010.708	2421.63
1011.001	2380.05
1011.295	2366.27
1011.588	2362.2
1011.881	2343.89
1012.173	2368.3
1012.466	2326.94
1012.759	2328.75
1013.052	2322.65
1013.344	2297.79
1013.637	2289.21
1013.93	2265.93
1014.222	2235.65
1014.514	2235.2
1014.807	2225.48
1015.099	2231.58
1015.391	2197.46
1015.683	2192.26
1015.976	2139.15
1016.268	2143.67
1016.56	2126.05
1016.851	2146.38
1017.143	2112.71
1017.435	2117.46
1017.727	2069.55
1018.018	2072.26
1018.31	2079.27
1018.602	2044.69
1018.893	2053.05
1019.185	2004.92
1019.476	2009.66
1019.767	1966.95
1020.058	1963.34
1020.35	1952.94
1020.641	1943
1020.932	1941.64
1021.223	1884.7
1021.514	1900.29
1021.804	1889.22
1022.095	1871.14
1022.386	1874.75
1022.677	1842.89
1022.967	1820.97
1023.258	1808.99
1023.548	1817.81
1023.839	1776.9
1024.129	1785.94
1024.419	1754.98
1024.709	1745.49
1025	1777.35
1025.29	1727.41
1025.58	1694.87
1025.87	1722.44
1026.16	1703.91
1026.449	1683.8
1026.739	1689.45
1027.029	1667.53
1027.319	1698.26
1027.608	1627.3
1027.898	1626.17
1028.187	1629.11
1028.477	1599.73
1028.766	1591.82
1029.055	1594.99
1029.344	1575.33
1029.634	1531.71
1029.923	1548.89
1030.212	1537.13
1030.501	1538.26
1030.79	1513.41
1031.078	1519.96
1031.367	1485.38
1031.656	1503.92
1031.945	1473.63
1032.233	1480.64
1032.522	1437.93
1032.81	1458.94
1033.099	1429.34
1033.387	1432.73
1033.675	1413.52
1033.963	1404.71
1034.251	1397.03
1034.54	1389.57
1034.828	1365.16
1035.116	1357.03
1035.403	1339.63
1035.691	1326.74
1035.979	1331.72
1036.267	1314.09
1036.554	1303.47
1036.842	1311.15
1037.129	1317.93
1037.417	1291.94
1037.704	1280.64
1037.992	1259.4
1038.279	1246.97
1038.566	1262.34
1038.853	1262.34
1039.14	1262.34
