Data from orange_diffuse_book_FLMS001491_00006.txt Node
Date: Wed Feb 08 15:29:03 GMT 2017
User: dcchb
Spectrometer: FLMS00149
Trigger mode: 0
Integration Time (sec): 2.000000E-2
Scans to average: 10
Electric dark correction enabled: true
Nonlinearity correction enabled: false
Boxcar width: 0
XAxis mode: Wavelengths
Number of Pixels in Spectrum: 2048
>>>>>Begin Spectral Data<<<<<
341.393	9.05
341.776	9.05
342.16	9.05
342.543	-62.81
342.927	-59.19
343.31	-90.6
343.693	-59.19
344.077	-76.37
344.46	-66.65
344.843	-54.22
345.226	-47.44
345.61	-27.1
345.993	-18.29
346.376	2.73
346.759	8.15
347.142	16.74
347.525	45.44
347.908	71.88
348.291	84.53
348.674	103.51
349.057	106.9
349.44	120.69
349.823	171.08
350.206	156.62
350.588	208.82
350.971	221.93
351.354	253.34
351.737	260.35
352.119	277.52
352.502	288.37
352.884	305.99
353.267	304.64
353.65	308.25
354.032	306.22
354.414	344.19
354.797	332.66
355.179	341.25
355.562	345.99
355.944	344.19
356.326	347.12
356.709	344.41
357.091	350.51
357.473	353.68
357.855	362.04
358.238	348.71
358.62	350.29
359.002	346.22
359.384	360
359.766	352.1
360.148	338.54
360.53	349.84
360.912	364.98
361.294	353
361.676	336.73
362.057	352.1
362.439	341.02
362.821	337.86
363.203	339.44
363.584	327.46
363.966	362.94
364.348	338.31
364.729	331.3
365.111	338.31
365.493	355.71
365.874	335.6
366.256	345.32
366.637	332.21
367.019	328.37
367.4	315.94
367.781	334.02
368.163	340.34
368.544	338.54
368.925	320.68
369.306	335.6
369.688	338.08
370.069	310.97
370.45	351.42
370.831	328.82
371.212	330.17
371.593	336.28
371.974	325.88
372.355	351.42
372.736	337.41
373.117	338.31
373.498	318.42
373.879	327.92
374.26	351.87
374.641	344.19
375.021	332.21
375.402	334.92
375.783	342.6
376.163	361.13
376.544	353.23
376.925	339.89
377.305	333.79
377.686	343.73
378.066	350.74
378.447	359.1
378.827	341.25
379.208	353.68
379.588	355.94
379.968	354.13
380.349	359.55
380.729	357.52
381.109	379.89
381.489	331.08
381.87	356.16
382.25	364.75
382.63	350.29
383.01	357.97
383.39	360
383.77	356.84
384.15	366.78
384.53	362.04
384.91	378.54
385.29	386.9
385.67	369.95
386.049	359.33
386.429	356.16
386.809	353
387.189	380.8
387.568	348.71
387.948	367.46
388.328	372.21
388.707	381.02
389.087	378.54
389.466	395.94
389.846	381.02
390.225	384.64
390.605	385.31
390.984	379.44
391.363	395.48
391.743	378.54
392.122	376.28
392.501	420.12
392.881	410.17
393.26	387.8
393.639	397.97
394.018	418.31
394.397	397.52
394.776	402.72
395.155	409.27
395.534	418.76
395.913	406.11
396.292	402.72
396.671	416.27
397.05	419.66
397.429	421.92
397.808	424.18
398.186	419.89
398.565	421.92
398.944	418.31
399.323	438.65
399.701	414.47
400.08	427.57
400.458	424.86
400.837	429.16
401.215	431.64
401.594	412.43
401.972	410.85
402.351	430.74
402.729	420.12
403.107	420.57
403.486	427.57
403.864	462.83
404.242	443.62
404.62	452.66
404.999	463.5
405.377	424.41
405.755	462.6
406.133	475.71
406.511	469.83
406.889	458.76
407.267	465.09
407.645	479.78
408.023	477.52
408.401	451.3
408.779	460.34
409.156	495.14
409.534	478.19
409.912	480.68
410.29	479.78
410.667	481.81
411.045	508.02
411.422	493.33
411.8	501.7
412.178	504.63
412.555	508.02
412.933	538.08
413.31	506.44
413.687	526.33
414.065	520.23
414.442	511.19
414.819	525.42
415.197	539.43
415.574	541.69
415.951	562.26
416.328	559.32
416.705	557.51
417.082	552.77
417.46	558.19
417.837	545.76
418.214	559.1
418.591	548.25
418.967	570.85
419.344	564.29
419.721	570.85
420.098	587.57
420.475	568.36
420.852	592.31
421.228	592.77
421.605	577.17
421.982	589.6
422.358	576.95
422.735	597.29
423.111	592.99
423.488	633.44
423.864	631.18
424.241	625.76
424.617	633.67
424.994	609.72
425.37	601.58
425.746	638.42
426.123	658.08
426.499	640
426.875	628.25
427.251	651.52
427.627	640.22
428.003	664.86
428.379	654.01
428.756	668.02
429.132	657.85
429.507	680
429.883	679.09
430.259	695.14
430.635	707.34
431.011	700.79
431.387	722.03
431.763	720.45
432.138	713.67
432.514	718.87
432.89	750.05
433.265	739.66
433.641	749.6
434.016	754.57
434.392	782.37
434.767	792.76
435.143	763.61
435.518	762.25
435.894	800.67
436.269	775.59
436.644	793.44
437.02	799.77
437.395	824.17
437.77	804.74
438.145	830.95
438.52	817.85
438.895	836.83
439.271	842.03
439.646	861.69
440.021	848.35
440.395	870.27
440.77	822.59
441.145	863.49
441.52	878.41
441.895	857.84
442.27	851.97
442.645	869.37
443.019	898.3
443.394	911.18
443.769	894.68
444.143	880.67
444.518	933.1
444.892	901.69
445.267	915.7
445.641	924.06
446.016	921.12
446.39	922.02
446.764	923.38
447.139	931.97
447.513	927.67
447.887	929.26
448.262	934.45
448.636	939.42
449.01	951.63
449.384	945.75
449.758	957.28
450.132	975.81
450.506	971.97
450.88	986.2
451.254	1013.09
451.628	1020.1
452.002	1016.48
452.376	1018.29
452.75	1047.9
453.123	1030.27
453.497	1016.26
453.871	1011.51
454.244	1057.16
454.618	1039.99
454.992	1070.49
455.365	1086.54
455.739	1069.14
456.112	1085.64
456.486	1094.9
456.859	1115.92
457.232	1102.13
457.606	1116.37
457.979	1143.26
458.352	1134.22
458.725	1153.88
459.099	1137.61
459.472	1178.97
459.845	1198.85
460.218	1227.1
460.591	1171.28
460.964	1206.99
461.337	1210.15
461.71	1221
462.083	1260.77
462.456	1294.67
462.829	1231.39
463.201	1290.15
463.574	1256.48
463.947	1287.89
464.32	1311.84
464.692	1310.04
465.065	1317.72
465.438	1335.35
465.81	1358.85
466.183	1349.81
466.555	1395.68
466.928	1391.62
467.3	1377.38
467.672	1373.54
468.045	1412.63
468.417	1425.06
468.789	1441.33
469.161	1462.12
469.534	1479.52
469.906	1492.86
470.278	1481.11
470.65	1539.86
471.022	1500.09
471.394	1539.41
471.766	1578.05
472.138	1592.29
472.51	1606.75
472.882	1633.64
473.253	1651.04
473.625	1632.06
473.997	1679.97
474.369	1695.79
474.74	1694.21
475.112	1714.09
475.484	1759.06
475.855	1778.5
476.227	1783.7
476.598	1859.17
476.97	1839.51
477.341	1882.22
477.713	1885.39
478.084	1908.21
478.455	1957.93
478.827	1977.59
479.198	2013.07
479.569	2036.12
479.94	2040.86
480.311	2070.47
480.682	2129.68
481.053	2185.72
481.424	2212.84
481.795	2201.09
482.166	2241.54
482.537	2267.07
482.908	2296.22
483.279	2345.49
483.65	2377.35
484.021	2401.98
484.391	2436.11
484.762	2481.98
485.133	2441.98
485.503	2541.87
485.874	2574.86
486.244	2618.7
486.615	2645.14
486.985	2661.64
487.356	2700.51
487.726	2723.11
488.097	2770.56
488.467	2806.72
488.837	2865.02
489.207	2935.3
489.578	2919.71
489.948	2960.39
490.318	3030.67
490.688	3002.87
491.058	3083.1
491.428	3120.38
491.798	3172.36
492.168	3220.72
492.538	3267.5
492.908	3287.84
493.278	3299.14
493.648	3337.33
494.017	3364.22
494.387	3414.61
494.757	3501.17
495.126	3525.8
495.496	3524.44
495.866	3506.59
496.235	3590.43
496.605	3625.68
496.974	3646.47
497.344	3687.83
497.713	3744.1
498.082	3782.51
498.452	3787.03
498.821	3809.18
499.19	3875.39
499.559	3906.13
499.928	3897.31
500.298	3940.48
500.667	4008.27
501.036	3987.93
501.405	4073.81
501.774	4043.52
502.143	4069.51
502.512	4144.76
502.88	4183.63
503.249	4149.28
503.618	4233.12
503.987	4320.35
504.356	4262.95
504.724	4346.57
505.093	4325.1
505.462	4364.42
505.83	4406.68
506.199	4479.9
506.567	4496.85
506.936	4527.35
507.304	4572.32
507.672	4593.11
508.041	4600.12
508.409	4687.8
508.777	4708.14
509.145	4739.55
509.514	4807.57
509.882	4810.28
510.25	4798.31
510.618	4830.62
510.986	4865.87
511.354	4922.6
511.722	4954.69
512.09	5000.79
512.458	5063.16
512.826	5073.33
513.193	5098.86
513.561	5055.93
513.929	5152.87
514.297	5205.53
514.664	5201.69
515.032	5257.28
515.4	5325.75
515.767	5331.4
516.135	5381.57
516.502	5332.53
516.869	5445.52
517.237	5488.91
517.604	5451.17
517.972	5509.02
518.339	5575.91
518.706	5571.39
519.073	5626.98
519.44	5707.43
519.808	5716.7
520.175	5756.47
520.542	5802.35
520.909	5815.23
521.276	5862.91
521.643	5898.16
522.009	5991.27
522.376	6013.42
522.743	5991.5
523.11	6048.67
523.477	6106.97
523.843	6136.8
524.21	6198.27
524.577	6276.46
524.943	6270.36
525.31	6331.83
525.676	6356.68
526.043	6443.91
526.409	6444.82
526.776	6495.66
527.142	6517.81
527.508	6617.24
527.874	6627.86
528.241	6666.28
528.607	6662.44
528.973	6774.07
529.339	6758.93
529.705	6817.91
530.071	6899.49
530.437	6911.02
530.803	6962.77
531.169	6997.34
531.535	6957.12
531.901	7058.59
532.267	7010.9
532.632	7040.73
532.998	7101.52
533.364	7186.49
533.73	7214.06
534.095	7270.33
534.461	7337.67
534.826	7289.09
535.192	7366.37
535.557	7412.47
535.923	7326.6
536.288	7422.42
536.653	7405.02
537.019	7502.87
537.384	7480.5
537.749	7504.45
538.114	7576.54
538.479	7551.23
538.845	7589.65
539.21	7640.72
539.575	7640.49
539.94	7752.58
540.305	7782.86
540.67	7776.53
541.034	7760.71
541.399	7906.92
541.764	7892.91
542.129	7954.38
542.494	7953.03
542.858	7966.81
543.223	7974.27
543.587	8031.67
543.952	8053.14
544.316	8053.59
544.681	8075.96
545.045	8114.6
545.41	8153.7
545.774	8231.66
546.138	8272.34
546.503	8313.24
546.867	8232.79
547.231	8450.41
547.595	8411.32
547.959	8479.11
548.324	8526.12
548.688	8497.42
549.052	8622.16
549.416	8595.27
549.779	8633.23
550.143	8617.87
550.507	8731.99
550.871	8797.75
551.235	8813.34
551.599	8837.75
551.962	8918.65
552.326	8912.55
552.689	8966.56
553.053	8953
553.417	8989.83
553.78	9149.38
554.143	9053.79
554.507	9178.98
554.87	9191.41
555.234	9389.15
555.597	9376.49
555.96	9398.64
556.323	9474.79
556.686	9515.92
557.05	9610.38
557.413	9586.2
557.776	9666.88
558.139	9787.1
558.502	9745.52
558.865	9851.51
559.228	9924.5
559.59	9976.7
559.953	10080.43
560.316	10160.88
560.679	10152.52
561.041	10283.59
561.404	10330.14
561.767	10423.92
562.129	10493.3
562.492	10512.96
562.854	10613.07
563.217	10652.39
563.579	10789.79
563.941	10818.49
564.304	11008.76
564.666	11079.27
565.028	11119.04
565.39	11191.36
565.753	11402.65
566.115	11398.58
566.477	11594.96
566.839	11623.89
567.201	11778.69
567.563	11798.8
567.925	11951.11
568.287	12035.86
568.648	12091.45
569.01	12285.57
569.372	12467.71
569.734	12487.6
570.095	12704.31
570.457	12847.81
570.819	12951.31
571.18	13005.32
571.542	13151.08
571.903	13353.56
572.265	13459.77
572.626	13669.03
572.987	13797.17
573.349	13913.77
573.71	14088.01
574.071	14294.55
574.432	14452.52
574.794	14655.22
575.155	14838.95
575.516	14965.04
575.877	15199.16
576.238	15325.26
576.599	15661.3
576.96	15676.89
577.32	16005.24
577.681	16198.68
578.042	16527.72
578.403	16653.14
578.763	16946.46
579.124	17180.13
579.485	17496.96
579.845	17848.58
580.206	17994.8
580.566	18356.14
580.927	18517.27
581.287	18924.04
581.648	18983.47
582.008	19444.25
582.368	19764.92
582.728	20062.31
583.089	20293.04
583.449	20653.03
583.809	21020.25
584.169	21302.96
584.529	21431.99
584.889	21984.97
585.249	22170.5
585.609	22608.23
585.969	23040.54
586.329	23321.21
586.688	23755.55
587.048	24139.72
587.408	24454.96
587.768	24807.5
588.127	25249.29
588.487	25534.26
588.846	26189.38
589.206	26434.57
589.565	26778.97
589.925	27295.57
590.284	27614.88
590.643	27992.5
591.003	28469.77
591.362	29040.15
591.721	29287.61
592.08	29737.76
592.44	30278.77
592.799	30681.02
593.158	31082.81
593.517	31441.67
593.876	32082.56
594.235	32309.22
594.593	32760.51
594.952	33288.18
595.311	33591.22
595.67	34146.69
596.029	34773.79
596.387	35258.75
596.746	35700.54
597.104	35762.92
597.463	36172.62
597.822	36727.41
598.18	37144.12
598.538	37620.72
598.897	38029.75
599.255	38154.72
599.613	39131.41
599.972	39222.71
600.33	39541.35
600.688	39771.62
601.046	40511.04
601.404	40914.64
601.762	41271.25
602.12	41806.15
602.478	42116.42
602.836	42359.35
603.194	42598.89
603.552	43014.93
603.91	43258.54
604.268	43752.31
604.625	44059.42
604.983	44553.19
605.341	44538.96
605.698	45064.59
606.056	45423.45
606.413	45593.39
606.771	46046.49
607.128	46225.69
607.485	46316.76
607.843	46629.52
608.2	47117.87
608.557	47351.31
608.914	47552.44
609.272	47994.91
609.629	48130.27
609.986	48481.23
610.343	48458.85
610.7	48827.43
611.057	48936.13
611.414	49100.19
611.771	49306.51
612.127	49496.11
612.484	49690.46
612.841	50023.78
613.198	49878.25
613.554	50119.83
613.911	50404.34
614.267	50583.09
614.624	50591
614.98	50866.93
615.337	51017.66
615.693	51004.77
616.05	51155.73
616.406	51386.23
616.762	51397.08
617.118	51523.86
617.475	51506.68
617.831	51742.83
618.187	51873.68
618.543	51936.5
618.899	52216.72
619.255	52196.61
619.611	52191.18
619.967	52434.34
620.323	52505.3
620.678	52453.32
621.034	52404.74
621.39	52463.72
621.746	52526.99
622.101	52952.97
622.457	52651.51
622.812	52825.52
623.168	52893.76
623.523	52971.5
623.879	53042.24
624.234	52849.02
624.589	53045.4
624.945	53167.66
625.3	53087.21
625.655	53122.23
626.01	53191.84
626.365	53233.42
626.72	53191.61
627.075	53253.08
627.43	53259.86
627.785	53272.06
628.14	53476.12
628.495	53420.08
628.85	53328.1
629.205	53311.61
629.559	53546.63
629.914	53450.81
630.269	53416.69
630.623	53466.86
630.978	53370.36
631.332	53547.53
631.687	53507.53
632.041	53416.46
632.396	53425.28
632.75	53404.94
633.104	53432.28
633.459	53313.87
633.813	53356.58
634.167	53374.66
634.521	53357.93
634.875	53448.78
635.229	53418.95
635.583	53185.06
635.937	53261.21
636.291	53329.46
636.645	53271.38
636.999	53244.72
637.352	53406.52
637.706	53245.39
638.06	53243.13
638.413	53183.93
638.767	53211.72
639.121	53258.5
639.474	53035
639.828	53031.84
640.181	53102.57
640.534	53209.46
640.888	52964.05
641.241	52981.45
641.594	53027.32
641.947	53086.75
642.301	53056.92
642.654	53036.36
643.007	53003.37
643.36	53144.15
643.713	52946.87
644.066	53021.44
644.419	52837.04
644.771	52719.31
645.124	52418.75
645.477	52444.96
645.83	52243.84
646.182	52196.83
646.535	52118.64
646.888	52130.17
647.24	52011.08
647.593	52195.25
647.945	52081.81
648.298	51986.9
648.65	51809.73
649.002	51817.41
649.355	51905.09
649.707	51962.72
650.059	52080.9
650.411	52382.37
650.763	52628.91
651.115	52784.61
651.467	52750.27
651.819	52686.99
652.171	52583.72
652.523	52579.65
652.875	52573.32
653.227	52465.75
653.578	52637.73
653.93	52621.46
654.282	52464.62
654.633	52408.35
654.985	52522.93
655.337	52496.03
655.688	52470.05
656.039	52594.11
656.391	52348.92
656.742	52390.05
657.094	52429.82
657.445	52524.51
657.796	52502.59
658.147	52390.5
658.498	52320.9
658.849	52512.08
659.2	52344.85
659.551	52347.34
659.902	52545.3
660.253	52375.81
660.604	52477.05
660.955	52160.9
661.306	52371.29
661.656	52272.76
662.007	52302.59
662.358	52338.75
662.708	52297.4
663.059	52329.26
663.409	52120
663.76	52420.1
664.11	52317.06
664.461	52337.62
664.811	52334.23
665.161	52317.96
665.511	52204.29
665.862	52189.38
666.212	52356.83
666.562	52380.11
666.912	52343.04
667.262	52262.37
667.612	52226.66
667.962	52305.31
668.312	52087.23
668.662	52330.16
669.011	52174.01
669.361	52153.67
669.711	52214.46
670.06	52125.65
670.41	52056.27
670.76	52029.38
671.109	52062.37
671.459	52030.96
671.808	52040.68
672.157	51962.26
672.507	51857.63
672.856	51856.28
673.205	51840.01
673.554	52014.69
673.904	51862.61
674.253	51997.74
674.602	51865.32
674.951	51413.8
675.3	51266.24
675.649	51821.7
675.998	51687.47
676.346	51749.61
676.695	51768.37
677.044	51614.02
677.393	51665.1
677.741	51730.63
678.09	51642.72
678.438	51454.71
678.787	51624.42
679.135	51506
679.484	51343.3
679.832	51530.18
680.181	51305.11
680.529	51485.67
680.877	51267.14
681.225	51275.28
681.573	51484.76
681.922	51113.7
682.27	51102.17
682.618	51168.39
682.966	51022.18
683.314	51126.58
683.661	51097.65
684.009	50940.37
684.357	50753.03
684.705	50652.92
685.053	50785.57
685.4	50815.18
685.748	50565.24
686.095	50569.31
686.443	50397.79
686.79	50403.89
687.138	50491.12
687.485	50421.06
687.832	50261.52
688.18	50233.27
688.527	50116.66
688.874	50102.65
689.221	50012.26
689.568	50012.03
689.915	49816.56
690.262	49817.01
690.609	49781.53
690.956	49690.91
691.303	49575.43
691.65	49381.31
691.997	49294.31
692.344	49115.56
692.69	49113.07
693.037	49133.86
693.383	48848
693.73	48988.33
694.077	48701.78
694.423	48603.03
694.769	48762.57
695.116	48519.19
695.462	48492.3
695.808	48399.87
696.155	48436.48
696.501	48120.56
696.847	48248.24
697.193	47895.03
697.539	48024.06
697.885	47761.47
698.231	47677.4
698.577	47600.57
698.923	47417.75
699.269	47256.85
699.614	47229.73
699.96	47049.85
700.306	47049.85
700.651	46895.5
700.997	46711.1
701.342	46660.93
701.688	46571.44
702.033	46483.31
702.379	46445.57
702.724	46511.33
703.069	46370.32
703.415	46031.12
703.76	45998.35
704.105	45985.47
704.45	45933.04
704.795	45624.58
705.14	45583.67
705.485	45479.95
705.83	45318.37
706.175	45383.23
706.52	45172.84
706.865	45096.46
707.209	44812.62
707.554	44900.98
707.899	44825.05
708.243	44622.34
708.588	44527.43
708.932	44319.07
709.277	44222.58
709.621	44404.72
709.966	44047.9
710.31	44187.78
710.654	43879.54
710.998	43974.9
711.342	43823.95
711.687	43698.07
712.031	43615.14
712.375	43456.5
712.719	43678.41
713.063	43551.64
713.407	43503.28
713.75	43357.29
714.094	43322.49
714.438	43100.8
714.782	43145.77
715.125	42959.56
715.469	43108.71
715.812	42814.71
716.156	42715.05
716.499	42706.91
716.843	42797.76
717.186	42521.61
717.53	42727.03
717.873	42660.14
718.216	42617.65
718.559	42364.32
718.902	42194.61
719.246	42091.34
719.589	42071.68
719.932	41822.64
720.275	41894.73
720.617	41954.39
720.96	41699.48
721.303	41795.3
721.646	41801.85
721.989	41559.37
722.331	41738.13
722.674	41622.87
723.016	41497
723.359	41506.49
723.701	41508.98
724.044	41230.57
724.386	41076.22
724.729	41399.15
725.071	41266.05
725.413	41145.37
725.755	41002.55
726.097	40923.01
726.439	40650.7
726.782	40926.62
727.124	41004.36
727.465	40807.53
727.807	40680.98
728.149	40633.75
728.491	40725.05
728.833	40629
729.175	40600.75
729.516	40481.66
729.858	40347.65
730.199	40457.26
730.541	40351.5
730.882	40262.23
731.224	40313.98
731.565	40093.65
731.906	40280.54
732.248	40267.43
732.589	40005.06
732.93	39938.85
733.271	39797.61
733.612	39993.54
733.953	39845.07
734.294	39809.59
734.635	39667.67
734.976	39843.49
735.317	39647.11
735.658	39702.02
735.999	39635.36
736.339	39511.29
736.68	39615.7
737.021	39350.62
737.361	39354.69
737.702	39551.74
738.042	39227.01
738.383	39488.69
738.723	39316.49
739.063	39279.21
739.404	39245.76
739.744	39125.31
740.084	39203.96
740.424	39082.83
740.764	38903.17
741.104	39048.25
741.444	38797.41
741.784	38848.03
742.124	38829.28
742.464	38722.84
742.804	38728.26
743.143	38715.38
743.483	38791.99
743.823	38542.5
744.162	38500.7
744.502	38641.26
744.841	38350.87
745.181	38617.53
745.52	38406.46
745.86	38431.77
746.199	38345.9
746.538	38365.33
746.877	38386.58
747.216	38362.4
747.556	38166.47
747.895	38133.93
748.234	37991.56
748.573	37871.33
748.911	37929.19
749.25	37993.14
749.589	37719.93
749.928	37822.75
750.267	37732.36
750.605	37749.08
750.944	37685.35
751.283	37541.17
751.621	37667.27
751.96	37362.87
752.298	37387.51
752.636	37422.53
752.975	37227.74
753.313	37053.96
753.651	37270.9
753.989	37149.32
754.327	36984.8
754.666	36815.09
755.004	36933.28
755.342	36930.12
755.679	36701.65
756.017	36694.19
756.355	36686.51
756.693	36570.58
757.031	36674.3
757.368	36409.23
757.706	36291.49
758.044	36217.59
758.381	36257.59
758.719	36192.51
759.056	36098.95
759.394	35995.68
759.731	35788.9
760.068	35646.31
760.405	35580.1
760.743	35519.08
761.08	35526.54
761.417	35335.81
761.754	35455.35
762.091	35247.22
762.428	35073.44
762.765	34971.3
763.102	35045.42
763.438	34764.3
763.775	34724.98
764.112	34641.82
764.449	34797.29
764.785	34534.93
765.122	34284.99
765.458	34349.62
765.795	34312.56
766.131	34072.34
766.467	34049.51
766.804	33797.77
767.14	33700.82
767.476	33728.62
767.812	33531.11
768.148	33682.29
768.485	33406.14
768.821	33227.84
769.157	33141.29
769.492	33157.56
769.828	32982.42
770.164	32695.2
770.5	32733.39
770.836	32558.25
771.171	32535.2
771.507	32409.56
771.842	32265.83
772.178	32111.03
772.513	32113.29
772.849	31988.55
773.184	31804.38
773.519	31852.51
773.855	31571.61
774.19	31473.99
774.525	31528.68
774.86	31406.65
775.195	31323.94
775.53	31143.6
775.865	30915.59
776.2	30831.29
776.535	30666.33
776.87	30605.31
777.205	30584.97
777.539	30322.83
777.874	30384.98
778.209	30127.36
778.543	30169.16
778.878	29895.05
779.212	29891.66
779.547	29940.7
779.881	29914.48
780.215	29574.6
780.55	29751.32
780.884	29455.06
781.218	29337.77
781.552	29400.37
781.886	29205.35
782.22	29081.28
782.554	28919.03
782.888	28698.47
783.222	28621.86
783.556	28443.11
783.889	28476.55
784.223	28179.84
784.557	28221.64
784.89	28317.46
785.224	28184.36
785.557	27980.52
785.891	27914.31
786.224	27870.92
786.558	27754.09
786.891	27519.06
787.224	27347.54
787.557	27285.85
787.891	27331.72
788.224	27254.66
788.557	27298.73
788.89	27060.32
789.223	27127.21
789.556	26836.6
789.888	26772.64
790.221	26562.25
790.554	26403.61
790.887	26580.11
791.219	26373.56
791.552	26325.2
791.884	26222.15
792.217	26132.66
792.549	25949.16
792.882	25822.84
793.214	25817.19
793.546	25816.96
793.879	25668.04
794.211	25459.01
794.543	25593.92
794.875	25427.14
795.207	25468.5
795.539	25359.57
795.871	25288.61
796.203	25015.63
796.535	24913.71
796.867	24913.48
797.198	24903.09
797.53	24880.26
797.862	24676.88
798.193	24798.91
798.525	24560.95
798.856	24579.93
799.188	24388.53
799.519	24255.65
799.85	24204.12
800.182	24231.02
800.513	24154.41
800.844	23880.74
801.175	24046.16
801.506	23952.15
801.837	23837.35
802.168	23771.14
802.499	23721.88
802.83	23496.57
803.161	23475.33
803.491	23521.2
803.822	23461.77
804.153	23257.71
804.483	23125.28
804.814	23073.76
805.145	23179.74
805.475	23112.85
805.805	22992.63
806.136	22929.81
806.466	22904.27
806.796	22882.8
807.126	22675.8
807.457	22658.18
807.787	22723.48
808.117	22600.32
808.447	22464.96
808.777	22497.73
809.107	22470.38
809.436	22330.05
809.766	22319.65
810.096	22224.06
810.426	22159.66
810.755	22082.6
811.085	22092.99
811.414	22010.96
811.744	21849.84
812.073	21810.29
812.403	21838.31
812.732	21653.46
813.061	21582.5
813.39	21526.68
813.719	21451.88
814.049	21536.17
814.378	21507.7
814.707	21413.91
815.036	21350.64
815.365	21232.9
815.693	21160.81
816.022	21115.17
816.351	21088.05
816.68	21018.9
817.008	20994.72
817.337	20872.23
817.665	20730.32
817.994	20872.01
818.322	20768.73
818.651	20607.38
818.979	20603.77
819.307	20704.33
819.636	20614.16
819.964	20532.58
820.292	20544.11
820.62	20516.76
820.948	20539.14
821.276	20469.76
821.604	20382.3
821.932	20488.51
822.259	20463.43
822.587	20351.12
822.915	20479.02
823.243	20457.33
823.57	20360.83
823.898	20418.46
824.225	20353.15
824.553	20421.85
824.88	20267.28
825.207	20355.41
825.535	20291.46
825.862	20375.52
826.189	20237.45
826.516	20340.5
826.843	20406.26
827.17	20319.71
827.497	20339.14
827.824	20365.35
828.151	20421.4
828.478	20246.49
828.805	20401.51
829.131	20267.05
829.458	20164
829.785	20113.84
830.111	20245.36
830.438	20264.57
830.764	20276.32
831.09	20298.24
831.417	20132.59
831.743	20247.17
832.069	20298.92
832.395	20193.83
832.722	20269.99
833.048	20109.54
833.374	20211.01
833.7	20029.09
834.026	20131.91
834.351	20151.35
834.677	20135.98
835.003	20095.53
835.329	19990
835.654	19950.22
835.98	19964.69
836.306	20044.91
836.631	19922.43
836.956	20017.34
837.282	20000.39
837.607	19862.32
837.932	19834.75
838.258	19831.81
838.583	19780.28
838.908	19704.58
839.233	19688.76
839.558	19638.14
839.883	19610.12
840.208	19541.2
840.533	19509.11
840.858	19493.29
841.182	19533.74
841.507	19461.2
841.832	19364.25
842.156	19347.98
842.481	19356.79
842.805	19192.73
843.13	19150.47
843.454	19166.29
843.778	19051.04
844.103	19116.57
844.427	19078.16
844.751	19032.28
845.075	19030.47
845.399	18936.92
845.723	18892.4
846.047	18946.86
846.371	18698.96
846.695	18597.27
847.019	18527.89
847.343	18541.67
847.666	18423.71
847.99	18294.45
848.313	18303.04
848.637	18249.93
848.96	18160.21
849.284	18173.55
849.607	18069.14
849.931	17911.63
850.254	17811.52
850.577	17728.14
850.9	17641.81
851.223	17563.85
851.546	17555.71
851.869	17464.19
852.192	17481.36
852.515	17338.09
852.838	17324.98
853.161	17250.63
853.483	17183.07
853.806	17082.95
854.129	17104.2
854.451	16915.28
854.774	16864.2
855.096	16870.31
855.419	16783.75
855.741	16684.55
856.063	16661.27
856.385	16612.23
856.708	16544.21
857.03	16475.06
857.352	16483.65
857.674	16432.35
857.996	16272.58
858.318	16240.49
858.64	16320.71
858.961	16200.27
859.283	16254.28
859.605	16109.2
859.926	16173.15
860.248	16067.16
860.57	15981.06
860.891	15989.88
861.212	15934.51
861.534	15942.87
861.855	15770.9
862.176	15915.75
862.498	15827.39
862.819	15835.3
863.14	15745.81
863.461	15636.44
863.782	15645.93
864.103	15695.87
864.424	15598.93
864.745	15726.83
865.065	15507.85
865.386	15492.94
865.707	15406.16
866.027	15383.56
866.348	15443.45
866.668	15463.11
866.989	15392.15
867.309	15369.1
867.63	15411.36
867.95	15312.38
868.27	15319.61
868.59	15305.15
868.91	15152.84
869.23	15131.14
869.55	15131.14
869.87	15116.68
870.19	15125.94
870.51	15084.59
870.83	15098.37
871.15	14992.84
871.469	14970.92
871.789	15015.21
872.109	15035.1
872.428	14862.22
872.748	15026.74
873.067	14971.37
873.386	14978.83
873.706	14904.48
874.025	14782
874.344	14837.36
874.663	14843.69
874.982	14807.08
875.301	14747.42
875.62	14665.39
875.939	14697.93
876.258	14734.99
876.577	14644.6
876.896	14599.4
877.214	14576.58
877.533	14511.27
877.852	14532.74
878.17	14570.25
878.489	14549.46
878.807	14544.26
879.125	14416.58
879.444	14434.21
879.762	14345.17
880.08	14382.01
880.398	14306.98
880.716	14337.94
881.034	14306.53
881.352	14189.02
881.67	14167.55
881.988	14199.64
882.306	14170.49
882.624	14099.76
882.941	14046.42
883.259	13997.61
883.577	13949.03
883.894	13941.34
884.212	13975.47
884.529	13956.26
884.846	13940.66
885.164	13868.58
885.481	13804.17
885.798	13862.02
886.115	13760.1
886.432	13761.46
886.75	13704.74
887.067	13656.83
887.383	13553.33
887.7	13607.79
888.017	13570.73
888.334	13634.46
888.651	13580.22
888.967	13571.41
889.284	13422.94
889.6	13394.01
889.917	13313.56
890.233	13356.27
890.55	13271.76
890.866	13231.98
891.182	13186.11
891.498	13097.07
891.815	13138.88
892.131	13066.11
892.447	13123.51
892.763	13036.06
893.079	13006.23
893.395	13006.45
893.71	12836.29
894.026	12843.74
894.342	12875.83
894.657	12770.98
894.973	12677.87
895.289	12784.08
895.604	12764.88
895.92	12672.9
896.235	12611.21
896.55	12565.56
896.865	12532.34
897.181	12439.69
897.496	12446.47
897.811	12357.88
898.126	12342.51
898.441	12301.39
898.756	12270.88
899.071	12251.22
899.386	12157.21
899.7	12087.15
900.015	12053.26
900.33	11949.98
900.644	11901.17
900.959	11967.84
901.273	11868.63
901.588	11822.75
901.902	11795.86
902.216	11679.26
902.531	11712.47
902.845	11610.56
903.159	11580.5
903.473	11528.75
903.787	11539.6
904.101	11412.82
904.415	11432.71
904.729	11444.23
905.042	11306.38
905.356	11319.49
905.67	11349.09
905.984	11320.39
906.297	11232.26
906.611	11151.59
906.924	11135.09
907.237	11044.47
907.551	11051.7
907.864	10920.4
908.177	10983.23
908.491	10931.48
908.804	10875.43
909.117	10847.64
909.43	10893.74
909.743	10788.43
910.056	10703.69
910.368	10624.59
910.681	10560.64
910.994	10530.81
911.307	10492.62
911.619	10411.04
911.932	10437.48
912.244	10340.76
912.557	10318.16
912.869	10296.24
913.181	10318.39
913.494	10246.52
913.806	10119.07
914.118	10184.83
914.43	10065.74
914.742	10073.42
915.054	10015.8
915.366	9949.13
915.678	9945.74
915.99	9890.83
916.302	9788.01
916.613	9817.84
916.925	9772.64
917.236	9680.44
917.548	9618.74
917.859	9681.79
918.171	9512.98
918.482	9609.25
918.794	9477.05
919.105	9472.31
919.416	9465.3
919.727	9383.95
920.038	9350.5
920.349	9272.76
920.66	9273.89
920.971	9209.49
921.282	9228.25
921.593	9163.61
921.903	9090.85
922.214	9079.55
922.525	8936.05
922.835	8983.96
923.146	8905.77
923.456	8886.11
923.767	8832.55
924.077	8899.22
924.387	8842.95
924.697	8778.09
925.008	8714.14
925.318	8687.24
925.628	8697.64
925.938	8632.1
926.248	8585.33
926.558	8534.03
926.867	8492.67
927.177	8472.11
927.487	8415.39
927.796	8360.92
928.106	8343.52
928.416	8349.63
928.725	8305.56
929.034	8227.14
929.344	8230.98
929.653	8209.74
929.962	8064.21
930.271	8123.87
930.581	8139.91
930.89	8060.59
931.199	7966.13
931.508	7997.32
931.817	7954.38
932.125	7892.01
932.434	7866.93
932.743	7814.27
933.051	7781.28
933.36	7798.68
933.669	7672.81
933.977	7649.3
934.286	7661.51
934.594	7689.08
934.902	7618.12
935.21	7532.7
935.519	7481.63
935.827	7532.7
936.135	7440.95
936.443	7391.01
936.751	7404.34
937.059	7360.72
937.367	7329.76
937.674	7288.86
937.982	7250.44
938.29	7229.43
938.597	7250.44
938.905	7149.2
939.213	7118.25
939.52	7135.19
939.827	7091.81
940.135	6989.21
940.442	7023.56
940.749	6976.55
941.056	6953.73
941.363	6911.92
941.67	6905.14
941.977	6831.02
942.284	6798.93
942.591	6788.54
942.898	6732.04
943.205	6735.88
943.511	6680.52
943.818	6704.7
944.125	6664.02
944.431	6593.97
944.738	6587.86
945.044	6534.08
945.35	6507.87
945.657	6511.93
945.963	6519.62
946.269	6420.18
946.575	6431.94
946.881	6404.59
947.187	6365.95
947.493	6306.74
947.799	6283.46
948.105	6283.24
948.41	6258.38
948.716	6235.56
949.022	6173.41
949.327	6137.25
949.633	6137.71
949.938	6102.23
950.244	6058.16
950.549	6017.71
950.854	5998.5
951.16	5980.65
951.465	5984.26
951.77	5993.3
952.075	5912.4
952.38	5903.59
952.685	5873.76
952.99	5815.91
953.294	5851.61
953.599	5822.01
953.904	5714.21
954.209	5728.23
954.513	5727.32
954.818	5745.85
955.122	5690.71
955.426	5625.63
955.731	5584.5
956.035	5544.28
956.339	5583.82
956.643	5530.49
956.948	5546.53
957.252	5521.9
957.556	5468.57
957.86	5427.89
958.163	5457.95
958.467	5445.97
958.771	5395.58
959.075	5376.37
959.378	5336.15
959.682	5355.58
959.985	5269.93
960.289	5291.85
960.592	5201.69
960.896	5193.1
961.199	5168.01
961.502	5147.45
961.805	5156.94
962.108	5081.01
962.411	5081.91
962.714	5088.69
963.017	5051.86
963.32	5066.32
963.623	5048.47
963.926	5022.25
964.228	4987.91
964.531	4948.36
964.833	4942.48
965.136	4893.9
965.438	4835.82
965.741	4869.26
966.043	4864.97
966.345	4783.39
966.648	4791.98
966.95	4745.65
967.252	4717.86
967.554	4734.8
967.856	4701.36
968.158	4657.52
968.46	4650.74
968.761	4618.42
969.063	4610.97
969.365	4589.72
969.666	4596.73
969.968	4547.92
970.269	4511.99
970.571	4515.83
970.872	4530.29
971.174	4443.06
971.475	4494.59
971.776	4450.07
972.077	4414.81
972.378	4365.55
972.679	4365.55
972.98	4367.36
973.281	4355.15
973.582	4321.71
973.883	4316.28
974.183	4300.24
974.484	4277.87
974.785	4235.16
975.085	4256.63
975.386	4236.06
975.686	4219.11
975.986	4170.75
976.287	4147.7
976.587	4174.59
976.887	4134.59
977.187	4090.75
977.487	4079.91
977.787	4057.53
978.087	4068.61
978.387	4006.91
978.687	4017.76
978.987	4000.59
979.286	3978.21
979.586	3957.88
979.885	3946.58
980.185	3886.92
980.484	3914.49
980.784	3836.98
981.083	3916.75
981.382	3871.78
981.682	3835.62
981.981	3814.83
982.28	3809.41
982.579	3804.66
982.878	3758.79
983.177	3724.44
983.475	3745.45
983.774	3724.66
984.073	3682.86
984.372	3630.88
984.67	3675.4
984.969	3646.25
985.267	3643.31
985.566	3610.99
985.864	3605.12
986.162	3548.17
986.461	3535.97
986.759	3503.65
987.057	3531.67
987.355	3481.28
987.653	3468.4
987.951	3487.15
988.249	3466.14
988.547	3476.76
988.844	3454.39
989.142	3438.34
989.44	3420.04
989.737	3404.67
990.035	3374.84
990.332	3371.9
990.63	3335.97
990.927	3319.02
991.224	3305.24
991.521	3282.19
991.819	3291.45
992.116	3285.58
992.413	3260.49
992.71	3218.69
993.006	3222.08
993.303	3201.96
993.6	3125.58
993.897	3169.2
994.193	3134.39
994.49	3116.54
994.787	3126.94
995.083	3076.32
995.379	3063.21
995.676	3076.32
995.972	3040.16
996.268	3041.29
996.565	3030.67
996.861	3009.88
997.157	3015.53
997.453	3004
997.749	2987.28
998.044	2949.09
998.34	2913.84
998.636	2900.95
998.932	2898.47
999.227	2874.97
999.523	2862.09
999.818	2848.53
1000.114	2834.29
1000.409	2845.59
1000.704	2778.92
1001	2789.09
1001.295	2769.88
1001.59	2731.47
1001.885	2771.47
1002.18	2705.93
1002.475	2678.81
1002.77	2719.72
1003.065	2639.49
1003.359	2664.8
1003.654	2683.79
1003.949	2625.93
1004.243	2630.45
1004.538	2651.24
1004.832	2590.45
1005.127	2585.26
1005.421	2536.44
1005.715	2543.68
1006.009	2546.39
1006.304	2505.94
1006.598	2512.94
1006.892	2499.16
1007.186	2473.62
1007.48	2479.04
1007.773	2477.01
1008.067	2445.6
1008.361	2400.4
1008.655	2441.76
1008.948	2414.64
1009.242	2396.11
1009.535	2353.4
1009.829	2343
1010.122	2336
1010.415	2354.3
1010.708	2310.46
1011.001	2290.12
1011.295	2309.33
1011.588	2296.9
1011.881	2243.57
1012.173	2223.01
1012.466	2238.6
1012.759	2236.11
1013.052	2203.8
1013.344	2193.18
1013.637	2212.61
1013.93	2144.59
1014.222	2136.46
1014.514	2131.03
1014.807	2124.7
1015.099	2103.46
1015.391	2086.96
1015.683	2091.94
1015.976	2089.22
1016.268	2071.15
1016.56	2035.21
1016.851	2086.29
1017.143	2011.26
1017.435	2021.88
1017.727	2015.55
1018.018	1980.08
1018.31	1984.59
1018.602	2000.41
1018.893	1949.79
1019.185	1923.81
1019.476	1932.39
1019.767	1882.22
1020.058	1894.2
1020.35	1891.94
1020.641	1854.65
1020.932	1823.02
1021.223	1822.34
1021.514	1821.44
1021.804	1809.46
1022.095	1805.39
1022.386	1783.7
1022.677	1775.33
1022.967	1745.73
1023.258	1761.1
1023.548	1749.8
1023.839	1691.95
1024.129	1728.1
1024.419	1688.56
1024.709	1702.79
1025	1712.29
1025.29	1670.03
1025.58	1654.89
1025.87	1642.68
1026.16	1602.91
1026.449	1658.05
1026.739	1628.67
1027.029	1600.42
1027.319	1592.06
1027.608	1579.63
1027.898	1559.97
1028.187	1582.8
1028.477	1554.1
1028.766	1552.29
1029.055	1511.16
1029.344	1514.1
1029.634	1495.12
1029.923	1502.57
1030.212	1483.36
1030.501	1466.64
1030.79	1470.94
1031.078	1448.56
1031.367	1454.44
1031.656	1412.41
1031.945	1402.92
1032.233	1422.8
1032.522	1387.32
1032.81	1415.57
1033.099	1387.55
1033.387	1365.18
1033.675	1363.14
1033.963	1343.48
1034.251	1345.29
1034.54	1333.99
1034.828	1328.57
1035.116	1299.87
1035.403	1297.83
1035.691	1303.71
1035.979	1263.03
1036.267	1259.19
1036.554	1278.62
1036.842	1276.36
1037.129	1248.79
1037.417	1260.55
1037.704	1257.83
1037.992	1221.45
1038.279	1246.08
1038.566	1208.12
1038.853	1208.12
1039.14	1208.12
