Data from orange_diffuse_book_FLMS001491_00092.txt Node
Date: Wed Feb 08 15:30:18 GMT 2017
User: dcchb
Spectrometer: FLMS00149
Trigger mode: 0
Integration Time (sec): 2.000000E-2
Scans to average: 10
Electric dark correction enabled: true
Nonlinearity correction enabled: false
Boxcar width: 0
XAxis mode: Wavelengths
Number of Pixels in Spectrum: 2048
>>>>>Begin Spectral Data<<<<<
341.393	-15.76
341.776	-15.76
342.16	-15.76
342.543	-73.39
342.927	-64.8
343.31	-63.44
343.693	-72.26
344.077	-61.86
344.46	-73.16
344.843	-45.14
345.226	-41.3
345.61	-47.63
345.993	-33.39
346.376	-5.37
346.759	-3.56
347.142	37.57
347.525	33.28
347.908	53.16
348.291	75.99
348.674	105.14
349.057	141.97
349.44	122.31
349.823	124.57
350.206	165.93
350.588	218.58
350.971	238.92
351.354	228.53
351.737	275.08
352.119	285.92
352.502	279.15
352.884	289.54
353.267	291.57
353.65	313.49
354.032	323.44
354.414	336.77
354.797	324.34
355.179	340.61
355.562	338.58
355.944	337.45
356.326	310.78
356.709	348.07
357.091	358.92
357.473	362.76
357.855	356.43
358.238	360.27
358.62	346.26
359.002	347.62
359.384	343.1
359.766	360.95
360.148	352.59
360.53	338.13
360.912	344.45
361.294	341.29
361.676	339.71
362.057	330.9
362.439	339.03
362.821	340.84
363.203	352.59
363.584	341.29
363.966	356.66
364.348	377
364.729	349.43
365.111	339.48
365.493	335.19
365.874	332.7
366.256	335.64
366.637	314.62
367.019	351.01
367.4	323.89
367.781	334.06
368.163	324.79
368.544	338.13
368.925	334.06
369.306	351.91
369.688	358.01
370.069	344.68
370.45	329.99
370.831	353.04
371.212	333.83
371.593	329.54
371.974	323.66
372.355	322.31
372.736	353.95
373.117	331.8
373.498	329.99
373.879	348.75
374.26	328.18
374.641	330.22
375.021	355.08
375.402	339.71
375.783	360.27
376.163	359.82
376.544	345.81
376.925	348.3
377.305	364.79
377.686	353.95
378.066	367.05
378.447	343.78
378.827	355.53
379.208	342.65
379.588	339.93
379.968	349.88
380.349	342.65
380.729	360.95
381.109	354.4
381.489	369.76
381.87	360.72
382.25	345.58
382.63	362.98
383.01	365.47
383.39	348.07
383.77	376.77
384.15	343.78
384.53	362.76
384.91	368.63
385.29	367.73
385.67	379.71
386.049	375.64
386.429	369.54
386.809	370.44
387.189	384
387.568	376.09
387.948	352.82
388.328	377.67
388.707	381.06
389.087	376.77
389.466	398.24
389.846	389.2
390.225	400.72
390.605	384
390.984	391.91
391.363	393.49
391.743	385.81
392.122	393.94
392.501	396.43
392.881	383.55
393.26	400.05
393.639	406.37
394.018	403.89
394.397	396.66
394.776	397.79
395.155	395.75
395.534	389.88
395.913	402.53
396.292	412.25
396.671	417.22
397.05	403.66
397.429	412.7
397.808	409.76
398.186	424
398.565	400.95
398.944	417.9
399.323	408.18
399.701	423.1
400.08	424.9
400.458	429.2
400.837	426.94
401.215	434.4
401.594	426.94
401.972	405.02
402.351	415.86
402.729	442.76
403.107	430.78
403.486	456.99
403.864	433.94
404.242	458.58
404.62	433.72
404.999	447.28
405.377	433.72
405.755	444.79
406.133	451.8
406.511	459.25
406.889	470.55
407.267	460.61
407.645	452.02
408.023	493.6
408.401	486.6
408.779	479.37
409.156	482.08
409.534	475.52
409.912	487.73
410.29	468.97
410.667	481.85
411.045	493.6
411.422	509.42
411.8	523.88
412.178	515.52
412.555	508.74
412.933	492.92
413.31	512.36
413.687	521.62
414.065	533.6
414.442	537.9
414.819	547.61
415.197	547.39
415.574	540.83
415.951	537.9
416.328	548.29
416.705	548.52
417.082	558.91
417.46	562.08
417.837	565.69
418.214	566.14
418.591	603.88
418.967	568.18
419.344	559.59
419.721	598.68
420.098	589.87
420.475	615.41
420.852	584.22
421.228	601.4
421.605	592.58
421.982	588.74
422.358	622.86
422.735	618.57
423.111	620.83
423.488	617.22
423.864	624.9
424.241	623.54
424.617	626.93
424.994	622.86
425.37	626.71
425.746	644.33
426.123	675.74
426.499	650.43
426.875	653.37
427.251	649.3
427.627	686.37
428.003	672.36
428.379	651.34
428.756	668.74
429.132	680.26
429.507	689.98
429.883	688.63
430.259	705.12
430.635	710.32
431.011	730.66
431.387	702.86
431.763	724.78
432.138	750.32
432.514	733.14
432.89	757.78
433.265	747.38
433.641	751.68
434.016	784.89
434.392	782.86
434.767	787.15
435.143	817.66
435.518	802.52
435.894	767.27
436.269	795.97
436.644	796.65
437.02	814.95
437.395	806.59
437.77	830.09
438.145	850.66
438.52	816.31
438.895	836.64
439.271	843.88
439.646	868.28
440.021	851.56
440.395	883.88
440.77	857.44
441.145	870.09
441.52	898.34
441.895	877.77
442.27	898.11
442.645	876.64
443.019	887.49
443.394	892.91
443.769	903.76
444.143	897.66
444.518	922.52
444.892	899.92
445.267	925.46
445.641	923.2
446.016	918.45
446.39	913.48
446.764	953.03
447.139	929.52
447.513	955.96
447.887	968.17
448.262	943.31
448.636	942.63
449.01	940.6
449.384	964.1
449.758	961.84
450.132	991.67
450.506	986.7
450.88	961.39
451.254	1012.23
451.628	1001.84
452.002	999.8
452.376	1018.56
452.75	1013.59
453.123	996.41
453.497	1023.53
453.871	1020.82
454.244	1044.1
454.618	1066.92
454.992	1075.28
455.365	1082.74
455.739	1074.83
456.112	1066.02
456.486	1081.84
456.859	1096.75
457.232	1098.33
457.606	1106.47
457.979	1141.04
458.352	1121.38
458.725	1150.76
459.099	1135.85
459.472	1146.02
459.845	1162.29
460.218	1196.41
460.591	1176.52
460.964	1204.54
461.337	1207.48
461.71	1229.4
462.083	1219.01
462.456	1248.61
462.829	1226.69
463.201	1248.61
463.574	1241.38
463.947	1269.4
464.32	1254.94
464.692	1292.23
465.065	1305.56
465.438	1304.2
465.81	1331.77
466.183	1310.76
466.555	1327.48
466.928	1339.68
467.3	1354.37
467.672	1341.26
468.045	1368.38
468.417	1362.73
468.789	1415.39
469.161	1374.71
469.534	1426.69
469.906	1439.11
470.278	1463.97
470.65	1430.53
471.022	1460.81
471.394	1494.93
471.766	1483.41
472.138	1507.59
472.51	1516.85
472.882	1554.59
473.253	1561.15
473.625	1562.5
473.997	1628.71
474.369	1618.77
474.74	1647.24
475.112	1649.05
475.484	1692.44
475.855	1714.14
476.227	1694.7
476.598	1735.83
476.97	1738.77
477.341	1781.25
477.713	1847.01
478.084	1842.04
478.455	1824.87
478.827	1876.84
479.198	1917.29
479.569	1888.14
479.94	1932.21
480.311	1970.4
480.682	2010.63
481.053	2046.78
481.424	2094.69
481.795	2108.93
482.166	2109.38
482.537	2149.38
482.908	2179.66
483.279	2185.76
483.65	2254.01
484.021	2283.39
484.391	2278.87
484.762	2320
485.133	2342.82
485.503	2349.6
485.874	2420.33
486.244	2463.04
486.615	2453.55
486.985	2498.07
487.356	2547.56
487.726	2563.6
488.097	2617.16
488.467	2648.8
488.837	2721.79
489.207	2737.39
489.578	2797.27
489.948	2810.15
490.318	2828.23
490.688	2845.63
491.058	2909.58
491.428	2895.35
491.798	2953.88
492.168	3032.07
492.538	3057.15
492.908	3086.98
493.278	3098.05
493.648	3122.01
494.017	3169.69
494.387	3211.27
494.757	3252.85
495.126	3313.42
495.496	3325.62
495.866	3338.95
496.235	3375.56
496.605	3434.54
496.974	3439.51
497.344	3502.34
497.713	3511.6
498.082	3552.28
498.452	3591.37
498.821	3589.57
499.19	3615.78
499.559	3672.95
499.928	3724.48
500.298	3726.96
500.667	3812.84
501.036	3795.89
501.405	3778.94
501.774	3882.21
502.143	3875.66
502.512	3896.23
502.88	3937.35
503.249	3994.98
503.618	3956.56
503.987	3975.32
504.356	4063.45
504.724	4066.39
505.093	4134.86
505.462	4158.37
505.83	4180.51
506.199	4243.33
506.567	4259.83
506.936	4251.02
507.304	4325.14
507.672	4338.7
508.041	4364.46
508.409	4398.58
508.777	4405.59
509.145	4433.84
509.514	4476.77
509.882	4532.14
510.25	4531.69
510.618	4573.72
510.986	4629.99
511.354	4634.06
511.722	4677.67
512.09	4764.68
512.458	4749.54
512.826	4776.43
513.193	4810.33
513.561	4854.62
513.929	4870.21
514.297	4882.19
514.664	4934.84
515.032	4954.95
515.4	5036.31
515.767	5032.01
516.135	5003.31
516.502	5047.83
516.869	5101.84
517.237	5152.69
517.604	5177.32
517.972	5218
518.339	5271.56
518.706	5300.93
519.073	5320.82
519.44	5332.57
519.808	5424.09
520.175	5409.63
520.542	5483.98
520.909	5475.84
521.276	5500.02
521.643	5577.08
522.009	5594.71
522.376	5641.04
522.743	5653.02
523.11	5697.31
523.477	5772.11
523.843	5791.99
524.21	5840.81
524.577	5910.64
524.943	5936.85
525.31	5987.47
525.676	6055.26
526.043	6025.21
526.409	6105.66
526.776	6116.73
527.142	6127.58
527.508	6184.3
527.874	6280.34
528.241	6256.39
528.607	6312.21
528.973	6331.42
529.339	6391.3
529.705	6483.05
530.071	6445.54
530.437	6467.23
530.803	6517.4
531.169	6587.91
531.535	6563.95
531.901	6584.97
532.267	6587.23
532.632	6628.81
532.998	6599.88
533.364	6703.38
533.73	6721.69
534.095	6787.45
534.461	6869.25
534.826	6878.07
535.192	6928.91
535.557	6944.51
535.923	6862.25
536.288	6988.35
536.653	6994.22
537.019	7018.63
537.384	7017.95
537.749	7075.12
538.114	7114.22
538.479	7110.38
538.845	7125.29
539.21	7166.42
539.575	7166.42
539.94	7151.28
540.305	7279.64
540.67	7306.76
541.034	7309.24
541.399	7330.03
541.764	7332.52
542.129	7395.12
542.494	7427.66
542.858	7497.26
543.223	7494.55
543.587	7523.25
543.952	7543.36
544.316	7567.54
544.681	7565.96
545.045	7613.42
545.41	7717.59
545.774	7683.92
546.138	7729.34
546.503	7806.63
546.867	7805.5
547.231	7887.08
547.595	7924.82
547.959	7976.57
548.324	8016.79
548.688	8012.28
549.052	8064.7
549.416	8077.36
549.779	8107.87
550.143	8168.88
550.507	8192.38
550.871	8298.37
551.235	8301.31
551.599	8351.7
551.962	8336.11
552.326	8380.63
552.689	8499.95
553.053	8457.69
553.417	8543.56
553.78	8638.02
554.143	8637.8
554.507	8722.99
554.87	8751.01
555.234	8810.22
555.597	8835.76
555.96	8885.47
556.323	8894.74
556.686	9028.75
557.05	9064.68
557.413	9142.41
557.776	9139.93
558.139	9220.38
558.502	9247.5
558.865	9349.64
559.228	9391.9
559.59	9473.48
559.953	9531.78
560.316	9608.62
560.679	9675.73
561.041	9806.35
561.404	9804.77
561.767	9963.86
562.129	9938.1
562.492	10081.15
562.854	10172.9
563.217	10226.45
563.579	10281.14
563.941	10376.05
564.304	10550.74
564.666	10595.48
565.028	10679.78
565.39	10780.79
565.753	10836.83
566.115	10921.13
566.477	10975.36
566.839	11111.18
567.201	11354.11
567.563	11343.94
567.925	11505.29
568.287	11673.65
568.648	11695.79
569.01	11832.74
569.372	12011.04
569.734	12034.77
570.095	12268.89
570.457	12352.5
570.819	12570.8
571.18	12645.15
571.542	12829.78
571.903	12949.55
572.265	13133.95
572.626	13323.77
572.987	13447.84
573.349	13682.41
573.71	13882.63
574.071	14002.4
574.432	14277.42
574.794	14574.59
575.155	14670.41
575.516	14791.31
575.877	15033.33
576.238	15193.78
576.599	15538.4
576.96	15695.69
577.32	15913.08
577.681	16198.05
578.042	16456.12
578.403	16777.24
578.763	16972.72
579.124	17334.52
579.485	17624.45
579.845	18022.63
580.206	18114.61
580.566	18459.68
580.927	18835.49
581.287	19135.6
581.648	19410.39
582.008	19750.5
582.368	20121.79
582.728	20387.32
583.089	20728.1
583.449	21069.78
583.809	21531.69
584.169	21812.36
584.529	22285.57
584.889	22732.79
585.249	22970.07
585.609	23316.73
585.969	23910.16
586.329	24261.11
586.688	24696.36
587.048	25062.67
587.408	25513.28
587.768	25915.31
588.127	26366.37
588.487	26718.9
588.846	27362.73
589.206	27543.29
589.565	28116.61
589.925	28707.78
590.284	28904.61
590.643	29532.61
591.003	30024.13
591.362	30502.53
591.721	30946.14
592.08	31501.15
592.44	31949.05
592.799	32404.85
593.158	32858.63
593.517	33324.6
593.876	33835.55
594.235	34316.22
594.593	34825.13
594.952	35227.15
595.311	35536.52
595.67	36218.77
596.029	36876.15
596.387	37296.93
596.746	37744.37
597.104	38082.67
597.463	38565.6
597.822	39110.89
598.18	39498.23
598.538	39934.83
598.897	40572.77
599.255	40653.22
599.613	41643.48
599.972	41706.08
600.33	42330.02
600.688	42464.25
601.046	43112.37
601.404	43606.37
601.762	43972.46
602.12	44535.83
602.478	44790.74
602.836	45249.94
603.194	45372.42
603.552	45813.32
603.91	45923.14
604.268	46626.63
604.625	46659.85
604.983	47143.9
605.341	47342.54
605.698	47744.11
606.056	48228.39
606.413	48382.74
606.771	48763.29
607.128	49045.77
607.485	49038.54
607.843	49283.05
608.2	49686.89
608.557	50113.99
608.914	50187.89
609.272	50490.03
609.629	50697.48
609.986	50922.33
610.343	50990.13
610.7	51376.56
611.057	51539.49
611.414	51563.22
611.771	51814.06
612.127	51973.83
612.484	52006.37
612.841	52323.2
613.198	52311.9
613.554	52462.86
613.911	52851.32
614.267	52887.03
614.624	52927.48
614.98	53064.2
615.337	53203.63
615.693	53317.52
616.05	53443.85
616.406	53626.44
616.762	53687.23
617.118	53656.95
617.475	53808.81
617.831	54003.61
618.187	54025.53
618.543	54159.31
618.899	54391.62
619.255	54292.41
619.611	54406.76
619.967	54531.05
620.323	54614.89
620.678	54565.63
621.034	54536.93
621.39	54692.4
621.746	54640.65
622.101	54936.69
622.457	54805.85
622.812	54917.93
623.168	54976.92
623.523	55017.37
623.879	55091.04
624.234	54987.31
624.589	55172.39
624.945	55147.31
625.3	55122.9
625.655	55274.08
626.01	55242.22
626.365	55307.3
626.72	55304.14
627.075	55319.51
627.43	55275.67
627.785	55366.06
628.14	55449.22
628.495	55452.38
628.85	55553.4
629.205	55435.21
629.559	55605.37
629.914	55495.32
630.269	55556.11
630.623	55496.22
630.978	55430.01
631.332	55609.44
631.687	55653.73
632.041	55471.59
632.396	55614.87
632.75	55543.23
633.104	55460.29
633.459	55430.01
633.813	55393.4
634.167	55450.35
634.521	55476.79
634.875	55544.81
635.229	55483.34
635.583	55416.45
635.937	55401.09
636.291	55375.32
636.645	55391.82
636.999	55359.5
637.352	55363.35
637.706	55284.7
638.06	55381.43
638.413	55355.66
638.767	55266.63
639.121	55326.06
639.474	55182.11
639.828	55101.88
640.181	55220.75
640.534	55306.4
640.888	55203.12
641.241	55143.01
641.594	55228.21
641.947	55247.87
642.301	55159.51
642.654	55187.76
643.007	55270.02
643.36	55206.97
643.713	55063.47
644.066	55265.5
644.419	55091.72
644.771	54847.88
645.124	54599.07
645.477	54611.95
645.83	54383.03
646.182	54339.87
646.535	54369.25
646.888	54381.23
647.24	54215.58
647.593	54329.7
647.945	54383.26
648.298	54234.11
648.65	54172.64
649.002	54124.28
649.355	54315.01
649.707	54184.85
650.059	54285.86
650.411	54579.19
650.763	54675.23
651.115	54950.93
651.467	54832.97
651.819	54884.94
652.171	54868.22
652.523	54781.44
652.875	54731.95
653.227	54684.04
653.578	54927.2
653.93	54808.33
654.282	54650.82
654.633	54620.99
654.985	54710.48
655.337	54694.44
655.688	54708.9
656.039	54823.02
656.391	54626.64
656.742	54659.86
657.094	54705.51
657.445	54777.83
657.796	54731.05
658.147	54619.86
658.498	54607.89
658.849	54685.85
659.2	54596.81
659.551	54629.13
659.902	54665.74
660.253	54580.32
660.604	54706.64
660.955	54539.41
661.306	54653.76
661.656	54592.52
662.007	54604.5
662.358	54604.95
662.708	54691.73
663.059	54586.87
663.409	54419.19
663.76	54633.65
664.11	54605.17
664.461	54638.85
664.811	54604.27
665.161	54571.95
665.511	54434.56
665.862	54581.45
666.212	54594.33
666.562	54606.08
666.912	54471.84
667.262	54475.46
667.612	54480.21
667.962	54461.22
668.312	54431.85
668.662	54560.66
669.011	54525.85
669.361	54431.39
669.711	54432.98
670.06	54368.8
670.41	54352.75
670.76	54311.85
671.109	54365.63
671.459	54300.78
671.808	54223.94
672.157	54361.56
672.507	54063.27
672.856	54140.78
673.205	54185.75
673.554	54245.64
673.904	54194.11
674.253	54288.57
674.602	54135.36
674.951	53728.36
675.3	53547.8
675.649	54030.5
675.998	54015.13
676.346	53975.59
676.695	54155.92
677.044	53863.95
677.393	53917.51
677.741	53945.08
678.09	53902.37
678.438	53875.7
678.787	53867.11
679.135	53990.5
679.484	53724.07
679.832	53767.68
680.181	53632.77
680.529	53726.55
680.877	53658.76
681.225	53504.41
681.573	53826.44
681.922	53552.77
682.27	53471.64
682.618	53518.42
682.966	53473
683.314	53523.17
683.661	53394.58
684.009	53186.68
684.357	53095.84
684.705	53138.32
685.053	53133.8
685.4	53111.2
685.748	53011.09
686.095	52995.05
686.443	52982.39
686.79	52817.2
687.138	52868.95
687.485	52863.3
687.832	52776.3
688.18	52774.04
688.527	52650.42
688.874	52632.8
689.221	52479.13
689.568	52432.35
689.915	52318.91
690.262	52263.32
690.609	52197.78
690.956	52099.48
691.303	52152.81
691.65	52030.1
691.997	52008.86
692.344	51661.97
692.69	51710.34
693.037	51835.53
693.383	51515.31
693.73	51677.34
694.077	51314.41
694.423	51324.81
694.769	51362.77
695.116	51236.9
695.462	51261.76
695.808	51049.56
696.155	51122.33
696.501	50870.36
696.847	50702.23
697.193	50498.39
697.539	50739.29
697.885	50409.35
698.231	50314.67
698.577	50301.33
698.923	50214.56
699.269	50142.92
699.614	49881.91
699.96	49829.71
700.306	49855.24
700.651	49774.79
700.997	49606.21
701.342	49558.53
701.688	49523.27
702.033	49247.8
702.379	49244.86
702.724	49151.08
703.069	49316.5
703.415	48666.8
703.76	48903.4
704.105	48835.83
704.45	48759.23
704.795	48534.15
705.14	48483.3
705.485	48470.65
705.83	48242.18
706.175	48267.26
706.52	48138.45
706.865	47888.51
707.209	47927.38
707.554	47718.35
707.899	47943.43
708.243	47524.23
708.588	47472.03
708.932	47343.67
709.277	47247.85
709.621	47377.34
709.966	47105.26
710.31	47183.22
710.654	46844.93
710.998	46891.48
711.342	46999.05
711.687	46683.35
712.031	46742.56
712.375	46585.5
712.719	46547.53
713.063	46457.82
713.407	46599.06
713.75	46353.64
714.094	46323.81
714.438	46015.8
714.782	46236.58
715.125	46012.18
715.469	46098.05
715.812	45837.04
716.156	45636.82
716.499	45705.52
716.843	45741.9
717.186	45459.43
717.53	45734.67
717.873	45622.36
718.216	45310.96
718.559	45334.01
718.902	45001.13
719.246	45134.91
719.589	44989.83
719.932	44841.36
720.275	44930.63
720.617	44890.63
720.96	44788.48
721.303	44896.96
721.646	44839.33
721.989	44452.9
722.331	44692.67
722.674	44547.81
723.016	44534.48
723.359	44508.26
723.701	44432.11
724.044	44168.16
724.386	44106.24
724.729	44286.12
725.071	44161.83
725.413	44375.61
725.755	44096.3
726.097	44053.36
726.439	43734.73
726.782	43850.88
727.124	43950.77
727.465	43773.14
727.807	43810.43
728.149	43763.65
728.491	43659.93
728.833	43587.38
729.175	43630.77
729.516	43400.27
729.858	43359.82
730.199	43444.34
730.541	43277.79
730.882	43278.01
731.224	43339.93
731.565	43156.66
731.906	43175.19
732.248	43259.48
732.589	43011.35
732.93	42929.1
733.271	42868.99
733.612	42897.01
733.953	42989.21
734.294	42776.33
734.635	42724.81
734.976	42741.98
735.317	42575.89
735.658	42563.01
735.999	42509.9
736.339	42447.53
736.68	42718.93
737.021	42549.22
737.361	42245.5
737.702	42547.86
738.042	42396.23
738.383	42287.76
738.723	42364.14
739.063	42141.77
739.404	42245.95
739.744	42349.68
740.084	41964.83
740.424	42112.17
740.764	42045.96
741.104	42089.8
741.444	41852.06
741.784	41891.38
742.124	42006.64
742.464	41883.25
742.804	41752.4
743.143	41762.12
743.483	41785.85
743.823	41442.13
744.162	41568.68
744.502	41616.14
744.841	41494.11
745.181	41597.38
745.52	41395.35
745.86	41408.46
746.199	41409.36
746.538	41260.89
746.877	41168.92
747.216	41261.34
747.556	41225.41
747.895	41249.14
748.234	40985.19
748.573	40906.33
748.911	40882.37
749.25	40832.43
749.589	40763.73
749.928	40867.68
750.267	40670.4
750.605	40567.13
750.944	40536.17
751.283	40529.39
751.621	40558.09
751.96	40318.77
752.298	40324.87
752.636	40350.41
752.975	40095.05
753.313	39965.79
753.651	40244.87
753.989	39940.93
754.327	39870.65
754.666	39884.43
755.004	39787.26
755.342	39809.86
755.679	39875.17
756.017	39485.12
756.355	39669.3
756.693	39473.82
757.031	39472.69
757.368	39206.03
757.706	39228.18
758.044	39225.24
758.381	39164.45
758.719	38873.16
759.056	38978.47
759.394	38876.77
759.731	38692.15
760.068	38408.76
760.405	38318.6
760.743	38329.22
761.08	38479.27
761.417	38289.67
761.754	37946.86
762.091	38122.22
762.428	37936.69
762.765	37747.99
763.102	37770.59
763.438	37664.83
763.775	37537.6
764.112	37412.41
764.449	37432.07
764.785	37275.01
765.122	37072.75
765.458	37008.57
765.795	36873.21
766.131	36820.11
766.467	36809.94
766.804	36467.12
767.14	36454.92
767.476	36399.78
767.812	36216.96
768.148	36329.95
768.485	36005.44
768.821	35817.42
769.157	35841.83
769.492	35625.79
769.828	35634.37
770.164	35285.46
770.5	35211.79
770.836	35267.15
771.171	34962.98
771.507	34988.29
771.842	34768.41
772.178	34815.41
772.513	34665.59
772.849	34560.5
773.184	34493.16
773.519	34596.21
773.855	34254.3
774.19	34094.3
774.525	34038.03
774.86	34025.15
775.195	33903.57
775.53	33732.73
775.865	33570.02
776.2	33327.99
776.535	33217.71
776.87	33088.45
777.205	32989.92
777.539	32751.74
777.874	32906.31
778.209	32651.63
778.543	32508.81
778.878	32389.94
779.212	32372.31
779.547	32216.84
779.881	32221.13
780.215	31979.33
780.55	31967.58
780.884	31800.12
781.218	31741.37
781.552	31689.39
781.886	31560.81
782.22	31329.85
782.554	31280.14
782.888	31190.87
783.222	30995.4
783.556	30752.47
783.889	30698.23
784.223	30464.57
784.557	30478.35
784.89	30603.09
785.224	30390.67
785.557	30291.46
785.891	30237.68
786.224	30177.57
786.558	30001.08
786.891	29784.13
787.224	29563.35
787.557	29614.42
787.891	29576.91
788.224	29576.45
788.557	29453.07
788.89	29434.99
789.223	29361.32
789.556	29145.28
789.888	29057.15
790.221	28941.89
790.554	28714.33
790.887	28732.63
791.219	28585.52
791.552	28624.16
791.884	28435.24
792.217	28261.69
792.549	28162.71
792.882	27963.84
793.214	27882.04
793.546	27978.76
793.879	27787.12
794.211	27618.54
794.543	27714.58
794.875	27603.62
795.207	27636.62
795.539	27394.59
795.871	27413.12
796.203	27099
796.535	27064.66
796.867	27053.81
797.198	26892
797.53	26890.2
797.862	26710.54
798.193	26682.74
798.525	26531.11
798.856	26616.08
799.188	26320.72
799.519	26279.37
799.85	26280.5
800.182	26125.02
800.513	26155.3
800.844	25877.34
801.175	25984.91
801.506	26028.3
801.837	25749.21
802.168	25679.38
802.499	25630.57
802.83	25540.18
803.161	25579.27
803.491	25490.69
803.822	25466.96
804.153	25320.07
804.483	25138.83
804.814	25058.83
805.145	25062.22
805.475	25097.7
805.805	24970.93
806.136	24889.8
806.466	24913.75
806.796	24751.04
807.126	24622.46
807.457	24544.5
807.787	24446.65
808.117	24392.18
808.447	24318.97
808.777	24478.51
809.107	24339.53
809.436	24171.17
809.766	24247.55
810.096	24091.85
810.426	24061.12
810.755	23990.16
811.085	23893.67
811.414	23892.54
811.744	23670.62
812.073	23712.43
812.403	23661.58
812.732	23477.41
813.061	23483.05
813.39	23356.96
813.719	23196.73
814.049	23425.2
814.378	23288.26
814.707	23237.41
815.036	23176.62
815.365	23059.56
815.693	22874.03
816.022	22917.19
816.351	22742.74
816.68	22746.13
817.008	22643.08
817.337	22480.37
817.665	22543.87
817.994	22622.96
818.322	22520.37
818.651	22347.94
818.979	22335.29
819.307	22294.61
819.636	22295.52
819.964	22220.72
820.292	22352.69
820.62	22188.85
820.948	22218.23
821.276	22164.45
821.604	22126.48
821.932	22129.19
822.259	22202.41
822.587	22192.02
822.915	22149.08
823.243	22129.19
823.57	22071.79
823.898	22150.89
824.225	22020.95
824.553	22061.17
824.88	22098.68
825.207	22162.86
825.535	22084.22
825.862	22138.91
826.189	22076.09
826.516	22171.9
826.843	22043.77
827.17	22055.75
827.497	22044.9
827.824	22068.18
828.151	22055.3
828.478	21987.95
828.805	22058.23
829.131	22047.39
829.458	21874.74
829.785	21839.93
830.111	21865.7
830.438	22005.81
830.764	22024.79
831.09	22068.18
831.417	21893.49
831.743	21943.66
832.069	21890.78
832.395	21731.46
832.722	21922.19
833.048	21721.52
833.374	21951.57
833.7	21798.35
834.026	21734.4
834.351	21732.82
834.677	21802.87
835.003	21810.1
835.329	21776.21
835.654	21668.64
835.98	21677.68
836.306	21626.83
836.631	21622.76
836.956	21560.17
837.282	21566.95
837.607	21528.08
837.932	21413.28
838.258	21472.94
838.583	21593.84
838.908	21232.72
839.233	21318.14
839.558	21340.74
839.883	21122.44
840.208	21152.72
840.533	21205.83
840.858	21118.15
841.182	21286.05
841.507	21104.13
841.832	21012.84
842.156	20910.92
842.481	20943.23
842.805	20837.93
843.13	20816.23
843.454	20825.5
843.778	20747.76
844.103	20641.77
844.427	20628.44
844.751	20613.07
845.075	20563.13
845.399	20647.2
845.723	20407.88
846.047	20495.11
846.371	20313.87
846.695	20204.27
847.019	20039.3
847.343	20046.99
847.666	19954.11
847.99	19862.36
848.313	19787.56
848.637	19660.56
848.96	19731.52
849.284	19692.65
849.607	19592.76
849.931	19446.78
850.254	19265.31
850.577	19198.87
850.9	19094.92
851.223	19107.35
851.546	19028.71
851.869	18861.03
852.192	18924.3
852.515	18804.76
852.838	18683.41
853.161	18683.63
853.483	18629.85
853.806	18503.3
854.129	18431.89
854.451	18425.11
854.774	18263.31
855.096	18215.4
855.419	18178.11
855.741	18089.75
856.063	17969.08
856.385	18000.94
856.708	17999.58
857.03	17823.32
857.352	17894.95
857.674	17701.51
857.996	17725.47
858.318	17646.37
858.64	17633.72
858.961	17674.39
859.283	17633.49
859.605	17424.46
859.926	17450.9
860.248	17409.09
860.57	17359.6
860.891	17427.62
861.212	17323.44
861.534	17248.42
861.855	17298.58
862.176	17354.63
862.498	17277.57
862.819	17002.1
863.14	17013.85
863.461	17079.38
863.782	17087.29
864.103	16977.46
864.424	16982.43
864.745	17078.25
865.065	16945.37
865.386	16809.11
865.707	16801.42
866.027	16819.95
866.348	16673.29
866.668	16674.42
866.989	16693.63
867.309	16556.23
867.63	16746.96
867.95	16656.12
868.27	16485.27
868.59	16597.13
868.91	16457.25
869.23	16455.22
869.55	16372.28
869.87	16432.17
870.19	16354.88
870.51	16403.47
870.83	16426.52
871.15	16247.99
871.469	16292.74
871.789	16309.68
872.109	16137.03
872.428	16200.99
872.748	16205.51
873.067	16214.55
873.386	16160.76
873.706	16146.98
874.025	16084.38
874.344	15963.93
874.663	16012.97
874.982	16013.19
875.301	15988.79
875.62	15862.01
875.939	15887.55
876.258	15909.02
876.577	15904.05
876.896	15843.93
877.214	15778.17
877.533	15888.45
877.852	15815.46
878.17	15690.72
878.489	15709.47
878.807	15765.74
879.125	15692.07
879.444	15681
879.762	15529.82
880.08	15560.55
880.398	15365.08
880.716	15535.69
881.034	15460.89
881.352	15509.93
881.67	15400.1
881.988	15462.93
882.306	15353.78
882.624	15280.11
882.941	15232.2
883.259	15176.83
883.577	15094.35
883.894	15151.97
884.212	15058.87
884.529	15105.42
884.846	15099.32
885.164	14998.76
885.481	15029.72
885.798	15032.88
886.115	14877.41
886.432	14770.74
886.75	14846.67
887.067	14908.59
887.383	14786.11
887.7	14731.87
888.017	14709.5
888.334	14671.08
888.651	14601.71
888.967	14592.89
889.284	14538.21
889.6	14535.04
889.917	14445.55
890.233	14402.16
890.55	14273.13
890.866	14361.03
891.182	14270.42
891.498	14220.47
891.815	14171.66
892.131	14117.65
892.447	14107.03
892.763	14181.38
893.079	14046.01
893.395	14069.29
893.71	14077.43
894.026	13936.41
894.342	13878.56
894.657	13716.76
894.973	13832.24
895.289	13726.02
895.604	13753.82
895.92	13666.59
896.235	13611.45
896.55	13588.17
896.865	13456.43
897.181	13466.37
897.496	13502.75
897.811	13453.71
898.126	13355.41
898.441	13297.56
898.756	13265.24
899.071	13181.63
899.386	13168.07
899.7	13105.02
900.015	12958.13
900.33	13022.31
900.644	12907.74
900.959	12920.17
901.273	12890.11
901.588	12839.94
901.902	12723.11
902.216	12788.65
902.531	12650.57
902.845	12590.69
903.159	12548.2
903.473	12488.99
903.787	12413.29
904.101	12364.48
904.415	12474.76
904.729	12361.77
905.042	12328.09
905.356	12252.84
905.67	12179.62
905.984	12220.07
906.297	12180.75
906.611	12057.37
906.924	12036.12
907.237	11965.62
907.551	11903.25
907.864	11918.39
908.177	11825.96
908.491	11779.63
908.804	11714.1
909.117	11692.18
909.43	11564.95
909.743	11600.66
910.056	11498.06
910.368	11566.08
910.681	11418.74
910.994	11380.77
911.307	11370.38
911.619	11169.93
911.932	11228.46
912.244	11169.93
912.557	11183.94
912.869	11109.37
913.181	11053.1
913.494	11107.34
913.806	10937.17
914.118	10892.43
914.43	10866.21
914.742	10873.67
915.054	10737.85
915.366	10774.24
915.678	10705.31
915.99	10661.92
916.302	10573.34
916.613	10532.21
916.925	10583.06
917.236	10541.47
917.548	10405.88
917.859	10390.97
918.171	10308.94
918.482	10271.2
918.794	10254.25
919.105	10269.84
919.416	10127.25
919.727	10160.92
920.038	10159.11
920.349	10025.78
920.66	9991.21
920.971	9915.5
921.282	10016.74
921.593	9904.65
921.903	9804.54
922.214	9774.49
922.525	9754.15
922.835	9681.16
923.146	9706.24
923.456	9538.79
923.767	9601.39
924.077	9575.62
924.387	9552.12
924.697	9446.59
925.008	9463.54
925.318	9301.05
925.628	9402.07
925.938	9303.99
926.248	9248.4
926.558	9228.51
926.867	9204.33
927.177	9167.05
927.487	9056.32
927.796	9094.51
928.106	9021.29
928.416	8944.23
928.725	8986.71
929.034	8801.18
929.344	8909.2
929.653	8882.08
929.962	8724.8
930.271	8791.46
930.581	8644.57
930.89	8647.51
931.199	8640.51
931.508	8579.49
931.817	8581.98
932.125	8552.37
932.434	8541.53
932.743	8416.11
933.051	8368.88
933.36	8360.97
933.669	8325.49
933.977	8298.14
934.286	8258.82
934.594	8237.58
934.902	8187.64
935.21	8134.98
935.519	8118.04
935.827	8104.7
936.135	8057.92
936.443	7911.03
936.751	7912.16
937.059	7923.69
937.367	7869
937.674	7838.49
937.982	7871.49
938.29	7800.53
938.597	7840.75
938.905	7713.3
939.213	7601.21
939.52	7562.34
939.827	7579.52
940.135	7531.38
940.442	7485.28
940.749	7539.07
941.056	7530.71
941.363	7475.79
941.67	7386.75
941.977	7348.11
942.284	7290.03
942.591	7340.2
942.898	7256.59
943.205	7214.78
943.511	7229.24
943.818	7214.33
944.125	7198.96
944.431	7158.29
944.738	7100.66
945.044	7093.43
945.35	7000.55
945.657	7020.89
945.963	7020.89
946.269	6954.45
946.575	6959.87
946.881	6932.08
947.187	6848.01
947.493	6863.38
947.799	6751.29
948.105	6764.62
948.41	6726.21
948.716	6654.8
949.022	6648.92
949.327	6631.75
949.633	6584.06
949.938	6595.82
950.244	6607.11
950.549	6503.16
950.854	6499.32
951.16	6493.45
951.465	6447.57
951.77	6420
952.075	6354.24
952.38	6369.38
952.685	6389.72
952.99	6274.24
953.294	6266.11
953.599	6201.25
953.904	6193.11
954.209	6159.22
954.513	6164.87
954.818	6119.44
955.122	6142.95
955.426	6096.39
955.731	6066.34
956.035	6009.84
956.339	6000.12
956.643	5954.02
956.948	5910.18
957.252	5947.02
957.556	5886.68
957.86	5886.23
958.163	5813.24
958.467	5783.63
958.771	5783.86
959.075	5760.81
959.378	5717.87
959.682	5737.76
959.985	5659.34
960.289	5679
960.592	5604.65
960.896	5578.44
961.199	5583.86
961.502	5549.29
961.805	5524.43
962.108	5509.74
962.411	5493.47
962.714	5449.63
963.017	5449.86
963.32	5460.03
963.623	5408.5
963.926	5382.29
964.228	5373.02
964.531	5344.1
964.833	5268.62
965.136	5293.02
965.438	5218.22
965.741	5189.07
966.043	5191.11
966.345	5186.36
966.648	5154.5
966.95	5141.62
967.252	5139.13
967.554	5054.84
967.856	5085.35
968.158	5021.17
968.46	5002.18
968.761	5012.81
969.063	4992.69
969.365	4923.99
969.666	4914.5
969.968	4905.24
970.269	4898.46
970.571	4876.54
970.872	4834.05
971.174	4789.31
971.475	4805.58
971.776	4782.3
972.077	4735.98
972.378	4738.91
972.679	4711.12
972.98	4680.39
973.281	4654.17
973.582	4654.17
973.883	4667.73
974.183	4599.48
974.484	4573.27
974.785	4564
975.085	4529.88
975.386	4522.2
975.686	4504.8
975.986	4502.09
976.287	4446.72
976.587	4429.09
976.887	4403.78
977.187	4382.77
977.487	4382.54
977.787	4378.02
978.087	4361.52
978.387	4330.56
978.687	4300.96
978.987	4262.77
979.286	4251.92
979.586	4243.56
979.885	4207.18
980.185	4197.46
980.484	4157.24
980.784	4170.79
981.083	4141.42
981.382	4114.07
981.682	4157.69
981.981	4093.51
982.28	4048.76
982.579	4029.1
982.878	4017.13
983.177	4016
983.475	3981.65
983.774	3992.04
984.073	3958.37
984.372	3890.12
984.67	3905.94
984.969	3932.61
985.267	3920.63
985.566	3885.38
985.864	3871.14
986.162	3848.09
986.461	3813.74
986.759	3799.5
987.057	3753.63
987.355	3785.95
987.653	3713.41
987.951	3705.95
988.249	3697.13
988.547	3722.9
988.844	3723.57
989.142	3683.8
989.44	3621.66
989.737	3595.67
990.035	3587.31
990.332	3574.43
990.63	3554.09
990.927	3523.81
991.224	3521.09
991.521	3516.35
991.819	3519.29
992.116	3498.95
992.413	3462.11
992.71	3438.84
993.006	3424.37
993.303	3398.16
993.6	3396.13
993.897	3417.59
994.193	3393.64
994.49	3319.97
994.787	3320.42
995.083	3356.35
995.379	3298.5
995.676	3280.65
995.972	3273.19
996.268	3242.46
996.565	3255.79
996.861	3214.21
997.157	3202.23
997.453	3239.97
997.749	3180.99
998.044	3153.65
998.34	3162.91
998.636	3085.63
998.932	3096.47
999.227	3085.17
999.523	3046.76
999.818	3036.13
1000.114	3022.12
1000.409	2992.97
1000.704	3008.34
1001	2965.18
1001.295	2948.23
1001.59	2991.39
1001.885	2936.25
1002.18	2936.48
1002.475	2927.44
1002.77	2870.04
1003.065	2903.48
1003.359	2886.99
1003.654	2851.96
1003.949	2786.88
1004.243	2849.47
1004.538	2807.89
1004.832	2790.72
1005.127	2783.26
1005.421	2729.25
1005.715	2719.53
1006.009	2717.27
1006.304	2698.97
1006.598	2672.75
1006.892	2649.03
1007.186	2665.52
1007.48	2634.56
1007.773	2598.86
1008.067	2623.49
1008.361	2525.64
1008.655	2578.97
1008.948	2550.27
1009.242	2541.68
1009.535	2485.87
1009.829	2525.41
1010.122	2505.3
1010.415	2489.93
1010.708	2450.61
1011.001	2439.09
1011.295	2442.25
1011.588	2442.25
1011.881	2404.06
1012.173	2349.6
1012.466	2369.26
1012.759	2390.5
1013.052	2358.19
1013.344	2359.77
1013.637	2320.45
1013.93	2296.27
1014.222	2291.52
1014.514	2280.22
1014.807	2240
1015.099	2215.59
1015.391	2228.7
1015.683	2235.7
1015.976	2227.34
1016.268	2189.38
1016.56	2177.85
1016.851	2148.25
1017.143	2139.89
1017.435	2134.01
1017.727	2084.3
1018.018	2054.01
1018.31	2065.31
1018.602	2078.65
1018.893	2043.62
1019.185	2025.77
1019.476	2048.36
1019.767	2036.16
1020.058	2000
1020.35	1970.17
1020.641	1981.02
1020.932	1949.38
1021.223	1929.27
1021.514	1915.03
1021.804	1874.81
1022.095	1921.14
1022.386	1891.53
1022.677	1884.3
1022.967	1880.23
1023.258	1837.75
1023.548	1841.14
1023.839	1805.66
1024.129	1815.83
1024.419	1782.16
1024.709	1782.61
1025	1760.69
1025.29	1755.49
1025.58	1743.97
1025.87	1738.32
1026.16	1745.32
1026.449	1731.99
1026.739	1720.24
1027.029	1713.46
1027.319	1680.46
1027.608	1677.53
1027.898	1678.2
1028.187	1645.66
1028.477	1652.89
1028.766	1625.78
1029.055	1601.37
1029.344	1597.53
1029.634	1609.96
1029.923	1571.31
1030.212	1562.05
1030.501	1549.62
1030.79	1564.54
1031.078	1534.03
1031.367	1527.25
1031.656	1491.09
1031.945	1511.2
1032.233	1495.84
1032.522	1491.77
1032.81	1434.82
1033.099	1455.84
1033.387	1447.93
1033.675	1443.63
1033.963	1461.04
1034.251	1444.99
1034.54	1418.78
1034.828	1406.8
1035.116	1367.7
1035.403	1366.35
1035.691	1371.55
1035.979	1372.68
1036.267	1326.35
1036.554	1342.62
1036.842	1338.55
1037.129	1322.51
1037.417	1314.37
1037.704	1279.8
1037.992	1286.58
1038.279	1285.67
1038.566	1273.02
1038.853	1273.02
1039.14	1273.02
