Data from orange_diffuse_book_FLMS001491_00043.txt Node
Date: Wed Feb 08 15:29:37 GMT 2017
User: dcchb
Spectrometer: FLMS00149
Trigger mode: 0
Integration Time (sec): 2.000000E-2
Scans to average: 10
Electric dark correction enabled: true
Nonlinearity correction enabled: false
Boxcar width: 0
XAxis mode: Wavelengths
Number of Pixels in Spectrum: 2048
>>>>>Begin Spectral Data<<<<<
341.393	-12.29
341.776	-12.29
342.16	-12.29
342.543	-74.43
342.927	-38.5
343.31	-86.18
343.693	-75.11
344.077	-69.91
344.46	-58.84
344.843	-58.16
345.226	-51.83
345.61	-46.64
345.993	7.15
346.376	-8.22
346.759	7.15
347.142	26.58
347.525	38.33
347.908	76.3
348.291	76.3
348.674	101.61
349.057	121.49
349.44	125.79
349.823	136.86
350.206	158.33
350.588	193.58
350.971	212.79
351.354	257.31
351.737	255.73
352.119	257.99
352.502	272
352.884	293.24
353.267	294.14
353.65	294.82
354.032	316.07
354.414	326.23
354.797	320.36
355.179	344.09
355.562	340.02
355.944	365.78
356.326	339.57
356.709	331.88
357.091	363.07
357.473	346.8
357.855	361.04
358.238	354.03
358.62	338.89
359.002	347.7
359.384	352.22
359.766	362.62
360.148	355.61
360.53	348.15
360.912	366.01
361.294	349.96
361.676	346.35
362.057	340.25
362.439	350.64
362.821	349.96
363.203	349.74
363.584	336.86
363.966	332.56
364.348	327.59
364.729	359.91
365.111	330.08
365.493	319.68
365.874	351.32
366.256	316.29
366.637	312.45
367.019	332.56
367.4	314.03
367.781	330.53
368.163	333.47
368.544	338.44
368.925	344.09
369.306	344.31
369.688	332.11
370.069	329.17
370.45	318.78
370.831	324.88
371.212	312.45
371.593	328.72
371.974	328.04
372.355	336.18
372.736	330.53
373.117	314.71
373.498	308.16
373.879	315.84
374.26	321.94
374.641	330.75
375.021	318.78
375.402	343.86
375.783	314.71
376.163	359
376.544	350.41
376.925	355.84
377.305	344.99
377.686	326.46
378.066	337.31
378.447	338.21
378.827	342.96
379.208	344.09
379.588	347.25
379.968	347.25
380.349	341.38
380.729	352.45
381.109	348.61
381.489	366.91
381.87	354.93
382.25	366.46
382.63	334.14
383.01	338.21
383.39	362.84
383.77	346.12
384.15	383.18
384.53	352.22
384.91	369.62
385.29	343.64
385.67	363.52
386.049	379.79
386.429	375.27
386.809	370.75
387.189	379.11
387.568	358.1
387.948	369.4
388.328	380.92
388.707	370.3
389.087	366.01
389.466	363.07
389.846	355.61
390.225	371.88
390.605	365.56
390.984	379.57
391.363	367.14
391.743	381.15
392.122	380.02
392.501	371.43
392.881	389.96
393.26	396.97
393.639	401.26
394.018	381.15
394.397	394.03
394.776	373.01
395.155	385.22
395.534	422.5
395.913	415.5
396.292	389.74
396.671	382.5
397.05	373.92
397.429	392.22
397.808	388.15
398.186	394.93
398.565	408.27
398.944	402.62
399.323	412.79
399.701	411.2
400.08	438.32
400.458	428.6
400.837	393.13
401.215	420.24
401.594	422.05
401.972	401.49
402.351	404.42
402.729	422.95
403.107	425.67
403.486	434.93
403.864	420.47
404.242	429.06
404.62	423.18
404.999	437.42
405.377	421.83
405.755	454.59
406.133	431.54
406.511	434.25
406.889	452.33
407.267	447.59
407.645	461.37
408.023	445.1
408.401	472.45
408.779	460.69
409.156	466.12
409.534	428.6
409.912	462.73
410.29	458.21
410.667	468.38
411.045	472.9
411.422	480.81
411.8	467.25
412.178	482.16
412.555	478.09
412.933	471.54
413.31	486.23
413.687	503.63
414.065	496.17
414.442	486.91
414.819	511.99
415.197	497.76
415.574	497.98
415.951	509.96
416.328	521.26
416.705	524.87
417.082	516.96
417.46	520.13
417.837	531.65
418.214	541.82
418.591	545.89
418.967	541.6
419.344	549.51
419.721	548.83
420.098	540.47
420.475	545.44
420.852	572.78
421.228	565.32
421.605	567.81
421.982	592.44
422.358	573.91
422.735	575.27
423.111	592.44
423.488	593.8
423.864	590.18
424.241	596.51
424.617	593.12
424.994	574.36
425.37	626.34
425.746	598.77
426.123	587.24
426.499	584.08
426.875	601.71
427.251	617.07
427.627	600.8
428.003	620.92
428.379	638.09
428.756	644.19
429.132	641.48
429.507	657.3
429.883	662.5
430.259	674.7
430.635	680.35
431.011	657.98
431.387	669.95
431.763	698.88
432.138	693.46
432.514	716.51
432.89	708.6
433.265	723.29
433.641	710.63
434.016	728.03
434.392	734.81
434.767	704.08
435.143	726.22
435.518	739.56
435.894	740.91
436.269	754.25
436.644	766
437.02	749.95
437.395	752.89
437.77	765.54
438.145	776.39
438.52	770.06
438.895	795.6
439.271	778.43
439.646	795.83
440.021	801.02
440.395	797.18
440.77	803.74
441.145	822.04
441.52	824.07
441.895	818.65
442.27	823.17
442.645	845.54
443.019	820.68
443.394	835.37
443.769	855.49
444.143	848.25
444.518	848.93
444.892	829.27
445.267	848.93
445.641	845.77
446.016	880.57
446.39	876.28
446.764	874.69
447.139	868.59
447.513	897.52
447.887	868.37
448.262	889.16
448.636	905.2
449.01	886.67
449.384	910.63
449.758	892.55
450.132	919.89
450.506	888.03
450.88	904.75
451.254	933.68
451.628	927.12
452.002	955.6
452.376	950.17
452.75	932.55
453.123	942.94
453.497	963.51
453.871	955.14
454.244	976.16
454.618	984.3
454.992	969.61
455.365	1008.25
455.739	1016.61
456.112	1016.16
456.486	1026.78
456.859	1023.84
457.232	1021.36
457.606	1015.48
457.979	1026.55
458.352	1045.31
458.725	1062.71
459.099	1077.63
459.472	1087.8
459.845	1084.18
460.218	1116.72
460.591	1103.62
460.964	1110.62
461.337	1126.89
461.71	1097.74
462.083	1149.94
462.456	1123.05
462.829	1146.78
463.201	1175.7
463.574	1154.01
463.947	1176.83
464.32	1208.7
464.692	1180.22
465.065	1209.15
465.438	1220.67
465.81	1245.76
466.183	1247.11
466.555	1284.18
466.928	1269.03
467.3	1292.76
467.672	1301.35
468.045	1298.86
468.417	1285.31
468.789	1309.49
469.161	1301.12
469.534	1343.61
469.906	1365.98
470.278	1373.21
470.65	1382.48
471.022	1419.99
471.394	1403.95
471.766	1418.64
472.138	1423.61
472.51	1461.8
472.882	1468.13
473.253	1481.46
473.625	1541.12
473.997	1535.47
474.369	1521.46
474.74	1544.73
475.112	1573.21
475.484	1575.24
475.855	1617.73
476.227	1652.53
476.598	1626.99
476.97	1669.25
477.341	1690.94
477.713	1685.97
478.084	1741.56
478.455	1718.74
478.827	1768.23
479.198	1817.72
479.569	1814.33
479.94	1902.92
480.311	1853.65
480.682	1873.99
481.053	1938.85
481.424	1965.29
481.795	1989.92
482.166	1989.69
482.537	2040.54
482.908	2094.55
483.279	2123.7
483.65	2120.76
484.021	2167.09
484.391	2182.46
484.762	2208.22
485.133	2194.89
485.503	2265.39
485.874	2271.04
486.244	2326.86
486.615	2377.71
486.985	2379.29
487.356	2467.2
487.726	2448.21
488.097	2483.69
488.467	2502.9
488.837	2576.8
489.207	2606.4
489.578	2681.2
489.948	2706.74
490.318	2701.31
490.688	2742.89
491.058	2751.48
491.428	2766.85
491.798	2831.93
492.168	2897.92
492.538	2906.28
492.908	3001.42
493.278	2951.25
493.648	2965.71
494.017	3059.04
494.387	3047.74
494.757	3122.55
495.126	3132.04
495.496	3195.76
495.866	3198.25
496.235	3222.66
496.605	3230.34
496.974	3274.86
497.344	3349.88
497.713	3356.21
498.082	3385.59
498.452	3468.07
498.821	3457.9
499.19	3442.76
499.559	3485.7
499.928	3499.71
500.298	3577.9
500.667	3596.2
501.036	3615.87
501.405	3669.2
501.774	3696.99
502.143	3702.87
502.512	3731.79
502.88	3804.33
503.249	3811.79
503.618	3817.67
503.987	3830.77
504.356	3903.09
504.724	3908.51
505.093	3919.81
505.462	3954.61
505.83	3995.74
506.199	3976.99
506.567	4053.59
506.936	4037.55
507.304	4115.06
507.672	4154.61
508.041	4172.01
508.409	4176.3
508.777	4211.33
509.145	4288.39
509.514	4224.21
509.882	4310.08
510.25	4377.2
510.618	4400.25
510.986	4404.32
511.354	4440.25
511.722	4478.67
512.09	4505.11
512.458	4551.89
512.826	4540.13
513.193	4560.93
513.561	4612.45
513.929	4649.96
514.297	4658.78
514.664	4710.53
515.032	4717.98
515.4	4698.55
515.767	4783.97
516.135	4797.98
516.502	4802.5
516.869	4906.9
517.237	4913.68
517.604	4923.4
517.972	5040.69
518.339	4998.2
518.706	5033.46
519.073	5070.06
519.44	5077.3
519.808	5105.32
520.175	5159.33
520.542	5221.25
520.909	5266.9
521.276	5229.16
521.643	5306.22
522.009	5328.81
522.376	5404.97
522.743	5385.76
523.11	5440.68
523.477	5496.04
523.843	5564.51
524.21	5604.97
524.577	5644.29
524.943	5668.69
525.31	5688.13
525.676	5734
526.043	5754.57
526.409	5783.49
526.776	5816.71
527.142	5871.17
527.508	5934
527.874	5933.09
528.241	5941.91
528.607	5997.05
528.973	6001.57
529.339	6079.76
529.705	6046.99
530.071	6149.58
530.437	6189.81
530.803	6203.37
531.169	6232.52
531.535	6240.66
531.901	6287.66
532.267	6305.29
532.632	6347.54
532.998	6387.54
533.364	6418.05
533.73	6416.02
534.095	6512.96
534.461	6535.56
534.826	6537.37
535.192	6554.09
535.557	6597.48
535.923	6577.82
536.288	6644.71
536.653	6646.52
537.019	6654.66
537.384	6653.98
537.749	6734.65
538.114	6732.39
538.479	6786.63
538.845	6818.49
539.21	6835.89
539.575	6817.82
539.94	6849
540.305	6918.83
540.67	6957.47
541.034	6992.05
541.399	7056.9
541.764	7046.96
542.129	7126.96
542.494	7087.41
542.858	7128.77
543.223	7140.74
543.587	7152.5
543.952	7214.19
544.316	7218.71
544.681	7284.7
545.045	7313.4
545.41	7315.43
545.774	7397.91
546.138	7412.38
546.503	7407.18
546.867	7450.57
547.231	7555.65
547.595	7576.44
547.959	7564.91
548.324	7568.08
548.688	7568.76
549.052	7637.23
549.416	7728.98
549.779	7726.04
550.143	7818.47
550.507	7823.89
550.871	7851.69
551.235	7888.97
551.599	7991.8
551.962	8027.95
552.326	8048.07
552.689	8060.72
553.053	8056.2
553.417	8159.93
553.78	8276.76
554.143	8209.19
554.507	8215.97
554.87	8294.84
555.234	8489.86
555.597	8408.28
555.96	8497.54
556.323	8547.04
556.686	8574.38
557.05	8662.06
557.413	8700.93
557.776	8767.37
558.139	8829.74
558.502	8845.11
558.865	8876.74
559.228	9021.37
559.59	9109.73
559.953	9097.76
560.316	9163.74
560.679	9191.54
561.041	9281.93
561.404	9353.34
561.767	9461.14
562.129	9518.76
562.492	9562.83
562.854	9642.37
563.217	9719.66
563.579	9790.39
563.941	9884.85
564.304	9994.68
564.666	10095.02
565.028	10199.2
565.39	10303.37
565.753	10365.52
566.115	10363.26
566.477	10542.69
566.839	10659.75
567.201	10754.66
567.563	10799.18
567.925	10957.14
568.287	11007.76
568.648	11179.51
569.01	11220.41
569.372	11379.05
569.734	11499.73
570.095	11654.98
570.457	11832.82
570.819	11887.29
571.18	12043.44
571.542	12202.98
571.903	12367.5
572.265	12504.9
572.626	12590.54
572.987	12769.3
573.349	12959.8
573.71	13165.22
574.071	13287.48
574.432	13517.75
574.794	13739.44
575.155	13980.79
575.516	14057.85
575.877	14248.81
576.238	14500.1
576.599	14648.57
576.96	14895.34
577.32	15112.29
577.681	15317.93
578.042	15579.17
578.403	15858.71
578.763	16150.45
579.124	16394.06
579.485	16673.15
579.845	16902.52
580.206	17191.55
580.566	17478.78
580.927	17729.39
581.287	18077.18
581.648	18353.78
582.008	18704.96
582.368	18935.91
582.728	19255
583.089	19498.39
583.449	19855.44
583.809	20324.58
584.169	20664
584.529	20945.58
584.889	21501.27
585.249	21686.58
585.609	21929.06
585.969	22529.27
586.329	22844.96
586.688	23228.46
587.048	23504.16
587.408	23951.6
587.768	24319.95
588.127	24712.94
588.487	25036.09
588.846	25658.45
589.206	25855.51
589.565	26321.71
589.925	26879.21
590.284	27216.6
590.643	27728.68
591.003	28162.79
591.362	28553.29
591.721	29004.8
592.08	29437.56
592.44	29955.51
592.799	30329.06
593.158	30845.21
593.517	31132.43
593.876	31735.13
594.235	31986.64
594.593	32551.6
594.952	33126.5
595.311	33366.27
595.67	33922.41
596.029	34523.3
596.387	34942.73
596.746	35366.67
597.104	35821.57
597.463	36114.67
597.822	36650.03
598.18	37035.33
598.538	37433.28
598.897	37972.48
599.255	38048.63
599.613	39003.64
599.972	39155.5
600.33	39711.87
600.688	39879.77
601.046	40480.66
601.404	40798.16
601.762	41199.51
602.12	41769.66
602.478	42161.29
602.836	42262.76
603.194	42630.21
603.552	43177.76
603.91	43292.34
604.268	43839.89
604.625	44052.09
604.983	44558.29
605.341	44633.09
605.698	45121.44
606.056	45453.64
606.413	45673.29
606.771	46122.32
607.128	46445.47
607.485	46467.39
607.843	46710.55
608.2	46990.09
608.557	47553.47
608.914	47581.71
609.272	47860.8
609.629	48052.21
609.986	48349.15
610.343	48434.12
610.7	48966.31
611.057	48946.2
611.414	49206.98
611.771	49336.25
612.127	49636.58
612.484	49690.36
612.841	49938.72
613.198	50089.22
613.554	50223.45
613.911	50559.26
614.267	50561.75
614.624	50678.81
614.98	50856.88
615.337	51022.53
615.693	51192.24
616.05	51093.04
616.406	51496.19
616.762	51439.92
617.118	51528.05
617.475	51590.42
617.831	51769.18
618.187	51900.02
618.543	52090.75
618.899	52225.66
619.255	52230.18
619.611	52221.37
619.967	52502.04
620.323	52631.75
620.678	52519.89
621.034	52509.27
621.39	52480.34
621.746	52515.82
622.101	52921.01
622.457	52754.23
622.812	52837.85
623.168	52916.94
623.523	52951.07
623.879	53123.49
624.234	52898.19
624.589	53144.51
624.945	53138.86
625.3	53242.81
625.655	53210.72
626.01	53236.26
626.365	53364.16
626.72	53379.08
627.075	53264.05
627.43	53362.81
627.785	53377.49
628.14	53445.29
628.495	53565.96
628.85	53475.8
629.205	53403.48
629.559	53568.45
629.914	53478.51
630.269	53500.66
630.623	53464.27
630.978	53423.82
631.332	53487.32
631.687	53649.35
632.041	53491.84
632.396	53574.78
632.75	53424.27
633.104	53536.13
633.459	53397.83
633.813	53406.42
634.167	53518.06
634.521	53476.02
634.875	53525.29
635.229	53426.08
635.583	53448.45
635.937	53316.25
636.291	53338.17
636.645	53423.14
636.999	53346.76
637.352	53442.13
637.706	53262.02
638.06	53298.63
638.413	53386.53
638.767	53286.42
639.121	53309.25
639.474	53098.18
639.828	53198.06
640.181	53204.84
640.534	53300.43
640.888	53188.35
641.241	53047.56
641.594	53189.48
641.947	53108.8
642.301	53168.91
642.654	53181.12
643.007	53259.53
643.36	53113.77
643.713	53105.41
644.066	53226.99
644.419	52962.82
644.771	52761.47
645.124	52569.15
645.477	52535.03
645.83	52274.25
646.182	52276.73
646.535	52144.76
646.888	52206
647.24	52136.17
647.593	52351.08
647.945	52147.47
648.298	52081.71
648.65	51984.54
649.002	51929.17
649.355	52078.09
649.707	52017.3
650.059	52180.69
650.411	52423.4
650.763	52510.62
651.115	52914
651.467	52679.21
651.819	52810.05
652.171	52649.6
652.523	52745.87
652.875	52673.33
653.227	52638.98
653.578	52695.7
653.93	52617.06
654.282	52533.68
654.633	52414.13
654.985	52594.92
655.337	52546.78
655.688	52532.77
656.039	52711.75
656.391	52413.23
656.742	52536.61
657.094	52538.87
657.445	52675.14
657.796	52565.31
658.147	52530.74
658.498	52453.68
658.849	52565.76
659.2	52502.72
659.551	52422.04
659.902	52593.11
660.253	52508.37
660.604	52536.84
660.955	52447.35
661.306	52506.33
661.656	52476.28
662.007	52507.69
662.358	52368.48
662.708	52447.58
663.059	52413.68
663.409	52240.8
663.76	52480.8
664.11	52453.68
664.461	52416.62
664.811	52452.77
665.161	52463.17
665.511	52327.58
665.862	52395.15
666.212	52544.3
666.562	52497.29
666.912	52437.18
667.262	52320.57
667.612	52343.4
667.962	52314.02
668.312	52233.8
668.662	52384.07
669.011	52249.84
669.361	52262.27
669.711	52165.32
670.06	52288.48
670.41	52218.66
670.76	52087.36
671.109	52249.39
671.459	52105.21
671.808	52062.28
672.157	52156.96
672.507	51911.54
672.856	52007.81
673.205	51955.84
673.554	52144.53
673.904	51834.94
674.253	52192.89
674.602	52007.81
674.951	51436.98
675.3	51331.9
675.649	51957.87
675.998	51834.71
676.346	51910.19
676.695	51931.43
677.044	51660.7
677.393	51777.76
677.741	51761.72
678.09	51728.72
678.438	51681.72
678.787	51774.37
679.135	51709.06
679.484	51507.71
679.832	51588.62
680.181	51467.94
680.529	51503.65
680.877	51487.15
681.225	51467.49
681.573	51578.67
681.922	51336.42
682.27	51282.63
682.618	51298
682.966	51232.24
683.314	51290.77
683.661	51194.28
684.009	50908.41
684.357	50940.5
684.705	50835.41
685.053	50983.21
685.4	50884.45
685.748	50709.99
686.095	50566.27
686.443	50511.36
686.79	50536.44
687.138	50583.22
687.485	50517.23
687.832	50440.62
688.18	50416.89
688.527	50189.78
688.874	50190.01
689.221	50199.5
689.568	50029.79
689.915	49919.73
690.262	49991.14
690.609	49842.22
690.956	49773.3
691.303	49591.83
691.65	49514.55
691.997	49470.03
692.344	49329.47
692.69	49211.73
693.037	49260.31
693.383	49082.92
693.73	49112.75
694.077	48840.66
694.423	48932.64
694.769	48818.97
695.116	48650.16
695.462	48614
695.808	48500.56
696.155	48480.45
696.501	48292.43
696.847	48170.17
697.193	48011.99
697.539	48242.49
697.885	47819.9
698.231	47683.41
698.577	47615.61
698.923	47572.9
699.269	47449.29
699.614	47339.46
699.96	47243.42
700.306	47240.93
700.651	46826.48
700.997	46896.31
701.342	46853.15
701.688	46766.6
702.033	46617.45
702.379	46569.31
702.724	46433.5
703.069	46382.2
703.415	46073.73
703.76	46125.26
704.105	46133.84
704.45	45888.2
704.795	45745.61
705.14	45614.08
705.485	45661.77
705.83	45393.75
706.175	45465.16
706.52	45397.14
706.865	45166.86
707.209	45053.87
707.554	44963.03
707.899	45002.35
708.243	44823.82
708.588	44910.6
708.932	44478.97
709.277	44567.33
709.621	44420.67
709.966	44132.31
710.31	44334.79
710.654	43972.09
710.998	44090.51
711.342	44144.52
711.687	44012.77
712.031	43757.86
712.375	43644.64
712.719	43693.46
713.063	43696.62
713.407	43758.76
713.75	43499.34
714.094	43468.6
714.438	43192.68
714.782	43446.68
715.125	43020.7
715.469	43166.92
715.812	42995.62
716.156	42908.39
716.499	42878.11
716.843	42834.95
717.186	42597.44
717.53	42784.55
717.873	42806.02
718.216	42633.37
718.559	42531.68
718.902	42303.66
719.246	42301.4
719.589	42275.64
719.932	42104.8
720.275	42099.15
720.617	42066.15
720.96	42038.13
721.303	41990.68
721.646	41939.6
721.989	41719.5
722.331	41956.78
722.674	41804.24
723.016	41703.9
723.359	41679.05
723.701	41646.73
724.044	41554.3
724.386	41304.59
724.729	41443.12
725.071	41323.35
725.413	41351.82
725.755	41253.52
726.097	41156.35
726.439	40971.95
726.782	40919.07
727.124	41065.95
727.465	40961.78
727.807	40785.74
728.149	40808.33
728.491	40689.01
728.833	40934.66
729.175	40657.6
729.516	40611.95
729.858	40535.57
730.199	40728.79
730.541	40450.38
730.882	40434.11
731.224	40595.01
731.565	40329.02
731.906	40337.39
732.248	40449.02
732.589	40184.4
732.93	39977.62
733.271	40138.97
733.612	40181.46
733.953	40091.06
734.294	39947.57
734.635	39861.24
734.976	39883.16
735.317	39785.76
735.658	39669.15
735.999	39837.96
736.339	39685.65
736.68	39752.99
737.021	39635.03
737.361	39403.4
737.702	39674.35
738.042	39630.06
738.383	39452.44
738.723	39624.86
739.063	39500.35
739.404	39431.42
739.744	39272.33
740.084	39308.94
740.424	39270.07
740.764	39100.58
741.104	39324.98
741.444	39053.58
741.784	39050.19
742.124	39062.84
742.464	39035.95
742.804	38963.18
743.143	38817.2
743.483	38884.09
743.823	38605.45
744.162	38665.57
744.502	38777.88
744.841	38619.46
745.181	38687.49
745.52	38479.58
745.86	38599.58
746.199	38425.57
746.538	38450.66
746.877	38567.04
747.216	38456.08
747.556	38357.78
747.895	38367.04
748.234	38117.56
748.573	38145.35
748.911	38008.18
749.25	38110.55
749.589	37938.13
749.928	38093.6
750.267	38034.17
750.605	37761.18
750.944	37813.84
751.283	37729.09
751.621	37852.93
751.96	37632.6
752.298	37553.05
752.636	37650
752.975	37490.23
753.313	37171.14
753.651	37548.76
753.989	37185.15
754.327	37272.83
754.666	37089.56
755.004	37035.33
755.342	37196.68
755.679	36940.64
756.017	36886.4
756.355	36925.72
756.693	36685.05
757.031	36791.72
757.368	36573.19
757.706	36603.47
758.044	36347.89
758.381	36521.67
758.719	36409.58
759.056	36372.07
759.394	36058.4
759.731	35846.66
760.068	35925.98
760.405	35681.01
760.743	35669.26
761.08	35673.78
761.417	35570.28
761.754	35511.98
762.091	35450.96
762.428	35219.78
762.765	34979.79
763.102	35202.61
763.438	34918.32
763.775	34703.64
764.112	34906.57
764.449	34831.54
764.785	34697.08
765.122	34453.7
765.458	34370.31
765.795	34385.23
766.131	34250.99
766.467	34004.9
766.804	34048.06
767.14	33769.42
767.476	33822.08
767.812	33775.52
768.148	33786.6
768.485	33462.31
768.821	33384.12
769.157	33262.54
769.492	33154.98
769.828	33202.21
770.164	32960.4
770.5	32785.49
770.836	32873.4
771.171	32679.51
771.507	32502.34
771.842	32255.11
772.178	32333.98
772.513	32250.14
772.849	32093.99
773.184	32184.15
773.519	32035.23
773.855	31912.3
774.19	31806.31
774.525	31668.69
774.86	31656.94
775.195	31648.57
775.53	31302.82
775.865	31182.15
776.2	31040.68
776.535	30802.27
776.87	30766.79
777.205	30625.55
777.539	30526.12
777.874	30609.73
778.209	30409.51
778.543	30240.48
778.878	30039.8
779.212	30088.84
779.547	29927.72
779.881	29996.64
780.215	29824.22
780.55	29790.77
780.884	29532.7
781.218	29577.22
781.552	29466.03
781.886	29259.48
782.22	29252.71
782.554	29025.37
782.888	28890.46
783.222	28773.4
783.556	28576.56
783.889	28534.76
784.223	28451.82
784.557	28358.49
784.89	28382.22
785.224	28173.19
785.557	28157.14
785.891	28044.15
786.224	28017.03
786.558	27897.03
786.891	27612.97
787.224	27581.56
787.557	27498.4
787.891	27511.73
788.224	27431.51
788.557	27438.74
788.89	27356.48
789.223	27189.71
789.556	27038.53
789.888	26979.32
790.221	26884.18
790.554	26560.57
790.887	26845.09
791.219	26620.01
791.552	26618.42
791.884	26314.7
792.217	26337.3
792.549	26178.66
792.882	26050.3
793.214	25839.46
793.546	25948.61
793.879	25737.54
794.211	25617.09
794.543	25806.24
794.875	25538.9
795.207	25580.49
795.539	25505.91
795.871	25566.93
796.203	25258.91
796.535	25119.48
796.867	25142.76
797.198	24996.77
797.53	24939.6
797.862	24774.86
798.193	24864.57
798.525	24668.65
798.856	24686.5
799.188	24547.07
799.519	24393.85
799.85	24292.38
800.182	24306.39
800.513	24297.58
800.844	24103.46
801.175	24367.41
801.506	24112.95
801.837	23988.21
802.168	23976.69
802.499	23891.49
802.83	23726.3
803.161	23720.2
803.491	23665.28
803.822	23613.98
804.153	23686.07
804.483	23374.44
804.814	23297.61
805.145	23211.28
805.475	23263.94
805.805	23226.88
806.136	23149.59
806.466	23121.12
806.796	23045.86
807.126	22805.87
807.457	22850.84
807.787	22811.29
808.117	22730.84
808.447	22691.97
808.777	22672.77
809.107	22616.5
809.436	22605.87
809.766	22375.15
810.096	22389.38
810.426	22241.59
810.755	22237.07
811.085	22211.31
811.414	22190.52
811.744	22113.68
812.073	22001.82
812.403	21946.46
812.732	21854.26
813.061	21927.47
813.39	21756.63
813.719	21660.14
814.049	21741.26
814.378	21657.65
814.707	21536.75
815.036	21467.15
815.365	21354.61
815.693	21212.92
816.022	21207.49
816.351	21208.62
816.68	21113.94
817.008	21156.87
817.337	21000.49
817.665	20955.52
817.994	20984.22
818.322	20976.31
818.651	20866.03
818.979	20693.38
819.307	20859.48
819.636	20731.8
819.964	20630.11
820.292	20733.83
820.62	20631.46
820.948	20523.67
821.276	20607.06
821.604	20560.05
821.932	20540.62
822.259	20556.66
822.587	20551.69
822.915	20505.59
823.243	20578.81
823.57	20540.62
823.898	20527.96
824.225	20533.39
824.553	20473.95
824.88	20434.18
825.207	20626.94
825.535	20458.13
825.862	20529.77
826.189	20396.67
826.516	20577
826.843	20614.74
827.17	20522.99
827.497	20510.34
827.824	20482.77
828.151	20615.42
828.478	20445.93
828.805	20580.39
829.131	20453.61
829.458	20454.97
829.785	20320.28
830.111	20274.18
830.438	20443.45
830.764	20373.16
831.09	20417.01
831.417	20288.65
831.743	20353.28
832.069	20424.69
832.395	20317.8
832.722	20355.31
833.048	20244.35
833.374	20299.04
833.7	20217.01
834.026	20343.11
834.351	20262.89
834.677	20235.77
835.003	20156.9
835.329	20333.84
835.654	20097.47
835.98	20110.35
836.306	20128.43
836.631	20056.11
836.956	20178.82
837.282	20105.83
837.607	19918.04
837.932	19816.12
838.258	19868.55
838.583	19812.73
838.908	19805.27
839.233	19812.5
839.558	19800.07
839.883	19687.99
840.208	19685.5
840.533	19705.61
840.858	19658.38
841.182	19576.35
841.507	19596.01
841.832	19501.78
842.156	19459.06
842.481	19540.42
842.805	19428.33
843.13	19427.43
843.454	19299.29
843.778	19356.69
844.103	19207.55
844.427	19248.9
844.751	19222.01
845.075	19095.46
845.399	19025.18
845.723	18960.55
846.047	18959.64
846.371	18803.26
846.695	18908.57
847.019	18721.68
847.343	18583.16
847.666	18571.86
847.99	18436.49
848.313	18484.85
848.637	18332.99
848.96	18252.99
849.284	18257.51
849.607	18144.75
849.931	18046.9
850.254	17915.6
850.577	17755.38
850.9	17793.35
851.223	17791.99
851.546	17683.52
851.869	17533.24
852.192	17600.13
852.515	17394.49
852.838	17401.94
853.161	17395.16
853.483	17220.03
853.806	17178.45
854.129	17187.71
854.451	17061.39
854.774	16905.46
855.096	17011.67
855.419	16948.17
855.741	16920.15
856.063	16730.1
856.385	16752.24
856.708	16725.8
857.03	16629.76
857.352	16691.45
857.674	16531.91
857.996	16459.82
858.318	16449.65
858.64	16475.19
858.961	16326.72
859.283	16340.28
859.605	16261.63
859.926	16217.34
860.248	16216.89
860.57	16192.71
860.891	16089.44
861.212	16133.95
861.534	16012.83
861.855	16075.2
862.176	16072.26
862.498	16030.23
862.819	15940.29
863.14	15830.23
863.461	15910.01
863.782	15783.68
864.103	15850.12
864.424	15831.36
864.745	15783.68
865.065	15692.84
865.386	15614.65
865.707	15628.88
866.027	15651.48
866.348	15482.22
866.668	15514.54
866.989	15559.05
867.309	15362.45
867.63	15450.81
867.95	15521.54
868.27	15352.28
868.59	15314.54
868.91	15334.2
869.23	15196.8
869.55	15180.53
869.87	15346.4
870.19	15273.19
870.51	15207.42
870.83	15204.04
871.15	15151.83
871.469	15193.87
871.789	15205.62
872.109	15158.16
872.428	14996.13
872.748	15050.82
873.067	14999.75
873.386	15107.09
873.706	15058.28
874.025	14811.28
874.344	14952.52
874.663	14976.47
874.982	14871.16
875.301	14806.76
875.62	14782.8
875.939	14729.47
876.258	14752.3
876.577	14780.09
876.896	14708
877.214	14707.1
877.533	14691.51
877.852	14618.97
878.17	14603.37
878.489	14562.92
878.807	14614.22
879.125	14529.02
879.444	14550.95
879.762	14458.29
880.08	14472.76
880.398	14420.78
880.716	14471.85
881.034	14407.45
881.352	14468.01
881.67	14368.58
881.988	14351.18
882.306	14308.69
882.624	14306.88
882.941	14140.11
883.259	14084.52
883.577	14068.92
883.894	14071.41
884.212	14088.36
884.529	14091.52
884.846	14075.25
885.164	13951.64
885.481	13965.2
885.798	13901.92
886.115	13847.69
886.432	13818.31
886.75	13766.56
887.067	13796.16
887.383	13765.2
887.7	13804.98
888.017	13683.17
888.334	13684.53
888.651	13600.46
888.967	13599.56
889.284	13555.72
889.6	13481.14
889.917	13428.04
890.233	13381.03
890.55	13376.74
890.866	13288.38
891.182	13305.78
891.498	13221.94
891.815	13169.74
892.131	13151.66
892.447	13162.51
892.763	13203.18
893.079	13096.29
893.395	13058.78
893.71	13049.97
894.026	13027.14
894.342	12875.06
894.657	12804.78
894.973	12805.23
895.289	12870.54
895.604	12827.6
895.92	12704.89
896.235	12656.53
896.55	12716.19
896.865	12625.12
897.181	12502.64
897.496	12459.93
897.811	12428.74
898.126	12407.27
898.441	12436.2
898.756	12327.27
899.071	12232.14
899.386	12333.6
899.7	12135.87
900.015	12150.56
900.33	12019.94
900.644	12037.79
900.959	12087.51
901.273	12026.72
901.588	11881.18
901.902	11846.61
902.216	11860.62
902.531	11783.11
902.845	11780.62
903.159	11670.12
903.473	11626.73
903.787	11526.39
904.101	11559.84
904.415	11503.12
904.729	11563
905.042	11410.01
905.356	11397.13
905.67	11378.6
905.984	11446.39
906.297	11312.84
906.611	11292.73
906.924	11191.49
907.237	11157.36
907.551	11111.71
907.864	11032.85
908.177	11075.1
908.491	10978.16
908.804	10976.58
909.117	10855.68
909.43	10885.73
909.743	10793.98
910.056	10819.07
910.368	10724.38
910.681	10607.55
910.994	10612.29
911.307	10544.72
911.619	10456.82
911.932	10513.54
912.244	10471.05
912.557	10398.96
912.869	10323.71
913.181	10279.87
913.494	10267.89
913.806	10139.08
914.118	10200.55
914.43	10113.1
914.742	10096.15
915.054	10082.14
915.366	10021.35
915.678	9935.47
915.99	9904.74
916.302	9899.32
916.613	9863.84
916.925	9838.53
917.236	9814.57
917.548	9714.01
917.859	9747.91
918.171	9675.59
918.482	9588.36
918.794	9583.39
919.105	9572.77
919.416	9444.86
919.727	9479.21
920.038	9485.09
920.349	9344.53
920.66	9358.77
920.971	9316.28
921.282	9293.23
921.593	9176.85
921.903	9136.17
922.214	9140.69
922.525	9084.87
922.835	9036.51
923.146	9042.62
923.456	8922.17
923.767	8896.4
924.077	8876.52
924.387	8835.84
924.697	8806.46
925.008	8775.28
925.318	8775.05
925.628	8760.14
925.938	8665.45
926.248	8608.95
926.558	8592.68
926.867	8568.5
927.177	8530.99
927.487	8460.26
927.796	8364.89
928.106	8398.34
928.416	8316.08
928.725	8428.62
929.034	8265.91
929.344	8312.01
929.653	8248.29
929.962	8108.85
930.271	8143.2
930.581	8093.04
930.89	8115.41
931.199	8050.1
931.508	8033.38
931.817	7997.67
932.125	7991.12
932.434	7964.9
932.743	7907.73
933.051	7847.39
933.36	7835.19
933.669	7757.9
933.977	7699.6
934.286	7679.04
934.594	7655.76
934.902	7621.41
935.21	7551.58
935.519	7611.24
935.827	7562.43
936.135	7505.93
936.443	7468.42
936.751	7335.32
937.059	7396.33
937.367	7314.98
937.674	7379.61
937.982	7337.8
938.29	7251.02
938.597	7246.28
938.905	7184.81
939.213	7144.13
939.52	7120.41
939.827	7060.29
940.135	7072.5
940.442	7012.16
940.749	7008.32
941.056	7026.17
941.363	6897.59
941.67	6971.26
941.977	6885.84
942.284	6809.68
942.591	6851.71
942.898	6722.22
943.205	6777.36
943.511	6787.99
943.818	6706.18
944.125	6663.69
944.431	6629.12
944.738	6621.66
945.044	6616.69
945.35	6597.48
945.657	6510.48
945.963	6575.56
946.269	6447.66
946.575	6525.39
946.881	6458.95
947.187	6449.92
947.493	6404.04
947.799	6309.35
948.105	6348.22
948.41	6256.25
948.716	6293.99
949.022	6238.4
949.327	6243.37
949.633	6190.71
949.938	6159.75
950.244	6171.73
950.549	6060.32
950.854	6065.29
951.16	6066.2
951.465	6058.29
951.77	5991.85
952.075	6000.89
952.38	5965.63
952.685	5940.32
952.99	5842.47
953.294	5865.75
953.599	5833.66
953.904	5784.85
954.209	5806.32
954.513	5795.7
954.818	5755.47
955.122	5723.83
955.426	5746.88
955.731	5661.01
956.035	5658.98
956.339	5621.46
956.643	5565.19
956.948	5548.7
957.252	5588.02
957.556	5563.38
957.86	5491.75
958.163	5468.25
958.467	5422.15
958.771	5439.32
959.075	5438.64
959.378	5383.05
959.682	5349.38
959.985	5344.18
960.289	5342.37
960.592	5276.16
960.896	5253.11
961.199	5212.66
961.502	5218.08
961.805	5162.72
962.108	5160.68
962.411	5120.01
962.714	5083.62
963.017	5115.71
963.32	5071.19
963.623	5002.04
963.926	5033.68
964.228	5016.05
964.531	4955.94
964.833	4942.84
965.136	4867.13
965.438	4895.83
965.741	4884.31
966.043	4880.69
966.345	4825.33
966.648	4822.61
966.95	4795.5
967.252	4781.94
967.554	4756.4
967.856	4758.89
968.158	4687.25
968.46	4692.9
968.761	4677.08
969.063	4647.7
969.365	4613.35
969.666	4600.47
969.968	4578.1
970.269	4526.8
970.571	4533.58
970.872	4514.82
971.174	4491.77
971.475	4452.91
971.776	4468.05
972.077	4461.94
972.378	4424.21
972.679	4400.93
972.98	4441.15
973.281	4321.61
973.582	4345.56
973.883	4348.95
974.183	4279.58
974.484	4296.07
974.785	4247.94
975.085	4270.54
975.386	4246.81
975.686	4200.93
975.986	4213.36
976.287	4209.52
976.587	4131.56
976.887	4159.81
977.187	4120.71
977.487	4090.43
977.787	4066.25
978.087	4075.74
978.387	4048.62
978.687	4050.2
978.987	4001.62
979.286	4014.27
979.586	3994.61
979.885	3960.26
980.185	3928.85
980.484	3912.35
980.784	3900.6
981.083	3887.72
981.382	3884.56
981.682	3840.04
981.981	3851.34
982.28	3836.42
982.579	3782.87
982.878	3794.62
983.177	3750.33
983.475	3756.65
983.774	3741.74
984.073	3683.21
984.372	3684.56
984.67	3667.62
984.969	3706.03
985.267	3676.2
985.566	3661.06
985.864	3612.25
986.162	3600.95
986.461	3568.18
986.759	3567.51
987.057	3545.81
987.355	3518.24
987.653	3478.47
987.951	3522.99
988.249	3493.38
988.547	3430.79
988.844	3436.21
989.142	3419.49
989.44	3417.68
989.737	3380.17
990.035	3382.2
990.332	3374.97
990.63	3350.79
990.927	3315.99
991.224	3320.73
991.521	3313.27
991.819	3277.57
992.116	3255.42
992.413	3265.37
992.71	3240.06
993.006	3231.92
993.303	3204.12
993.6	3183.33
993.897	3202.99
994.193	3120.96
994.49	3123
994.787	3087.52
995.083	3096.78
995.379	3116.44
995.676	3090
995.972	3050.46
996.268	3048.65
996.565	3017.24
996.861	3024.92
997.157	3039.61
997.453	2988.76
997.749	2985.83
998.044	3012.94
998.34	2996.22
998.636	2925.04
998.932	2901.76
999.227	2894.98
999.523	2855.66
999.818	2849.11
1000.114	2828.77
1000.409	2857.47
1000.704	2813.63
1001	2814.76
1001.295	2803.46
1001.59	2805.27
1001.885	2757.81
1002.18	2725.72
1002.475	2713.97
1002.77	2691.14
1003.065	2687.98
1003.359	2653.86
1003.654	2714.19
1003.949	2664.93
1004.243	2657.47
1004.538	2619.28
1004.832	2595.1
1005.127	2599.62
1005.421	2590.81
1005.715	2546.51
1006.009	2542.67
1006.304	2532.28
1006.598	2477.14
1006.892	2509.45
1007.186	2458.16
1007.48	2463.35
1007.773	2486.63
1008.067	2452.28
1008.361	2412.28
1008.655	2447.53
1008.948	2434.43
1009.242	2387.65
1009.535	2391.26
1009.829	2349.91
1010.122	2352.17
1010.415	2344.49
1010.708	2335.9
1011.001	2323.7
1011.295	2292.74
1011.588	2276.69
1011.881	2214.77
1012.173	2266.07
1012.466	2212.06
1012.759	2238.95
1013.052	2205.51
1013.344	2160.76
1013.637	2186.75
1013.93	2165.73
1014.222	2155.79
1014.514	2153.76
1014.807	2129.8
1015.099	2120.54
1015.391	2107.88
1015.683	2108.33
1015.976	2061.33
1016.268	2085.96
1016.56	2053.19
1016.851	2040.09
1017.143	2039.86
1017.435	2026.3
1017.727	1999.41
1018.018	1983.37
1018.31	1964.84
1018.602	1942.69
1018.893	1935.91
1019.185	1972.29
1019.476	1946.76
1019.767	1929.36
1020.058	1908.57
1020.35	1867.66
1020.641	1845.97
1020.932	1856.82
1021.223	1829.02
1021.514	1828.79
1021.804	1810.49
1022.095	1822.69
1022.386	1791.73
1022.677	1775.24
1022.967	1751.06
1023.258	1717.61
1023.548	1755.58
1023.839	1725.97
1024.129	1709.02
1024.419	1677.84
1024.709	1725.75
1025	1699.76
1025.29	1679.19
1025.58	1619.76
1025.87	1608.69
1026.16	1633.32
1026.449	1638.06
1026.739	1610.04
1027.029	1629.7
1027.319	1594
1027.608	1595.81
1027.898	1592.87
1028.187	1584.05
1028.477	1554.9
1028.766	1568.91
1029.055	1530.04
1029.344	1527.56
1029.634	1516.49
1029.923	1488.69
1030.212	1501.34
1030.501	1471.29
1030.79	1483.04
1031.078	1448.92
1031.367	1459.31
1031.656	1425.19
1031.945	1425.87
1032.233	1413.66
1032.522	1403.27
1032.81	1391.07
1033.099	1390.39
1033.387	1378.64
1033.675	1354.91
1033.963	1356.72
1034.251	1361.69
1034.54	1343.83
1034.828	1312.42
1035.116	1358.3
1035.403	1305.19
1035.691	1312.88
1035.979	1295.47
1036.267	1287.11
1036.554	1272.42
1036.842	1278.3
1037.129	1268.58
1037.417	1250.28
1037.704	1233.33
1037.992	1217.74
1038.279	1220.45
1038.566	1221.35
1038.853	1221.35
1039.14	1221.35
