Data from orange_diffuse_book_FLMS001491_00014.txt Node
Date: Wed Feb 08 15:29:11 GMT 2017
User: dcchb
Spectrometer: FLMS00149
Trigger mode: 0
Integration Time (sec): 2.000000E-2
Scans to average: 10
Electric dark correction enabled: true
Nonlinearity correction enabled: false
Boxcar width: 0
XAxis mode: Wavelengths
Number of Pixels in Spectrum: 2048
>>>>>Begin Spectral Data<<<<<
341.393	5.76
341.776	5.76
342.16	5.76
342.543	-56.61
342.927	-68.36
343.31	-64.97
343.693	-78.3
344.077	-51.19
344.46	-73.11
344.843	-56.16
345.226	-34.91
345.61	-31.52
345.993	-13.9
346.376	2.82
346.759	7.57
347.142	29.26
347.525	45.76
347.908	44.18
348.291	76.72
348.674	88.7
349.057	109.04
349.44	133.22
349.823	155.36
350.206	172.99
350.588	214.34
350.971	237.85
351.354	224.06
351.737	256.83
352.119	287.11
352.502	274.91
352.884	286.21
353.267	289.37
353.65	316.04
354.032	324.17
354.414	332.99
354.797	328.47
355.179	359.2
355.562	351.52
355.944	351.29
356.326	344.06
356.709	335.47
357.091	369.37
357.473	362.82
357.855	355.81
358.238	350.61
358.62	361.91
359.002	357.39
359.384	361.91
359.766	355.36
360.148	368.01
360.53	342.7
360.912	349.26
361.294	364.4
361.676	352.65
362.057	352.19
362.439	335.02
362.821	337.51
363.203	328.92
363.584	350.16
363.966	326.88
364.348	324.85
364.729	332.08
365.111	337.96
365.493	321.91
365.874	336.15
366.256	326.88
366.637	328.92
367.019	340.89
367.4	324.4
367.781	325.08
368.163	340.22
368.544	348.35
368.925	353.78
369.306	339.77
369.688	341.8
370.069	328.69
370.45	307.22
370.831	328.24
371.212	335.25
371.593	345.64
371.974	323.49
372.355	333.44
372.736	353.1
373.117	332.31
373.498	327.11
373.879	332.53
374.26	330.95
374.641	334.34
375.021	335.7
375.402	348.35
375.783	337.96
376.163	331.63
376.544	343.83
376.925	337.73
377.305	335.25
377.686	330.95
378.066	332.08
378.447	328.92
378.827	354.45
379.208	339.54
379.588	357.84
379.968	340.44
380.349	328.92
380.729	367.56
381.109	347.9
381.489	331.63
381.87	357.17
382.25	361.46
382.63	351.74
383.01	348.58
383.39	356.26
383.77	350.16
384.15	363.49
384.53	358.07
384.91	357.62
385.29	354.68
385.67	340.89
386.049	371.4
386.429	370.05
386.809	370.72
387.189	376.6
387.568	351.52
387.948	355.36
388.328	358.97
388.707	377.73
389.087	363.72
389.466	371.85
389.846	366.66
390.225	369.82
390.605	384.74
390.984	388.58
391.363	383.83
391.743	400.33
392.122	386.77
392.501	414.11
392.881	394.68
393.26	394.9
393.639	399.42
394.018	404.17
394.397	406.66
394.776	394.23
395.155	396.49
395.534	404.4
395.913	395.13
396.292	396.94
396.671	411.85
397.05	387.9
397.429	393.55
397.808	397.62
398.186	408.01
398.565	402.14
398.944	395.36
399.323	392.65
399.701	410.95
400.08	398.07
400.458	417.73
400.837	404.17
401.215	438.29
401.594	405.07
401.972	406.66
402.351	409.14
402.729	414.57
403.107	426.09
403.486	404.62
403.864	408.69
404.242	440.33
404.62	433.1
404.999	449.59
405.377	442.59
405.755	417.96
406.133	412.98
406.511	417.5
406.889	452.53
407.267	444.85
407.645	454.79
408.023	456.37
408.401	463.38
408.779	469.93
409.156	481.91
409.534	476.03
409.912	470.16
410.29	468.12
410.667	480.33
411.045	470.61
411.422	497.28
411.8	475.13
412.178	490.95
412.555	486.2
412.933	489.14
413.31	491.63
413.687	486.88
414.065	515.58
414.442	517.16
414.819	514.68
415.197	528.69
415.574	514.68
415.951	525.52
416.328	528.23
416.705	528.46
417.082	502.47
417.46	541.79
417.837	539.31
418.214	529.59
418.591	532.75
418.967	537.73
419.344	543.38
419.721	547.67
420.098	549.93
420.475	559.19
420.852	560.78
421.228	543.83
421.605	574.34
421.982	565.3
422.358	577.05
422.735	561.68
423.111	573.43
423.488	569.59
423.864	578.4
424.241	604.39
424.617	585.41
424.994	604.62
425.37	608.01
425.746	613.88
426.123	610.27
426.499	606.65
426.875	608.91
427.251	648.46
427.627	660.66
428.003	634.67
428.379	655.46
428.756	639.64
429.132	640.55
429.507	682.35
429.883	676.93
430.259	666.31
430.635	687.78
431.011	677.16
431.387	660.43
431.763	683.26
432.138	704.28
432.514	699.98
432.89	705.63
433.265	697.5
433.641	719.64
434.016	721
434.392	724.39
434.767	759.42
435.143	753.09
435.518	741.56
435.894	729.36
436.269	758.51
436.644	773.2
437.02	744.73
437.395	755.8
437.77	776.82
438.145	788.11
438.52	796.02
438.895	801.45
439.271	767.78
439.646	803.26
440.021	795.12
440.395	801.45
440.77	781.79
441.145	812.07
441.52	798.28
441.895	821.11
442.27	867.89
442.645	821.56
443.019	857.49
443.394	852.97
443.769	829.47
444.143	829.7
444.518	859.75
444.892	840.77
445.267	852.07
445.641	876.47
446.016	875.57
446.39	873.76
446.764	854.78
447.139	855.46
447.513	901.78
447.887	885.97
448.262	907.66
448.636	887.55
449.01	906.53
449.384	899.3
449.758	902.24
450.132	916.25
450.506	903.82
450.88	931.39
451.254	940.43
451.628	904.04
452.002	933.2
452.376	940.43
452.75	951.5
453.123	937.49
453.497	947.66
453.871	961.44
454.244	987.21
454.618	995.79
454.992	989.01
455.365	1005.96
455.739	1009.8
456.112	1004.83
456.486	1045.74
456.859	1024.04
457.232	1021.33
457.606	1052.51
457.979	1038.96
458.352	1078.73
458.725	1066.3
459.099	1076.92
459.472	1095.45
459.845	1090.48
460.218	1075.79
460.591	1072.63
460.964	1099.75
461.337	1115.34
461.71	1148.56
462.083	1157.6
462.456	1140.87
462.829	1171.38
463.201	1143.13
463.574	1152.4
463.947	1178.39
464.32	1200.99
464.692	1226.75
465.065	1201.66
465.438	1222.45
465.81	1228.56
466.183	1261.1
466.555	1251.61
466.928	1254.09
467.3	1243.92
467.672	1273.3
468.045	1287.99
468.417	1285.28
468.789	1339.51
469.161	1338.16
469.534	1346.29
469.906	1350.59
470.278	1368.66
470.65	1368.89
471.022	1417.25
471.394	1399.85
471.766	1421.32
472.138	1422.67
472.51	1454.99
472.882	1457.48
473.253	1471.94
473.625	1499.06
473.997	1533.18
474.369	1524.37
474.74	1526.63
475.112	1574.08
475.484	1575.21
475.855	1584.7
476.227	1613.63
476.598	1653.18
476.97	1641.43
477.341	1709.45
477.713	1707.19
478.084	1722.33
478.455	1751.25
478.827	1751.03
479.198	1819.05
479.569	1808.43
479.94	1879.84
480.311	1876.67
480.682	1916.9
481.053	1945.82
481.424	1958.03
481.795	1946.05
482.166	2002.09
482.537	2022.66
482.908	2054.3
483.279	2101.98
483.65	2110.11
484.021	2179.72
484.391	2191.47
484.762	2213.16
485.133	2248.87
485.503	2247.29
485.874	2307.62
486.244	2304.69
486.615	2391.24
486.985	2424.91
487.356	2450.67
487.726	2461.29
488.097	2520.27
488.467	2510.1
488.837	2541.06
489.207	2612.47
489.578	2638.69
489.948	2633.94
490.318	2702.19
490.688	2734.96
491.058	2786.25
491.428	2786.93
491.798	2865.8
492.168	2900.6
492.538	2954.16
492.908	2946.48
493.278	3018.34
493.648	3040.71
494.017	3064.44
494.387	3088.17
494.757	3095.4
495.126	3142.86
495.496	3176.07
495.866	3197.77
496.235	3214.49
496.605	3272.57
496.974	3320.03
497.344	3291.78
497.713	3381.04
498.082	3395.5
498.452	3433.92
498.821	3444.54
499.19	3483.41
499.559	3490.87
499.928	3574.48
500.298	3572
500.667	3562.51
501.036	3645.89
501.405	3668.94
501.774	3675.72
502.143	3727.92
502.512	3762.95
502.88	3801.14
503.249	3785.1
503.618	3822.61
503.987	3860.58
504.356	3851.99
504.724	3900.35
505.093	3933.34
505.462	3957.07
505.83	4014.02
506.199	4056.05
506.567	4075.71
506.936	4078.42
507.304	4112.77
507.672	4154.13
508.041	4154.81
508.409	4203.84
508.777	4217.18
509.145	4294.69
509.514	4292.2
509.882	4327.46
510.25	4329.72
510.618	4382.82
510.986	4384.4
511.354	4434.12
511.722	4484.06
512.09	4506.89
512.458	4515.25
512.826	4520.22
513.193	4589.37
513.561	4605.87
513.929	4634.34
514.297	4670.05
514.664	4688.58
515.032	4717.05
515.4	4787.56
515.767	4803.38
516.135	4830.27
516.502	4831.85
516.869	4935.8
517.237	4928.12
517.604	4957.04
517.972	4986.2
518.339	5022.58
518.706	5049.25
519.073	5087.89
519.44	5090.6
519.808	5167.89
520.175	5173.76
520.542	5183.03
520.909	5255.57
521.276	5267.55
521.643	5262.57
522.009	5380.54
522.376	5385.51
522.743	5394.77
523.11	5475.68
523.477	5520.87
523.843	5508.67
524.21	5619.63
524.577	5627.99
524.943	5643.81
525.31	5696.01
525.676	5745.95
526.043	5772.84
526.409	5834.08
526.776	5843.58
527.142	5889.22
527.508	5912.95
527.874	5995.21
528.241	5987.75
528.607	6009.22
528.973	6010.8
529.339	6077.02
529.705	6094.87
530.071	6145.71
530.437	6192.49
530.803	6248.76
531.169	6255.54
531.535	6228.42
531.901	6283.34
532.267	6336.9
532.632	6370.57
532.998	6376.89
533.364	6397.68
533.73	6434.75
534.095	6448.08
534.461	6466.16
534.826	6489.89
535.192	6482.88
535.557	6602.65
535.923	6604.01
536.288	6600.62
536.653	6675.64
537.019	6641.07
537.384	6633.84
537.749	6752.7
538.114	6722.87
538.479	6811.46
538.845	6867.05
539.21	6826.6
539.575	6860.72
539.94	6879.71
540.305	6875.41
540.67	6983.21
541.034	6995.64
541.399	6992.7
541.764	7023.66
542.129	7016.65
542.494	7089.87
542.858	7165.57
543.223	7157.44
543.587	7152.92
543.952	7181.17
544.316	7224.56
544.681	7290.09
545.045	7280.37
545.41	7338.45
545.774	7398.56
546.138	7363.99
546.503	7367.15
546.867	7469.75
547.231	7474.04
547.595	7510.42
547.959	7506.81
548.324	7587.26
548.688	7615.73
549.052	7645.34
549.416	7613.25
549.779	7686.46
550.143	7750.64
550.507	7792
550.871	7834.03
551.235	7815.73
551.599	7902.05
551.962	7972.11
552.326	8087.36
552.689	8089.62
553.053	8067.47
553.417	8086.68
553.78	8260.23
554.143	8212.78
554.507	8303.4
554.87	8299.33
555.234	8431.3
555.597	8398.99
555.96	8457.29
556.323	8515.37
556.686	8521.47
557.05	8654.57
557.413	8717.4
557.776	8764.85
558.139	8778.64
558.502	8877.85
558.865	8951.52
559.228	8993.32
559.59	9052.76
559.953	9100.66
560.316	9245.07
560.679	9235.12
561.041	9435.8
561.404	9418.85
561.767	9455.91
562.129	9541.78
562.492	9745.62
562.854	9666.98
563.217	9770.03
563.579	9916.46
563.941	9982
564.304	10163.46
564.666	10159.85
565.028	10220.64
565.39	10286.85
565.753	10429.9
566.115	10509.44
566.477	10658.82
566.839	10730.68
567.201	10896.55
567.563	10940.84
567.925	11060.61
568.287	11168.63
568.648	11205.92
569.01	11346.93
569.372	11437.78
569.734	11578.79
570.095	11783.08
570.457	11992.57
570.819	12049.97
571.18	12179.68
571.542	12334.7
571.903	12480.69
572.265	12630.97
572.626	12768.36
572.987	12982.37
573.349	13172.2
573.71	13303.04
574.071	13468.69
574.432	13645.4
574.794	14064.15
575.155	14061.89
575.516	14213.52
575.877	14477.92
576.238	14665.49
576.599	14931.47
576.96	15173.27
577.32	15370.78
577.681	15624.11
578.042	15929.64
578.403	16083.98
578.763	16389.06
579.124	16557.19
579.485	16960.57
579.845	17262.03
580.206	17465.19
580.566	17730.04
580.927	18037.6
581.287	18454.54
581.648	18675.33
582.008	19032.83
582.368	19359.15
582.728	19755.07
583.089	19927.5
583.449	20268.05
583.809	20639.8
584.169	21039.79
584.529	21319.1
584.889	21960.44
585.249	22104.16
585.609	22348.23
585.969	22935.33
586.329	23277.24
586.688	23587.52
587.048	24181.85
587.408	24463.42
587.768	24856.63
588.127	25222.05
588.487	25669.27
588.846	26207.79
589.206	26528.23
589.565	26955.56
589.925	27578.6
590.284	27812.04
590.643	28356.43
591.003	28810.43
591.362	29422.62
591.721	29746
592.08	30162.03
592.44	30704.62
592.799	31225.05
593.158	31484.48
593.517	31995.2
593.876	32535.75
594.235	32970.77
594.593	33386.35
594.952	33982.95
595.311	34304.52
595.67	34918.52
596.029	35376.58
596.387	35929.56
596.746	36385.82
597.104	36743.55
597.463	37120.49
597.822	37840.02
598.18	37864.65
598.538	38568.82
598.897	39041.57
599.255	39124.73
599.613	40114.99
599.972	40298.94
600.33	40707.97
600.688	41145.02
601.046	41613.93
601.404	42240.58
601.762	42382.73
602.12	42935.26
602.478	43325.53
602.836	43574.56
603.194	43788.79
603.552	44310.81
603.91	44518.94
604.268	45150.34
604.625	45226.72
604.983	45713.04
605.341	45873.71
605.698	46465.11
606.056	46697.87
606.413	47020.57
606.771	47254.69
607.128	47485.42
607.485	47711.85
607.843	48018.29
608.2	48318.39
608.557	48554.32
608.914	48776.46
609.272	49174.87
609.629	49437.68
609.986	49728.3
610.343	49705.25
610.7	50156.08
611.057	50267.49
611.414	50356.76
611.771	50498.45
612.127	50737.99
612.484	50940.92
612.841	51165.77
613.198	51138.43
613.554	51346.11
613.911	51596.04
614.267	51654.57
614.624	51722.59
614.98	51996.26
615.337	52220.89
615.693	52260.66
616.05	52362.13
616.406	52545.17
616.762	52532.74
617.118	52646.41
617.475	52638.95
617.831	52874.2
618.187	53036.23
618.543	53106.74
618.899	53243.91
619.255	53306.51
619.611	53321.87
619.967	53406.62
620.323	53683.45
620.678	53491.36
621.034	53505.6
621.39	53527.07
621.746	53513.28
622.101	53947.17
622.457	53730.23
622.812	53756.21
623.168	53934.97
623.523	53967.73
623.879	54151.68
624.234	53947.4
624.589	54116.66
624.945	54139.71
625.3	54232.59
625.655	54240.72
626.01	54301.74
626.365	54287.5
626.72	54344.9
627.075	54311
627.43	54341.73
627.785	54370.21
628.14	54431.22
628.495	54494.95
628.85	54422.64
629.205	54408.17
629.559	54593.25
629.914	54483.2
630.269	54514.61
630.623	54413.82
630.978	54433.48
631.332	54656.98
631.687	54621.5
632.041	54467.16
632.396	54594.61
632.75	54555.74
633.104	54577.21
633.459	54354.62
633.813	54501.05
634.167	54452.24
634.521	54478
634.875	54502.86
635.229	54497.66
635.583	54446.59
635.937	54408.17
636.291	54363.88
636.645	54449.75
636.999	54379.7
637.352	54424.22
637.706	54288.86
638.06	54374.95
638.413	54336.31
638.767	54174.51
639.121	54347.16
639.474	54178.35
639.828	54195.07
640.181	54353.49
640.534	54285.92
640.888	54235.3
641.241	54196.2
641.594	54152.81
641.947	54308.97
642.301	54185.81
642.654	54128.41
643.007	54160.27
643.36	54171.57
643.713	54157.11
644.066	54249.53
644.419	54043.89
644.771	53726.61
645.124	53524.81
645.477	53527.29
645.83	53310.58
646.182	53289.79
646.535	53200.52
646.888	53348.09
647.24	53184.03
647.593	53351.7
647.945	53293.63
648.298	53164.36
648.65	53040.07
649.002	53012.96
649.355	53155.55
649.707	53097.47
650.059	53187.42
650.411	53581.53
650.763	53620.4
651.115	53847.06
651.467	53816.78
651.819	53789.66
652.171	53760.73
652.523	53720.51
652.875	53685.26
653.227	53596.9
653.578	53873.72
653.93	53735.65
654.282	53638.02
654.633	53590.12
654.985	53701.3
655.337	53709.21
655.688	53674.86
656.039	53743.56
656.391	53446.17
656.742	53642.54
657.094	53618.36
657.445	53684.13
657.796	53623.11
658.147	53625.6
658.498	53563.9
658.849	53536.56
659.2	53551.93
659.551	53513.06
659.902	53634.41
660.253	53556.22
660.604	53645.26
660.955	53421.76
661.306	53533.62
661.656	53512.6
662.007	53528.65
662.358	53596.67
662.708	53507.86
663.059	53512.6
663.409	53316.45
663.76	53505.82
664.11	53581.53
664.461	53560.96
664.811	53607.74
665.161	53401.87
665.511	53439.61
665.862	53408.43
666.212	53511.02
666.562	53611.13
666.912	53506.95
667.262	53381.99
667.612	53413.62
667.962	53407.3
668.312	53377.47
668.662	53494.98
669.011	53417.92
669.361	53363
669.711	53348.54
670.06	53319.16
670.41	53295.66
670.76	53237.81
671.109	53328.88
671.459	53262.67
671.808	53183.57
672.157	53247.53
672.507	53086.85
672.856	53008.21
673.205	53170.01
673.554	53230.35
673.904	53044.82
674.253	53202.56
674.602	53058.6
674.951	52710.82
675.3	52542.91
675.649	52974.77
675.998	52902.22
676.346	52964.14
676.695	53078.27
677.044	52812.28
677.393	52879.63
677.741	52890.25
678.09	52854.32
678.438	52774.77
678.787	52873.98
679.135	52853.86
679.484	52570.93
679.832	52690.7
680.181	52633.31
680.529	52659.52
680.877	52559.86
681.225	52622.68
681.573	52726.41
681.922	52471.05
682.27	52299.3
682.618	52437.15
682.966	52354.67
683.314	52364.16
683.661	52254.78
684.009	52110.83
684.357	52085.98
684.705	52012.76
685.053	52149.25
685.4	52030.84
685.748	51938.18
686.095	51788.58
686.443	51805.3
686.79	51771.41
687.138	51832.87
687.485	51618.42
687.832	51642.6
688.18	51655.7
688.527	51490.51
688.874	51504.52
689.221	51444.64
689.568	51286.67
689.915	51158.77
690.262	51264.75
690.609	51088.26
690.956	51006.46
691.303	50898.44
691.65	50729.85
691.997	50779.12
692.344	50549.52
692.69	50490.54
693.037	50700.7
693.383	50294.84
693.73	50406.02
694.077	50311.11
694.423	50196.76
694.769	50193.14
695.116	50076.76
695.462	49968.97
695.808	49790.89
696.155	49886.71
696.501	49591.8
696.847	49652.59
697.193	49386.84
697.539	49442.88
697.885	49165.37
698.231	49159.5
698.577	48983.68
698.923	48922.44
699.269	48731.49
699.614	48478.84
699.96	48680.41
700.306	48560.42
700.651	48427.54
700.997	48206.98
701.342	48232.52
701.688	48131.73
702.033	47967.21
702.379	48034.56
702.724	47815.58
703.069	47992.52
703.415	47370.62
703.76	47459.43
704.105	47533.55
704.45	47420.79
704.795	47206.56
705.14	46993
705.485	47055.15
705.83	46776.28
706.175	46953.45
706.52	46732.67
706.865	46598.66
707.209	46576.06
707.554	46333.58
707.899	46461.04
708.243	46325.9
708.588	46212.46
708.932	45906.02
709.277	45954.38
709.621	45902.41
709.966	45695.63
710.31	45802.52
710.654	45370.22
710.998	45554.62
711.342	45507.17
711.687	45384.91
712.031	45163.67
712.375	45068.08
712.719	45223.33
713.063	45032.6
713.407	45255.87
713.75	44974.52
714.094	44981.3
714.438	44673.74
714.782	44702.67
715.125	44543.12
715.469	44671.25
715.812	44405.95
716.156	44323.02
716.499	44209.57
716.843	44247.99
717.186	44027.88
717.53	44222
717.873	44192.4
718.216	44010.48
718.559	43880.54
718.902	43669.25
719.246	43760.54
719.589	43607.1
719.932	43669.7
720.275	43645.29
720.617	43550.15
720.96	43501.12
721.303	43303.61
721.646	43475.81
721.989	43092.31
722.331	43373.66
722.674	43124.18
723.016	43152.65
723.359	43048.25
723.701	43138.87
724.044	42815.94
724.386	42645.09
724.729	42804.86
725.071	42610.29
725.413	42718.09
725.755	42588.6
726.097	42490.52
726.439	42352.22
726.782	42363.74
727.124	42453.23
727.465	42314.48
727.807	42238.55
728.149	42332.11
728.491	42268.83
728.833	42297.76
729.175	42085.56
729.516	42000.59
729.858	42032.91
730.199	42069.52
730.541	41940.93
730.882	41801.05
731.224	41961.72
731.565	41706.14
731.906	41843.53
732.248	41893.7
732.589	41685.34
732.93	41479.47
733.271	41469.98
733.612	41422.3
733.953	41502.07
734.294	41394.05
734.635	41248.97
734.976	41327.16
735.317	41086.04
735.658	41138.92
735.999	41195.41
736.339	41123.55
736.68	41230.44
737.021	41043.33
737.361	40954.97
737.702	41009.88
738.042	40931.01
738.383	40836.1
738.723	41075.87
739.063	40876.55
739.404	40740.28
739.744	40773.05
740.084	40555.43
740.424	40759.49
740.764	40639.27
741.104	40765.59
741.444	40522.89
741.784	40291.03
742.124	40507.3
742.464	40499.39
742.804	40395.66
743.143	40265.49
743.483	40206.29
743.823	39952.51
744.162	40122.22
744.502	40167.87
744.841	39999.06
745.181	40089.91
745.52	39924.26
745.86	40081.77
746.199	39887.43
746.538	39782.8
746.877	40086.29
747.216	39885.17
747.556	39837.48
747.895	39873.64
748.234	39628.9
748.573	39575.12
748.911	39588.45
749.25	39583.03
749.589	39393.2
749.928	39344.62
750.267	39511.16
750.605	39407.89
750.944	39231.85
751.283	39145.98
751.621	39157.95
751.96	39006.54
752.298	38900.79
752.636	38949.82
752.975	38836.61
753.313	38711.41
753.651	38874.12
753.989	38690.17
754.327	38676.61
754.666	38371.08
755.004	38355.71
755.342	38541.25
755.679	38367.92
756.017	38309.84
756.355	38267.58
756.693	38074.37
757.031	38129.51
757.368	37955.95
757.706	37850.42
758.044	37622.4
758.381	37715.05
758.719	37654.26
759.056	37711.21
759.394	37534.72
759.731	37320.94
760.068	37191.23
760.405	37085.69
760.743	37045.92
761.08	37038.46
761.417	36782.42
761.754	36822.65
762.091	36795.98
762.428	36569.55
762.765	36464.46
763.102	36547.85
763.438	36266.05
763.775	36245.26
764.112	36272.38
764.449	36295.2
764.785	36026.51
765.122	35804.6
765.458	35685.5
765.795	35665.62
766.131	35548.1
766.467	35486.86
766.804	35297.72
767.14	35213.42
767.476	35070.6
767.812	35004.62
768.148	35125.29
768.485	34767.11
768.821	34568.7
769.157	34569.15
769.492	34443.28
769.828	34387.46
770.164	34112.89
770.5	34123.51
770.836	34068.6
771.171	33941.82
771.507	33940.24
771.842	33565.11
772.178	33403.08
772.513	33522.85
772.849	33348.84
773.184	33302.06
773.519	33202.18
773.855	33125.34
774.19	32770.78
774.525	32948.17
774.86	32801.51
775.195	32755.18
775.53	32579.14
775.865	32303.67
776.2	32183
776.535	32038.82
776.87	32006.73
777.205	31841.08
777.539	31682.67
777.874	31856.22
778.209	31533.07
778.543	31454.43
778.878	31175.11
779.212	31166.75
779.547	31128.79
779.881	31153.87
780.215	30880.88
780.55	30921.56
780.884	30839.3
781.218	30623.71
781.552	30547.78
781.886	30511.85
782.22	30203.84
782.554	30261.69
782.888	30005.43
783.222	29909.16
783.556	29815.83
783.889	29694.47
784.223	29470.52
784.557	29458.1
784.89	29514.37
785.224	29456.51
785.557	29215.84
785.891	29136.52
786.224	29037.99
786.558	28944.21
786.891	28601.62
787.224	28638.91
787.557	28620.15
787.891	28499.93
788.224	28558.46
788.557	28456.31
788.89	28412.02
789.223	28316.43
789.556	28109.2
789.888	28115.08
790.221	27842.77
790.554	27754.86
790.887	27721.64
791.219	27604.36
791.552	27533.17
791.884	27485.72
792.217	27262.45
792.549	27250.92
792.882	27084.15
793.214	26916.92
793.546	27037.14
793.879	26791.27
794.211	26753.08
794.543	26704.04
794.875	26557.61
795.207	26778.62
795.539	26459.53
795.871	26517.16
796.203	26221.12
796.535	26161.91
796.867	26208.69
797.198	25974.12
797.53	26066.32
797.862	25842.6
798.193	25778.64
798.525	25673.34
798.856	25682.38
799.188	25414.59
799.519	25345.66
799.85	25339.33
800.182	25282.39
800.513	25428.37
800.844	25010.53
801.175	25166
801.506	25019.79
801.837	24883.07
802.168	24736.19
802.499	24728.28
802.83	24647.6
803.161	24540.26
803.491	24576.87
803.822	24588.17
804.153	24440.83
804.483	24198.57
804.814	24111.8
805.145	24100.27
805.475	24170.1
805.805	23981.18
806.136	24044.9
806.466	24125.81
806.796	23987.73
807.126	23782.99
807.457	23661.19
807.787	23767.17
808.117	23540.06
808.447	23489.89
808.777	23538.48
809.107	23435.88
809.436	23384.81
809.766	23351.82
810.096	23288.54
810.426	23173.97
810.755	23228.88
811.085	23049.22
811.414	23159.73
811.744	22891.26
812.073	22901.21
812.403	22906.4
812.732	22642.68
813.061	22681.1
813.39	22550.71
813.719	22471.84
814.049	22565.62
814.378	22395.68
814.707	22352.52
815.036	22407.66
815.365	22188.68
815.693	22027.56
816.022	22079.53
816.351	21988.01
816.68	21825.3
817.008	21964.73
817.337	21789.37
817.665	21778.75
817.994	21791.63
818.322	21692.42
818.651	21564.97
818.979	21563.84
819.307	21656.72
819.636	21564.97
819.964	21460.34
820.292	21542.15
820.62	21376.73
820.948	21345.99
821.276	21523.39
821.604	21358.2
821.932	21344.18
822.259	21477.29
822.587	21313
822.915	21244.75
823.243	21429.15
823.57	21192.32
823.898	21349.83
824.225	21328.82
824.553	21239.1
824.88	21289.04
825.207	21306.22
825.535	21318.2
825.862	21329.27
826.189	21225.77
826.516	21359.1
826.843	21444.52
827.17	21468.93
827.497	21371.08
827.824	21294.69
828.151	21340.57
828.478	21380.57
828.805	21311.64
829.131	21268.25
829.458	21227.13
829.785	21035.04
830.111	21242.94
830.438	21215.6
830.764	21186.45
831.09	21246.79
831.417	21062.61
831.743	21282.49
832.069	21218.76
832.395	21104.64
832.722	21115.49
833.048	20984.87
833.374	21070.29
833.7	21003.63
834.026	21029.62
834.351	21049.05
834.677	21084.08
835.003	21020.35
835.329	21034.59
835.654	20947.36
835.98	20901.48
836.306	20857.42
836.631	20905.55
836.956	20923.86
837.282	20831.66
837.607	20854.93
837.932	20775.16
838.258	20732
838.583	20741.49
838.908	20529.52
839.233	20583.98
839.558	20574.04
839.883	20463.53
840.208	20474.38
840.533	20451.1
840.858	20461.27
841.182	20509.86
841.507	20334.95
841.832	20292.46
842.156	20282.74
842.481	20309.64
842.805	20056.76
843.13	20179.02
843.454	20188.96
843.778	20073.48
844.103	20075.29
844.427	19886.14
844.751	19962.98
845.075	19811.57
845.399	19767.5
845.723	19713.49
846.047	19786.94
846.371	19616.55
846.695	19614.74
847.019	19304.01
847.343	19400.05
847.666	19166.16
847.99	19180.63
848.313	19161.42
848.637	19117.8
848.96	18983.34
849.284	19053.85
849.607	18850.24
849.931	18763.69
850.254	18708.1
850.577	18568.66
850.9	18349.01
851.223	18345.17
851.546	18382.91
851.869	18298.61
852.192	18305.39
852.515	18104.72
852.838	18043.03
853.161	18026.53
853.483	17884.84
853.806	17870.6
854.129	17824.05
854.451	17728.01
854.774	17731.4
855.096	17613.21
855.419	17579.31
855.741	17517.39
856.063	17392.88
856.385	17338.41
856.708	17309.49
857.03	17213.67
857.352	17307.23
857.674	17192.43
857.996	17038.08
858.318	16988.59
858.64	17068.59
858.961	17005.09
859.283	16874.25
859.605	16776.4
859.926	16945.43
860.248	16775.72
860.57	16749.73
860.891	16910.18
861.212	16704.76
861.534	16645.55
861.855	16601.26
862.176	16670.64
862.498	16642.84
862.819	16608.26
863.14	16544.08
863.461	16451.21
863.782	16403.75
864.103	16509.28
864.424	16444.43
864.745	16498.66
865.065	16327.14
865.386	16238.78
865.707	16252.34
866.027	16259.12
866.348	16168.73
866.668	16120.14
866.989	15999.69
867.309	15987.94
867.63	16014.16
867.95	16025
868.27	16022.29
868.59	16013.93
868.91	15908.62
869.23	15895.51
869.55	15839.7
869.87	15903.65
870.19	15816.19
870.51	15865.46
870.83	15880.15
871.15	15737.55
871.469	15723.54
871.789	15695.97
872.109	15728.96
872.428	15627.72
872.748	15648.52
873.067	15579.59
873.386	15645.35
873.706	15570.55
874.025	15480.38
874.344	15495.75
874.663	15569.65
874.982	15557.22
875.301	15405.81
875.62	15345.02
875.939	15432.7
876.258	15299.37
876.577	15318.35
876.896	15299.15
877.214	15236.55
877.533	15269.32
877.852	15228.19
878.17	15192.93
878.489	15171.69
878.807	15151.58
879.125	15132.37
879.444	15046.5
879.762	15091.24
880.08	15043.11
880.398	14967.4
880.716	15008.31
881.034	14875.88
881.352	14980.51
881.67	14860.29
881.988	14985.48
882.306	14860.29
882.624	14840.4
882.941	14682.44
883.259	14718.6
883.577	14653.29
883.894	14652.61
884.212	14597.24
884.529	14636.79
884.846	14604.93
885.164	14487.19
885.481	14398.83
885.798	14469.56
886.115	14277.25
886.432	14308.89
886.75	14273.41
887.067	14344.82
887.383	14239.29
887.7	14301.43
888.017	14181.44
888.334	14204.03
888.651	14088.56
888.967	14152.28
889.284	13934.21
889.6	13974.89
889.917	13926.3
890.233	13995
890.55	13884.95
890.866	13873.65
891.182	13847.21
891.498	13790.71
891.815	13708.91
892.131	13648.79
892.447	13693.99
892.763	13590.04
893.079	13621.22
893.395	13510.72
893.71	13514.33
894.026	13464.39
894.342	13454.67
894.657	13249.03
894.973	13277.73
895.289	13358.86
895.604	13326.77
895.92	13173.33
896.235	13158.19
896.55	13072.99
896.865	13094.46
897.181	13055.36
897.496	13029.83
897.811	12932.43
898.126	13004.97
898.441	12847.46
898.756	12843.84
899.071	12763.62
899.386	12714.81
899.7	12675.03
900.015	12590.06
900.33	12517.52
900.644	12560.01
900.959	12507.35
901.273	12389.84
901.588	12428.26
901.902	12251.99
902.216	12297.64
902.531	12228.94
902.845	12223.07
903.159	12076.63
903.473	12072.34
903.787	11996.41
904.101	11986.46
904.415	12029.85
904.729	11915.51
905.042	11854.04
905.356	11898.33
905.67	11846.13
905.984	11788.28
906.297	11777.2
906.611	11659.69
906.924	11648.17
907.237	11622.18
907.551	11504.22
907.864	11508.51
908.177	11492.01
908.491	11464.9
908.804	11424.9
909.117	11313.26
909.43	11314.17
909.743	11286.6
910.056	11169.54
910.368	11113.72
910.681	11075.3
910.994	11020.16
911.307	10944.46
911.619	10902.43
911.932	10894.74
912.244	10864.01
912.557	10831.69
912.869	10726.38
913.181	10698.14
913.494	10718.7
913.806	10643
914.118	10526.39
914.43	10468.09
914.742	10464.02
915.054	10423.79
915.366	10416.56
915.678	10295.44
915.99	10306.06
916.302	10201.2
916.613	10190.13
916.925	10181.99
917.236	10143.8
917.548	10115.78
917.859	10009.57
918.171	10056.57
918.482	9919.63
918.794	9911.04
919.105	9916.69
919.416	9872.62
919.727	9849.57
920.038	9777.48
920.349	9733.64
920.66	9675.56
920.971	9626.98
921.282	9605.06
921.593	9551.5
921.903	9521.67
922.214	9497.26
922.525	9421.33
922.835	9383.14
923.146	9329.81
923.456	9331.85
923.767	9230.83
924.077	9137.95
924.387	9226.31
924.697	9164.84
925.008	9132.53
925.318	9132.53
925.628	9059.76
925.938	8980.89
926.248	8913.78
926.558	8891.63
926.867	8855.93
927.177	8858.41
927.487	8757.85
927.796	8743.84
928.106	8656.83
928.416	8714.69
928.725	8670.17
929.034	8575.03
929.344	8592.88
929.653	8586.33
929.962	8496.39
930.271	8442.83
930.581	8478.99
930.89	8344.98
931.199	8364.86
931.508	8316.73
931.817	8305.88
932.125	8247.81
932.434	8156.06
932.743	8166.45
933.051	8180.69
933.36	8108.83
933.669	8051.2
933.977	8048.04
934.286	7981.37
934.594	7991.77
934.902	7871.09
935.21	7845.56
935.519	7880.58
935.827	7801.49
936.135	7772.34
936.443	7723.53
936.751	7705.67
937.059	7628.39
937.367	7584.32
937.674	7596.3
937.982	7575.28
938.29	7523.08
938.597	7485.34
938.905	7419.58
939.213	7399.47
939.52	7388.17
939.827	7341.61
940.135	7370.54
940.442	7315.63
940.749	7300.49
941.056	7290.32
941.363	7202.86
941.67	7216.42
941.977	7166.25
942.284	7114.95
942.591	7033.15
942.898	7010.1
943.205	7064.56
943.511	7001.06
943.818	7031.57
944.125	6956.31
944.431	6886.71
944.738	6925.35
945.044	6814.17
945.35	6858.01
945.657	6758.58
945.963	6747.28
946.269	6737.11
946.575	6724.23
946.881	6646.72
947.187	6707.51
947.493	6619.15
947.799	6585.02
948.105	6525.37
948.41	6551.35
948.716	6505.48
949.022	6482.88
949.327	6408.76
949.633	6357.23
949.938	6334.18
950.244	6390.45
950.549	6313.85
950.854	6224.36
951.16	6263.45
951.465	6286.5
951.77	6254.64
952.075	6201.76
952.38	6177.58
952.685	6145.04
952.99	6082.89
953.294	6083.57
953.599	6053.97
953.904	5943.23
954.209	5985.27
954.513	5956.79
954.818	5942.56
955.122	5926.74
955.426	5856.68
955.731	5873.86
956.035	5783.24
956.339	5803.8
956.643	5813.75
956.948	5736.23
957.252	5712.05
957.556	5729.23
957.86	5694.88
958.163	5636.35
958.467	5665.5
958.771	5636.8
959.075	5624.37
959.378	5552.28
959.682	5517.26
959.985	5543.02
960.289	5496.69
960.592	5426.86
960.896	5436.13
961.199	5394.32
961.502	5373.31
961.805	5368.33
962.108	5347.54
962.411	5283.59
962.714	5250.37
963.017	5274.55
963.32	5250.6
963.623	5193.65
963.926	5219.41
964.228	5186.42
964.531	5141.9
964.833	5181.22
965.136	5081.11
965.438	5118.85
965.741	5042.92
966.043	5041.11
966.345	4981
966.648	4989.81
966.95	4989.36
967.252	4926.99
967.554	4970.6
967.856	4896.48
968.158	4867.56
968.46	4865.97
968.761	4830.49
969.063	4785.75
969.365	4767.45
969.666	4770.84
969.968	4721.8
970.269	4699.42
970.571	4742.14
970.872	4684.28
971.174	4642.93
971.475	4653.78
971.776	4611.52
972.077	4575.81
972.378	4574.91
972.679	4585.98
972.98	4574.91
973.281	4528.58
973.582	4538.07
973.883	4438.64
974.183	4457.62
974.484	4472.99
974.785	4414.23
975.085	4372.2
975.386	4450.62
975.686	4367.46
975.986	4396.38
976.287	4338.98
976.587	4311.19
976.887	4300.34
977.187	4242.94
977.487	4267.57
977.787	4235.93
978.087	4214.47
978.387	4182.6
978.687	4175.6
978.987	4179.66
979.286	4170.62
979.586	4114.36
979.885	4083.4
980.185	4076.39
980.484	4063.96
980.784	4034.81
981.083	4003.62
981.382	3984.19
981.682	3960.23
981.981	3993
982.28	3956.39
982.579	3907.13
982.878	3894.7
983.177	3854.7
983.475	3880.91
983.774	3870.97
984.073	3814.93
984.372	3805.44
984.67	3793.46
984.969	3802.95
985.267	3806.34
985.566	3780.8
985.864	3747.59
986.162	3734.93
986.461	3715.27
986.759	3645.89
987.057	3645.89
987.355	3649.96
987.653	3626.68
987.951	3618.32
988.249	3590.08
988.547	3669.85
988.844	3554.6
989.142	3573.13
989.44	3530.19
989.737	3502.39
990.035	3502.39
990.332	3484.99
990.63	3458.1
990.927	3460.81
991.224	3381.04
991.521	3416.29
991.819	3393.02
992.116	3364.09
992.413	3405
992.71	3343.75
993.006	3338.78
993.303	3311.21
993.6	3305.34
993.897	3285.22
994.193	3271.21
994.49	3252.46
994.787	3207.49
995.083	3222.85
995.379	3235.73
995.676	3212.01
995.972	3167.04
996.268	3133.36
996.565	3139.24
996.861	3123.65
997.157	3113.7
997.453	3076.64
997.749	3078
998.044	3070.09
998.34	3063.54
998.636	3056.08
998.932	3054.04
999.227	3007.94
999.523	2974.05
999.818	2951.22
1000.114	2949.64
1000.409	2913.71
1000.704	2910.54
1001	2868.29
1001.295	2875.07
1001.59	2882.3
1001.885	2887.27
1002.18	2842.52
1002.475	2792.58
1002.77	2813.82
1003.065	2809.53
1003.359	2797.78
1003.654	2751.45
1003.949	2719.82
1004.243	2692.92
1004.538	2685.92
1004.832	2701.96
1005.127	2681.4
1005.421	2658.35
1005.715	2618.35
1006.009	2624.45
1006.304	2627.16
1006.598	2574.06
1006.892	2578.8
1007.186	2549.2
1007.48	2566.83
1007.773	2568.86
1008.067	2537.22
1008.361	2514.4
1008.655	2508.07
1008.948	2493.83
1009.242	2476.66
1009.535	2445.25
1009.829	2406.6
1010.122	2405.02
1010.415	2394.85
1010.708	2390.56
1011.001	2381.97
1011.295	2360.5
1011.588	2353.72
1011.881	2348.98
1012.173	2313.72
1012.466	2311.01
1012.759	2287.96
1013.052	2330.9
1013.344	2294.74
1013.637	2241.18
1013.93	2272.14
1014.222	2224.24
1014.514	2206.83
1014.807	2199.83
1015.099	2170.68
1015.391	2169.55
1015.683	2168.42
1015.976	2159.6
1016.268	2127.97
1016.56	2121.41
1016.851	2118.7
1017.143	2097.91
1017.435	2089.55
1017.727	2073.28
1018.018	2085.26
1018.31	2053.84
1018.602	2049.55
1018.893	1974.98
1019.185	2014.07
1019.476	1968.42
1019.767	1979.27
1020.058	1952.83
1020.35	1916.9
1020.641	1935.88
1020.932	1906.5
1021.223	1921.42
1021.514	1884.58
1021.804	1847.52
1022.095	1874.19
1022.386	1852.95
1022.677	1831.48
1022.967	1811.14
1023.258	1841.65
1023.548	1791.93
1023.839	1793.74
1024.129	1744.02
1024.419	1737.47
1024.709	1737.92
1025	1753.97
1025.29	1744.25
1025.58	1719.84
1025.87	1704.25
1026.16	1682.55
1026.449	1692.5
1026.739	1679.62
1027.029	1685.04
1027.319	1674.42
1027.608	1629.45
1027.898	1634.65
1028.187	1584.93
1028.477	1590.35
1028.766	1573.4
1029.055	1557.36
1029.344	1570.02
1029.634	1553.07
1029.923	1544.71
1030.212	1514.88
1030.501	1532.73
1030.79	1524.82
1031.078	1459.74
1031.367	1501.54
1031.656	1489.79
1031.945	1472.62
1032.233	1455.89
1032.522	1446.18
1032.81	1429.45
1033.099	1416.35
1033.387	1405.95
1033.675	1403.47
1033.963	1346.52
1034.251	1393.3
1034.54	1381.77
1034.828	1368.44
1035.116	1352.62
1035.403	1356.46
1035.691	1323.92
1035.979	1325.28
1036.267	1310.36
1036.554	1318.5
1036.842	1290.02
1037.129	1296.35
1037.417	1294.99
1037.704	1254.77
1037.992	1253.64
1038.279	1274.43
1038.566	1252.96
1038.853	1252.96
1039.14	1252.96
