Data from orange_diffuse_book_FLMS001491_00019.txt Node
Date: Wed Feb 08 15:29:12 GMT 2017
User: dcchb
Spectrometer: FLMS00149
Trigger mode: 0
Integration Time (sec): 2.000000E-2
Scans to average: 10
Electric dark correction enabled: true
Nonlinearity correction enabled: false
Boxcar width: 0
XAxis mode: Wavelengths
Number of Pixels in Spectrum: 2048
>>>>>Begin Spectral Data<<<<<
341.393	-6.03
341.776	-6.03
342.16	-6.03
342.543	-61.4
342.927	-65.01
343.31	-65.92
343.693	-62.53
344.077	-55.3
344.46	-78.8
344.843	-39.7
345.226	-38.12
345.61	-56.65
345.993	-33.83
346.376	1.88
346.759	1.43
347.142	34.65
347.525	38.26
347.908	61.76
348.291	71.48
348.674	103.12
349.057	118.26
349.44	105.38
349.823	146.06
350.206	164.13
350.588	208.43
350.971	218.14
351.354	238.71
351.737	236.22
352.119	253.85
352.502	254.3
352.884	285.03
353.267	328.88
353.65	292.94
354.032	313.73
354.414	312.38
354.797	319.84
355.179	325.26
355.562	335.2
355.944	320.74
356.326	358.25
356.709	335.2
357.091	338.82
357.473	349.44
357.855	339.04
358.238	362.09
358.62	335.66
359.002	348.54
359.384	335.2
359.766	355.32
360.148	344.24
360.53	357.58
360.912	348.31
361.294	340.85
361.676	353.06
362.057	346.95
362.439	343.79
362.821	357.8
363.203	340.17
363.584	318.03
363.966	340.17
364.348	335.43
364.729	320.06
365.111	315.09
365.493	335.88
365.874	340.17
366.256	321.64
366.637	332.94
367.019	319.84
367.4	325.03
367.781	330.23
368.163	337.01
368.544	304.47
368.925	331.14
369.306	333.85
369.688	337.01
370.069	315.09
370.45	320.97
370.831	327.97
371.212	329.78
371.593	315.99
371.974	328.2
372.355	339.95
372.736	320.74
373.117	339.72
373.498	349.67
373.879	341.76
374.26	334.3
374.641	309.89
375.021	333.4
375.402	331.81
375.783	338.82
376.163	351.25
376.544	320.97
376.925	352.38
377.305	336.33
377.686	329.55
378.066	336.33
378.447	340.63
378.827	346.5
379.208	315.99
379.588	337.46
379.968	344.02
380.349	344.24
380.729	337.01
381.109	348.31
381.489	349.67
381.87	346.95
382.25	335.2
382.63	330.46
383.01	335.43
383.39	369.1
383.77	354.64
384.15	349.44
384.53	338.82
384.91	359.38
385.29	361.19
385.67	360.29
386.049	359.38
386.429	367.29
386.809	348.31
387.189	350.57
387.568	356.67
387.948	348.54
388.328	367.74
388.707	370.91
389.087	373.85
389.466	381.3
389.846	351.25
390.225	362.09
390.605	354.86
390.984	400.74
391.363	371.81
391.743	357.12
392.122	376.78
392.501	370.23
392.881	391.02
393.26	366.39
393.639	383.34
394.018	377.24
394.397	386.5
394.776	391.7
395.155	395.77
395.534	382.66
395.913	382.21
396.292	375.88
396.671	406.39
397.05	393.96
397.429	380.63
397.808	414.07
398.186	389.44
398.565	413.62
398.944	406.16
399.323	395.77
399.701	404.81
400.08	385.6
400.458	401.87
400.837	412.04
401.215	418.14
401.594	409.1
401.972	427.18
402.351	393.51
402.729	427.86
403.107	415.2
403.486	403.22
403.864	424.24
404.242	409.55
404.62	426.73
404.999	440.96
405.377	439.83
405.755	426.5
406.133	435.77
406.511	440.74
406.889	457.01
407.267	446.84
407.645	445.26
408.023	456.78
408.401	466.27
408.779	452.71
409.156	449.78
409.534	459.27
409.912	475.54
410.29	467.63
410.667	493.84
411.045	483
411.422	468.98
411.8	479.83
412.178	489.55
412.555	487.97
412.933	486.84
413.31	494.07
413.687	509.44
414.065	509.66
414.442	498.36
414.819	487.74
415.197	507.85
415.574	492.04
415.951	497.68
416.328	522.77
416.705	526.61
417.082	501.98
417.46	522.32
417.837	524.12
418.214	515.54
418.591	532.71
418.967	534.07
419.344	545.37
419.721	538.36
420.098	551.92
420.475	545.82
420.852	585.37
421.228	527.74
421.605	555.54
421.982	565.71
422.358	568.42
422.735	564.35
423.111	563.22
423.488	571.81
423.864	586.27
424.241	587.63
424.617	591.69
424.994	570.23
425.37	585.59
425.746	584.91
426.123	605.93
426.499	596.67
426.875	619.72
427.251	607.06
427.627	641.86
428.003	614.97
428.379	634.4
428.756	636.89
429.132	646.38
429.507	636.66
429.883	624.46
430.259	622.2
430.635	661.3
431.011	649.77
431.387	656.55
431.763	664.23
432.138	668.3
432.514	653.61
432.89	702.43
433.265	694.97
433.641	695.42
434.016	683.89
434.392	728.64
434.767	712.59
435.143	717.34
435.518	738.36
435.894	746.27
436.269	740.62
436.644	734.29
437.02	754.4
437.395	749.2
437.77	749.88
438.145	760.05
438.52	790.33
438.895	779.49
439.271	785.13
439.646	789.65
440.021	811.12
440.395	804.12
440.77	791.69
441.145	824.68
441.52	796.43
441.895	813.83
442.27	824
442.645	817.9
443.019	841.18
443.394	811.8
443.769	856.32
444.143	831.01
444.518	853.16
444.892	833.04
445.267	865.58
445.641	850.22
446.016	862.19
446.39	843.21
446.764	853.38
447.139	870.78
447.513	899.71
447.887	868.07
448.262	885.47
448.636	875.08
449.01	880.27
449.384	885.47
449.758	910.33
450.132	906.26
450.506	891.57
450.88	906.49
451.254	913.72
451.628	915.3
452.002	942.42
452.376	913.27
452.75	935.87
453.123	950.78
453.497	967.5
453.871	981.97
454.244	971.57
454.618	978.8
454.992	998.91
455.365	968.63
455.739	1020.61
456.112	1005.02
456.486	1020.83
456.859	1022.64
457.232	1027.84
457.606	1036.88
457.979	1035.52
458.352	1069.65
458.725	1065.13
459.099	1053.38
459.472	1066.03
459.845	1083.66
460.218	1060.16
460.591	1088.4
460.964	1075.07
461.337	1157.33
461.71	1118.69
462.083	1142.64
462.456	1148.97
462.829	1136.76
463.201	1152.81
463.574	1161.85
463.947	1173.6
464.32	1210.21
464.692	1196.2
465.065	1175.41
465.438	1202.98
465.81	1198.91
466.183	1221.96
466.555	1238.23
466.928	1219.7
467.3	1258.12
467.672	1265.12
468.045	1270.55
468.417	1288.17
468.789	1296.53
469.161	1299.92
469.534	1335.18
469.906	1327.49
470.278	1370.2
470.65	1339.47
471.022	1357.78
471.394	1398.23
471.766	1410.43
472.138	1443.42
472.51	1453.14
472.882	1474.38
473.253	1460.37
473.625	1523.65
473.997	1537.66
474.369	1507.38
474.74	1532.23
475.112	1548.5
475.484	1562.06
475.855	1612.01
476.227	1626.02
476.598	1606.58
476.97	1638.22
477.341	1692.68
477.713	1709.4
478.084	1735.39
478.455	1739.91
478.827	1765.22
479.198	1807.93
479.569	1804.32
479.94	1845.45
480.311	1856.52
480.682	1900.36
481.053	1927.93
481.424	1953.69
481.795	1993.24
482.166	1981.04
482.537	2051.99
482.908	2081.37
483.279	2070.52
483.65	2159.11
484.021	2151.65
484.391	2159.34
484.762	2189.62
485.133	2227.36
485.503	2261.48
485.874	2287.24
486.244	2327.69
486.615	2393.91
486.985	2416.5
487.356	2418.76
487.726	2445.88
488.097	2454.02
488.467	2530.4
488.837	2567.01
489.207	2617.18
489.578	2634.58
489.948	2636.61
490.318	2675.03
490.688	2705.31
491.058	2800.45
491.428	2811.75
491.798	2787.34
492.168	2859.88
492.538	2891.97
492.908	2934.46
493.278	2995.47
493.648	3003.83
494.017	3044.06
494.387	3054.45
494.757	3095.13
495.126	3130.84
495.496	3164.06
495.866	3209.03
496.235	3229.36
496.605	3275.01
496.974	3295.8
497.344	3310.27
497.713	3347.55
498.082	3392.98
498.452	3475.23
498.821	3434.78
499.19	3480.88
499.559	3515.68
499.928	3546.87
500.298	3557.27
500.667	3574.89
501.036	3556.36
501.405	3692.18
501.774	3661.22
502.143	3697.83
502.512	3728.56
502.88	3774.89
503.249	3771.72
503.618	3820.31
503.987	3877.48
504.356	3856.69
504.724	3896.24
505.093	3918.16
505.462	3972.4
505.83	3969.91
506.199	4044.26
506.567	4098.49
506.936	4051.94
507.304	4131.71
507.672	4196.34
508.041	4165.38
508.409	4207.87
508.777	4218.26
509.145	4259.85
509.514	4250.13
509.882	4327.19
510.25	4355.21
510.618	4409.67
510.986	4388.43
511.354	4450.8
511.722	4466.85
512.09	4508.88
512.458	4514.3
512.826	4547.75
513.193	4586.16
513.561	4606.05
513.929	4605.6
514.297	4682.43
514.664	4680.63
515.032	4721.53
515.4	4773.5
515.767	4804.24
516.135	4797.68
516.502	4788.87
516.869	4893.28
517.237	4946.38
517.604	4943.44
517.972	4986.61
518.339	4993.84
518.706	4992.48
519.073	5052.82
519.44	5094.85
519.808	5166.26
520.175	5147.73
520.542	5211.46
520.909	5242.42
521.276	5269.99
521.643	5272.7
522.009	5387.95
522.376	5384.79
522.743	5430.44
523.11	5461.85
523.477	5505.69
523.843	5547.27
524.21	5596.53
524.577	5641.5
524.943	5629.75
525.31	5618.45
525.676	5761.73
526.043	5776.42
526.409	5813.25
526.776	5832.46
527.142	5855.06
527.508	5888.96
527.874	5921.5
528.241	5941.61
528.607	6011.21
528.973	6055.28
529.339	6054.83
529.705	6151.55
530.071	6144.09
530.437	6213.24
530.803	6163.52
531.169	6196.74
531.535	6246.91
531.901	6258.66
532.267	6286.46
532.632	6326.91
532.998	6372.11
533.364	6374.82
533.73	6431.54
534.095	6500.92
534.461	6444.19
534.826	6510.86
535.192	6524.64
535.557	6557.86
535.923	6578.88
536.288	6638.31
536.653	6673.57
537.019	6637.64
537.384	6735.03
537.749	6712.44
538.114	6762.6
538.479	6787.01
538.845	6795.15
539.21	6808.71
539.575	6840.79
539.94	6857.97
540.305	6959.66
540.67	6936.84
541.034	6975.25
541.399	6994.46
541.764	6994.46
542.129	6992.88
542.494	7005.76
542.858	7145.42
543.223	7093.44
543.587	7172.09
543.952	7173.89
544.316	7213.67
544.681	7203.5
545.045	7293.89
545.41	7334.12
545.774	7299.31
546.138	7304.51
546.503	7421.8
546.867	7441.23
547.231	7549.25
547.595	7579.98
547.959	7566.88
548.324	7630.15
548.688	7580.66
549.052	7670.6
549.416	7636.93
549.779	7684.16
550.143	7730.94
550.507	7871.05
550.871	7843.48
551.235	7852.29
551.599	7907.21
551.962	7937.49
552.326	8011.61
552.689	8121.21
553.053	8053.42
553.417	8114.89
553.78	8216.8
554.143	8211.15
554.507	8302.23
554.87	8316.69
555.234	8393.3
555.597	8383.58
555.96	8435.56
556.323	8516
556.686	8623.8
557.05	8699.73
557.413	8704.02
557.776	8734.3
558.139	8810.91
558.502	8833.28
558.865	8911.7
559.228	9003.45
559.59	9080.96
559.953	9090.45
560.316	9276.44
560.679	9200.05
561.041	9381.74
561.404	9425.59
561.767	9523.66
562.129	9546.49
562.492	9666.03
562.854	9706.03
563.217	9763.43
563.579	9843.43
563.941	9914.39
564.304	10054.72
564.666	10088.62
565.028	10147.37
565.39	10274.15
565.753	10434.37
566.115	10454.48
566.477	10565.22
566.839	10754.36
567.201	10840.92
567.563	10899.22
567.925	11077.07
568.287	11131.53
568.648	11256.5
569.01	11397.51
569.372	11607.9
569.734	11615.13
570.095	11773.55
570.457	11927.89
570.819	12048.79
571.18	12199.98
571.542	12339.86
571.903	12405.62
572.265	12620.53
572.626	12829.79
572.987	12954.98
573.349	13210.34
573.71	13347.97
574.071	13473.39
574.432	13696.89
574.794	13966.26
575.155	14150.66
575.516	14260.94
575.877	14421.39
576.238	14707.48
576.599	14965.33
576.96	15151.31
577.32	15421.59
577.681	15566.44
578.042	15821.58
578.403	16085.07
578.763	16227.21
579.124	16651.16
579.485	16995.1
579.845	17365.72
580.206	17396
580.566	17773.16
580.927	18082.08
581.287	18350.32
581.648	18608.17
582.008	19004.77
582.368	19340.81
582.728	19673.68
583.089	19865.09
583.449	20309.14
583.809	20585.29
584.169	21029.57
584.529	21410.81
584.889	21911.36
585.249	22061.41
585.609	22438.8
585.969	22929.19
586.329	23314.71
586.688	23793.34
587.048	24148.81
587.408	24448.02
587.768	24987.44
588.127	25278.95
588.487	25727.53
588.846	26192.83
589.206	26499.49
589.565	27000.26
589.925	27489.29
590.284	27841.37
590.643	28370.62
591.003	28837.5
591.362	29351.39
591.721	29678.39
592.08	30121.99
592.44	30683.78
592.799	31292.81
593.158	31554.04
593.517	32092.56
593.876	32575.94
594.235	32921.24
594.593	33365.97
594.952	34019.74
595.311	34233.07
595.67	34864.69
596.029	35417.22
596.387	35913.7
596.746	36415.38
597.104	36744.19
597.463	37167.91
597.822	37820.77
598.18	38004.95
598.538	38445.16
598.897	39160.62
599.255	39268.19
599.613	40234.27
599.972	40305
600.33	40822.5
600.688	41040.35
601.046	41578.41
601.404	41957.39
601.762	42407.09
602.12	43005.04
602.478	43309.89
602.836	43660.62
603.194	43787.17
603.552	44350.99
603.91	44598.67
604.268	45091.99
604.625	45236.85
604.983	45810.39
605.341	45848.36
605.698	46309.59
606.056	46685.62
606.413	46961.1
606.771	47320.18
607.128	47614.19
607.485	47654.18
607.843	47952.71
608.2	48358.57
608.557	48624.1
608.914	48759.24
609.272	49141.83
609.629	49396.74
609.986	49641.48
610.343	49655.04
610.7	50215.47
611.057	50268.81
611.414	50313.55
611.771	50502.92
612.127	50770.26
612.484	50939.75
612.841	51162.57
613.198	51165.96
613.554	51199.85
613.911	51623.35
614.267	51576.57
614.624	51792.61
614.98	51887.75
615.337	52133.16
615.693	52191.92
616.05	52308.3
616.406	52538.35
616.762	52530.44
617.118	52588.52
617.475	52678.23
617.831	52856.53
618.187	52968.4
618.543	53089.07
618.899	53298.1
619.255	53355.05
619.611	53289.97
619.967	53475.95
620.323	53529.28
620.678	53550.98
621.034	53537.87
621.39	53573.13
621.746	53626.91
622.101	53946
622.457	53752.56
622.812	53831.42
623.168	53955.49
623.523	53936.51
623.879	54138.08
624.234	53976.28
624.589	54111.64
624.945	54136.95
625.3	54268.7
625.655	54221.7
626.01	54344.63
626.365	54272.09
626.72	54305.99
627.075	54353.22
627.43	54376.72
627.785	54271.86
628.14	54383.05
628.495	54420.56
628.85	54487.23
629.205	54384.63
629.559	54644.06
629.914	54466.89
630.269	54517.06
630.623	54462.59
630.978	54441.58
631.332	54607.9
631.687	54513.67
632.041	54517.96
632.396	54532.2
632.75	54482.03
633.104	54608.35
633.459	54429.15
633.813	54396.61
634.167	54499.65
634.521	54483.84
634.875	54481.8
635.229	54380.79
635.583	54413.33
635.937	54414.46
636.291	54256.27
636.645	54347.34
636.999	54301.24
637.352	54445.42
637.706	54305.99
638.06	54359.77
638.413	54350.05
638.767	54261.69
639.121	54283.39
639.474	54178.53
639.828	54271.19
640.181	54225.76
640.534	54303.73
640.888	54093.11
641.241	54092.21
641.594	54108.93
641.947	54262.37
642.301	54130.17
642.654	54157.52
643.007	54281.13
643.36	54158.65
643.713	54127.01
644.066	54197.74
644.419	53962.49
644.771	53852.89
645.124	53599.79
645.477	53559.57
645.83	53398.67
646.182	53247.94
646.535	53194.15
646.888	53286.35
647.24	53118.45
647.593	53364.09
647.945	53298.33
648.298	53151.22
648.65	53127.71
649.002	53064.21
649.355	53242.51
649.707	53085
650.059	53211.78
650.411	53526.57
650.763	53632.33
651.115	54047.46
651.467	53786.9
651.819	53772.89
652.171	53797.53
652.523	53716.4
652.875	53722.95
653.227	53583.52
653.578	53789.84
653.93	53763.4
654.282	53670.3
654.633	53499
654.985	53623.75
655.337	53708.04
655.688	53633.24
656.039	53727.25
656.391	53523.64
656.742	53529.96
657.094	53535.84
657.445	53725.44
657.796	53619.23
658.147	53608.83
658.498	53544.88
658.849	53675.04
659.2	53545.78
659.551	53580.58
659.902	53631.2
660.253	53586.01
660.604	53660.35
660.955	53539.23
661.306	53524.31
661.656	53540.13
662.007	53538.55
662.358	53469.63
662.708	53578.32
663.059	53524.31
663.409	53421.94
663.76	53560.24
664.11	53493.81
664.461	53536.97
664.811	53517.99
665.161	53507.14
665.511	53404.54
665.862	53446.57
666.212	53501.26
666.562	53625.1
666.912	53431.66
667.262	53407.03
667.612	53437.76
667.962	53466.69
668.312	53365.22
668.662	53595.27
669.011	53412.23
669.361	53322.06
669.711	53389.63
670.06	53340.14
670.41	53314.15
670.76	53288.39
671.109	53361.61
671.459	53261.5
671.808	53173.59
672.157	53263.08
672.507	53077.32
672.856	53065.12
673.205	53175.17
673.554	53223.08
673.904	53046.36
674.253	53198.67
674.602	53121.84
674.951	52620.38
675.3	52446.83
675.649	52988.73
675.998	52935.4
676.346	52968.4
676.695	53046.13
677.044	52809.76
677.393	52840.72
677.741	52891.11
678.09	52873.93
678.438	52825.8
678.787	52863.09
679.135	52794.84
679.484	52565.92
679.832	52794.61
680.181	52533.15
680.529	52683.43
680.877	52624
681.225	52471.69
681.573	52679.59
681.922	52536.54
682.27	52467.39
682.618	52375.42
682.966	52341.07
683.314	52388.98
683.661	52276.66
684.009	52167.29
684.357	52163.22
684.705	52030.34
685.053	52107.85
685.4	51959.38
685.748	51892.49
686.095	51883.45
686.443	51781.76
686.79	51722.1
687.138	51795.77
687.485	51736.79
687.832	51598.26
688.18	51672.38
688.527	51443.01
688.874	51445.05
689.221	51375.67
689.568	51224.71
689.915	51218.84
690.262	51103.81
690.609	51122.12
690.956	50996.47
691.303	50974.78
691.65	50811.62
691.997	50786.31
692.344	50466.09
692.69	50562.13
693.037	50546.54
693.383	50318.3
693.73	50382.25
694.077	50235.59
694.423	50246.43
694.769	50083.27
695.116	49976.84
695.462	49935.03
695.808	49829.72
696.155	49879.44
696.501	49452.33
696.847	49620.23
697.193	49310.86
697.539	49521.25
697.885	49192.68
698.231	49107.03
698.577	49050.08
698.923	48929.18
699.269	48767.15
699.614	48578.23
699.96	48629.98
700.306	48464.33
700.651	48349.76
700.997	48234.28
701.342	48159.71
701.688	48022.76
702.033	48097.79
702.379	47867.51
702.724	47728.31
703.069	47891.24
703.415	47470.91
703.76	47528.09
704.105	47529.67
704.45	47360.86
704.795	47177.14
705.14	47014.2
705.485	47016.69
705.83	46952.96
706.175	46931.94
706.52	46775.79
706.865	46753.19
707.209	46665.96
707.554	46471.62
707.899	46511.84
708.243	46297.84
708.588	46256.26
708.932	46101.01
709.277	46042.48
709.621	45932.42
709.966	45693.11
710.31	45798.41
710.654	45539.21
710.998	45536.27
711.342	45488.59
711.687	45327.24
712.031	45212.22
712.375	45061.26
712.719	45195.49
713.063	45079.34
713.407	45109.84
713.75	44974.71
714.094	44861.26
714.438	44701.27
714.782	44702.4
715.125	44464.44
715.469	44750.08
715.812	44533.81
716.156	44259.02
716.499	44302.63
716.843	44287.72
717.186	44032.59
717.53	44279.36
717.873	44202.75
718.216	44034.62
718.559	43814.96
718.902	43741.52
719.246	43880.5
719.589	43559.6
719.932	43540.85
720.275	43651.13
720.617	43506.27
720.96	43419.27
721.303	43446.39
721.646	43377.69
721.989	43227.41
722.331	43410.68
722.674	43212.95
723.016	43238.26
723.359	42986.51
723.701	43101.54
724.044	42649.34
724.386	42629.23
724.729	42880.75
725.071	42733.64
725.413	42686.41
725.755	42667.2
726.097	42504.94
726.439	42401.44
726.782	42420.2
727.124	42624.49
727.465	42275.12
727.807	42287.55
728.149	42359.18
728.491	42213.2
728.833	42234.44
729.175	42085.52
729.516	42067.89
729.858	42122.8
730.199	41955.35
730.541	41910.38
730.882	41841
731.224	41893.43
731.565	41744.96
731.906	41690.05
732.248	41861.79
732.589	41683.72
732.93	41588.36
733.271	41523.27
733.612	41445.31
733.953	41583.84
734.294	41387.68
734.635	41384.97
734.976	41412.09
735.317	41265.65
735.658	41166.9
735.999	41049.39
736.339	41147.24
736.68	41197.41
737.021	41001.25
737.361	41010.97
737.702	41174.13
738.042	40955.15
738.383	40845.78
738.723	40929.62
739.063	40777.3
739.404	40836.96
739.744	40845.55
740.084	40571.43
740.424	40668.38
740.764	40551.32
741.104	40601.71
741.444	40418.89
741.784	40406.69
742.124	40457.99
742.464	40442.4
742.804	40340.25
743.143	40285.34
743.483	40290.76
743.823	40075.85
744.162	40023.65
744.502	40102.74
744.841	40160.6
745.181	40200.82
745.52	39984.1
745.86	39969.87
746.199	39873.82
746.538	39931.45
746.877	39998.34
747.216	39857.1
747.556	39825.24
747.895	39813.71
748.234	39585.92
748.573	39561.06
748.911	39589.09
749.25	39691.23
749.589	39438.58
749.928	39508.18
750.267	39453.04
750.605	39278.13
750.944	39348.41
751.283	39151.58
751.621	39254.18
751.96	38948.2
752.298	38928.09
752.636	39016.45
752.975	38772.61
753.313	38718.6
753.651	38899.61
753.989	38656.91
754.327	38616
754.666	38308.22
755.004	38504.37
755.342	38385.28
755.679	38393.19
756.017	38171.04
756.355	38376.46
756.693	38036.13
757.031	38097.15
757.368	37901.9
757.706	37844.95
758.044	37801.11
758.381	37752.07
758.719	37782.13
759.056	37637.5
759.394	37598.4
759.731	37210.17
760.068	37180.11
760.405	37183.5
760.743	36984.18
761.08	37093.11
761.417	36942.83
761.754	36781.02
762.091	36850.4
762.428	36670.07
762.765	36433.69
763.102	36576.28
763.438	36323.86
763.775	36203.19
764.112	36131.55
764.449	36237.54
764.785	36016.75
765.122	35863.08
765.458	35814.72
765.795	35659.92
766.131	35617.21
766.467	35405.24
766.804	35346.03
767.14	35200.28
767.476	35167.96
767.812	35011.13
768.148	35143.55
768.485	34730.68
768.821	34614.53
769.157	34565.26
769.492	34397.81
769.828	34404.36
770.164	34087.08
770.5	34145.84
770.836	34124.82
771.171	33770.93
771.507	33779.52
771.842	33596.48
772.178	33649.13
772.513	33561.67
772.849	33302.92
773.184	33199.42
773.519	33201.01
773.855	33014.34
774.19	32904.29
774.525	32817.96
774.86	32844.86
775.195	32808.7
775.53	32426.11
775.865	32243.52
776.2	32183.86
776.535	32053.24
776.87	32022.96
777.205	31934.15
777.539	31832
777.874	31711.55
778.209	31455.29
778.543	31502.75
778.878	31254.16
779.212	31147.27
779.547	31121.74
779.881	31089.87
780.215	30920.16
780.55	30981.85
780.884	30843.1
781.218	30712.26
781.552	30692.6
781.886	30518.36
782.22	30383.45
782.554	30262.55
782.888	29882.22
783.222	29932.16
783.556	29750.02
783.889	29775.11
784.223	29527.43
784.557	29463.93
784.89	29520.42
785.224	29401.33
785.557	29261.45
785.891	29211.28
786.224	29131.06
786.558	28942.36
786.891	28839.99
787.224	28685.64
787.557	28612.43
787.891	28569.49
788.224	28532.2
788.557	28422.37
788.89	28280
789.223	28320.91
789.556	28104.42
789.888	27929.05
790.221	27899.22
790.554	27747.82
790.887	27787.81
791.219	27612.9
791.552	27580.14
791.884	27457.43
792.217	27349.18
792.549	27202.07
792.882	27056.53
793.214	27002.75
793.546	26977.89
793.879	26818.8
794.211	26724.11
794.543	26846.6
794.875	26671.01
795.207	26659.93
795.539	26452.93
795.871	26559.15
796.203	26251.81
796.535	26162.32
796.867	25995.55
797.198	26001.42
797.53	25996.22
797.862	25833.06
798.193	25892.95
798.525	25599.62
798.856	25762.11
799.188	25416.8
799.519	25326.64
799.85	25175.68
800.182	25271.72
800.513	25197.37
800.844	24987.89
801.175	25124.83
801.506	25037.83
801.837	24956.93
802.168	24960.32
802.499	24770.04
802.83	24643.04
803.161	24576.37
803.491	24669.25
803.822	24597.84
804.153	24425.19
804.483	24214.58
804.814	24163.73
805.145	24240.56
805.475	24110.62
805.805	24005.99
806.136	23976.84
806.466	24043.51
806.796	23901.36
807.126	23559
807.457	23750.86
807.787	23586.8
808.117	23668.83
808.447	23462.5
808.777	23634.25
809.107	23493.01
809.436	23411.88
809.766	23296.41
810.096	23322.62
810.426	23154.94
810.755	23129.41
811.085	23135.73
811.414	23044.21
811.744	22949.98
812.073	22810.09
812.403	22919.92
812.732	22678.34
813.061	22731.68
813.39	22519.03
813.719	22513.6
814.049	22496.88
814.378	22453.94
814.707	22433.61
815.036	22383.66
815.365	22288.75
815.693	22066.38
816.022	22091.24
816.351	21964.24
816.68	21823.68
817.008	22027.29
817.337	21796.11
817.665	21747.07
817.994	21792.27
818.322	21747.97
818.651	21615.77
818.979	21506.4
819.307	21706.39
819.636	21649.67
819.964	21458.04
820.292	21470.92
820.62	21447.19
820.948	21386.4
821.276	21385.5
821.604	21331.04
821.932	21384.82
822.259	21438.83
822.587	21271.15
822.915	21245.84
823.243	21394.76
823.57	21348.21
823.898	21348.21
824.225	21210.13
824.553	21214.88
824.88	21249.91
825.207	21376.68
825.535	21308.21
825.862	21326.29
826.189	21247.65
826.516	21390.24
826.843	21467.53
827.17	21269.12
827.497	21335.55
827.824	21374.88
828.151	21416.23
828.478	21297.14
828.805	21425.04
829.131	21258.49
829.458	21224.82
829.785	21067.77
830.111	21195.67
830.438	21281.54
830.764	21249.46
831.09	21207.87
831.417	21136.01
831.743	21218.5
832.069	21136.92
832.395	21159.51
832.722	21153.19
833.048	21062.12
833.374	21142.79
833.7	20994.55
834.026	21046.07
834.351	21144.6
834.677	21104.15
835.003	21010.59
835.329	20970.14
835.654	20939.18
835.98	20917.03
836.306	20907.54
836.631	20652.63
836.956	20828.68
837.282	20841.56
837.607	20772.18
837.932	20686.98
838.258	20710.03
838.583	20639.53
838.908	20490.61
839.233	20578.96
839.558	20620.55
839.883	20417.39
840.208	20398.86
840.533	20557.27
840.858	20489.93
841.182	20389.37
841.507	20439.31
841.832	20284.51
842.156	20340.1
842.481	20184.4
842.805	20189.37
843.13	20172.2
843.454	20069.37
843.778	19991.41
844.103	19885.88
844.427	19892.88
844.751	19914.8
845.075	19842.49
845.399	19836.39
845.723	19708.25
846.047	19661.25
846.371	19625.32
846.695	19534.92
847.019	19347.81
847.343	19356.62
847.666	19333.8
847.99	19218.32
848.313	19167.93
848.637	19135.39
848.96	19044.32
849.284	18914.83
849.607	18870.53
849.931	18777.66
850.254	18700.37
850.577	18552.13
850.9	18428.06
851.223	18379.47
851.546	18255.64
851.869	18136.77
852.192	18368.85
852.515	18073.27
852.838	18084.11
853.161	18082.76
853.483	18022.2
853.806	17867.85
854.129	17824.46
854.451	17747.17
854.774	17599.61
855.096	17678.93
855.419	17588.53
855.741	17540.4
856.063	17358.26
856.385	17388.99
856.708	17342.89
857.03	17191.03
857.352	17280.75
857.674	17236.45
857.996	17085.95
858.318	17013.86
858.64	17066.74
858.961	17031.26
859.283	16930.47
859.605	16842.34
859.926	16971.15
860.248	16876.91
860.57	16774.32
860.891	16789.01
861.212	16665.17
861.534	16740.2
861.855	16706.3
862.176	16613.87
862.498	16581.78
862.819	16570.48
863.14	16496.59
863.461	16482.12
863.782	16320.55
864.103	16460.65
864.424	16512.4
864.745	16381.33
865.065	16248
865.386	16307.66
865.707	16226.76
866.027	16147.44
866.348	16036.94
866.668	16215.46
866.989	16062.47
867.309	16090.27
867.63	16102.47
867.95	16042.13
868.27	15899.99
868.59	16012.53
868.91	15925.08
869.23	15887.79
869.55	15799.66
869.87	15918.07
870.19	15806.89
870.51	15754.91
870.83	15805.3
871.15	15664.97
871.469	15614.58
871.789	15759.88
872.109	15628.36
872.428	15616.84
872.748	15725.31
873.067	15608.02
873.386	15526.89
873.706	15540
874.025	15548.59
874.344	15496.16
874.663	15408.93
874.982	15455.03
875.301	15387.69
875.62	15305.43
875.939	15348.37
876.258	15318.99
876.577	15311.31
876.896	15356.73
877.214	15280.57
877.533	15271.99
877.852	15203.96
878.17	15251.2
878.489	15157.41
878.807	15185.89
879.125	15113.8
879.444	15128.26
879.762	15029.96
880.08	15057.3
880.398	14977.76
880.716	15000.81
881.034	14959
881.352	14977.76
881.67	14909.51
881.988	14900.92
882.306	14799.23
882.624	14749.97
882.941	14767.14
883.259	14575.51
883.577	14590.87
883.894	14587.94
884.212	14582.29
884.529	14630.19
884.846	14489.63
885.164	14495.51
885.481	14492.12
885.798	14519.01
886.115	14424.55
886.432	14352.01
886.75	14254.61
887.067	14337.77
887.383	14270.88
887.7	14309.07
888.017	14207.83
888.334	14179.13
888.651	14113.6
888.967	14118.34
889.284	13965.81
889.6	13978.01
889.917	13876.77
890.233	13938.69
890.55	13892.13
890.866	13911.34
891.182	13874.51
891.498	13696.89
891.815	13730.11
892.131	13663.89
892.447	13627.51
892.763	13578.47
893.079	13558.58
893.395	13499.38
893.71	13489.43
894.026	13410.34
894.342	13355.88
894.657	13313.84
894.973	13331.47
895.289	13228.65
895.604	13239.27
895.92	13196.11
896.235	13124.25
896.55	13092.61
896.865	13069.33
897.181	13056.9
897.496	12938.94
897.811	12885.83
898.126	12865.72
898.441	12839.06
898.756	12801.09
899.071	12776.23
899.386	12723.58
899.7	12653.07
900.015	12683.58
900.33	12525.17
900.644	12494.66
900.959	12500.53
901.273	12442.91
901.588	12291.05
901.902	12315.45
902.216	12276.13
902.531	12295.34
902.845	12256.25
903.159	12170.15
903.473	12035.69
903.787	11968.34
904.101	11919.76
904.415	12008.79
904.729	11846.99
905.042	11920.66
905.356	11855.13
905.67	11810.16
905.984	11774.68
906.297	11773.09
906.611	11716.6
906.924	11677.05
907.237	11631.86
907.551	11656.04
907.864	11461.92
908.177	11441.13
908.491	11411.97
908.804	11360.45
909.117	11242.26
909.43	11266.89
909.743	11255.37
910.056	11174.69
910.368	11112.32
910.681	11113.9
910.994	10932.21
911.307	10951.87
911.619	10847.92
911.932	10884.3
912.244	10814.7
912.557	10877.75
912.869	10749.17
913.181	10649.06
913.494	10667.81
913.806	10637.53
914.118	10554.6
914.43	10469.85
914.742	10420.14
915.054	10422.4
915.366	10421.49
915.678	10405.9
915.99	10328.39
916.302	10232.57
916.613	10147.83
916.925	10186.24
917.236	10109.18
917.548	10126.36
917.859	10043.87
918.171	10029.19
918.482	9985.12
918.794	9940.15
919.105	9915.52
919.416	9882.75
919.727	9809.98
920.038	9762.75
920.349	9707.16
920.66	9738.57
920.971	9628.29
921.282	9693.83
921.593	9551.46
921.903	9485.24
922.214	9484.57
922.525	9448.18
922.835	9387.85
923.146	9282.99
923.456	9317.79
923.767	9257.91
924.077	9280.73
924.387	9186.04
924.697	9205.25
925.008	9112.6
925.318	9061.75
925.628	9041.41
925.938	8997.57
926.248	8897.69
926.558	8932.72
926.867	8915.09
927.177	8805.94
927.487	8818.37
927.796	8678.03
928.106	8730.46
928.416	8703.12
928.725	8623.8
929.034	8504.25
929.344	8626.06
929.653	8557.81
929.962	8519.62
930.271	8460.64
930.581	8392.39
930.89	8376.8
931.199	8273.53
931.508	8256.35
931.817	8331.15
932.125	8250.7
932.434	8206.63
932.743	8204.37
933.051	8067.2
933.36	8054.77
933.669	8027.2
933.977	7966.41
934.286	8001.22
934.594	7903.82
934.902	7885.96
935.21	7926.64
935.519	7913.08
935.827	7813.42
936.135	7753.77
936.443	7720.09
936.751	7650.49
937.059	7691.17
937.367	7576.37
937.674	7596.26
937.982	7577.27
938.29	7544.73
938.597	7490.95
938.905	7455.02
939.213	7418.18
939.52	7396.71
939.827	7416.37
940.135	7308.8
940.442	7274.91
940.749	7319.2
941.056	7282.37
941.363	7153.78
941.67	7227.45
941.977	7139.32
942.284	7024.29
942.591	7009.38
942.898	6987.23
943.205	7066.55
943.511	6963.28
943.818	6977.74
944.125	6919.66
944.431	6930.96
944.738	6898.42
945.044	6869.49
945.35	6781.81
945.657	6771.64
945.963	6754.7
946.269	6707.01
946.575	6676.28
946.881	6634.92
947.187	6642.38
947.493	6626.34
947.799	6609.84
948.105	6587.92
948.41	6521.48
948.716	6520.35
949.022	6450.3
949.327	6444.42
949.633	6331.43
949.938	6331.88
950.244	6384.99
950.549	6270.19
950.854	6244.43
951.16	6255.95
951.465	6259.12
951.77	6228.16
952.075	6176.63
952.38	6176.41
952.685	6167.59
952.99	6065.67
953.294	6028.39
953.599	6004.88
953.904	5971.44
954.209	5977.09
954.513	6024.54
954.818	5916.53
955.122	5941.16
955.426	5863.87
955.731	5858.22
956.035	5834.27
956.339	5753.14
956.643	5780.26
956.948	5723.54
957.252	5686.47
957.556	5690.09
957.86	5649.41
958.163	5662.97
958.467	5598.57
958.771	5627.27
959.075	5580.94
959.378	5574.61
959.682	5552.24
959.985	5509.3
960.289	5512.24
960.592	5447.39
960.896	5444.22
961.199	5422.98
961.502	5411.68
961.805	5328.07
962.108	5295.98
962.411	5262.76
962.714	5280.16
963.017	5304.34
963.32	5212.36
963.623	5278.12
963.926	5183.44
964.228	5149.99
964.531	5118.13
964.833	5121.29
965.136	5073.16
965.438	5052.59
965.741	5062.31
966.043	5029.54
966.345	4993.39
966.648	5004.01
966.95	4969.88
967.252	4897.57
967.554	4926.04
967.856	4918.13
968.158	4795.42
968.46	4871.35
968.761	4835.65
969.063	4790.68
969.365	4777.35
969.666	4777.12
969.968	4740.06
970.269	4707.07
970.571	4766.27
970.872	4692.83
971.174	4648.99
971.475	4631.14
971.776	4648.54
972.077	4609.67
972.378	4583.23
972.679	4581.87
972.98	4519.73
973.281	4543.68
973.582	4499.84
973.883	4483.12
974.183	4474.3
974.484	4460.29
974.785	4424.81
975.085	4398.6
975.386	4445.83
975.686	4356.79
975.986	4345.27
976.287	4358.6
976.587	4258.94
976.887	4293.07
977.187	4250.81
977.487	4182.79
977.787	4198.6
978.087	4183.92
978.387	4216
978.687	4183.46
978.987	4132.39
979.286	4117.25
979.586	4084.48
979.885	4062.56
980.185	4061.66
980.484	4037.48
980.784	4033.64
981.083	3989.8
981.382	4004.49
981.682	3976.24
981.981	3983.24
982.28	3950.02
982.579	3918.61
982.878	3911.38
983.177	3890.36
983.475	3829.35
983.774	3823.92
984.073	3801.78
984.372	3820.08
984.67	3815.11
984.969	3787.32
985.267	3790.93
985.566	3724.72
985.864	3709.58
986.162	3728.33
986.461	3687.88
986.759	3643.82
987.057	3630.26
987.355	3608.56
987.653	3630.26
987.951	3596.81
988.249	3604.04
988.547	3579.86
988.844	3571.73
989.142	3535.12
989.44	3530.37
989.737	3456.25
990.035	3461
990.332	3473.65
990.63	3439.53
990.927	3472.3
991.224	3454.22
991.521	3421
991.819	3411.28
992.116	3362.24
992.413	3350.49
992.71	3345.29
993.006	3309.14
993.303	3340.77
993.6	3288.12
993.897	3282.02
994.193	3286.31
994.49	3228.91
994.787	3263.71
995.083	3237.73
995.379	3220.55
995.676	3164.51
995.972	3144.17
996.268	3160.89
996.565	3155.24
996.861	3091.29
997.157	3104.62
997.453	3075.7
997.749	3066.66
998.044	3063.94
998.34	3037.28
998.636	3002.25
998.932	3001.12
999.227	2982.59
999.523	2952.99
999.818	2962.48
1000.114	2961.57
1000.409	2931.07
1000.704	2908.69
1001	2894.46
1001.295	2892.42
1001.59	2869.83
1001.885	2851.3
1002.18	2831.41
1002.475	2797.74
1002.77	2786.89
1003.065	2760.9
1003.359	2779.21
1003.654	2795.7
1003.949	2716.38
1004.243	2740.11
1004.538	2679.77
1004.832	2684.29
1005.127	2666.89
1005.421	2644.52
1005.715	2599.78
1006.009	2677.51
1006.304	2651.07
1006.598	2605.43
1006.892	2587.35
1007.186	2549.16
1007.48	2541.7
1007.773	2537.63
1008.067	2521.59
1008.361	2510.06
1008.655	2485.88
1008.948	2463.51
1009.242	2458.99
1009.535	2456.96
1009.829	2427.13
1010.122	2426.9
1010.415	2415.15
1010.708	2360.46
1011.001	2394.36
1011.295	2353.91
1011.588	2334.92
1011.881	2291.99
1012.173	2302.83
1012.466	2328.37
1012.759	2314.81
1013.052	2280.01
1013.344	2261.03
1013.637	2273.68
1013.93	2199.79
1014.222	2188.04
1014.514	2200.69
1014.807	2177.64
1015.099	2151.2
1015.391	2183.29
1015.683	2157.75
1015.976	2173.57
1016.268	2145.78
1016.56	2100.35
1016.851	2079.79
1017.143	2079.79
1017.435	2117.53
1017.727	2039.57
1018.018	2015.16
1018.31	2029.17
1018.602	2022.16
1018.893	1987.14
1019.185	1986.69
1019.476	1969.06
1019.767	1931.32
1020.058	1951.21
1020.35	1938.78
1020.641	1935.61
1020.932	1897.65
1021.223	1932.68
1021.514	1899
1021.804	1847.93
1022.095	1842.73
1022.386	1839.8
1022.677	1838.67
1022.967	1825.11
1023.258	1816.29
1023.548	1814.26
1023.839	1797.54
1024.129	1794.37
1024.419	1736.97
1024.709	1736.3
1025	1734.49
1025.29	1705.79
1025.58	1704.88
1025.87	1691.55
1026.16	1688.84
1026.449	1668.5
1026.739	1671.89
1027.029	1678.9
1027.319	1650.87
1027.608	1636.41
1027.898	1605.45
1028.187	1588.73
1028.477	1576.07
1028.766	1589.18
1029.055	1565.91
1029.344	1560.71
1029.634	1539.47
1029.923	1526.36
1030.212	1543.53
1030.501	1492.23
1030.79	1528.62
1031.078	1491.78
1031.367	1478.22
1031.656	1466.25
1031.945	1440.71
1032.233	1432.8
1032.522	1448.39
1032.81	1410.88
1033.099	1428.06
1033.387	1385.8
1033.675	1375.4
1033.963	1388.73
1034.251	1379.24
1034.54	1344.89
1034.828	1345.35
1035.116	1355.97
1035.403	1352.13
1035.691	1334.72
1035.979	1309.41
1036.267	1313.26
1036.554	1280.04
1036.842	1287.04
1037.129	1287.27
1037.417	1275.74
1037.704	1259.7
1037.992	1251.11
1038.279	1241.62
1038.566	1240.49
1038.853	1240.49
1039.14	1240.49
