Data from orange_diffuse_book_FLMS001491_00027.txt Node
Date: Wed Feb 08 15:29:20 GMT 2017
User: dcchb
Spectrometer: FLMS00149
Trigger mode: 0
Integration Time (sec): 2.000000E-2
Scans to average: 10
Electric dark correction enabled: true
Nonlinearity correction enabled: false
Boxcar width: 0
XAxis mode: Wavelengths
Number of Pixels in Spectrum: 2048
>>>>>Begin Spectral Data<<<<<
341.393	-3.83
341.776	-3.83
342.16	-3.83
342.543	-63.04
342.927	-70.27
343.31	-66.65
343.693	-61
344.077	-63.26
344.46	-82.92
344.843	-53.09
345.226	-42.7
345.61	-22.58
345.993	-7.9
346.376	-13.77
346.759	19.67
347.142	23.74
347.525	40.47
347.908	60.58
348.291	85.44
348.674	94.7
349.057	89.28
349.44	97.64
349.823	148.03
350.206	156.39
350.588	205.66
350.971	225.54
351.354	255.15
351.737	244.08
352.119	268.26
352.502	275.94
352.884	292.44
353.267	293.57
353.65	290.4
354.032	307.12
354.414	328.14
354.797	319.55
355.179	330.17
355.562	333.56
355.944	357.07
356.326	358.2
356.709	332.43
357.091	320.46
357.473	364.52
357.855	329.5
358.238	343.96
358.62	360.91
359.002	350.29
359.384	344.19
359.766	336.5
360.148	355.71
360.53	363.17
360.912	365.65
361.294	342.15
361.676	356.61
362.057	356.61
362.439	360.46
362.821	330.17
363.203	338.76
363.584	343.51
363.966	337.63
364.348	326.79
364.729	349.38
365.111	353.23
365.493	334.02
365.874	319.1
366.256	331.08
366.637	340.34
367.019	324.53
367.4	303.73
367.781	337.86
368.163	337.63
368.544	311.87
368.925	300.12
369.306	335.15
369.688	310.97
370.069	318.42
370.45	315.03
370.831	334.69
371.212	323.85
371.593	347.35
371.974	322.04
372.355	322.04
372.736	336.95
373.117	345.77
373.498	320.23
373.879	317.75
374.26	330.85
374.641	330.4
375.021	334.92
375.402	335.82
375.783	330.17
376.163	338.31
376.544	325.88
376.925	352.1
377.305	335.15
377.686	331.98
378.066	357.97
378.447	324.75
378.827	340.57
379.208	351.87
379.588	337.63
379.968	363.62
380.349	341.25
380.729	351.64
381.109	341.25
381.489	345.09
381.87	348.93
382.25	320.23
382.63	349.84
383.01	385.77
383.39	354.36
383.77	382.83
384.15	372.21
384.53	352.77
384.91	373.79
385.29	361.81
385.67	371.53
386.049	385.77
386.429	357.07
386.809	361.13
387.189	361.13
387.568	352.77
387.948	367.69
388.328	379.21
388.707	403.85
389.087	376.5
389.466	381.25
389.846	402.49
390.225	369.72
390.605	376.28
390.984	400.23
391.363	378.99
391.743	383.51
392.122	364.3
392.501	392.32
392.881	384.41
393.26	394.58
393.639	404.52
394.018	408.36
394.397	368.59
394.776	411.98
395.155	391.87
395.534	391.19
395.913	383.51
396.292	407.01
396.671	412.21
397.05	381.02
397.429	401.59
397.808	388.48
398.186	404.52
398.565	413.56
398.944	409.95
399.323	415.82
399.701	410.17
400.08	425.31
400.458	430.96
400.837	411.53
401.215	415.37
401.594	434.35
401.972	415.82
402.351	414.01
402.729	434.13
403.107	407.46
403.486	440.91
403.864	428.03
404.242	462.83
404.62	445.43
404.999	435.03
405.377	442.26
405.755	439.32
406.133	445.88
406.511	466.89
406.889	444.52
407.267	428.7
407.645	456.5
408.023	444.52
408.401	475.93
408.779	468.48
409.156	479.1
409.534	503.96
409.912	459.44
410.29	483.39
410.667	482.71
411.045	464.86
411.422	489.72
411.8	499.66
412.178	463.05
412.555	500.11
412.933	490.85
413.31	531.75
413.687	516.84
414.065	482.04
414.442	529.72
414.819	511.41
415.197	525.88
415.574	519.77
415.951	528.36
416.328	534.69
416.705	505.54
417.082	539.43
417.46	536.27
417.837	544.63
418.214	544.18
418.591	537.63
418.967	559.55
419.344	578.98
419.721	556.38
420.098	544.41
420.475	581.69
420.852	568.13
421.228	556.61
421.605	575.37
421.982	553.22
422.358	559.77
422.735	578.76
423.111	588.47
423.488	579.43
423.864	607.91
424.241	587.8
424.617	596.83
424.994	600.45
425.37	595.48
425.746	610.39
426.123	628.47
426.499	631.64
426.875	643.16
427.251	621.92
427.627	648.58
428.003	626.21
428.379	637.51
428.756	662.6
429.132	673.89
429.507	683.84
429.883	683.84
430.259	661.24
430.635	681.13
431.011	653.33
431.387	677.51
431.763	698.07
432.138	701.69
432.514	711.63
432.89	710.28
433.265	700.79
433.641	744.4
434.016	745.31
434.392	726.77
434.767	737.17
435.143	735.14
435.518	776.26
435.894	750.5
436.269	782.14
436.644	772.2
437.02	769.71
437.395	772.65
437.77	795.7
438.145	778.75
438.52	793.21
438.895	795.93
439.271	795.7
439.646	815.81
440.021	814.23
440.395	813.1
440.77	810.16
441.145	839.77
441.52	836.6
441.895	836.83
442.27	836.83
442.645	846.77
443.019	862.82
443.394	840.44
443.769	843.16
444.143	834.12
444.518	858.3
444.892	861.01
445.267	873.89
445.641	854.23
446.016	889.93
446.39	890.84
446.764	877.51
447.139	894.23
447.513	899.65
447.887	879.54
448.262	896.49
448.636	924.96
449.01	916.83
449.384	906.88
449.758	930.61
450.132	912.08
450.506	908.69
450.88	915.47
451.254	931.29
451.628	951.85
452.002	953.66
452.376	951.63
452.75	978.75
453.123	964.28
453.497	1002.02
453.871	969.03
454.244	992.08
454.618	1006.32
454.992	1016.26
455.365	1015.81
455.739	1028.46
456.112	1036.6
456.486	1056.26
456.859	1022.81
457.232	1059.65
457.606	1071.17
457.979	1092.64
458.352	1092.64
458.725	1115.47
459.099	1091.28
459.472	1116.59
459.845	1130.15
460.218	1108.91
460.591	1141.23
460.964	1103.49
461.337	1160.89
461.71	1155.92
462.083	1155.01
462.456	1164.05
462.829	1182.58
463.201	1221.45
463.574	1182.13
463.947	1208.12
464.32	1236.59
464.692	1257.16
465.065	1249.47
465.438	1218.06
465.81	1239.3
466.183	1278.4
466.555	1293.09
466.928	1282.69
467.3	1283.14
467.672	1313.88
468.045	1333.99
468.417	1356.81
468.789	1325.4
469.161	1349.58
469.534	1355.01
469.906	1398.62
470.278	1382.12
470.65	1400.2
471.022	1421.9
471.394	1455.8
471.766	1435
472.138	1470.48
472.51	1476.36
472.882	1504.61
473.253	1500.77
473.625	1543.48
473.997	1543.7
474.369	1554.32
474.74	1576.02
475.112	1588.22
475.484	1616.92
475.855	1652.85
476.227	1664.38
476.598	1701.21
476.97	1688.78
477.341	1724.04
477.713	1756.35
478.084	1729.23
478.455	1806.07
478.827	1834.09
479.198	1840.19
479.569	1847.65
479.94	1881.55
480.311	1909.79
480.682	1940.08
481.053	1987.31
481.424	2010.36
481.795	2037.25
482.166	2047.19
482.537	2086.51
482.908	2128.32
483.279	2169.67
483.65	2186.4
484.021	2202.89
484.391	2236.57
484.762	2233.4
485.133	2284.02
485.503	2326.73
485.874	2337.13
486.244	2399.27
486.615	2414.19
486.985	2453.28
487.356	2503.23
487.726	2564.01
488.097	2565.82
488.467	2622.32
488.837	2622.54
489.207	2659.83
489.578	2706.61
489.948	2718.13
490.318	2760.39
490.688	2791.13
491.058	2830.9
491.428	2880.39
491.798	2896.21
492.168	2947.73
492.538	2969.88
492.908	3020.95
493.278	3088.52
493.648	3053.72
494.017	3140.04
494.387	3155.64
494.757	3185.24
495.126	3255.07
495.496	3228.86
495.866	3296.42
496.235	3335.07
496.605	3342.53
496.974	3392.69
497.344	3421.85
497.713	3433.82
498.082	3521.5
498.452	3546.36
498.821	3547.49
499.19	3585.68
499.559	3639.92
499.928	3665.23
500.298	3682.86
500.667	3719.24
501.036	3713.36
501.405	3781.38
501.774	3768.73
502.143	3815.28
502.512	3869.06
502.88	3908.61
503.249	3940.02
503.618	3944.32
503.987	3914.04
504.356	4037.42
504.724	4003.3
505.093	4074.48
505.462	4060.47
505.83	4095.73
506.199	4144.99
506.567	4167.81
506.936	4213.01
507.304	4281.48
507.672	4256.63
508.041	4255.95
508.409	4304.99
508.777	4337.75
509.145	4381.14
509.514	4410.29
509.882	4455.26
510.25	4422.27
510.618	4505.66
510.986	4536.62
511.354	4573.91
511.722	4586.33
512.09	4658.42
512.458	4612.55
512.826	4676.73
513.193	4767.8
513.561	4739.78
513.929	4770.74
514.297	4811.19
514.664	4866.55
515.032	4854.8
515.4	4935.93
515.767	4934.8
516.135	5005.53
516.502	4978.87
516.869	5043.27
517.237	5075.13
517.604	5068.36
517.972	5127.56
518.339	5174.12
518.706	5215.24
519.073	5223.38
519.44	5241.23
519.808	5316.26
520.175	5341.57
520.542	5397.16
520.909	5449.36
521.276	5365.75
521.643	5478.51
522.009	5487.33
522.376	5548.34
522.743	5592.41
523.11	5642.8
523.477	5681.22
523.843	5744.95
524.21	5788.11
524.577	5830.37
524.943	5825.4
525.31	5925.73
525.676	5924.83
526.043	5980.65
526.409	5989.91
526.776	6095.22
527.142	6027.43
527.508	6088.67
527.874	6168.67
528.241	6157.82
528.607	6187.87
528.973	6229.68
529.339	6254.09
529.705	6261.09
530.071	6351.94
530.437	6373.63
530.803	6452.27
531.169	6489.79
531.535	6407.53
531.901	6433.07
532.267	6537.02
532.632	6539.05
532.998	6555.77
533.364	6607.07
533.73	6616.79
534.095	6622.44
534.461	6682.32
534.826	6722.1
535.192	6786.05
535.557	6810.46
535.923	6861.08
536.288	6844.35
536.653	6841.64
537.019	6883.45
537.384	6905.6
537.749	6967.06
538.114	6938.36
538.479	7001.64
538.845	7014.52
539.21	7042.99
539.575	7102.65
539.94	7158.47
540.305	7130
540.67	7170
541.034	7181.07
541.399	7261.74
541.764	7235.08
542.129	7239.82
542.494	7342.87
542.858	7343.55
543.223	7371.57
543.587	7360.95
543.952	7414.28
544.316	7468.29
544.681	7449.31
545.045	7534.51
545.41	7580.15
545.774	7622.19
546.138	7608.18
546.503	7671.45
546.867	7639.14
547.231	7696.31
547.595	7774.5
547.959	7790.32
548.324	7807.49
548.688	7883.65
549.052	7925.23
549.416	7945.34
549.779	7992.12
550.143	7989.41
550.507	8056.07
550.871	8093.36
551.235	8194.83
551.599	8274.15
551.962	8305.11
552.326	8323.41
552.689	8388.72
553.053	8390.3
553.417	8425.33
553.78	8516.63
554.143	8473.92
554.507	8607.25
554.87	8559.11
555.234	8682.72
555.597	8722.5
555.96	8814.02
556.323	8805.21
556.686	8847.47
557.05	8950.97
557.413	9021.7
557.776	9033.45
558.139	9107.12
558.502	9145.99
558.865	9189.83
559.228	9306.66
559.59	9375.81
559.953	9367.23
560.316	9582.81
560.679	9490.16
561.041	9684.96
561.404	9759.53
561.767	9814.45
562.129	9874.1
562.492	10042.01
562.854	10023.25
563.217	10061.67
563.579	10201.33
563.941	10248.33
564.304	10343.24
564.666	10429.34
565.028	10514.99
565.39	10595.44
565.753	10796.34
566.115	10892.61
566.477	10924.02
566.839	11084.02
567.201	11191.81
567.563	11259.15
567.925	11343.67
568.287	11555.42
568.648	11586.6
569.01	11802.64
569.372	11984.33
569.734	11986.37
570.095	12169.41
570.457	12324.21
570.819	12413.7
571.18	12600.81
571.542	12745.67
571.903	12851.2
572.265	13066.34
572.626	13238.76
572.987	13304.98
573.349	13533.67
573.71	13743.83
574.071	13958.74
574.432	14177.27
574.794	14375.46
575.155	14559.18
575.516	14674.2
575.877	14925.5
576.238	15207.98
576.599	15457.91
576.96	15630.56
577.32	15816.55
577.681	16163.43
578.042	16306.7
578.403	16589.86
578.763	16951.66
579.124	17245.44
579.485	17573.56
579.845	17741.02
580.206	18109.37
580.566	18440.21
580.927	18664.83
581.287	19122.22
581.648	19296
582.008	19702.77
582.368	20021.18
582.728	20373.04
583.089	20580.04
583.449	20979.58
583.809	21303.41
584.169	21777.29
584.529	22064.52
584.889	22637.61
585.249	22935.23
585.609	23330.47
585.969	23856.11
586.329	24061.3
586.688	24577.9
587.048	24999.13
587.408	25325.68
587.768	25688.6
588.127	26211.08
588.487	26559.99
588.846	27333.08
589.206	27444.26
589.565	27963.35
589.925	28463.22
590.284	28839.93
590.643	29345.23
591.003	29783.19
591.362	30376.39
591.721	30730.73
592.08	31107.44
592.44	31880.53
592.799	32285.27
593.158	32697.91
593.517	33221.29
593.876	33614.05
594.235	34060.36
594.593	34575.83
594.952	35218.52
595.311	35523.37
595.67	36140.31
596.029	36731.03
596.387	36999.72
596.746	37623.21
597.104	37963.54
597.463	38429.29
597.822	38845.77
598.18	39205.31
598.538	39651.63
598.897	40344.04
599.255	40443.92
599.613	41456.78
599.972	41444.8
600.33	41998.01
600.688	42283.87
601.046	42873.92
601.404	43332.43
601.762	43674.8
602.12	44255.8
602.478	44534.89
602.836	44833.19
603.194	45048.32
603.552	45494.19
603.91	45837.68
604.268	46273.83
604.625	46515.4
604.983	47037.42
605.341	47001.72
605.698	47508.37
606.056	47916.27
606.413	48070.39
606.771	48490.49
607.128	48769.13
607.485	48852.51
607.843	49117.59
608.2	49486.85
608.557	49838.7
608.914	49871.7
609.272	50334.28
609.629	50435.52
609.986	50746.93
610.343	50791.67
610.7	51164.32
611.057	51288.38
611.414	51423.52
611.771	51541.94
612.127	51806.34
612.484	51983.96
612.841	52145.76
613.198	52129.94
613.554	52310.5
613.911	52608.57
614.267	52703.04
614.624	52746.2
614.98	52896.7
615.337	53054.66
615.693	53196.58
616.05	53278.61
616.406	53543.47
616.762	53372.4
617.118	53571.03
617.475	53693.74
617.831	53841.99
618.187	53937.58
618.543	54068.87
618.899	54196.56
619.255	54245.37
619.611	54269.1
619.967	54446.04
620.323	54490.78
620.678	54456.89
621.034	54401.3
621.39	54458.02
621.746	54512.93
622.101	54912.92
622.457	54663.89
622.812	54765.81
623.168	54830.66
623.523	54897.33
623.879	55031.79
624.234	54790.21
624.589	55079.24
624.945	55067.04
625.3	55142.29
625.655	55089.19
626.01	55194.04
626.365	55226.58
626.72	55187.49
627.075	55184.1
627.43	55269.97
627.785	55155.63
628.14	55335.96
628.495	55312.68
628.85	55382.06
629.205	55327.6
629.559	55480.14
629.914	55363.98
630.269	55414.83
630.623	55355.62
630.978	55319.24
631.332	55437.43
631.687	55501.15
632.041	55403.08
632.396	55460.93
632.75	55364.43
633.104	55433.58
633.459	55283.53
633.813	55298.45
634.167	55262.06
634.521	55337.09
634.875	55380.7
635.229	55306.58
635.583	55210.99
635.937	55253.7
636.291	55236.3
636.645	55263.19
636.999	55209.64
637.352	55293.7
637.706	55139.36
638.06	55305.23
638.413	55197.43
638.767	55156.53
639.121	55256.41
639.474	55054.84
639.828	55084.44
640.181	55152.46
640.534	55216.87
640.888	55079.47
641.241	55053.26
641.594	55084.22
641.947	55075.4
642.301	55062.75
642.654	55063.88
643.007	55104.33
643.36	55140.71
643.713	55034.5
644.066	55135.51
644.419	54928.51
644.771	54790.66
645.124	54512.48
645.477	54469.09
645.83	54340.05
646.182	54204.24
646.535	54199.27
646.888	54262.99
647.24	54130.34
647.593	54286.27
647.945	54273.39
648.298	54081.53
648.65	54088.08
649.002	53907.98
649.355	54111.81
649.707	54034.75
650.059	54131.92
650.411	54446.94
650.763	54533.27
651.115	54769.42
651.467	54728.52
651.819	54731.23
652.171	54697.11
652.523	54670.44
652.875	54677.22
653.227	54537.11
653.578	54695.53
653.93	54688.29
654.282	54598.35
654.633	54444.91
654.985	54571.91
655.337	54582.76
655.688	54532.82
656.039	54646.26
656.391	54441.29
656.742	54450.79
657.094	54578.92
657.445	54639.48
657.796	54517.68
658.147	54479.71
658.498	54448.3
658.849	54518.13
659.2	54479.49
659.551	54467.28
659.902	54502.08
660.253	54512.25
660.604	54571.01
660.955	54345.7
661.306	54475.19
661.656	54454.4
662.007	54423.22
662.358	54484.68
662.708	54479.71
663.059	54387.96
663.409	54269.1
663.76	54513.16
664.11	54455.98
664.461	54495.98
664.811	54561.74
665.161	54417.79
665.511	54358.81
665.862	54468.41
666.212	54483.1
666.562	54542.76
666.912	54415.53
667.262	54372.37
667.612	54344.12
667.962	54341.41
668.312	54252.82
668.662	54388.19
669.011	54317.68
669.361	54295.08
669.711	54332.82
670.06	54235.42
670.41	54266.16
670.76	54135.54
671.109	54321.3
671.459	54234.97
671.808	54161.98
672.157	54171.7
672.507	54023.23
672.856	54000.63
673.205	53993.85
673.554	54175.09
673.904	53994.3
674.253	54193.39
674.602	54026.16
674.951	53691.26
675.3	53428.44
675.649	53862.55
675.998	53880.41
676.346	53916.56
676.695	53966.28
677.044	53796.79
677.393	53785.49
677.741	53892.38
678.09	53813.29
678.438	53754.76
678.787	53717.47
679.135	53786.62
679.484	53550.47
679.832	53641.99
680.181	53501.66
680.529	53557.02
680.877	53550.02
681.225	53538.04
681.573	53646.06
681.922	53413.98
682.27	53308.22
682.618	53399.97
682.966	53238.61
683.314	53410.14
683.661	53249.91
684.009	53145.74
684.357	53131.5
684.705	53028.68
685.053	53040.88
685.4	52997.72
685.748	52810.15
686.095	52862.8
686.443	52715.92
686.79	52706.42
687.138	52811.73
687.485	52745.75
687.832	52656.48
688.18	52686.31
688.527	52470.27
688.874	52393.89
689.221	52290.62
689.568	52277.51
689.915	52198.64
690.262	52247.45
690.609	52092.66
690.956	52055.82
691.303	51999.1
691.65	51832.1
691.997	51811.76
692.344	51579
692.69	51598.21
693.037	51623.97
693.383	51347.14
693.73	51501.94
694.077	51149.63
694.423	51193.47
694.769	51158.44
695.116	51059.91
695.462	51087.71
695.808	50895.63
696.155	50875.74
696.501	50670.32
696.847	50713.93
697.193	50350.1
697.539	50523.43
697.885	50239.37
698.231	50217.45
698.577	50284.34
698.923	50015.2
699.269	49925.26
699.614	49793.51
699.96	49722.32
700.306	49674.87
700.651	49595.32
700.997	49466.28
701.342	49320.75
701.688	49327.3
702.033	49169.34
702.379	49190.59
702.724	49085.5
703.069	48975
703.415	48727.55
703.76	48790.37
704.105	48728.45
704.45	48575.01
704.795	48397.39
705.14	48271.74
705.485	48289.37
705.83	48103.38
706.175	48170.95
706.52	47940.45
706.865	47876.04
707.209	47856.38
707.554	47650.74
707.899	47734.35
708.243	47443.96
708.588	47446.22
708.932	47066.57
709.277	47182.5
709.621	47072.67
709.966	46859.8
710.31	46952.9
710.654	46563.76
710.998	46744.77
711.342	46808.73
711.687	46540.03
712.031	46352.92
712.375	46241.74
712.719	46409.42
713.063	46266.82
713.407	46404.9
713.75	46140.72
714.094	46236.99
714.438	45882.65
714.782	45919.71
715.125	45751.58
715.469	45837.68
715.812	45598.59
716.156	45526.73
716.499	45604.92
716.843	45514.07
717.186	45381.19
717.53	45469.33
717.873	45385.94
718.216	45365.15
718.559	45153.4
718.902	44960.64
719.246	44992.05
719.589	44919.51
719.932	44871.38
720.275	44785.28
720.617	44731.72
720.96	44651.95
721.303	44633.19
721.646	44587.77
721.989	44245.86
722.331	44466.64
722.674	44369.02
723.016	44388.68
723.359	44337.15
723.701	44303.71
724.044	44074.34
724.386	43866.88
724.729	44142.13
725.071	43965.41
725.413	43892.87
725.755	43922.25
726.097	43752.54
726.439	43494.92
726.782	43697.62
727.124	43636.15
727.465	43521.81
727.807	43555.71
728.149	43443.17
728.491	43424.18
728.833	43458.53
729.175	43391.19
729.516	43251.98
729.858	43326.56
730.199	43203.85
730.541	43238.65
730.882	43080.69
731.224	43173.34
731.565	42845.22
731.906	42931.54
732.248	43053.12
732.589	42781.71
732.93	42620.59
733.271	42772.9
733.612	42817.87
733.953	42654.94
734.294	42587.37
734.635	42409.07
734.976	42535.62
735.317	42386.7
735.658	42477.99
735.999	42459.91
736.339	42439.12
736.68	42329.75
737.021	42309.41
737.361	42172.92
737.702	42339.01
738.042	42047.95
738.383	42121.39
738.723	41993.26
739.063	41921.4
739.404	41999.81
739.744	42018.8
740.084	41896.09
740.424	41990.77
740.764	41684.34
741.104	41883.21
741.444	41700.16
741.784	41554.4
742.124	41700.39
742.464	41630.11
742.804	41702.87
743.143	41478.47
743.483	41464.46
743.823	41214.75
744.162	41303.79
744.502	41391.02
744.841	41273.96
745.181	41252.04
745.52	41175.2
745.86	41182.66
746.199	41213.85
746.538	41082.32
746.877	41084.58
747.216	41043.68
747.556	40925.04
747.895	40861.76
748.234	40799.85
748.573	40876.45
748.911	40718.49
749.25	40627.42
749.589	40600.75
749.928	40617.25
750.267	40729.11
750.605	40417.03
750.944	40430.36
751.283	40262.91
751.621	40320.99
751.96	40228.33
752.298	40286.86
752.636	40175.45
752.975	39966.19
753.313	39861.56
753.651	40082.8
753.989	39773.21
754.327	39740.89
754.666	39583.38
755.004	39673.1
755.342	39645.53
755.679	39563.04
756.017	39320.34
756.355	39515.81
756.693	39342.48
757.031	39302.03
757.368	39057.07
757.706	39065.2
758.044	38948.82
758.381	38885.09
758.719	38908.14
759.056	38845.77
759.394	38690.52
759.731	38483.52
760.068	38488.04
760.405	38296.41
760.743	38238.56
761.08	38149.07
761.417	38015.29
761.754	38055.96
762.091	37831.79
762.428	37764.22
762.765	37466.6
763.102	37702.98
763.438	37450.1
763.775	37315.64
764.112	37230.67
764.449	37300.05
764.785	37279.03
765.122	36868.88
765.458	36706.62
765.795	36710.69
766.131	36705.26
766.467	36566.74
766.804	36460.75
767.14	36259.17
767.476	36102.79
767.812	36101.66
768.148	35977.83
768.485	35877.94
768.821	35788.45
769.157	35572.41
769.492	35523.15
769.828	35463.26
770.164	35122.71
770.5	35151.18
770.836	35238.41
771.171	34946.89
771.507	34940.56
771.842	34603.85
772.178	34597.52
772.513	34469.84
772.849	34373.8
773.184	34214.93
773.519	34218.32
773.855	34078.89
774.19	34026.69
774.525	33815.17
774.86	33771.56
775.195	33705.12
775.53	33609.3
775.865	33500.38
776.2	33210.44
776.535	32915.31
776.87	33060.84
777.205	32853.61
777.539	32713.73
777.874	32870.11
778.209	32548.99
778.543	32322.33
778.878	32285.72
779.212	32377.47
779.547	32122.56
779.881	32139.06
780.215	31944.48
780.55	31932.51
780.884	31791.04
781.218	31702.01
781.552	31483.71
781.886	31396.25
782.22	31360.55
782.554	31187.22
782.888	30868.58
783.222	30824.06
783.556	30735.25
783.889	30576.16
784.223	30441.02
784.557	30427.91
784.89	30373.9
785.224	30349.95
785.557	30080.58
785.891	30035.83
786.224	29965.78
786.558	29904.99
786.891	29557.66
787.224	29555.17
787.557	29448.28
787.891	29434.95
788.224	29447.83
788.557	29370.77
788.89	29215.97
789.223	29094.62
789.556	28914.73
789.888	28880.61
790.221	28825.24
790.554	28576.89
790.887	28608.08
791.219	28401.98
791.552	28299.61
791.884	28360.85
792.217	28194.3
792.549	28011.71
792.882	27983.69
793.214	27757.93
793.546	27856
793.879	27569.68
794.211	27493.53
794.543	27602.68
794.875	27419.63
795.207	27508.67
795.539	27270.94
795.871	27232.97
796.203	26965.41
796.535	26822.59
796.867	26957.95
797.198	26833.21
797.53	26855.81
797.862	26657.62
798.193	26681.35
798.525	26503.95
798.856	26400
799.188	26184.18
799.519	26052.44
799.85	26085.66
800.182	26069.61
800.513	26059.67
800.844	25656.51
801.175	25791.43
801.506	25882.72
801.837	25660.58
802.168	25674.37
802.499	25635.72
802.83	25416.75
803.161	25299.69
803.491	25362.51
803.822	25288.39
804.153	25163.87
804.483	25024.21
804.814	24850.66
805.145	24849.3
805.475	24849.53
805.805	24727.73
806.136	24888.4
806.466	24765.01
806.796	24711.23
807.126	24467.39
807.457	24457
807.787	24499.71
808.117	24277.12
808.447	24255.42
808.777	24316.89
809.107	24207.29
809.436	24012.49
809.766	24090.91
810.096	23901.53
810.426	23918.48
810.755	23914.19
811.085	23796.45
811.414	23802.55
811.744	23527.31
812.073	23489.79
812.403	23572.73
812.732	23371.83
813.061	23372.51
813.39	23283.24
813.719	23130.71
814.049	23272.4
814.378	23235.34
814.707	23102.01
815.036	22991.5
815.365	22932.29
815.693	22765.97
816.022	22741.34
816.351	22748.57
816.68	22602.13
817.008	22638.97
817.337	22441.23
817.665	22289.15
817.994	22477.16
818.322	22485.07
818.651	22302.48
818.979	22185.65
819.307	22371.63
819.636	22253.21
819.964	21993.56
820.292	22071.98
820.62	22063.84
820.948	22030.85
821.276	22092.31
821.604	21970.96
821.932	22008.25
822.259	22041.24
822.587	22022.26
822.915	21930.96
823.243	22105.42
823.57	22031.75
823.898	21997.4
824.225	21934.13
824.553	21839.89
824.88	22001.92
825.207	22016.16
825.535	21876.95
825.862	21985.2
826.189	21909.95
826.516	22012.54
826.843	21983.16
827.17	21969.61
827.497	22042.37
827.824	22037.4
828.151	21962.15
828.478	21980.45
828.805	22036.27
829.131	21952.43
829.458	21882.38
829.785	21725.32
830.111	21836.73
830.438	21961.92
830.764	21816.39
831.09	21913.11
831.417	21848.48
831.743	21869.95
832.069	21849.84
832.395	21741.59
832.722	21854.81
833.048	21666.34
833.374	21835.82
833.7	21617.98
834.026	21787.24
834.351	21768.03
834.677	21580.46
835.003	21679.44
835.329	21717.18
835.654	21571.88
835.98	21517.87
836.306	21560.8
836.631	21406.46
836.956	21522.61
837.282	21537.98
837.607	21334.59
837.932	21405.33
838.258	21334.59
838.583	21272.22
838.908	21237.65
839.233	21221.6
839.558	21229.51
839.883	21119.23
840.208	21042.62
840.533	21076.3
840.858	21006.02
841.182	21000.37
841.507	21037.65
841.832	20953.14
842.156	20802.41
842.481	20882.4
842.805	20855.06
843.13	20748.62
843.454	20763.76
843.778	20632.69
844.103	20630.66
844.427	20544.78
844.751	20582.07
845.075	20469.76
845.399	20382.76
845.723	20354.73
846.047	20340.27
846.371	20129.2
846.695	20259.59
847.019	20004.01
847.343	19850.34
847.666	19889.66
847.99	19790
848.313	19806.27
848.637	19626.84
848.96	19644.7
849.284	19559.27
849.607	19510.24
849.931	19348.21
850.254	19260.98
850.577	19199.28
850.9	19036.35
851.223	19016.92
851.546	19005.84
851.869	18812.63
852.192	18936.01
852.515	18648.79
852.838	18580.77
853.161	18675
853.483	18590.71
853.806	18441.34
854.129	18455.57
854.451	18310.49
854.774	18150.72
855.096	18121.8
855.419	18100.1
855.741	18072.99
856.063	18021.46
856.385	18068.01
856.708	17944.4
857.03	17742.37
857.352	17798.87
857.674	17694.92
857.996	17657.85
858.318	17581.92
858.64	17642.49
858.961	17502.83
859.283	17406.11
859.605	17325.66
859.926	17371.76
860.248	17320.46
860.57	17376.05
860.891	17330.41
861.212	17245.89
861.534	17188.71
861.855	17186.91
862.176	17113.01
862.498	17138.77
862.819	17180.58
863.14	17004.31
863.461	16993.47
863.782	16884.32
864.103	16983.3
864.424	16965.67
864.745	16916.18
865.065	16745.79
865.386	16758.44
865.707	16735.39
866.027	16735.85
866.348	16574.49
866.668	16715.51
866.989	16602.52
867.309	16527.72
867.63	16643.87
867.95	16553.93
868.27	16469.64
868.59	16489.3
868.91	16501.95
869.23	16351.22
869.55	16284.11
869.87	16395.06
870.19	16347.83
870.51	16354.61
870.83	16383.09
871.15	16284.56
871.469	16360.04
871.789	16194.62
872.109	16181.51
872.428	16134.51
872.748	16182.19
873.067	16081.85
873.386	16153.26
873.706	16089.99
874.025	16022.19
874.344	15975.87
874.663	15993.04
874.982	15928.86
875.301	15908.07
875.62	15831.91
875.939	15856.32
876.258	15808.41
876.577	15804.8
876.896	15869.2
877.214	15739.94
877.533	15639.38
877.852	15716.44
878.17	15643.44
878.489	15740.17
878.807	15600.51
879.125	15669.66
879.444	15607.29
879.762	15525.71
880.08	15494.07
880.398	15465.6
880.716	15489.32
881.034	15419.27
881.352	15405.94
881.67	15382.89
881.988	15368.42
882.306	15324.81
882.624	15242.33
882.941	15142.89
883.259	15153.74
883.577	15134.98
883.894	15106.28
884.212	15055.66
884.529	15048.21
884.846	14956.01
885.164	15016.79
885.481	14913.07
885.798	14792.62
886.115	14821.77
886.432	14779.74
886.75	14740.64
887.067	14780.87
887.383	14775.44
887.7	14673.3
888.017	14705.84
888.334	14711.49
888.651	14649.8
888.967	14482.12
889.284	14478.05
889.6	14501.33
889.917	14384.72
890.233	14394.89
890.55	14319.41
890.866	14291.62
891.182	14273.54
891.498	14154.22
891.815	14197.83
892.131	14123.03
892.447	14082.36
892.763	13963.71
893.079	14017.05
893.395	14006.43
893.71	13894.79
894.026	13955.58
894.342	13807.33
894.657	13688.69
894.973	13662.03
895.289	13683.95
895.604	13664.74
895.92	13560.34
896.235	13595.36
896.55	13539.32
896.865	13526.66
897.181	13420.68
897.496	13384.29
897.811	13289.61
898.126	13267.24
898.441	13257.74
898.756	13214.36
899.071	13076.28
899.386	13188.82
899.7	12965.55
900.015	12964.42
900.33	12879.22
900.644	12920.13
900.959	12827.7
901.273	12832.45
901.588	12773.92
901.902	12758.32
902.216	12644.65
902.531	12655.95
902.845	12570.08
903.159	12498.22
903.473	12424.77
903.787	12446.47
904.101	12331.22
904.415	12421.38
904.729	12333.48
905.042	12236.3
905.356	12246.47
905.67	12160.37
905.984	12201.5
906.297	12035.18
906.611	12079.02
906.924	12051
907.237	11974.39
907.551	11947.04
907.864	11789.76
908.177	11838.57
908.491	11777.56
908.804	11675.87
909.117	11696.2
909.43	11637.22
909.743	11538.47
910.056	11577.56
910.368	11507.28
910.681	11447.17
910.994	11329.21
911.307	11398.36
911.619	11244.92
911.932	11271.13
912.244	11153.17
912.557	11153.17
912.869	11058.71
913.181	11009.22
913.494	10978.26
913.806	10937.13
914.118	10894.87
914.43	10868.88
914.742	10842.21
915.054	10722.22
915.366	10712.5
915.678	10696.23
915.99	10671.82
916.302	10539.62
916.613	10510.47
916.925	10611.49
917.236	10456.01
917.548	10455.33
917.859	10375.56
918.171	10329.69
918.482	10310.48
918.794	10281.1
919.105	10160.88
919.416	10141.22
919.727	10081.56
920.038	10131.5
920.349	9990.26
920.66	9960.43
920.971	9914.33
921.282	9907.55
921.593	9823.94
921.903	9780.1
922.214	9738.97
922.525	9747.1
922.835	9674.11
923.146	9575.13
923.456	9608.35
923.767	9591.4
924.077	9495.36
924.387	9486.32
924.697	9407.68
925.008	9407.9
925.318	9370.39
925.628	9272.09
925.938	9244.74
926.248	9169.26
926.558	9167.91
926.867	9183.95
927.177	9119.32
927.487	9035.71
927.796	8996.16
928.106	9025.31
928.416	8948.48
928.725	8896.96
929.034	8785.32
929.344	8849.05
929.653	8754.81
929.962	8729.95
930.271	8753.23
930.581	8680.01
930.89	8700.12
931.199	8563.86
931.508	8511.65
931.817	8528.38
932.125	8488.15
932.434	8548.04
932.743	8412.45
933.051	8380.36
933.36	8345.33
933.669	8293.36
933.977	8268.05
934.286	8252.23
934.594	8174.94
934.902	8075.73
935.21	8096.98
935.519	8105.34
935.827	8080.71
936.135	8015.17
936.443	7976.98
936.751	7966.13
937.059	7884.1
937.367	7882.52
937.674	7858.79
937.982	7789.64
938.29	7840.49
938.597	7770.21
938.905	7674.61
939.213	7634.39
939.52	7590.1
939.827	7638.46
940.135	7577.44
940.442	7495.18
940.749	7452.25
941.056	7544.67
941.363	7388.75
941.67	7409.31
941.977	7355.98
942.284	7265.81
942.591	7252.7
942.898	7221.52
943.205	7227.85
943.511	7202.31
943.818	7140.17
944.125	7146.49
944.431	7111.47
944.738	7124.35
945.044	7073.27
945.35	6943.11
945.657	6970
945.963	6906.5
946.269	6912.6
946.575	6906.5
946.881	6882.55
947.187	6881.64
947.493	6761.42
947.799	6748.54
948.105	6765.71
948.41	6710.35
948.716	6658.14
949.022	6718.48
949.327	6645.04
949.633	6580.41
949.938	6553.97
950.244	6537.02
950.549	6503.35
950.854	6477.13
951.16	6454.53
951.465	6440.07
951.77	6416.12
952.075	6382.9
952.38	6396
952.685	6358.72
952.99	6289.79
953.294	6225.61
953.599	6202.79
953.904	6151.94
954.209	6108.78
954.513	6155.11
954.818	6132.06
955.122	6092.51
955.426	6095.67
955.731	6066.97
956.035	5988.78
956.339	6019.74
956.643	6004.38
956.948	5923.47
957.252	5859.07
957.556	5899.07
957.86	5869.92
958.163	5885.51
958.467	5827.21
958.771	5740.65
959.075	5713.99
959.378	5730.94
959.682	5663.14
959.985	5662.24
960.289	5629.7
960.592	5581.34
960.896	5586.99
961.199	5550.83
961.502	5532.98
961.805	5509.47
962.108	5465.41
962.411	5441.68
962.714	5450.94
963.017	5390.61
963.32	5439.65
963.623	5346.99
963.926	5409.36
964.228	5309.25
964.531	5299.54
964.833	5294.56
965.136	5239.65
965.438	5258.63
965.741	5166.21
966.043	5165.08
966.345	5166.66
966.648	5165.75
966.95	5163.27
967.252	5070.16
967.554	5096.6
967.856	5018.41
968.158	4949.04
968.46	4972.76
968.761	4969.83
969.063	4921.01
969.365	4914.01
969.666	4892.77
969.968	4857.51
970.269	4841.02
970.571	4841.24
970.872	4834.01
971.174	4795.82
971.475	4750.17
971.776	4780.91
972.077	4697.07
972.378	4736.61
972.679	4706.78
972.98	4679.44
973.281	4656.61
973.582	4612.32
973.883	4564.19
974.183	4563.51
974.484	4560.12
974.785	4545.43
975.085	4546.79
975.386	4551.53
975.686	4530.52
975.986	4498.88
976.287	4466.56
976.587	4394.7
976.887	4369.39
977.187	4377.3
977.487	4370.97
977.787	4332.1
978.087	4326.91
978.387	4289.39
978.687	4285.78
978.987	4325.78
979.286	4246.23
979.586	4231.77
979.885	4205.1
980.185	4156.29
980.484	4154.48
980.784	4140.02
981.083	4128.04
981.382	4095.5
981.682	4090.3
981.981	4085.78
982.28	4046.46
982.579	3994.94
982.878	4013.92
983.177	4013.24
983.475	3983.41
983.774	3966.24
984.073	3942.74
984.372	3979.8
984.67	3928.27
984.969	3888.95
985.267	3875.84
985.566	3860.93
985.864	3862.74
986.162	3843.3
986.461	3802.4
986.759	3822.29
987.057	3739.12
987.355	3730.09
987.653	3738.9
987.951	3705.91
988.249	3684.44
988.547	3653.03
988.844	3641.73
989.142	3613.03
989.44	3641.95
989.737	3628.62
990.035	3598.79
990.332	3562.18
990.63	3573.25
990.927	3553.82
991.224	3502.75
991.521	3464.78
991.819	3470.66
992.116	3505.01
992.413	3438.57
992.71	3420.49
993.006	3429.75
993.303	3377.33
993.6	3384.56
993.897	3368.06
994.193	3364.22
994.49	3380.94
994.787	3305.69
995.083	3284.45
995.379	3272.24
995.676	3310.66
995.972	3236.77
996.268	3189.08
996.565	3226.37
996.861	3223.66
997.157	3209.65
997.453	3162.19
997.749	3168.97
998.044	3165.58
998.34	3156.99
998.636	3099.59
998.932	3088.75
999.227	3076.54
999.523	3070.44
999.818	3047.39
1000.114	3037.9
1000.409	2989.99
1000.704	3001.07
1001	2946.83
1001.295	2952.7
1001.59	2932.14
1001.885	2938.47
1002.18	2901.63
1002.475	2891.92
1002.77	2869.09
1003.065	2856.66
1003.359	2870.9
1003.654	2814.18
1003.949	2792.26
1004.243	2784.12
1004.538	2795.19
1004.832	2757.23
1005.127	2752.26
1005.421	2717.68
1005.715	2728.98
1006.009	2702.99
1006.304	2688.08
1006.598	2693.95
1006.892	2611.47
1007.186	2627.06
1007.48	2617.12
1007.773	2572.38
1008.067	2606.73
1008.361	2580.06
1008.655	2571.7
1008.948	2551.36
1009.242	2533.96
1009.535	2492.83
1009.829	2505.94
1010.122	2463.45
1010.415	2490.57
1010.708	2444.7
1011.001	2440.63
1011.295	2413.28
1011.588	2435.88
1011.881	2395.21
1012.173	2369.44
1012.466	2385.49
1012.759	2361.76
1013.052	2340.97
1013.344	2323.79
1013.637	2297.81
1013.93	2300.07
1014.222	2277.24
1014.514	2271.14
1014.807	2230.01
1015.099	2217.58
1015.391	2194.53
1015.683	2194.31
1015.976	2208.54
1016.268	2218.94
1016.56	2183.01
1016.851	2146.4
1017.143	2170.13
1017.435	2119.51
1017.727	2101.2
1018.018	2091.48
1018.31	2072.95
1018.602	2050.58
1018.893	2039.96
1019.185	2013.52
1019.476	1993.63
1019.767	2005.61
1020.058	1995.67
1020.35	1979.85
1020.641	1964.71
1020.932	1961.54
1021.223	1957.93
1021.514	1937.14
1021.804	1879.06
1022.095	1929.45
1022.386	1884.26
1022.677	1883.81
1022.967	1884.26
1023.258	1842
1023.548	1836.35
1023.839	1818.05
1024.129	1841.32
1024.419	1815.56
1024.709	1769.01
1025	1777.59
1025.29	1731.95
1025.58	1745.28
1025.87	1734.21
1026.16	1742.34
1026.449	1731.27
1026.739	1682
1027.029	1730.82
1027.319	1689.69
1027.608	1682
1027.898	1653.76
1028.187	1608.33
1028.477	1642
1028.766	1600.42
1029.055	1573.53
1029.344	1576.92
1029.634	1601.1
1029.923	1598.16
1030.212	1531.5
1030.501	1545.96
1030.79	1537.15
1031.078	1517.04
1031.367	1491.05
1031.656	1505.06
1031.945	1477.72
1032.233	1484.72
1032.522	1468.9
1032.81	1460.31
1033.099	1447.89
1033.387	1434.78
1033.675	1390.71
1033.963	1444.5
1034.251	1412.18
1034.54	1397.04
1034.828	1390.94
1035.116	1373.09
1035.403	1352.75
1035.691	1372.63
1035.979	1335.8
1036.267	1345.29
1036.554	1319.98
1036.842	1324.27
1037.129	1319.75
1037.417	1321.56
1037.704	1292.41
1037.992	1307.1
1038.279	1284.5
1038.566	1277.72
1038.853	1277.72
1039.14	1277.72
