Data from orange_diffuse_book_FLMS001491_00004.txt Node
Date: Wed Feb 08 15:29:02 GMT 2017
User: dcchb
Spectrometer: FLMS00149
Trigger mode: 0
Integration Time (sec): 2.000000E-2
Scans to average: 10
Electric dark correction enabled: true
Nonlinearity correction enabled: false
Boxcar width: 0
XAxis mode: Wavelengths
Number of Pixels in Spectrum: 2048
>>>>>Begin Spectral Data<<<<<
341.393	-15.68
341.776	-15.68
342.16	-15.68
342.543	-48.67
342.927	-57.26
343.31	-73.98
343.693	-65.17
344.077	-73.98
344.46	-59.97
344.843	-53.64
345.226	-50.93
345.61	-25.62
345.993	-23.36
346.376	-19.07
346.759	12.8
347.142	26.81
347.525	43.98
347.908	44.43
348.291	80.82
348.674	121.04
349.057	115.84
349.44	107.71
349.823	141.38
350.206	179.35
350.588	194.03
350.971	227.71
351.354	247.14
351.737	253.24
352.119	247.37
352.502	274.71
352.884	279.68
353.267	294.82
353.65	301.38
354.032	314.94
354.414	310.87
354.797	312.9
355.179	316.29
355.562	334.82
355.944	337.76
356.326	362.84
356.709	340.92
357.091	353.58
357.473	336.18
357.855	347.25
358.238	344.76
358.62	343.18
359.002	362.39
359.384	355.61
359.766	331.66
360.148	355.16
360.53	348.15
360.912	361.94
361.294	344.99
361.676	318.55
362.057	342.05
362.439	325.33
362.821	342.28
363.203	317.42
363.584	328.95
363.966	348.38
364.348	354.26
364.729	318.55
365.111	310.19
365.493	320.36
365.874	318.55
366.256	336.63
366.637	329.62
367.019	315.61
367.4	340.92
367.781	312.22
368.163	323.75
368.544	299.57
368.925	316.52
369.306	331.21
369.688	342.28
370.069	323.75
370.45	355.61
370.831	344.99
371.212	330.98
371.593	313.35
371.974	316.29
372.355	307.48
372.736	342.73
373.117	337.99
373.498	325.1
373.879	338.89
374.26	341.6
374.641	330.08
375.021	316.07
375.402	342.73
375.783	341.38
376.163	330.53
376.544	338.44
376.925	343.64
377.305	352.22
377.686	333.24
378.066	323.3
378.447	340.25
378.827	345.22
379.208	342.05
379.588	324.88
379.968	346.8
380.349	336.4
380.729	337.99
381.109	353.8
381.489	357.87
381.87	351.09
382.25	346.8
382.63	343.41
383.01	367.36
383.39	345.44
383.77	360.36
384.15	355.61
384.53	375.95
384.91	354.03
385.29	355.16
385.67	361.04
386.049	364.43
386.429	348.38
386.809	363.52
387.189	361.26
387.568	377.08
387.948	370.98
388.328	363.97
388.707	375.27
389.087	361.49
389.466	366.69
389.846	365.78
390.225	359.68
390.605	362.17
390.984	383.63
391.363	383.63
391.743	394.03
392.122	350.41
392.501	401.71
392.881	410.07
393.26	392.22
393.639	394.03
394.018	381.37
394.397	383.63
394.776	395.39
395.155	377.53
395.534	389.51
395.913	404.2
396.292	397.87
396.671	404.88
397.05	402.62
397.429	385.89
397.808	384.09
398.186	416.63
398.565	406.23
398.944	392.22
399.323	410.07
399.701	406.23
400.08	400.58
400.458	442.16
400.837	434.25
401.215	407.36
401.594	400.58
401.972	442.84
402.351	412.33
402.729	457.76
403.107	434.71
403.486	435.84
403.864	436.51
404.242	423.63
404.62	429.73
404.999	428.83
405.377	452.56
405.755	455.72
406.133	456.4
406.511	457.3
406.889	464.08
407.267	455.95
407.645	457.98
408.023	464.99
408.401	456.17
408.779	480.81
409.156	464.08
409.534	466.8
409.912	480.81
410.29	487.13
410.667	477.64
411.045	482.84
411.422	498.89
411.8	497.53
412.178	516.96
412.555	510.86
412.933	502.27
413.31	505.21
413.687	496.17
414.065	513.12
414.442	512.44
414.819	508.15
415.197	526.23
415.574	550.41
415.951	534.36
416.328	539.56
416.705	551.09
417.082	555.15
417.46	526.46
417.837	565.55
418.214	544.08
418.591	548.15
418.967	558.09
419.344	566.45
419.721	547.25
420.098	550.41
420.475	563.74
420.852	569.62
421.228	579.56
421.605	598.32
421.982	601.26
422.358	590.63
422.735	586.57
423.111	606.23
423.488	600.13
423.864	594.25
424.241	613.23
424.617	608.49
424.994	615.27
425.37	616.85
425.746	614.14
426.123	642.16
426.499	652.33
426.875	620.92
427.251	635.6
427.627	646.9
428.003	654.36
428.379	654.81
428.756	652.1
429.132	651.42
429.507	666.34
429.883	689.39
430.259	689.16
430.635	683.97
431.011	672.44
431.387	685.55
431.763	707.24
432.138	708.6
432.514	745.43
432.89	724.64
433.265	721.03
433.641	742.49
434.016	735.49
434.392	724.64
434.767	768.03
435.143	768.71
435.518	760.8
435.894	790.4
436.269	780.91
436.644	822.27
437.02	801.93
437.395	782.49
437.77	800.57
438.145	820.01
438.52	824.07
438.895	822.04
439.271	830.4
439.646	845.54
440.021	842.15
440.395	855.03
440.77	844.41
441.145	860.23
441.52	881.47
441.895	848.93
442.27	875.82
442.645	868.59
443.019	870.17
443.394	870.17
443.769	886.22
444.143	884.64
444.518	884.41
444.892	890.29
445.267	895.94
445.641	913.11
446.016	886.22
446.39	912.89
446.764	917.86
447.139	922.15
447.513	944.52
447.887	939.78
448.262	936.16
448.636	935.71
449.01	956.5
449.384	966.22
449.758	937.97
450.132	959.89
450.506	963.73
450.88	948.82
451.254	962.6
451.628	974.58
452.002	979.78
452.376	1013.67
452.75	995.82
453.123	1011.41
453.497	1039.89
453.871	1040.11
454.244	1052.54
454.618	1047.35
454.992	1078.98
455.365	1065.88
455.739	1107.68
456.112	1103.84
456.486	1080.56
456.859	1098.87
457.232	1128.02
457.606	1109.72
457.979	1128.02
458.352	1127.34
458.725	1148.59
459.099	1150.62
459.472	1154.24
459.845	1177.29
460.218	1162.6
460.591	1203.05
460.964	1169.15
461.337	1190.39
461.71	1242.82
462.083	1238.75
462.456	1257.74
462.829	1240.79
463.201	1267.68
463.574	1249.37
463.947	1268.81
464.32	1274.01
464.692	1319.88
465.065	1327.56
465.438	1345.19
465.81	1333.44
466.183	1329.37
466.555	1365.08
466.928	1384.74
467.3	1363.95
467.672	1394
468.045	1413.44
468.417	1419.31
468.789	1447.56
469.161	1438.97
469.534	1444.17
469.906	1501.34
470.278	1482.36
470.65	1499.54
471.022	1521.91
471.394	1549.71
471.766	1527.78
472.138	1564.17
472.51	1612.53
472.882	1597.61
473.253	1623.83
473.625	1640.78
473.997	1650.49
474.369	1679.87
474.74	1687.55
475.112	1719.42
475.484	1727.1
475.855	1751.28
476.227	1775.46
476.598	1797.16
476.97	1817.95
477.341	1881.22
477.713	1903.59
478.084	1906.76
478.455	1936.14
478.827	1958.06
479.198	1998.28
479.569	1998.51
479.94	2038.96
480.311	2062.46
480.682	2097.94
481.053	2161.89
481.424	2182.91
481.795	2175.9
482.166	2229.91
482.537	2278.73
482.908	2294.77
483.279	2316.92
483.65	2355.79
484.021	2404.82
484.391	2427.42
484.762	2438.72
485.133	2462.45
485.503	2530.02
485.874	2555.55
486.244	2592.62
486.615	2643.69
486.985	2684.82
487.356	2695.66
487.726	2723.01
488.097	2770.01
488.467	2784.47
488.837	2865.38
489.207	2902.44
489.578	2964.58
489.948	2947.41
490.318	3027.86
490.688	3017.24
491.058	3075.99
491.428	3122.77
491.798	3173.84
492.168	3228.98
492.538	3231.69
492.908	3264.24
493.278	3301.3
493.648	3338.58
494.017	3407.96
494.387	3417.68
494.757	3488.86
495.126	3516.66
495.496	3499.94
495.866	3553.49
496.235	3583.78
496.605	3645.24
496.974	3640.5
497.344	3700.61
497.713	3718.91
498.082	3733.83
498.452	3789.87
498.821	3802.98
499.19	3879.36
499.559	3927.95
499.928	3912.35
500.298	3948.51
500.667	3984.9
501.036	4055.4
501.405	4025.57
501.774	4058.34
502.143	4072.12
502.512	4110.77
502.88	4200.26
503.249	4249.52
503.618	4275.06
503.987	4283.64
504.356	4278.45
504.724	4321.38
505.093	4343.53
505.462	4386.01
505.83	4402.96
506.199	4424.88
506.567	4483.19
506.936	4508.27
507.304	4552.56
507.672	4562.28
508.041	4604.99
508.409	4661.04
508.777	4718.89
509.145	4750.3
509.514	4782.39
509.882	4795.5
510.25	4805.66
510.618	4806.79
510.986	4914.14
511.354	4887.24
511.722	4966.34
512.09	5000.69
512.458	4985.55
512.826	5027.35
513.193	5060.35
513.561	5113
513.929	5135.83
514.297	5149.61
514.664	5231.87
515.032	5236.39
515.4	5234.35
515.767	5293.34
516.135	5355.25
516.502	5347.12
516.869	5405.2
517.237	5512.76
517.604	5474.35
517.972	5520.45
518.339	5539.43
518.706	5609.71
519.073	5626.21
519.44	5660.11
519.808	5707.34
520.175	5651.07
520.542	5828.69
520.909	5812.19
521.276	5837.5
521.643	5921.12
522.009	5969.02
522.376	5983.71
522.743	5984.39
523.11	6057.38
523.477	6091.28
523.843	6088.34
524.21	6191.84
524.577	6263.93
524.943	6296.92
525.31	6373.31
525.676	6355.23
526.043	6397.04
526.409	6463.47
526.776	6461.89
527.142	6533.98
527.508	6581.89
527.874	6677.25
528.241	6607.2
528.607	6674.99
528.973	6761.32
529.339	6805.84
529.705	6855.1
530.071	6841.77
530.437	6917.93
530.803	6929.9
531.169	6948.21
531.535	6951.14
531.901	7005.38
532.267	7010.58
532.632	7141.42
532.998	7098.71
533.364	7140.74
533.73	7220.97
534.095	7242.44
534.461	7228.88
534.826	7327.18
535.192	7321.76
535.557	7383.68
535.923	7367.18
536.288	7384.13
536.653	7498.93
537.019	7464.58
537.384	7498.25
537.749	7566.95
538.114	7536.44
538.479	7506.61
538.845	7586.83
539.21	7651.92
539.575	7651.01
539.94	7692.37
540.305	7779.15
540.67	7768.3
541.034	7792.93
541.399	7843.32
541.764	7889.88
542.129	7965.36
542.494	7973.94
542.858	8015.98
543.223	7975.98
543.587	8023.43
543.952	8081.28
544.316	8062.08
544.681	8102.3
545.045	8118.35
545.41	8200.6
545.774	8219.59
546.138	8255.07
546.503	8259.81
546.867	8354.5
547.231	8362.86
547.595	8463.65
547.959	8452.8
548.324	8465.91
548.688	8513.36
549.052	8526.47
549.416	8603.08
549.779	8589.97
550.143	8686.47
550.507	8709.74
550.871	8813.24
551.235	8747.48
551.599	8886.69
551.962	8846.46
552.326	8857.76
552.689	9025.89
553.053	8962.39
553.417	9022.28
553.78	9134.36
554.143	9142.05
554.507	9216.4
554.87	9195.83
555.234	9395.15
555.597	9346.56
555.96	9396.5
556.323	9423.4
556.686	9511.98
557.05	9575.71
557.413	9601.7
557.776	9603.96
558.139	9719.43
558.502	9727.57
558.865	9824.74
559.228	9849.6
559.59	9965.08
559.953	10006.66
560.316	10173.21
560.679	10194.9
561.041	10259.31
561.404	10405.07
561.767	10405.07
562.129	10437.83
562.492	10572.07
562.854	10583.14
563.217	10691.61
563.579	10773.87
563.941	10902.23
564.304	10934.99
564.666	11120.07
565.028	11119.85
565.39	11253.18
565.753	11337.24
566.115	11364.14
566.477	11550.57
566.839	11681.19
567.201	11732.04
567.563	11770.68
567.925	11966.38
568.287	12045.25
568.648	12172.02
569.01	12318.69
569.372	12481.85
569.734	12431.68
570.095	12680.26
570.457	12840.03
570.819	12930.2
571.18	13084.54
571.542	13147.37
571.903	13283.18
572.265	13430.3
572.626	13647.47
572.987	13788.71
573.349	13915.93
573.71	14214.46
574.071	14346.43
574.432	14383.27
574.794	14710.04
575.155	14897.6
575.516	15006.07
575.877	15229.35
576.238	15414.65
576.599	15693.97
576.96	15828.88
577.32	16066.39
577.681	16252.37
578.042	16462.76
578.403	16697.1
578.763	16892.58
579.124	17217.32
579.485	17458.44
579.845	17803.29
580.206	18046.45
580.566	18217.97
580.927	18606.21
581.287	18894.11
581.648	19077.15
582.008	19392.85
582.368	19667.65
582.728	20027.19
583.089	20363
583.449	20647.06
583.809	20928.18
584.169	21290.65
584.529	21551.44
584.889	22016.74
585.249	22230.29
585.609	22653.56
585.969	23048.57
586.329	23345.06
586.688	23823.24
587.048	24175.78
587.408	24438.37
587.768	24884.68
588.127	25142.53
588.487	25552.46
588.846	26065.9
589.206	26377.75
589.565	26737.74
589.925	27295.24
590.284	27557.38
590.643	28038.5
591.003	28431.94
591.362	28937.91
591.721	29335.87
592.08	29771.11
592.44	30209.74
592.799	30613.12
593.158	31050.4
593.517	31541.46
593.876	32026.19
594.235	32326.52
594.593	32772.39
594.952	33292.15
595.311	33720.16
595.67	34167.83
596.029	34690.08
596.387	35229.27
596.746	35636.72
597.104	35941.57
597.463	36290.71
597.822	36824.71
598.18	37005.04
598.538	37405.49
598.897	38087.95
599.255	38162.75
599.613	39075.27
599.972	39209.28
600.33	39821.69
600.688	39959.99
601.046	40425.74
601.404	40983.02
601.762	41192.73
602.12	41816.89
602.478	42018.92
602.836	42368.07
603.194	42651.22
603.552	43079.69
603.91	43257.99
604.268	43775.49
604.625	44010.51
604.983	44443.94
605.341	44572.08
605.698	44976.59
606.056	45490.24
606.413	45543.35
606.771	46039.38
607.128	46317.57
607.485	46353.27
607.843	46724.11
608.2	47080.94
608.557	47301.04
608.914	47433.47
609.272	47955.04
609.629	48135.37
609.986	48397.29
610.343	48432.99
610.7	48958.4
611.057	48925.18
611.414	49219.86
611.771	49308.45
612.127	49524.71
612.484	49744.37
612.841	49905.95
613.198	49975.78
613.554	50082.44
613.911	50466.84
614.267	50465.93
614.624	50619.38
614.98	50782.53
615.337	50920.61
615.693	51062.08
616.05	51133.49
616.406	51424.55
616.762	51336.64
617.118	51463.42
617.475	51490.09
617.831	51803.07
618.187	51890.3
618.543	51933.92
618.899	52189.73
619.255	52172.55
619.611	52136.62
619.967	52394.7
620.323	52476.95
620.678	52314.02
621.034	52318.99
621.39	52504.75
621.746	52460.91
622.101	52849.83
622.457	52709.49
622.812	52725.53
623.168	52877.17
623.523	52956.04
623.879	53056.83
624.234	52862.71
624.589	53044.17
624.945	53091.4
625.3	53218.85
625.655	53239.65
626.01	53273.77
626.365	53179.99
626.72	53213.21
627.075	53238.52
627.43	53250.72
627.785	53286.88
628.14	53382.69
628.495	53390.83
628.85	53360.09
629.205	53352.86
629.559	53479.19
629.914	53367.78
630.269	53421.34
630.623	53302.69
630.978	53295.46
631.332	53527.32
631.687	53537.04
632.041	53471.5
632.396	53459.3
632.75	53309.93
633.104	53404.61
633.459	53303.6
633.813	53294.56
634.167	53358.51
634.521	53342.02
634.875	53489.58
635.229	53416.14
635.583	53191.29
635.937	53360.32
636.291	53281.23
636.645	53309.7
636.999	53203.49
637.352	53283.71
637.706	53186.31
638.06	53262.92
638.413	53206.88
638.767	53177.73
639.121	53213.66
639.474	52995.81
639.828	53069.03
640.181	53136.82
640.534	53094.34
640.888	53100.44
641.241	52931.18
641.594	53023.15
641.947	53113.55
642.301	53049.82
642.654	53122.36
643.007	53085.3
643.36	53084.4
643.713	53039.88
644.066	53071.29
644.419	52909.71
644.771	52747.45
645.124	52438.54
645.477	52399.44
645.83	52271.31
646.182	52146.79
646.535	51988.6
646.888	52197.41
647.24	52068.6
647.593	52137.53
647.945	51994.03
648.298	51983.18
648.65	51864.54
649.002	51762.62
649.355	51869.06
649.707	51869.29
650.059	52071.54
650.411	52399.67
650.763	52410.51
651.115	52752.2
651.467	52659.1
651.819	52623.62
652.171	52603.05
652.523	52589.72
652.875	52586.1
653.227	52456.84
653.578	52722.82
653.93	52548.36
654.282	52402.15
654.633	52382.49
654.985	52460.91
655.337	52481.93
655.688	52460.46
656.039	52577.52
656.391	52326.22
656.742	52373.23
657.094	52402.38
657.445	52594.46
657.796	52452.1
658.147	52420.23
658.498	52387.46
658.849	52461.81
659.2	52442.83
659.551	52363.51
659.902	52341.59
660.253	52313.34
660.604	52339.78
660.955	52236.51
661.306	52339.1
661.656	52347.24
662.007	52276.05
662.358	52344.75
662.708	52310.18
663.059	52306.11
663.409	52116.74
663.76	52342.49
664.11	52230.18
664.461	52323.96
664.811	52421.36
665.161	52262.27
665.511	52210.75
665.862	52146.11
666.212	52390.4
666.562	52369.84
666.912	52322.61
667.262	52273.34
667.612	52175.72
667.962	52251.87
668.312	52119.9
668.662	52264.08
669.011	52204.64
669.361	52212.55
669.711	52153.8
670.06	52134.82
670.41	52024.31
670.76	51973.01
671.109	52062.95
671.459	51986.57
671.808	51917.65
672.157	52016.85
672.507	51781.83
672.856	51858.44
673.205	51907.02
673.554	51900.47
673.904	51861.83
674.253	51936.18
674.602	51823.86
674.951	51321.5
675.3	51174.39
675.649	51745.67
675.998	51732.11
676.346	51739.35
676.695	51813.47
677.044	51439.47
677.393	51608.95
677.741	51736.18
678.09	51517.88
678.438	51504.55
678.787	51578.22
679.135	51638.11
679.484	51368.28
679.832	51470.2
680.181	51266.82
680.529	51408.73
680.877	51242.41
681.225	51222.75
681.573	51403.99
681.922	51230.88
682.27	51058.23
682.618	51100.27
682.966	51041.51
683.314	51146.59
683.661	50958.35
684.009	50780.5
684.357	50700.5
684.705	50646.49
685.053	50843.55
685.4	50753.83
685.748	50577.79
686.095	50497.57
686.443	50455.76
686.79	50350.68
687.138	50442.2
687.485	50404.01
687.832	50277.24
688.18	50257.8
688.527	50058.26
688.874	50050.8
689.221	49961.31
689.568	49858.72
689.915	49838.6
690.262	49728.78
690.609	49758.15
690.956	49611.49
691.303	49579.18
691.65	49319.52
691.997	49328.34
692.344	49083.82
692.69	49089.47
693.037	49180.54
693.383	48823.94
693.73	48966.54
694.077	48761.8
694.423	48606.32
694.769	48775.36
695.116	48615.81
695.462	48571.52
695.808	48531.52
696.155	48428.92
696.501	48034.36
696.847	48146.9
697.193	47824.42
697.539	48027.8
697.885	47700.58
698.231	47637.31
698.577	47572.22
698.923	47467.14
699.269	47326.81
699.614	47174.95
699.96	47178.79
700.306	47098.79
700.651	46768.4
700.997	46642.76
701.342	46691.12
701.688	46692.7
702.033	46454.96
702.379	46458.35
702.724	46337.23
703.069	46467.39
703.415	45867.86
703.76	45988.99
704.105	45836.68
704.45	45829.22
704.795	45570.92
705.14	45494.09
705.485	45511.71
705.83	45362.79
706.175	45317.59
706.52	45301.55
706.865	45012.52
707.209	45064.95
707.554	44867.89
707.899	44940.43
708.243	44573.88
708.588	44553.77
708.932	44297.96
709.277	44234.01
709.621	44389.03
709.966	44035.82
710.31	44227.68
710.654	43801.48
710.998	43877.86
711.342	43895.03
711.687	43895.94
712.031	43612.55
712.375	43472.67
712.719	43526
713.063	43386.57
713.407	43564.19
713.75	43408.72
714.094	43304.99
714.438	43107.03
714.782	43103.87
715.125	42944.55
715.469	43021.83
715.812	42853.25
716.156	42751.33
716.499	42677.44
716.843	42744.55
717.186	42525.12
717.53	42617.55
717.873	42567.84
718.216	42529.42
718.559	42365.58
718.902	42079.71
719.246	42243.32
719.589	42148.41
719.932	41912.71
720.275	42021.64
720.617	41989.77
720.96	41784.81
721.303	41787.97
721.646	41702.1
721.989	41580.97
722.331	41629.78
722.674	41515.89
723.016	41487.86
723.359	41486.51
723.701	41422.78
724.044	41339.85
724.386	41066.63
724.729	41215.33
725.071	41217.14
725.413	41108.44
725.755	41110.02
726.097	41031.38
726.439	40823.25
726.782	40760.43
727.124	41005.16
727.465	40705.96
727.807	40621.45
728.149	40609.47
728.491	40469.81
728.833	40745.51
729.175	40471.85
729.516	40494.67
729.858	40438.63
730.199	40536.25
730.541	40406.08
730.882	40221.23
731.224	40359.08
731.565	40070.95
731.906	40176.49
732.248	40166.09
732.589	39949.83
732.93	40058.75
733.271	39918.41
733.612	39824.86
733.953	39977.62
734.294	39719.32
734.635	39783.73
734.976	39883.39
735.317	39585.99
735.658	39470.74
735.999	39643.39
736.339	39458.09
736.68	39557.07
737.021	39518.42
737.361	39243.63
737.702	39440.01
738.042	39240.01
738.383	39249.96
738.723	39389.61
739.063	39092.9
739.404	39140.58
739.744	39100.81
740.084	39193.01
740.424	39116.4
740.764	38968.83
741.104	39192.78
741.444	38905.78
741.784	38919.8
742.124	39025.33
742.464	38864.2
742.804	38702.63
743.143	38678.45
743.483	38636.19
743.823	38523.2
744.162	38532.69
744.502	38427.15
744.841	38501.28
745.181	38631.22
745.52	38442.29
745.86	38320.26
746.199	38352.13
746.538	38320.94
746.877	38407.04
747.216	38371.34
747.556	38110.33
747.895	38220.61
748.234	38055.41
748.573	38010.89
748.911	37898.13
749.25	38039.82
749.589	37883.89
749.928	37786.04
750.267	37965.24
750.605	37587.85
750.944	37648.87
751.283	37521.64
751.621	37591.47
751.96	37346.5
752.298	37389.44
752.636	37481.87
752.975	37219.05
753.313	37119.62
753.651	37236.22
753.989	37049.11
754.327	36994.2
754.666	36805.95
755.004	36953.97
755.342	36886.4
755.679	36907.42
756.017	36682.34
756.355	36706.97
756.693	36475.57
757.031	36535
757.368	36355.12
757.706	36408.9
758.044	36262.46
758.381	36182.24
758.719	36158.74
759.056	36057.72
759.394	36012.98
759.731	35719.88
760.068	35699.54
760.405	35525.31
760.743	35494.58
761.08	35572.09
761.417	35428.59
761.754	35357.86
762.091	35072.44
762.428	35180.69
762.765	34888.26
763.102	35061.82
763.438	34855.04
763.775	34744.31
764.112	34633.35
764.449	34621.83
764.785	34470.65
765.122	34345.9
765.458	34210.99
765.795	34133.48
766.131	34048.96
766.467	33982.75
766.804	33793.6
767.14	33600.39
767.476	33747.05
767.812	33464.35
768.148	33511.12
768.485	33386.61
768.821	33258.7
769.157	33163.11
769.492	33095.77
769.828	32979.16
770.164	32639.51
770.5	32664.59
770.836	32612.62
771.171	32510.47
771.507	32476.8
771.842	32086.76
772.178	32123.59
772.513	32067.32
772.849	32047.43
773.184	31927.66
773.519	31863.03
773.855	31627.56
774.19	31503.72
774.525	31438.86
774.86	31328.13
775.195	31387.79
775.53	31096.72
775.865	31012.66
776.2	30885.43
776.535	30621.93
776.87	30718.43
777.205	30497.42
777.539	30397.99
777.874	30370.19
778.209	30108.5
778.543	30068.05
778.878	29926.13
779.212	29891.33
779.547	29797.1
779.881	29886.59
780.215	29563.43
780.55	29615.18
780.884	29358.24
781.218	29335.19
781.552	29264.68
781.886	29134.29
782.22	29120.73
782.554	28904.24
782.888	28742.66
783.222	28619.28
783.556	28507.87
783.889	28411.15
784.223	28333.63
784.557	28186.97
784.89	28330.7
785.224	28101.55
785.557	27957.82
785.891	27850.03
786.224	27926.64
786.558	27757.15
786.891	27449.36
787.224	27319.65
787.557	27399.65
787.891	27323.26
788.224	27283.27
788.557	27163.49
788.89	27131.63
789.223	27078.3
789.556	26719.44
789.888	26742.49
790.221	26609.61
790.554	26487.13
790.887	26512.66
791.219	26421.59
791.552	26304.31
791.884	26219.34
792.217	26111.32
792.549	26128.72
792.882	25717.21
793.214	25855.28
793.546	25807.15
793.879	25632.69
794.211	25425.46
794.543	25631.78
794.875	25458.68
795.207	25461.84
795.539	25410.09
795.871	25374.39
796.203	25119.25
796.535	24980.73
796.867	24900.28
797.198	24869.32
797.53	24829.54
797.862	24779.38
798.193	24703.67
798.525	24495.54
798.856	24578.93
799.188	24318.37
799.519	24174.87
799.85	24155.44
800.182	24189.11
800.513	24173.06
800.844	23856.69
801.175	23999.28
801.506	23886.29
801.837	23766.07
802.168	23753.87
802.499	23708.9
802.83	23587.77
803.161	23498.28
803.491	23493.99
803.822	23390.03
804.153	23247.67
804.483	23166.31
804.814	23149.36
805.145	23073.43
805.475	23124.05
805.805	23067.78
806.136	22923.38
806.466	22881.8
806.796	22865.98
807.126	22590.96
807.457	22671.86
807.787	22656.49
808.117	22513.22
808.447	22430.06
808.777	22498.53
809.107	22366.56
809.436	22355.49
809.766	22345.77
810.096	22240.46
810.426	22154.13
810.755	22187.58
811.085	22175.38
811.414	22036.62
811.744	21781.49
812.073	21832.79
812.403	21714.82
812.732	21664.66
813.061	21690.87
813.39	21454.27
813.719	21454.27
814.049	21613.58
814.378	21555.73
814.707	21406.58
815.036	21405.23
815.365	21229.64
815.693	21136.53
816.022	21115.52
816.351	21019.25
816.68	20871.68
817.008	21061.96
817.337	20875.3
817.665	20766.6
817.994	20786.26
818.322	20761.86
818.651	20657
818.979	20571.8
819.307	20627.17
819.636	20657.45
819.964	20478.25
820.292	20528.64
820.62	20471.47
820.948	20339.04
821.276	20407.97
821.604	20316.9
821.932	20380.17
822.259	20381.75
822.587	20387.85
822.915	20382.43
823.243	20433.28
823.57	20335.88
823.898	20374.07
824.225	20317.8
824.553	20240.96
824.88	20305.14
825.207	20374.07
825.535	20300.4
825.862	20333.17
826.189	20220.63
826.516	20319.38
826.843	20440.06
827.17	20202.32
827.497	20428.3
827.824	20367.97
828.151	20388.08
828.478	20327.52
828.805	20333.39
829.131	20330.68
829.458	20266.5
829.785	20107.41
830.111	20234.86
830.438	20309.89
830.764	20353.28
831.09	20296.56
831.417	20171.81
831.743	20297.23
832.069	20198.93
832.395	20141.53
832.722	20219.72
833.048	20125.94
833.374	20161.42
833.7	20048.2
834.026	20084.13
834.351	20214.3
834.677	20054.98
835.003	20080.97
835.329	20191.47
835.654	20090.69
835.98	19926.85
836.306	19971.37
836.631	19937.47
836.956	19986.73
837.282	19998.49
837.607	19716.01
837.932	19779.73
838.258	19766.4
838.583	19765.05
838.908	19695.67
839.233	19659.06
839.558	19644.14
839.883	19533.64
840.208	19436.47
840.533	19571.38
840.858	19558.05
841.182	19521.89
841.507	19482.34
841.832	19297.03
842.156	19265.4
842.481	19370.93
842.805	19274.89
843.13	19217.94
843.454	19195.79
843.778	19093.2
844.103	19076.25
844.427	19026.76
844.751	19050.26
845.075	19033.09
845.399	18928.46
845.723	18811.4
846.047	18797.61
846.371	18638.3
846.695	18673.55
847.019	18451.18
847.343	18491.86
847.666	18375.03
847.99	18233.11
848.313	18321.69
848.637	18144.97
848.96	18194.47
849.284	18074.69
849.607	17967.13
849.931	17935.26
850.254	17871.08
850.577	17753.35
850.9	17635.61
851.223	17547.25
851.546	17516.74
851.869	17441.72
852.192	17507.03
852.515	17297.31
852.838	17282.85
853.161	17340.48
853.483	17138.45
853.806	17167.37
854.129	17067.72
854.451	16942.75
854.774	16837.66
855.096	16827.27
855.419	16759.02
855.741	16761.51
856.063	16594.96
856.385	16636.09
856.708	16577.33
857.03	16457.11
857.352	16439.48
857.674	16424.34
857.996	16409.88
858.318	16312.03
858.64	16276.78
858.961	16286.49
859.283	16208.75
859.605	16048.53
859.926	16152.48
860.248	16136.67
860.57	16044.47
860.891	16020.51
861.212	15930.12
861.534	15894.64
861.855	15856
862.176	15863
862.498	15806.73
862.819	15822.1
863.14	15717.92
863.461	15714.3
863.782	15642.67
864.103	15684.02
864.424	15620.75
864.745	15651.71
865.065	15573.07
865.386	15426.4
865.707	15445.16
866.027	15513.63
866.348	15466.4
866.668	15434.99
866.989	15369.23
867.309	15300.98
867.63	15331.49
867.95	15307.54
868.27	15163.36
868.59	15242.68
868.91	15086.98
869.23	15156.8
869.55	15027.99
869.87	15116.35
870.19	15124.04
870.51	15114.32
870.83	15164.26
871.15	15010.59
871.469	15024.6
871.789	15073.42
872.109	15003.59
872.428	14899.41
872.748	14893.53
873.067	14910.94
873.386	14984.15
873.706	14920.43
874.025	14802.46
874.344	14753.88
874.663	14754.78
874.982	14729.25
875.301	14688.57
875.62	14690.38
875.939	14608.34
876.258	14689.02
876.577	14616.03
876.896	14620.55
877.214	14513.66
877.533	14596.59
877.852	14486.31
878.17	14513.43
878.489	14502.81
878.807	14438.41
879.125	14427.33
879.444	14463.72
879.762	14353.89
880.08	14440.67
880.398	14287.68
880.716	14256.94
881.034	14222.37
881.352	14259.2
881.67	14200.45
881.988	14192.54
882.306	14147.57
882.624	14025.08
882.941	14027.79
883.259	13966.55
883.577	13839.33
883.894	13901.47
884.212	13938.98
884.529	13984.63
884.846	13902.37
885.164	13917.97
885.481	13815.82
885.798	13814.69
886.115	13649.95
886.432	13702.38
886.75	13680.46
887.067	13728.59
887.383	13580.8
887.7	13577.19
888.017	13642.95
888.334	13510.52
888.651	13516.85
888.967	13440.01
889.284	13482.5
889.6	13451.31
889.917	13332.67
890.233	13330.41
890.55	13255.61
890.866	13254.03
891.182	13257.42
891.498	13155.05
891.815	13192.34
892.131	13104.43
892.447	13039.8
892.763	13006.58
893.079	13090.19
893.395	12996.64
893.71	12948.28
894.026	12960.48
894.342	12822.18
894.657	12795.74
894.973	12747.83
895.289	12738.79
895.604	12678.68
895.92	12619.24
896.235	12515.74
896.55	12577.66
896.865	12473.94
897.181	12423.77
897.496	12397.78
897.811	12397.78
898.126	12323.43
898.441	12212.25
898.756	12260.61
899.071	12221.29
899.386	12226.03
899.7	12100.84
900.015	12005.25
900.33	11880.51
900.644	11913.27
900.959	11878.02
901.273	11935.87
901.588	11777.46
901.902	11705.6
902.216	11743.11
902.531	11708.99
902.845	11613.85
903.159	11523.45
903.473	11480.07
903.787	11459.27
904.101	11392.84
904.415	11400.75
904.729	11364.36
905.042	11342.44
905.356	11295.21
905.67	11271.71
905.984	11197.36
906.297	11194.42
906.611	11118.49
906.924	11144.03
907.237	11078.27
907.551	10996.24
907.864	10916.01
908.177	10989.23
908.491	10950.81
908.804	10800.76
909.117	10845.05
909.43	10796.24
909.743	10690.26
910.056	10668.11
910.368	10653.87
910.681	10645.51
910.994	10560.99
911.307	10492.97
911.619	10442.58
911.932	10412.97
912.244	10358.74
912.557	10378.85
912.869	10216.14
913.181	10294.79
913.494	10263.15
913.806	10151.06
914.118	10127.11
914.43	10002.59
914.742	10008.92
915.054	9954
915.366	9955.59
915.678	9910.62
915.99	9867.23
916.302	9794.91
916.613	9807.79
916.925	9681.69
917.236	9732.54
917.548	9687.8
917.859	9661.13
918.171	9561.7
918.482	9499.78
918.794	9554.24
919.105	9420.23
919.416	9446.45
919.727	9476.05
920.038	9321.93
920.349	9307.69
920.66	9257.07
920.971	9288.71
921.282	9181.37
921.593	9158.32
921.903	9101.14
922.214	9039.23
922.525	8965.78
922.835	8955.61
923.146	8900.25
923.456	8873.58
923.767	8889.4
924.077	8863.41
924.387	8795.39
924.697	8715.84
925.008	8739.57
925.318	8631.1
925.628	8598.33
925.938	8630.65
926.248	8478.34
926.558	8509.52
926.867	8481.73
927.177	8443.99
927.487	8444.66
927.796	8347.49
928.106	8351.11
928.416	8304.1
928.725	8248.29
929.034	8232.69
929.344	8220.26
929.653	8214.84
929.962	8096.2
930.271	8072.47
930.581	8051.91
930.89	7955.19
931.199	8034.05
931.508	7952.7
931.817	7899.37
932.125	7903.66
932.434	7931.01
932.743	7782.76
933.051	7741.18
933.36	7735.98
933.669	7641.52
933.977	7686.94
934.286	7647.85
934.594	7602.88
934.902	7500.51
935.21	7504.8
935.519	7505.48
935.827	7466.84
936.135	7426.84
936.443	7368.76
936.751	7377.35
937.059	7341.64
937.367	7251.48
937.674	7346.16
937.982	7258.48
938.29	7170.12
938.597	7242.89
938.905	7095.55
939.213	7080.86
939.52	7068.2
939.827	7107.75
940.135	6992.05
940.442	6970.35
940.749	6961.54
941.056	6996.79
941.363	6894.88
941.67	6893.97
941.977	6897.59
942.284	6778.27
942.591	6812.17
942.898	6733.98
943.205	6731.26
943.511	6676.35
943.818	6645.39
944.125	6587.09
944.431	6606.3
944.738	6617.59
945.044	6607.2
945.35	6541.44
945.657	6526.52
945.963	6479.52
946.269	6436.13
946.575	6462.57
946.881	6366.08
947.187	6348
947.493	6355.68
947.799	6287.89
948.105	6246.53
948.41	6227.77
948.716	6210.6
949.022	6185.52
949.327	6138.96
949.633	6106.87
949.938	6121.79
950.244	6059.64
950.549	6037.72
950.854	5988.01
951.16	5975.35
951.465	5964.73
951.77	5938.06
952.075	5931.74
952.38	5872.08
952.685	5848.58
952.99	5822.59
953.294	5818.29
953.599	5810.38
953.904	5720.44
954.209	5728.35
954.513	5709.6
954.818	5662.82
955.122	5725.41
955.426	5685.19
955.731	5625.53
956.035	5625.3
956.339	5554.35
956.643	5544.63
956.948	5484.74
957.252	5481.35
957.556	5522.03
957.86	5458.08
958.163	5414.69
958.467	5380.34
958.771	5441.35
959.075	5355.25
959.378	5317.29
959.682	5303.96
959.985	5301.92
960.289	5280.45
960.592	5201.13
960.896	5216.95
961.199	5177.63
961.502	5142.6
961.805	5136.28
962.108	5043.85
962.411	5133.11
962.714	5081.14
963.017	5068.93
963.32	5063.74
963.623	5034.81
963.926	4977.64
964.228	4956.17
964.531	4923.18
964.833	4974.02
965.136	4852.89
965.438	4849.51
965.741	4837.53
966.043	4859.22
966.345	4804.31
966.648	4771.77
966.95	4792.78
967.252	4749.85
967.554	4711.66
967.856	4679.79
968.158	4666.23
968.46	4673.01
968.761	4617.19
969.063	4595.5
969.365	4611.77
969.666	4598.44
969.968	4535.16
970.269	4541.49
970.571	4491.55
970.872	4499.68
971.174	4460.81
971.475	4443.19
971.776	4457.43
972.077	4407.48
972.378	4374.49
972.679	4391.21
972.98	4357.31
973.281	4363.87
973.582	4324.32
973.883	4277.54
974.183	4260.59
974.484	4266.47
974.785	4213.14
975.085	4236.41
975.386	4223.76
975.686	4182.18
975.986	4220.14
976.287	4147.38
976.587	4150.54
976.887	4106.25
977.187	4089.98
977.487	4092.69
977.787	4012.69
978.087	4040.04
978.387	4035.29
978.687	4020.6
978.987	3984.9
979.286	3983.77
979.586	3922.52
979.885	3922.3
980.185	3879.14
980.484	3892.47
980.784	3885.69
981.083	3843.88
981.382	3834.62
981.682	3833.71
981.981	3817.89
982.28	3807.95
982.579	3724.56
982.878	3769.31
983.177	3710.1
983.475	3688.86
983.774	3692.93
984.073	3647.73
984.372	3638.69
984.67	3633.94
984.969	3626.94
985.267	3602.31
985.566	3614.28
985.864	3578.58
986.162	3555.53
986.461	3557.56
986.759	3542.19
987.057	3512.37
987.355	3516.21
987.653	3507.17
987.951	3491.8
988.249	3455.64
988.547	3429.66
988.844	3391.92
989.142	3417.45
989.44	3394.85
989.737	3393.95
990.035	3370.67
990.332	3333.16
990.63	3309.21
990.927	3300.62
991.224	3265.14
991.521	3245.93
991.819	3284.12
992.116	3250.68
992.413	3287.51
992.71	3187.85
993.006	3197.8
993.303	3180.17
993.6	3181.53
993.897	3140.4
994.193	3165.71
994.49	3144.01
994.787	3099.49
995.083	3068.54
995.379	3081.42
995.676	3087.97
995.972	3007.75
996.268	3006.16
996.565	3041.42
996.861	3027.41
997.157	2983.11
997.453	2952.61
997.749	2927.07
998.044	2910.57
998.34	2932.49
998.636	2923.23
998.932	2889.33
999.227	2822.44
999.523	2893.4
999.818	2856.11
1000.114	2837.35
1000.409	2837.81
1000.704	2828.32
1001	2785.83
1001.295	2743.57
1001.59	2753.74
1001.885	2747.64
1002.18	2690.24
1002.475	2709.67
1002.77	2739.5
1003.065	2682.33
1003.359	2685.27
1003.654	2643.01
1003.949	2628.32
1004.243	2626.29
1004.538	2626.51
1004.832	2599.85
1005.127	2575.89
1005.421	2542.22
1005.715	2569.57
1006.009	2529.57
1006.304	2529.79
1006.598	2520.53
1006.892	2504.71
1007.186	2447.99
1007.48	2488.44
1007.773	2447.08
1008.067	2409.34
1008.361	2401.43
1008.655	2385.39
1008.948	2352.17
1009.242	2356.01
1009.535	2369.34
1009.829	2379.06
1010.122	2319.63
1010.415	2286.63
1010.708	2299.29
1011.001	2308.78
1011.295	2275.11
1011.588	2273.98
1011.881	2246.41
1012.173	2217.26
1012.466	2248.67
1012.759	2231.49
1013.052	2207.09
1013.344	2172.97
1013.637	2194.66
1013.93	2152.63
1014.222	2137.94
1014.514	2133.87
1014.807	2110.37
1015.099	2089.58
1015.391	2076.47
1015.683	2057.94
1015.976	2088.67
1016.268	2052.06
1016.56	2005.96
1016.851	2037.83
1017.143	1996.02
1017.435	2008.45
1017.727	1996.92
1018.018	1971.84
1018.31	1970.03
1018.602	1952.86
1018.893	1917.6
1019.185	1934.33
1019.476	1925.51
1019.767	1910.15
1020.058	1871.28
1020.35	1876.25
1020.641	1867.21
1020.932	1846.87
1021.223	1861.79
1021.514	1833.09
1021.804	1812.75
1022.095	1798.29
1022.386	1780.66
1022.677	1755.8
1022.967	1757.61
1023.258	1750.6
1023.548	1737.72
1023.839	1713.99
1024.129	1710.38
1024.419	1675.13
1024.709	1669.02
1025	1653.88
1025.29	1647.78
1025.58	1613.43
1025.87	1629.48
1026.16	1621.34
1026.449	1621.34
1026.739	1603.04
1027.029	1603.04
1027.319	1571.85
1027.608	1565.98
1027.898	1556.26
1028.187	1536.82
1028.477	1550.38
1028.766	1560.55
1029.055	1530.72
1029.344	1543.38
1029.634	1496.6
1029.923	1493.21
1030.212	1488.46
1030.501	1464.28
1030.79	1479.88
1031.078	1456.37
1031.367	1435.81
1031.656	1424.28
1031.945	1433.55
1032.233	1402.36
1032.522	1394
1032.81	1385.42
1033.099	1368.24
1033.387	1341.57
1033.675	1331.63
1033.963	1342.25
1034.251	1370.05
1034.54	1334.34
1034.828	1317.62
1035.116	1325.76
1035.403	1277.4
1035.691	1269.71
1035.979	1294.57
1036.267	1281.69
1036.554	1270.16
1036.842	1248.92
1037.129	1258.87
1037.417	1244.18
1037.704	1232.88
1037.992	1203.5
1038.279	1182.93
1038.566	1182.26
1038.853	1182.26
1039.14	1182.26
