Data from orange_diffuse_book_FLMS001491_00076.txt Node
Date: Wed Feb 08 15:30:02 GMT 2017
User: dcchb
Spectrometer: FLMS00149
Trigger mode: 0
Integration Time (sec): 2.000000E-2
Scans to average: 10
Electric dark correction enabled: true
Nonlinearity correction enabled: false
Boxcar width: 0
XAxis mode: Wavelengths
Number of Pixels in Spectrum: 2048
>>>>>Begin Spectral Data<<<<<
341.393	-23.3
341.776	-23.3
342.16	-23.3
342.543	-52.91
342.927	-82.74
343.31	-68.73
343.693	-70.31
344.077	-72.79
344.46	-67.82
344.843	-56.52
345.226	-44.32
345.61	-29.41
345.993	-8.39
346.376	-5.23
346.759	6.98
347.142	15.34
347.525	40.87
347.908	71.16
348.291	79.74
348.674	87.88
349.057	121.55
349.44	134.88
349.823	139.63
350.206	144.15
350.588	193.41
350.971	205.39
351.354	241.1
351.737	256.91
352.119	253.3
352.502	271.15
352.884	271.6
353.267	278.16
353.65	293.75
354.032	291.04
354.414	336.46
354.797	322.45
355.179	327.42
355.562	334.65
355.944	336.23
356.326	337.59
356.709	353.63
357.091	351.15
357.473	346.86
357.855	343.92
358.238	350.92
358.62	357.48
359.002	368.55
359.384	367.65
359.766	357.25
360.148	327.42
360.53	356.12
360.912	345.5
361.294	342.79
361.676	335.33
362.057	356.57
362.439	343.92
362.821	335.33
363.203	323.81
363.584	350.02
363.966	327.19
364.348	347.76
364.729	331.94
365.111	344.37
365.493	328.55
365.874	313.86
366.256	330.13
366.637	335.56
367.019	337.82
367.4	324.26
367.781	334.88
368.163	310.25
368.544	347.53
368.925	331.94
369.306	338.95
369.688	356.57
370.069	329.45
370.45	325.16
370.831	329.68
371.212	334.43
371.593	317.03
371.974	335.56
372.355	331.71
372.736	355.67
373.117	323.58
373.498	324.03
373.879	331.94
374.26	318.16
374.641	322.45
375.021	325.61
375.402	324.93
375.783	331.71
376.163	328.32
376.544	324.93
376.925	344.14
377.305	343.69
377.686	346.86
378.066	341.21
378.447	364.93
378.827	362.67
379.208	347.31
379.588	338.95
379.968	353.41
380.349	331.26
380.729	335.33
381.109	358.61
381.489	353.18
381.87	355.22
382.25	339.17
382.63	360.19
383.01	355.89
383.39	342.11
383.77	364.26
384.15	359.51
384.53	357.48
384.91	347.08
385.29	344.6
385.67	375.56
386.049	369.45
386.429	361.77
386.809	381.88
387.189	355.22
387.568	356.35
387.948	372.62
388.328	363.13
388.707	387.98
389.087	363.35
389.466	365.84
389.846	400.19
390.225	362.45
390.605	392.28
390.984	388.44
391.363	386.63
391.743	383.46
392.122	365.16
392.501	399.06
392.881	374.65
393.26	384.14
393.639	397.7
394.018	382.79
394.397	379.85
394.776	386.85
395.155	420.3
395.534	402
395.913	394.54
396.292	399.74
396.671	402.45
397.05	385.95
397.429	406.06
397.808	423.01
398.186	405.38
398.565	397.7
398.944	380.3
399.323	407.64
399.701	421.88
400.08	420.07
400.458	417.81
400.837	431.37
401.215	417.36
401.594	434.31
401.972	418.49
402.351	431.6
402.729	434.54
403.107	438.83
403.486	426.63
403.864	436.57
404.242	455.1
404.62	447.19
404.999	454.2
405.377	438.38
405.755	440.64
406.133	441.77
406.511	435.67
406.889	460.75
407.267	435.89
407.645	452.84
408.023	466.63
408.401	451.94
408.779	469.34
409.156	459.62
409.534	451.94
409.912	462.11
410.29	493.74
410.667	469.34
411.045	481.99
411.422	502.56
411.8	502.11
412.178	481.54
412.555	498.94
412.933	497.36
413.31	475.89
413.687	496.23
414.065	502.78
414.442	505.5
414.819	525.16
415.197	520.41
415.574	516.57
415.951	521.54
416.328	530.13
416.705	501.43
417.082	523.12
417.46	504.14
417.837	520.64
418.214	545.04
418.591	538.94
418.967	526.29
419.344	550.47
419.721	571.93
420.098	539.39
420.475	540.97
420.852	554.99
421.228	546.62
421.605	553.86
421.982	562.22
422.358	581.65
422.735	589.11
423.111	560.86
423.488	583.46
423.864	581.43
424.241	604.7
424.617	610.35
424.994	592.27
425.37	595.44
425.746	615.32
426.123	620.29
426.499	619.84
426.875	627.3
427.251	631.59
427.627	627.75
428.003	622.33
428.379	639.5
428.756	641.76
429.132	663.68
429.507	649.45
429.883	663.23
430.259	676.11
430.635	670.01
431.011	670.24
431.387	669.78
431.763	714.08
432.138	713.63
432.514	674.76
432.89	672.72
433.265	707.75
433.641	712.95
434.016	725.38
434.392	717.69
434.767	740.74
435.143	735.09
435.518	732.16
435.894	745.49
436.269	779.16
436.644	755.43
437.02	747.97
437.395	750.01
437.77	769.67
438.145	782.1
438.52	781.19
438.895	789.33
439.271	814.19
439.646	810.8
440.021	800.63
440.395	812.61
440.77	819.84
441.145	823.68
441.52	828.42
441.895	840.4
442.27	841.76
442.645	805.83
443.019	848.99
443.394	851.25
443.769	866.39
444.143	845.37
444.518	863.45
444.892	853.96
445.267	879.27
445.641	860.74
446.016	865.71
446.39	877.91
446.764	884.02
447.139	851.25
447.513	891.25
447.887	894.19
448.262	902.09
448.636	906.39
449.01	888.99
449.384	908.42
449.758	903
450.132	917.24
450.506	915.65
450.88	919.27
451.254	928.76
451.628	921.98
452.002	947.74
452.376	955.43
452.75	928.76
453.123	963.34
453.497	966.73
453.871	969.44
454.244	997.01
454.618	995.65
454.992	997.23
455.365	1014.18
455.739	1013.96
456.112	1004.92
456.486	1013.96
456.859	1036.55
457.232	1073.62
457.606	1016.89
457.979	1047.4
458.352	1044.24
458.725	1081.53
459.099	1104.12
459.472	1088.08
459.845	1114.07
460.218	1101.86
460.591	1108.64
460.964	1077.01
461.337	1102.09
461.71	1153.39
462.083	1118.13
462.456	1150
462.829	1170.56
463.201	1181.64
463.574	1183.22
463.947	1141.86
464.32	1198.13
464.692	1219.15
465.065	1189.09
465.438	1230.22
465.81	1224.57
466.183	1231.58
466.555	1239.26
466.928	1266.83
467.3	1264.8
467.672	1281.29
468.045	1307.06
468.417	1322.87
468.789	1263.89
469.161	1300.28
469.534	1346.15
469.906	1342.31
470.278	1361.74
470.65	1338.24
471.022	1399.26
471.394	1397.22
471.766	1423.44
472.138	1448.3
472.51	1426.6
472.882	1460.5
473.253	1447.84
473.625	1508.63
473.997	1492.81
474.369	1506.82
474.74	1507.73
475.112	1521.97
475.484	1561.74
475.855	1578.69
476.227	1589.08
476.598	1616.43
476.97	1608.74
477.341	1678.57
477.713	1654.39
478.084	1685.13
478.455	1703.43
478.827	1734.84
479.198	1803.31
479.569	1765.58
479.94	1789.98
480.311	1860.04
480.682	1878.79
481.053	1903.65
481.424	1923.99
481.795	1979.81
482.166	1978
482.537	2020.48
482.908	2064.1
483.279	2058.45
483.65	2083.31
484.021	2097.09
484.391	2174.15
484.762	2208.28
485.133	2188.16
485.503	2235.85
485.874	2273.81
486.244	2295.96
486.615	2322.62
486.985	2361.04
487.356	2401.94
487.726	2414.15
488.097	2493.47
488.467	2468.83
488.837	2526.68
489.207	2533.01
489.578	2645.55
489.948	2616.17
490.318	2677.64
490.688	2696.62
491.058	2730.97
491.428	2765.1
491.798	2807.58
492.168	2877.64
492.538	2864.53
492.908	2887.81
493.278	2956.05
493.648	2985.43
494.017	3039.44
494.387	3043.28
494.757	3103.17
495.126	3123.51
495.496	3145.43
495.866	3179.78
496.235	3194.92
496.605	3256.84
496.974	3285.31
497.344	3283.28
497.713	3342.26
498.082	3301.58
498.452	3390.62
498.821	3422.71
499.19	3489.6
499.559	3475.81
499.928	3529.6
500.298	3548.58
500.667	3576.37
501.036	3603.72
501.405	3688.24
501.774	3675.13
502.143	3700.89
502.512	3770.72
502.88	3794
503.249	3785.18
503.618	3804.17
503.987	3892.52
504.356	3892.3
504.724	3866.76
505.093	3952.18
505.462	3987.44
505.83	3978.17
506.199	4031.5
506.567	4080.09
506.936	4111.05
507.304	4182.46
507.672	4187.21
508.041	4156.02
508.409	4225.17
508.777	4259.52
509.145	4299.07
509.514	4370.03
509.882	4367.54
510.25	4360.08
510.618	4412.74
510.986	4384.49
511.354	4468.33
511.722	4544.03
512.09	4544.94
512.458	4562.11
512.826	4604.37
513.193	4667.87
513.561	4662.22
513.929	4717.81
514.297	4745.38
514.664	4765.95
515.032	4766.85
515.4	4870.35
515.767	4862.22
516.135	4938.37
516.502	4886.85
516.869	4914.64
517.237	5017.01
517.604	5026.96
517.972	5019.5
518.339	5070.57
518.706	5110.57
519.073	5158.03
519.44	5148.54
519.808	5190.12
520.175	5289.32
520.542	5306.72
520.909	5297.23
521.276	5353.5
521.643	5402.99
522.009	5432.6
522.376	5459.49
522.743	5462.65
523.11	5522.31
523.477	5570.67
523.843	5659.03
524.21	5675.53
524.577	5707.62
524.943	5793.27
525.31	5743.55
525.676	5801.85
526.043	5823.1
526.409	5894.73
526.776	5894.51
527.142	5961.17
527.508	6038.91
527.874	6065.8
528.241	6095.86
528.607	6142.18
528.973	6128.62
529.339	6147.15
529.705	6215.85
530.071	6247.72
530.437	6292.46
530.803	6279.13
531.169	6296.08
531.535	6351.44
531.901	6346.7
532.267	6380.82
532.632	6384.89
532.998	6434.6
533.364	6481.84
533.73	6509.86
534.095	6541.72
534.461	6589.4
534.826	6646.58
535.192	6647.25
535.557	6691.77
535.923	6703.52
536.288	6726.57
536.653	6771.55
537.019	6790.3
537.384	6847.02
537.749	6853.12
538.114	6834.37
538.479	6855.16
538.845	6874.82
539.21	6910.07
539.575	6925.21
539.94	6977.19
540.305	7057.19
540.67	7011.76
541.034	7117.3
541.399	7096.96
541.764	7092.44
542.129	7140.12
542.494	7145.09
542.858	7223.96
543.223	7192.33
543.587	7268.26
543.952	7273.45
544.316	7349.61
544.681	7339.67
545.045	7375.15
545.41	7485.65
545.774	7454.01
546.138	7523.62
546.503	7567.23
546.867	7556.84
547.231	7567.46
547.595	7663.5
547.959	7639.77
548.324	7666.89
548.688	7745.08
549.052	7740.79
549.416	7814.46
549.779	7825.53
550.143	7858.07
550.507	7943.94
550.871	7991.63
551.235	8006.31
551.599	8141.9
551.962	8003.6
552.326	8092.87
552.689	8247.89
553.053	8172.86
553.417	8230.26
553.78	8344.61
554.143	8334.44
554.507	8394.55
554.87	8384.61
555.234	8523.14
555.597	8520.43
555.96	8573.08
556.323	8644.72
556.686	8667.99
557.05	8805.39
557.413	8848.33
557.776	8881.09
558.139	8948.21
558.502	8969.45
558.865	9035.89
559.228	9118.83
559.59	9203.35
559.953	9246.51
560.316	9215.77
560.679	9331.93
561.041	9439.95
561.404	9588.42
561.767	9639.04
562.129	9645.14
562.492	9813.27
562.854	9852.14
563.217	9863.89
563.579	9984.57
563.941	10052.14
564.304	10189.99
564.666	10227.27
565.028	10288.51
565.39	10437.89
565.753	10562.63
566.115	10599.02
566.477	10774.38
566.839	10754.27
567.201	10907.48
567.563	11024.09
567.925	11197.42
568.287	11258.21
568.648	11385.66
569.01	11446
569.372	11661.36
569.734	11679.44
570.095	11836.5
570.457	12114.68
570.819	12162.14
571.18	12277.62
571.542	12505.41
571.903	12619.98
572.265	12671.5
572.626	12855.68
572.987	13109.68
573.349	13285.27
573.71	13560.29
574.071	13689.1
574.432	13865.14
574.794	14032.15
575.155	14193.72
575.516	14305.81
575.877	14640.72
576.238	14815.85
576.599	15057.2
576.96	15261.49
577.32	15488.83
577.681	15768.14
578.042	16050.17
578.403	16306.89
578.763	16425.75
579.124	16844.27
579.485	17154.55
579.845	17438.61
580.206	17699.62
580.566	17992.72
580.927	18261.86
581.287	18591.57
581.648	18865.01
582.008	19183.2
582.368	19591.32
582.728	19968.71
583.089	20235.15
583.449	20550.84
583.809	20968.69
584.169	21246.19
584.529	21734.32
584.889	22111.25
585.249	22442.32
585.609	22734.29
585.969	23183.54
586.329	23502.18
586.688	24093.8
587.048	24481.14
587.408	24807.68
587.768	25176.71
588.127	25600.43
588.487	26106.18
588.846	26605.6
589.206	26923.78
589.565	27242.19
589.925	27872.91
590.284	28179.12
590.643	28634.7
591.003	29154.69
591.362	29746.08
591.721	30165.28
592.08	30515.33
592.44	31004.13
592.799	31600.5
593.158	32052.69
593.517	32486.58
593.876	32980.12
594.235	33363.16
594.593	33853.09
594.952	34422.12
595.311	34821.43
595.67	35254.64
596.029	35978.46
596.387	36342.07
596.746	36800.59
597.104	37109.05
597.463	37516.95
597.822	38105.18
598.18	38475.57
598.538	38887.54
598.897	39500.85
599.255	39513.96
599.613	40657.21
599.972	40624.21
600.33	41191.43
600.688	41502.38
601.046	42024.4
601.404	42449.93
601.762	42724.05
602.12	43357.25
602.478	43662.78
602.836	44019.83
603.194	44267.51
603.552	44807.38
603.91	44963.99
604.268	45479.23
604.625	45624.76
604.983	46062.72
605.341	46347
605.698	46760.1
606.056	47043.48
606.413	47310.59
606.771	47685.5
607.128	47886.4
607.485	47964.59
607.843	48337.91
608.2	48572.93
608.557	48893.15
608.914	49017.89
609.272	49445.23
609.629	49664.2
609.986	50004.98
610.343	49980.35
610.7	50303.28
611.057	50500.79
611.414	50609.49
611.771	50769.26
612.127	51052.64
612.484	51153.2
612.841	51404.27
613.198	51425.06
613.554	51576.92
613.911	51947.98
614.267	51886.97
614.624	52082.9
614.98	52193.85
615.337	52401.31
615.693	52530.34
616.05	52471.36
616.406	52796.1
616.762	52726.04
617.118	52849.2
617.475	52932.82
617.831	53036.32
618.187	53175.07
618.543	53262.75
618.899	53464.78
619.255	53498.23
619.611	53450.32
619.967	53741.38
620.323	53836.3
620.678	53683.53
621.034	53684.44
621.39	53841.95
621.746	53733.25
622.101	54088.04
622.457	53956.29
622.812	54070.41
623.168	54249.39
623.523	54236.29
623.879	54362.84
624.234	54160.58
624.589	54370.97
624.945	54366
625.3	54453.46
625.655	54389.73
626.01	54464.53
626.365	54468.6
626.72	54514.7
627.075	54498.88
627.43	54615.03
627.785	54590.63
628.14	54635.37
628.495	54689.16
628.85	54677.4
629.205	54616.16
629.559	54765.09
629.914	54620.46
630.269	54726.67
630.623	54643.96
630.978	54689.61
631.332	54742.71
631.687	54777.29
632.041	54716.5
632.396	54708.59
632.75	54680.57
633.104	54684.18
633.459	54652.77
633.813	54580.23
634.167	54689.83
634.521	54595.37
634.875	54699.55
635.229	54704.07
635.583	54610.51
635.937	54582.94
636.291	54580.23
636.645	54509.27
636.999	54473.34
637.352	54643.51
637.706	54480.8
638.06	54540.23
638.413	54555.37
638.767	54457.75
639.121	54545.2
639.474	54344.76
639.828	54398.32
640.181	54382.04
640.534	54429.28
640.888	54370.75
641.241	54271.77
641.594	54419.78
641.947	54388.37
642.301	54219.11
642.654	54438.77
643.007	54358.99
643.36	54371.65
643.713	54280.13
644.066	54384.53
644.419	54143.63
644.771	54062.05
645.124	53752.23
645.477	53693.48
645.83	53493.25
646.182	53533.03
646.535	53476.53
646.888	53577.77
647.24	53396.99
647.593	53420.71
647.945	53474.72
648.298	53355.86
648.65	53314.28
649.002	53214.84
649.355	53336.42
649.707	53255.07
650.059	53366.93
650.411	53775.73
650.763	53807.82
651.115	54127.14
651.467	53939.34
651.819	54022.28
652.171	53992
652.523	53902.96
652.875	53896.41
653.227	53830.42
653.578	53987.93
653.93	53940.7
654.282	53789.29
654.633	53738.67
654.985	53900.48
655.337	53917.88
655.688	53839.46
656.039	53949.29
656.391	53655.74
656.742	53765.34
657.094	53716.53
657.445	53874.26
657.796	53723.98
658.147	53678.56
658.498	53809.18
658.849	53804.21
659.2	53690.31
659.551	53656.64
659.902	53815.05
660.253	53676.53
660.604	53808.95
660.955	53716.75
661.306	53709.75
661.656	53713.36
662.007	53643.31
662.358	53708.16
662.708	53664.1
663.059	53589.75
663.409	53418.68
663.76	53773.93
664.11	53694.83
664.461	53779.8
664.811	53711.55
665.161	53681.05
665.511	53540.94
665.862	53647.83
666.212	53656.41
666.562	53730.76
666.912	53587.26
667.262	53624.55
667.612	53544.78
667.962	53591.11
668.312	53517.21
668.662	53613.7
669.011	53494.84
669.361	53528.28
669.711	53451.9
670.06	53504.78
670.41	53456.19
670.76	53376.42
671.109	53396.31
671.459	53322.41
671.808	53281.96
672.157	53433.6
672.507	53194.96
672.856	53203.32
673.205	53260.72
673.554	53307.95
673.904	53140.5
674.253	53422.75
674.602	53274.96
674.951	52744.57
675.3	52554.75
675.649	53158.12
675.998	53042.87
676.346	53072.7
676.695	53189.08
677.044	52971.91
677.393	52962.19
677.741	53023.21
678.09	52963.32
678.438	52956.32
678.787	52993.83
679.135	53023.21
679.484	52696.44
679.832	52825.02
680.181	52697.8
680.529	52808.53
680.877	52726.04
681.225	52604.24
681.573	52943.21
681.922	52714.74
682.27	52529.21
682.618	52517.46
682.966	52496.9
683.314	52609.44
683.661	52387.75
684.009	52285.15
684.357	52190.46
684.705	52215.1
685.053	52196.34
685.4	52251.71
685.748	52022.11
686.095	52047.87
686.443	51860.76
686.79	51820.76
687.138	51898.27
687.485	51917.93
687.832	51698.95
688.18	51826.41
688.527	51595.45
688.874	51624.83
689.221	51490.14
689.568	51435.91
689.915	51359.98
690.262	51291.73
690.609	51289.92
690.956	51091.74
691.303	51044.05
691.65	50981
691.997	50830.73
692.344	50638.19
692.69	50672.31
693.037	50730.62
693.383	50523.39
693.73	50549.38
694.077	50384.18
694.423	50404.3
694.769	50208.82
695.116	50235.71
695.462	50144.42
695.808	50020.8
696.155	50001.59
696.501	49730.19
696.847	49776.29
697.193	49516.41
697.539	49730.19
697.885	49367.71
698.231	49277.32
698.577	49208.4
698.923	49202.75
699.269	48992.36
699.614	48778.12
699.96	48759.82
700.306	48660.84
700.651	48464.91
700.997	48347.18
701.342	48315.54
701.688	48393.05
702.033	48181.53
702.379	48169.33
702.724	48072.61
703.069	48050.23
703.415	47663.8
703.76	47728.89
704.105	47592.17
704.45	47591.49
704.795	47280.31
705.14	47240.76
705.485	47281.44
705.83	47034.67
706.175	47082.8
706.52	47008.91
706.865	46841
707.209	46692.53
707.554	46659.99
707.899	46699.08
708.243	46431.75
708.588	46456.15
708.932	46110.85
709.277	46171.41
709.621	46191.07
709.966	45774.81
710.31	45994.24
710.654	45655.49
710.998	45681.26
711.342	45681.71
711.687	45544.31
712.031	45411.66
712.375	45268.16
712.719	45332.79
713.063	45271.55
713.407	45342.28
713.75	45087.37
714.094	45060.93
714.438	44883.54
714.782	44743.43
715.125	44581.85
715.469	44804.67
715.812	44585.01
716.156	44351.8
716.499	44534.17
716.843	44404.23
717.186	44101.64
717.53	44378.24
717.873	44430.89
718.216	44159.71
718.559	44143.9
718.902	43880.63
719.246	43991.13
719.589	43881.08
719.932	43595.21
720.275	43663
720.617	43581.2
720.96	43568.54
721.303	43530.58
721.646	43589.79
721.989	43316.8
722.331	43409.45
722.674	43242.68
723.016	43383.92
723.359	43195.9
723.701	43126.07
724.044	43017.37
724.386	42818.28
724.729	43081.55
725.071	42960.65
725.413	42879.3
725.755	42857.83
726.097	42724.95
726.439	42566.76
726.782	42503.71
727.124	42632.3
727.465	42398.63
727.807	42555.69
728.149	42253.1
728.491	42331.06
728.833	42397.95
729.175	42214.91
729.516	42175.59
729.858	42140.78
730.199	42067.57
730.541	42090.84
730.882	41911.86
731.224	42164.29
731.565	41804.07
731.906	41873
732.248	41827.35
732.589	41684.53
732.93	41638.65
733.271	41668.03
733.612	41676.84
733.953	41761.36
734.294	41515.04
734.635	41379.22
734.976	41619.22
735.317	41380.58
735.658	41246.8
735.999	41403.85
736.339	41245.44
736.68	41325.21
737.021	41228.72
737.361	41095.84
737.702	41159.12
738.042	40945.11
738.383	41022.4
738.723	41075.5
739.063	40944.66
739.404	40890.65
739.744	40898.56
740.084	40733.14
740.424	40837.99
740.764	40725.45
741.104	40913.25
741.444	40593.03
741.784	40511.22
742.124	40553.71
742.464	40518.91
742.804	40489.98
743.143	40504.22
743.483	40358.46
743.823	40145.36
744.162	40223.77
744.502	40320.04
744.841	40221.74
745.181	40259.93
745.52	40136.54
745.86	40081.4
746.199	39872.82
746.538	39973.16
746.877	40067.84
747.216	39991.01
747.556	39895.42
747.895	39791.69
748.234	39774.75
748.573	39693.17
748.911	39711.92
749.25	39475.09
749.589	39615.43
749.928	39600.29
750.267	39492.72
750.605	39526.39
750.944	39372.95
751.283	39300.86
751.621	39319.39
751.96	39098.15
752.298	39020.41
752.636	38956.69
752.975	39110.36
753.313	38833.07
753.651	39132.28
753.989	38771.61
754.327	38793.98
754.666	38548.34
755.004	38628.56
755.342	38673.76
755.679	38498.62
756.017	38401
756.355	38468.79
756.693	38164.39
757.031	38240.77
757.368	37996.26
757.706	38035.13
758.044	37870.16
758.381	37984.96
758.719	37691.86
759.056	37756.72
759.394	37529.38
759.731	37434.24
760.068	37330.29
760.405	37222.5
760.743	36984.99
761.08	37121.93
761.417	36986.8
761.754	36833.13
762.091	36815.73
762.428	36704.77
762.765	36612.79
763.102	36634.94
763.438	36332.8
763.775	36278.11
764.112	36356.76
764.449	36473.36
764.785	36137.55
765.122	35923.55
765.458	35792.48
765.795	35757.22
766.131	35676.1
766.467	35538.47
766.804	35416.89
767.14	35328.76
767.476	35269.33
767.812	35104.13
768.148	35082.89
768.485	34861.88
768.821	34816.91
769.157	34626.86
769.492	34570.59
769.828	34668.89
770.164	34247.88
770.5	34197.94
770.836	34193.87
771.171	33924.28
771.507	33934.22
771.842	33649.26
772.178	33628.47
772.513	33679.76
772.849	33467.34
773.184	33339.89
773.519	33405.87
773.855	33087.01
774.19	32990.29
774.525	33000.91
774.86	32954.36
775.195	32846.11
775.53	32673.46
775.865	32440.47
776.2	32295.39
776.535	32109.41
776.87	32130.43
777.205	31894.95
777.539	31753.04
777.874	31776.99
778.209	31653.38
778.543	31575.64
778.878	31373.38
779.212	31314.85
779.547	31224.69
779.881	31216.33
780.215	31017.69
780.55	31087.29
780.884	30813.17
781.218	30782.67
781.552	30711.71
781.886	30578.6
782.22	30408.44
782.554	30285.73
782.888	30066.3
783.222	29907.89
783.556	29769.36
783.889	29849.13
784.223	29637.16
784.557	29470.84
784.89	29548.35
785.224	29404.4
785.557	29293.89
785.891	29212.09
786.224	29085.76
786.558	28995.82
786.891	28781.81
787.224	28756.05
787.557	28686.9
787.891	28657.75
788.224	28543.85
788.557	28533.91
788.89	28446.68
789.223	28367.14
789.556	28091.89
789.888	28070.87
790.221	27935.28
790.554	27738.23
790.887	27832.23
791.219	27789.3
791.552	27621.84
791.884	27543.88
792.217	27393.83
792.549	27274.28
792.882	27099.15
793.214	27059.6
793.546	27080.39
793.879	26861.86
794.211	26694.86
794.543	26866.84
794.875	26646.73
795.207	26713.17
795.539	26597.46
795.871	26560.86
796.203	26281.31
796.535	26254.2
796.867	26105.95
797.198	26185.72
797.53	26032.96
797.862	25966.07
798.193	25967.65
798.525	25711.84
798.856	25733.76
799.188	25468.23
799.519	25484.5
799.85	25318.18
800.182	25300.55
800.513	25354.11
800.844	25118.41
801.175	25278.86
801.506	25058.75
801.837	24935.59
802.168	24923.16
802.499	24863.72
802.83	24747.34
803.161	24621.7
803.491	24611.53
803.822	24816.27
804.153	24489.05
804.483	24357.52
804.814	24285.66
805.145	24249.05
805.475	24210.18
805.805	24126.12
806.136	24026.91
806.466	24054.03
806.796	23966.8
807.126	23822.85
807.457	23716.86
807.787	23709.86
808.117	23706.47
808.447	23580.37
808.777	23614.49
809.107	23551.22
809.436	23491.33
809.766	23377.66
810.096	23309.87
810.426	23293.37
810.755	23100.38
811.085	23073.04
811.414	23129.99
811.744	23008.18
812.073	22881.18
812.403	22899.26
812.732	22689.09
813.061	22774.97
813.39	22678.02
813.719	22450.68
814.049	22696.55
814.378	22552.37
814.707	22508.76
815.036	22507.63
815.365	22303.79
815.693	22208.2
816.022	22100.18
816.351	22057.92
816.68	22052.73
817.008	22092.95
817.337	21925.72
817.665	21888.66
817.994	21778.61
818.322	21782.9
818.651	21750.59
818.979	21594.88
819.307	21731.6
819.636	21627.2
819.964	21429.92
820.292	21558.73
820.62	21510.14
820.948	21370.94
821.276	21520.54
821.604	21374.32
821.932	21367.77
822.259	21344.95
822.587	21371.16
822.915	21384.27
823.243	21356.92
823.57	21313.76
823.898	21400.09
824.225	21249.13
824.553	21197.38
824.88	21359.41
825.207	21365.96
825.535	21251.84
825.862	21404.83
826.189	21215.46
826.516	21353.31
826.843	21355.34
827.17	21410.03
827.497	21374.55
827.824	21210.26
828.151	21443.7
828.478	21336.59
828.805	21425.17
829.131	21324.61
829.458	21243.48
829.785	21160.55
830.111	21130.94
830.438	21403.48
830.764	21249.13
831.09	21360.31
831.417	21144.95
831.743	21281.45
832.069	21341.33
832.395	21081.68
832.722	21149.47
833.048	21142.69
833.374	21177.27
833.7	21040.1
834.026	21088.46
834.351	21153.54
834.677	21111.28
835.003	21071.51
835.329	21041
835.654	21030.38
835.98	20908.12
836.306	20965.07
836.631	20864.06
836.956	21046.42
837.282	21007.1
837.607	20803.49
837.932	20666.1
838.258	20851.17
838.583	20719.43
838.908	20577.28
839.233	20635.81
839.558	20640.33
839.883	20530.05
840.208	20439.89
840.533	20502.71
840.858	20499.77
841.182	20458.64
841.507	20413.22
841.832	20283.05
842.156	20260.46
842.481	20236.28
842.805	20189.27
843.13	20184.07
843.454	20044.64
843.778	19989.5
844.103	20066.34
844.427	20031.54
844.751	19949.73
845.075	19925.1
845.399	19827.7
845.723	19636.97
846.047	19750.64
846.371	19561.72
846.695	19492.79
847.019	19430.65
847.343	19261.16
847.666	19201.95
847.99	19210.31
848.313	19210.99
848.637	19110.88
848.96	18932.58
849.284	19041.05
849.607	18758.12
849.931	18817.33
850.254	18653.04
850.577	18595.64
850.9	18524.23
851.223	18393.39
851.546	18352.94
851.869	18227.74
852.192	18346.83
852.515	18138.25
852.838	18124.69
853.161	18165.82
853.483	18055.32
853.806	17833.18
854.129	17875.21
854.451	17713.4
854.774	17695.55
855.096	17653.52
855.419	17687.19
855.741	17575.33
856.063	17425.73
856.385	17454.43
856.708	17378.27
857.03	17297.14
857.352	17267.99
857.674	17185.28
857.996	17230.03
858.318	17108.9
858.64	17118.17
858.961	17065.29
859.283	17029.58
859.605	16842.01
859.926	16917.04
860.248	16895.12
860.57	16702.58
860.891	16745.29
861.212	16764.73
861.534	16677.27
861.855	16624.39
862.176	16593.21
862.498	16693.77
862.819	16687.44
863.14	16497.17
863.461	16454.68
863.782	16406.77
864.103	16441.35
864.424	16385.76
864.745	16502.14
865.065	16341.46
865.386	16247.68
865.707	16240.22
866.027	16202.26
866.348	16102.37
866.668	16106.21
866.989	16114.35
867.309	16014.24
867.63	16087.01
867.95	16098.98
868.27	15907.12
868.59	16029.38
868.91	15950.06
869.23	15822.61
869.55	15758.88
869.87	15905.77
870.19	15834.81
870.51	15858.09
870.83	15881.59
871.15	15843.85
871.469	15768.82
871.789	15736.06
872.109	15700.8
872.428	15671.2
872.748	15675.27
873.067	15647.47
873.386	15787.81
873.706	15643.18
874.025	15529.73
874.344	15508.26
874.663	15576.74
874.982	15503.29
875.301	15435.5
875.62	15429.4
875.939	15321.38
876.258	15408.83
876.577	15389.62
876.896	15353.24
877.214	15240.25
877.533	15259.01
877.852	15287.48
878.17	15201.38
878.489	15268.95
878.807	15200.93
879.125	15189.85
879.444	15205.45
879.762	15132.46
880.08	15091.1
880.398	15008.39
880.716	15085.22
881.034	14969.3
881.352	14945.79
881.67	15000.26
881.988	14907.38
882.306	14846.14
882.624	14724.1
882.941	14688.17
883.259	14632.81
883.577	14625.58
883.894	14607.72
884.212	14569.98
884.529	14629.19
884.846	14594.62
885.164	14555.52
885.481	14432.13
885.798	14445.92
886.115	14388.52
886.432	14392.59
886.75	14319.82
887.067	14358.24
887.383	14250.9
887.7	14279.14
888.017	14157.57
888.334	14217.23
888.651	14207.51
888.967	14165.02
889.284	14092.03
889.6	14080.05
889.917	13900.62
890.233	13996.44
890.55	13929.1
890.866	13845.48
891.182	13806.61
891.498	13824.24
891.815	13730.23
892.131	13647.97
892.447	13709.44
892.763	13628.54
893.079	13650.01
893.395	13568.2
893.71	13572.95
894.026	13490.24
894.342	13406.85
894.657	13365.95
894.973	13356.91
895.289	13329.11
895.604	13325.95
895.92	13180.42
896.235	13188.78
896.55	13172.96
896.865	13178.38
897.181	13019.52
897.496	13040.53
897.811	12938.84
898.126	12968.22
898.441	12868.33
898.756	12798.73
899.071	12725.51
899.386	12838.96
899.7	12652.75
900.015	12641.22
900.33	12513.32
900.644	12556.93
900.959	12525.97
901.273	12395.13
901.588	12438.97
901.902	12267.67
902.216	12359.42
902.531	12301.8
902.845	12186.54
903.159	12098.86
903.473	12059.54
903.787	12008.92
904.101	11943.84
904.415	11973.44
904.729	11958.08
905.042	11889.15
905.356	11801.24
905.67	11773.22
905.984	11848.7
906.297	11721.7
906.611	11675.6
906.924	11677.18
907.237	11617.97
907.551	11493
907.864	11471.76
908.177	11419.56
908.491	11343.85
908.804	11384.31
909.117	11286.91
909.43	11305.21
909.743	11208.49
910.056	11270.86
910.368	11087.59
910.681	11096.18
910.994	11049.62
911.307	11023.64
911.619	10880.36
911.932	10922.62
912.244	10896.41
912.557	10812.79
912.869	10680.59
913.181	10723.76
913.494	10679.92
913.806	10591.56
914.118	10588.85
914.43	10453.93
914.742	10530.54
915.054	10443.54
915.366	10479.7
915.678	10349.76
915.99	10320.83
916.302	10182.53
916.613	10208.06
916.925	10249.42
917.236	10168.07
917.548	10100.27
917.859	10075.87
918.171	10040.61
918.482	10034.74
918.794	10017.34
919.105	9916.32
919.416	9852.14
919.727	9813.27
920.038	9815.76
920.349	9750.68
920.66	9652.15
920.971	9706.61
921.282	9627.29
921.593	9559.95
921.903	9511.81
922.214	9501.19
922.525	9515.65
922.835	9416.9
923.146	9304.81
923.456	9330.57
923.767	9280.63
924.077	9293.74
924.387	9225.27
924.697	9119.28
925.008	9090.81
925.318	9078.15
925.628	9042.67
925.938	9016.23
926.248	8897.36
926.558	8972.17
926.867	8861.43
927.177	8829.8
927.487	8792.28
927.796	8724.94
928.106	8731.49
928.416	8651.04
928.725	8647.43
929.034	8547.09
929.344	8579.63
929.653	8569.69
929.962	8471.39
930.271	8456.92
930.581	8388.23
930.89	8372.41
931.199	8351.84
931.508	8360.43
931.817	8270.94
932.125	8270.71
932.434	8218.29
932.743	8164.73
933.051	8072.98
933.36	8067.1
933.669	8025.3
933.977	7956.6
934.286	8019.65
934.594	7959.08
934.902	7868.92
935.21	7876.15
935.519	7872.53
935.827	7805.42
936.135	7793.21
936.443	7735.36
936.751	7719.77
937.059	7646.55
937.367	7634.35
937.674	7571.75
937.982	7544.41
938.29	7493.79
938.597	7581.47
938.905	7430.96
939.213	7419.66
939.52	7388.25
939.827	7353.22
940.135	7274.58
940.442	7271.87
940.749	7302.15
941.056	7311.87
941.363	7224.87
941.67	7206.56
941.977	7154.36
942.284	7100.58
942.591	7077.53
942.898	7076.62
943.205	7080.24
943.511	7045.89
943.818	6958.66
944.125	6868.27
944.431	6885.89
944.738	6927.25
945.044	6850.87
945.35	6833.46
945.657	6782.17
945.963	6757.76
946.269	6704.2
946.575	6765.44
946.881	6661.94
947.187	6662.17
947.493	6641.61
947.799	6611.55
948.105	6603.64
948.41	6559.12
948.716	6512.57
949.022	6435.96
949.327	6453.36
949.633	6391.22
949.938	6381.27
950.244	6326.13
950.549	6341.5
950.854	6310.77
951.16	6244.78
951.465	6256.3
951.77	6193.48
952.075	6158.91
952.38	6210.88
952.685	6132.69
952.99	6114.61
953.294	6070.77
953.599	6025.58
953.904	6009.31
954.209	5998.01
954.513	5962.98
954.818	5929.99
955.122	5925.92
955.426	5863.77
955.731	5795.07
956.035	5820.38
956.339	5791.23
956.643	5794.17
956.948	5742.42
957.252	5702.42
957.556	5718.69
957.86	5644.12
958.163	5653.38
958.467	5600.5
958.771	5629.65
959.075	5554.4
959.378	5567.51
959.682	5523.89
959.985	5508.53
960.289	5488.64
960.592	5445.7
960.896	5390.56
961.199	5404.8
961.502	5369.1
961.805	5351.02
962.108	5293.62
962.411	5365.93
962.714	5268.76
963.017	5267.4
963.32	5267.63
963.623	5199.16
963.926	5204.58
964.228	5165.03
964.531	5140.85
964.833	5177.91
965.136	5098.37
965.438	5015.89
965.741	5088.2
966.043	5007.3
966.345	5004.13
966.648	5002.1
966.95	4974.98
967.252	4924.14
967.554	4943.57
967.856	4930.69
968.158	4850.24
968.46	4838.04
968.761	4815.21
969.063	4770.02
969.365	4821.09
969.666	4771.37
969.968	4721.88
970.269	4787.64
970.571	4695.89
970.872	4679.17
971.174	4644.37
971.475	4657.93
971.776	4653.18
972.077	4621.09
972.378	4602.11
972.679	4588.55
972.98	4594.2
973.281	4492.28
973.582	4527.99
973.883	4523.69
974.183	4456.13
974.484	4443.24
974.785	4422.23
975.085	4417.71
975.386	4423.58
975.686	4344.49
975.986	4317.82
976.287	4300.88
976.587	4287.09
976.887	4244.83
977.187	4225.85
977.487	4234.21
977.787	4211.84
978.087	4210.93
978.387	4174.1
978.687	4183.14
978.987	4156.02
979.286	4132.29
979.586	4107.21
979.885	4097.04
980.185	4083.93
980.484	4023.82
980.784	4030.6
981.083	4018.62
981.382	3996.02
981.682	3975.46
981.981	3969.36
982.28	3951.05
982.579	3913.99
982.878	3877.16
983.177	3897.72
983.475	3886.2
983.774	3861.57
984.073	3858.85
984.372	3813.66
984.67	3808.23
984.969	3789.7
985.267	3797.16
985.566	3750.61
985.864	3718.07
986.162	3707.9
986.461	3643.04
986.759	3698.41
987.057	3655.24
987.355	3609.82
987.653	3633.55
987.951	3633.1
988.249	3603.94
988.547	3554.23
988.844	3565.3
989.142	3578.63
989.44	3527.11
989.737	3512.65
990.035	3469.49
990.332	3439.66
990.63	3507.22
990.927	3482.59
991.224	3427.68
991.521	3392.88
991.819	3400.79
992.116	3409.37
992.413	3323.95
992.71	3343.84
993.006	3351.3
993.303	3276.95
993.6	3320.34
993.897	3294.12
994.193	3253.9
994.49	3248.25
994.787	3235.14
995.083	3226.33
995.379	3184.52
995.676	3189.49
995.972	3172.32
996.268	3139.1
996.565	3125.09
996.861	3132.77
997.157	3085.09
997.453	3079.21
997.749	3087.57
998.044	3063.85
998.34	3063.39
998.636	3050.51
998.932	3017.07
999.227	2953.57
999.523	2991.76
999.818	2958.54
1000.114	2924.64
1000.409	2972.32
1000.704	2898.43
1001	2909.5
1001.295	2861.59
1001.59	2851.42
1001.885	2860.46
1002.18	2825.21
1002.475	2803.74
1002.77	2792.44
1003.065	2785.66
1003.359	2785.66
1003.654	2803.74
1003.949	2711.54
1004.243	2687.36
1004.538	2693.23
1004.832	2720.35
1005.127	2666.12
1005.421	2655.04
1005.715	2619.11
1006.009	2659.79
1006.304	2619.79
1006.598	2595.16
1006.892	2582.95
1007.186	2589.73
1007.48	2530.3
1007.773	2530.53
1008.067	2526.91
1008.361	2512.22
1008.655	2493.24
1008.948	2472
1009.242	2431.32
1009.535	2442.17
1009.829	2416.18
1010.122	2399.91
1010.415	2409.85
1010.708	2376.63
1011.001	2357.2
1011.295	2319.23
1011.588	2363.3
1011.881	2342.74
1012.173	2316.75
1012.466	2299.57
1012.759	2281.95
1013.052	2286.47
1013.344	2243.53
1013.637	2251.44
1013.93	2246.92
1014.222	2191.1
1014.514	2219.57
1014.807	2188.84
1015.099	2209.86
1015.391	2159.24
1015.683	2135.51
1015.976	2148.62
1016.268	2133.47
1016.56	2081.5
1016.851	2057.09
1017.143	2096.41
1017.435	2091.44
1017.727	2050.31
1018.018	2030.88
1018.31	2025.68
1018.602	2029.07
1018.893	2017.55
1019.185	1991.56
1019.476	1961.5
1019.767	1977.32
1020.058	1935.06
1020.35	1909.3
1020.641	1906.36
1020.932	1891.67
1021.223	1920.15
1021.514	1875.4
1021.804	1857.32
1022.095	1891.45
1022.386	1855.97
1022.677	1815.97
1022.967	1841.05
1023.258	1828.4
1023.548	1773.48
1023.839	1797.89
1024.129	1761.28
1024.419	1768.96
1024.709	1747.5
1025	1709.76
1025.29	1720.83
1025.58	1710.44
1025.87	1693.71
1026.16	1700.27
1026.449	1680.83
1026.739	1667.05
1027.029	1634.28
1027.319	1606.71
1027.608	1603.09
1027.898	1624.56
1028.187	1605.81
1028.477	1581.63
1028.766	1598.12
1029.055	1589.76
1029.344	1546.37
1029.634	1545.24
1029.923	1514.51
1030.212	1502.98
1030.501	1530.55
1030.79	1506.82
1031.078	1503.44
1031.367	1463.44
1031.656	1451.91
1031.945	1459.82
1032.233	1484.45
1032.522	1418.01
1032.81	1433.38
1033.099	1407.84
1033.387	1397.45
1033.675	1413.27
1033.963	1394.51
1034.251	1394.06
1034.54	1379.82
1034.828	1358.35
1035.116	1326.72
1035.403	1333.5
1035.691	1347.73
1035.979	1319.71
1036.267	1314.97
1036.554	1311.12
1036.842	1317.23
1037.129	1294.85
1037.417	1273.61
1037.704	1262.99
1037.992	1245.81
1038.279	1243.1
1038.566	1215.53
1038.853	1215.53
1039.14	1215.53
