Data from orange_diffuse_book_FLMS001491_00061.txt Node
Date: Wed Feb 08 15:29:53 GMT 2017
User: dcchb
Spectrometer: FLMS00149
Trigger mode: 0
Integration Time (sec): 2.000000E-2
Scans to average: 10
Electric dark correction enabled: true
Nonlinearity correction enabled: false
Boxcar width: 0
XAxis mode: Wavelengths
Number of Pixels in Spectrum: 2048
>>>>>Begin Spectral Data<<<<<
341.393	-8.91
341.776	-8.91
342.16	-8.91
342.543	-43.94
342.927	-45.3
343.31	-62.92
343.693	-76.03
344.077	-53.43
344.46	-51.62
344.843	-58.18
345.226	-24.51
345.61	-40.1
345.993	-3.71
346.376	-10.27
346.759	8.71
347.142	15.72
347.525	32.44
347.908	55.49
348.291	63.85
348.674	92.1
349.057	112.44
349.44	140.01
349.823	143.17
350.206	176.17
350.588	222.72
350.971	215.04
351.354	261.36
351.737	272.66
352.119	253.23
352.502	287.13
352.884	266.79
353.267	300.91
353.65	319.67
354.032	320.8
354.414	328.48
354.797	321.25
355.179	333.23
355.562	335.94
355.944	342.94
356.326	354.69
356.709	363.73
357.091	337.75
357.473	364.41
357.855	360.57
358.238	343.17
358.62	350.4
359.002	352.66
359.384	321.93
359.766	353.79
360.148	345.2
360.53	376.39
360.912	347.24
361.294	367.58
361.676	364.64
362.057	348.59
362.439	342.49
362.821	340.91
363.203	328.48
363.584	336.16
363.966	353.79
364.348	325.54
364.729	338.42
365.111	343.85
365.493	345.65
365.874	328.03
366.256	338.2
366.637	340.91
367.019	328.25
367.4	311.31
367.781	317.41
368.163	344.3
368.544	326.22
368.925	341.59
369.306	365.09
369.688	317.63
370.069	341.81
370.45	316.05
370.831	326.22
371.212	355.6
371.593	344.75
371.974	313.79
372.355	334.36
372.736	350.17
373.117	323.73
373.498	327.35
373.879	346.56
374.26	317.41
374.641	334.36
375.021	319.89
375.402	339.33
375.783	349.72
376.163	347.69
376.544	333.9
376.925	349.04
377.305	365.54
377.686	348.59
378.066	349.95
378.447	331.64
378.827	330.74
379.208	342.27
379.588	325.32
379.968	351.53
380.349	340.23
380.729	335.03
381.109	339.55
381.489	357.18
381.87	346.11
382.25	345.88
382.63	355.37
383.01	345.2
383.39	356.28
383.77	366.9
384.15	364.86
384.53	373.22
384.91	344.98
385.29	372.32
385.67	377.74
386.049	363.28
386.429	371.64
386.809	362.6
387.189	358.76
387.568	376.61
387.948	372.09
388.328	359.44
388.707	368.7
389.087	351.08
389.466	384.98
389.846	371.87
390.225	385.43
390.605	390.17
390.984	392.43
391.363	389.27
391.743	406.44
392.122	364.64
392.501	389.5
392.881	404.41
393.26	394.02
393.639	389.04
394.018	399.21
394.397	392.66
394.776	390.4
395.155	401.7
395.534	410.96
395.913	391.98
396.292	394.69
396.671	390.85
397.05	426.1
397.429	396.73
397.808	419.78
398.186	402.83
398.565	415.48
398.944	423.84
399.323	401.25
399.701	383.62
400.08	410.96
400.458	425.2
400.837	436.95
401.215	427.01
401.594	394.24
401.972	411.87
402.351	428.82
402.729	427.69
403.107	413.68
403.486	430.17
403.864	451.87
404.242	454.13
404.62	442.38
404.999	457.74
405.377	457.74
405.755	459.1
406.133	446.22
406.511	427.91
406.889	463.62
407.267	449.38
407.645	460.91
408.023	481.7
408.401	465.43
408.779	468.82
409.156	460.68
409.534	469.49
409.912	454.58
410.29	492.54
410.667	487.8
411.045	500.45
411.422	486.89
411.8	495.93
412.178	507.46
412.555	483.05
412.933	490.96
413.31	490.06
413.687	507.68
414.065	514.46
414.442	520.11
414.819	510.4
415.197	523.05
415.574	533.9
415.951	516.72
416.328	538.87
416.705	542.26
417.082	525.54
417.46	527.34
417.837	557.85
418.214	510.17
418.591	554.46
418.967	557.63
419.344	543.16
419.721	565.31
420.098	573.67
420.475	569.38
420.852	587.46
421.228	565.99
421.605	578.42
421.982	590.62
422.358	601.24
422.735	587
423.111	568.7
423.488	612.99
423.864	600.56
424.241	626.55
424.617	604.41
424.994	609.6
425.37	617.74
425.746	607.34
426.123	603.28
426.499	639.66
426.875	631.07
427.251	628.13
427.627	630.62
428.003	645.53
428.379	642.14
428.756	655.93
429.132	691.63
429.507	646.44
429.883	671.75
430.259	667.68
430.635	675.36
431.011	653.67
431.387	699.54
431.763	693.89
432.138	692.99
432.514	696.61
432.89	707
433.265	718.75
433.641	715.81
434.016	723.05
434.392	725.08
434.767	747.45
435.143	760.11
435.518	764.4
435.894	753.1
436.269	752.65
436.644	771.18
437.02	759.43
437.395	759.43
437.77	771.41
438.145	787
438.52	796.49
438.895	783.84
439.271	804.63
439.646	824.29
440.021	815.92
440.395	811.86
440.77	805.76
441.145	823.61
441.52	822.7
441.895	824.29
442.27	845.53
442.645	848.92
443.019	860.67
443.394	847.11
443.769	863.38
444.143	873.55
444.518	884.4
444.892	842.59
445.267	874.23
445.641	888.24
446.016	874.91
446.39	865.19
446.764	870.16
447.139	878.52
447.513	889.14
447.887	883.49
448.262	894.11
448.636	891.4
449.01	887.79
449.384	902.25
449.758	899.99
450.132	910.39
450.506	930.05
450.88	924.85
451.254	944.06
451.628	962.14
452.002	942.48
452.376	942.25
452.75	972.53
453.123	976.37
453.497	978.86
453.871	963.04
454.244	971.63
454.618	1008.46
454.992	991.29
455.365	1005.3
455.739	1027.9
456.112	1024.96
456.486	1017.73
456.859	1045.52
457.232	1038.52
457.606	1042.81
457.979	1033.77
458.352	1064.05
458.725	1070.16
459.099	1073.55
459.472	1092.3
459.845	1118.74
460.218	1105.18
460.591	1108.35
460.964	1122.36
461.337	1143.15
461.71	1148.57
462.083	1166.65
462.456	1146.54
462.829	1169.14
463.201	1184.95
463.574	1193.54
463.947	1181.56
464.32	1216.14
464.692	1178.63
465.065	1236.25
465.438	1235.35
465.81	1228.34
466.183	1249.81
466.555	1275.35
466.928	1259.53
467.3	1251.62
467.672	1273.99
468.045	1294.33
468.417	1302.69
468.789	1312.86
469.161	1325.29
469.534	1322.58
469.906	1371.84
470.278	1376.36
470.65	1368
471.022	1389.24
471.394	1410.94
471.766	1408.45
472.138	1436.25
472.51	1450.03
472.882	1475.79
473.253	1493.87
473.625	1526.19
473.997	1501.1
474.369	1527.32
474.74	1557.83
475.112	1559.41
475.484	1540.43
475.855	1604.15
476.227	1628.11
476.598	1619.52
476.97	1632.17
477.341	1673.53
477.713	1695
478.084	1721.89
478.455	1750.59
478.827	1768.44
479.198	1805.05
479.569	1805.05
479.94	1876.91
480.311	1895.22
480.682	1896.8
481.053	1930.02
481.424	1957.82
481.795	1991.26
482.166	1999.17
482.537	2002.79
482.908	2061.09
483.279	2076.91
483.65	2122.56
484.021	2103.8
484.391	2190.35
484.762	2216.57
485.133	2202.56
485.503	2224.93
485.874	2328.65
486.244	2328.88
486.615	2350.57
486.985	2399.39
487.356	2421.76
487.726	2421.53
488.097	2483.68
488.467	2504.24
488.837	2549.66
489.207	2576.1
489.578	2636.22
489.948	2636.44
490.318	2681.64
490.688	2700.4
491.058	2757.79
491.428	2763.9
491.798	2783.33
492.168	2858.58
492.538	2904.01
492.908	2932.93
493.278	2957.11
493.648	2995.98
494.017	3000.27
494.387	3073.72
494.757	3098.35
495.126	3127.05
495.496	3202.98
495.866	3200.95
496.235	3187.16
496.605	3276.2
496.974	3286.59
497.344	3330.44
497.713	3359.13
498.082	3346.93
498.452	3444.78
498.821	3468.06
499.19	3488.17
499.559	3511
499.928	3522.97
500.298	3568.39
500.667	3650.65
501.036	3679.13
501.405	3647.49
501.774	3682.06
502.143	3710.31
502.512	3743.76
502.88	3798.67
503.249	3802.29
503.618	3830.08
503.987	3844.55
504.356	3830.08
504.724	3903.3
505.093	3929.74
505.462	3941.27
505.83	3967.71
506.199	4021.49
506.567	4045.67
506.936	4077.76
507.304	4127.25
507.672	4190.98
508.041	4213.12
508.409	4206.34
508.777	4221.03
509.145	4308.04
509.514	4248.6
509.882	4327.02
510.25	4341.71
510.618	4408.15
510.986	4381.48
511.354	4487.92
511.722	4442.95
512.09	4551.19
512.458	4539.89
512.826	4565.43
513.193	4571.98
513.561	4618.76
513.929	4664.64
514.297	4697.86
514.664	4776.95
515.032	4745.99
515.4	4808.59
515.767	4829.6
516.135	4854.01
516.502	4846.1
516.869	4923.16
517.237	4929.72
517.604	4924.07
517.972	5019.43
518.339	5051.97
518.706	5076.6
519.073	5066.43
519.44	5137.39
519.808	5141.23
520.175	5236.37
520.542	5219.88
520.909	5212.19
521.276	5308.91
521.643	5329.03
522.009	5389.59
522.376	5385.97
522.743	5395.24
523.11	5486.99
523.477	5557.04
523.843	5535.12
524.21	5558.85
524.577	5667.77
524.943	5670.49
525.31	5691.95
525.676	5738.51
526.043	5766.76
526.409	5818.05
526.776	5833.87
527.142	5879.75
527.508	5941.21
527.874	5977.37
528.241	6058.27
528.607	6025.51
528.973	6024.38
529.339	6036.8
529.705	6135.33
530.071	6142.11
530.437	6182.34
530.803	6241.54
531.169	6250.58
531.535	6297.59
531.901	6251.49
532.267	6306.4
532.632	6418.94
532.998	6371.71
533.364	6429.56
533.73	6431.82
534.095	6451.48
534.461	6527.41
534.826	6587.98
535.192	6592.5
535.557	6612.61
535.923	6642.44
536.288	6636.34
536.653	6634.3
537.019	6669.33
537.384	6706.62
537.749	6748.88
538.114	6786.62
538.479	6793.17
538.845	6818.48
539.21	6848.76
539.575	6818.03
539.94	6920.17
540.305	6935.76
540.67	6969.21
541.034	6990.68
541.399	7070.45
541.764	7016.21
542.129	7056.89
542.494	7131.92
542.858	7199.71
543.223	7214.85
543.587	7182.09
543.952	7181.18
544.316	7194.97
544.681	7215.3
545.045	7336.66
545.41	7338.92
545.774	7423.43
546.138	7450.1
546.503	7437.9
546.867	7493.72
547.231	7531.45
547.595	7583.66
547.959	7625.24
548.324	7638.12
548.688	7639.93
549.052	7701.17
549.416	7766.7
549.779	7747.72
550.143	7773.71
550.507	7921.27
550.871	7938.45
551.235	7926.92
551.599	8033.36
551.962	7996.75
552.326	8034.27
552.689	8113.59
553.053	8168.5
553.417	8128.95
553.78	8232.45
554.143	8289.17
554.507	8347.48
554.87	8349.06
555.234	8477.64
555.597	8450.3
555.96	8504.76
556.323	8599.68
556.686	8599.45
557.05	8720.8
557.413	8740.91
557.776	8796.05
558.139	8915.37
558.502	8906.11
558.865	8967.57
559.228	9088.25
559.59	9194.91
559.953	9219.32
560.316	9249.83
560.679	9331.18
561.041	9398.3
561.404	9483.49
561.767	9599.87
562.129	9623.38
562.492	9770.94
562.854	9815.91
563.217	9872.86
563.579	9915.57
563.941	9961.22
564.304	10078.96
564.666	10203.7
565.028	10341.55
565.39	10404.15
565.753	10516.91
566.115	10575.89
566.477	10710.13
566.839	10739.51
567.201	10853.85
567.563	10959.84
567.925	11111.7
568.287	11233.5
568.648	11349.21
569.01	11487.28
569.372	11594.85
569.734	11717.56
570.095	11960.94
570.457	12003.43
570.819	12099.24
571.18	12285.91
571.542	12487.93
571.903	12581.72
572.265	12802.5
572.626	12959.56
572.987	13065.77
573.349	13264.19
573.71	13454.69
574.071	13635.7
574.432	13848.8
574.794	14140.09
575.155	14275.46
575.516	14400.43
575.877	14666.63
576.238	14833.18
576.599	15100.52
576.96	15253.96
577.32	15493.28
577.681	15775.53
578.042	16035.41
578.403	16213.03
578.763	16612.8
579.124	16929.4
579.485	17202.84
579.845	17502.27
580.206	17761.02
580.566	18041.91
580.927	18379.3
581.287	18716.25
581.648	18896.58
582.008	19335.66
582.368	19565.04
582.728	19996.21
583.089	20299.48
583.449	20623.09
583.809	21022.4
584.169	21418.77
584.529	21830.51
584.889	22237.06
585.249	22606.31
585.609	22898.73
585.969	23374.88
586.329	23700.07
586.688	24185.48
587.048	24542.76
587.408	24968.51
587.768	25456.63
588.127	25792.9
588.487	26290.28
588.846	26897.72
589.206	27150.83
589.565	27584.94
589.925	28126.85
590.284	28299.5
590.643	28925.92
591.003	29428.28
591.362	29908.49
591.721	30413.11
592.08	30782.37
592.44	31508.68
592.799	31827.31
593.158	32300.52
593.517	32780.96
593.876	33401.51
594.235	33563.09
594.593	34189.51
594.952	34714.24
595.311	35090.5
595.67	35679.87
596.029	36312.39
596.387	36686.85
596.746	37217.45
597.104	37441.18
597.463	38021.05
597.822	38568.38
598.18	38810.63
598.538	39317.06
598.897	39950.04
599.255	40023.03
599.613	41057.8
599.972	41198.14
600.33	41606.04
600.688	41900.04
601.046	42465.9
601.404	42948.6
601.762	43271.76
602.12	43832.87
602.478	44214.78
602.836	44456.13
603.194	44722.79
603.552	45190.58
603.91	45311.93
604.268	45890.9
604.625	46112.81
604.983	46633.7
605.341	46681.84
605.698	47140.13
606.056	47588.93
606.413	47691.3
606.771	48148.01
607.128	48411.28
607.485	48451.96
607.843	48723.14
608.2	49115.9
608.557	49386.17
608.914	49457.36
609.272	49836.33
609.629	50147.06
609.986	50377.79
610.343	50360.61
610.7	50712.69
611.057	50955.62
611.414	50983.65
611.771	51173.7
612.127	51341.38
612.484	51584.99
612.841	51853.45
613.198	51736.17
613.554	51915.6
613.911	52166.21
614.267	52329.82
614.624	52375.7
614.98	52559.88
615.337	52745.41
615.693	52813.43
616.05	52793.77
616.406	53180.65
616.762	53133.87
617.118	53200.99
617.475	53235.56
617.831	53466.97
618.187	53470.81
618.543	53622.45
618.899	53833.06
619.255	53870.58
619.611	53896.11
619.967	53984.02
620.323	54170.23
620.678	54096.78
621.034	54096.11
621.39	54125.48
621.746	54156.9
622.101	54485.25
622.457	54289.77
622.812	54355.31
623.168	54576.09
623.523	54560.73
623.879	54670.55
624.234	54504
624.589	54669.88
624.945	54690.21
625.3	54720.72
625.655	54726.82
626.01	54806.37
626.365	54879.59
626.72	54865.58
627.075	54863.54
627.43	54921.85
627.785	54808.18
628.14	54931.11
628.495	54963.2
628.85	54976.31
629.205	54865.13
629.559	55089.75
629.914	54983.54
630.269	55044.78
630.623	54978.12
630.978	54997.55
631.332	55101.73
631.687	55118.9
632.041	55060.15
632.396	55084.55
632.75	54980.6
633.104	55067.83
633.459	54893.6
633.813	54970.89
634.167	54943.99
634.521	54979.47
634.875	55043.43
635.229	55021.28
635.583	54889.08
635.937	54943.54
636.291	54846.37
636.645	54864.67
636.999	54815.41
637.352	54967.27
637.706	54802.3
638.06	54932.69
638.413	54895.86
638.767	54825.35
639.121	54844.33
639.474	54673.27
639.828	54697.22
640.181	54748.97
640.534	54766.6
640.888	54786.48
641.241	54632.59
641.594	54695.86
641.947	54747.61
642.301	54665.36
642.654	54772.25
643.007	54726.82
643.36	54695.19
643.713	54701.51
644.066	54726.37
644.419	54551.01
644.771	54363.67
645.124	54075.32
645.477	54027.63
645.83	53913.51
646.182	53817.92
646.535	53695.44
646.888	53911.25
647.24	53705.16
647.593	53824.93
647.945	53841.42
648.298	53729.11
648.65	53622.9
649.002	53595.78
649.355	53729.56
649.707	53673.74
650.059	53807.3
650.411	54104.47
650.763	54108.08
651.115	54488.19
651.467	54359.15
651.819	54428.53
652.171	54268.08
652.523	54312.6
652.875	54287.29
653.227	54202.54
653.578	54314.18
653.93	54232.6
654.282	54143.34
654.633	54116.67
654.985	54161.19
655.337	54207.29
655.688	54172.04
656.039	54260.4
656.391	54036.22
656.742	54102.43
657.094	54137.91
657.445	54234.86
657.796	54108.08
658.147	54132.26
658.498	54104.92
658.849	54173.84
659.2	54012.49
659.551	54027.63
659.902	54176.78
660.253	54057.01
660.604	54127.74
660.955	54012.27
661.306	54181.08
661.656	54019.05
662.007	54113.05
662.358	54095.43
662.708	54141.53
663.059	54039.16
663.409	53973.62
663.76	54126.84
664.11	54093.39
664.461	54062.43
664.811	54095.43
665.161	54073.06
665.511	53989.44
665.862	54043.68
666.212	54033.28
666.562	54047.29
666.912	53985.6
667.262	54029.89
667.612	53933.4
667.962	54005.71
668.312	53978.59
668.662	54057.46
669.011	53946.05
669.361	53935.21
669.711	53863.12
670.06	53813.63
670.41	53868.99
670.76	53722.33
671.109	53931.59
671.459	53809.56
671.808	53732.5
672.157	53769.33
672.507	53611.6
672.856	53586.06
673.205	53611.15
673.554	53736.79
673.904	53586.51
674.253	53758.26
674.602	53676.23
674.951	53188.11
675.3	53036.02
675.649	53609.79
675.998	53486.4
676.346	53532.5
676.695	53615.89
677.044	53383.58
677.393	53481.21
677.741	53426.52
678.09	53437.59
678.438	53352.62
678.787	53441.89
679.135	53377.48
679.484	53237.37
679.832	53282.34
680.181	53176.13
680.529	53197.37
680.877	53113.76
681.225	53009.81
681.573	53319.86
681.922	53075.57
682.27	52976.81
682.618	52973.88
682.966	52881.45
683.314	52928.9
683.661	52879.64
684.009	52702.7
684.357	52691.85
684.705	52599.2
685.053	52619.08
685.4	52603.94
685.748	52498.41
686.095	52395.81
686.443	52405.53
686.79	52400.56
687.138	52375.7
687.485	52423.16
687.832	52203.27
688.18	52195.14
688.527	52007.8
688.874	51993.34
689.221	51909.27
689.568	51899.1
689.915	51693.68
690.262	51735.94
690.609	51622.05
690.956	51638.09
691.303	51469.73
691.65	51489.17
691.997	51398.78
692.344	51138.9
692.69	51191.55
693.037	51289.4
693.383	50846.25
693.73	51008.05
694.077	50903.2
694.423	50814.38
694.769	50745.69
695.116	50632.02
695.462	50667.04
695.808	50352.02
696.155	50534.39
696.501	50175.3
696.847	50274.29
697.193	49888.31
697.539	50094.18
697.885	49928.53
698.231	49663.91
698.577	49760.63
698.923	49677.92
699.269	49417.13
699.614	49319.28
699.96	49302.33
700.306	49274.09
700.651	49059.63
700.997	48996.58
701.342	48913.64
701.688	48756.59
702.033	48692.86
702.379	48698.73
702.724	48487.89
703.069	48574.22
703.415	48256.03
703.76	48221.23
704.105	48188.24
704.45	48062.14
704.795	47807.46
705.14	47786.67
705.485	47707.35
705.83	47558.42
706.175	47677.97
706.52	47396.17
706.865	47337.64
707.209	47282.27
707.554	47169.06
707.899	47216.29
708.243	46905.33
708.588	46834.38
708.932	46735.85
709.277	46546.93
709.621	46599.13
709.966	46294.28
710.31	46507.6
710.654	46132.02
710.998	46155.98
711.342	46219.02
711.687	46158.01
712.031	45844.35
712.375	45796.66
712.719	45948.07
713.063	45856.1
713.407	45934.74
713.75	45670.11
714.094	45690.9
714.438	45326.17
714.782	45377.69
715.125	45364.13
715.469	45357.35
715.812	45273.51
716.156	44964.59
716.499	45015.89
716.843	45051.15
717.186	44735.45
717.53	44952.62
717.873	45063.8
718.216	44747.65
718.559	44679.18
718.902	44431.73
719.246	44561.44
719.589	44264.05
719.932	44213.43
720.275	44168.23
720.617	44275.12
720.96	44192.64
721.303	44127.33
721.646	44088.23
721.989	43838.75
722.331	44014.79
722.674	43932.98
723.016	43956.03
723.359	43775.02
723.701	43928.01
724.044	43463.17
724.386	43386.1
724.729	43655.48
725.071	43387.91
725.413	43315.6
725.755	43383.85
726.097	43325.99
726.439	42962.84
726.782	43101.82
727.124	43269.72
727.465	43089.62
727.807	43020.01
728.149	42997.64
728.491	42705.9
728.833	42917.64
729.175	42730.53
729.516	42735.73
729.858	42676.07
730.199	42900.92
730.541	42682.62
730.882	42496.41
731.224	42700.93
731.565	42450.76
731.906	42486.92
732.248	42546.81
732.589	42351.78
732.93	42148.17
733.271	42164.44
733.612	42292.8
733.953	42345
734.294	42053.26
734.635	41996.09
734.976	42136.19
735.317	41899.59
735.658	41891.91
735.999	41786.6
736.339	41792.25
736.68	41862.53
737.021	41662.76
737.361	41623.21
737.702	41879.7
738.042	41487.17
738.383	41554.51
738.723	41584.34
739.063	41435.42
739.404	41554.74
739.744	41425.93
740.084	41367.18
740.424	41337.57
740.764	41182.32
741.104	41513.84
741.444	41152.72
741.784	41124.47
742.124	41277.01
742.464	41133.51
742.804	41028.65
743.143	40961.08
743.483	41017.58
743.823	40734.65
744.162	40826.62
744.502	40792.73
744.841	40672.05
745.181	40775.1
745.52	40605.39
745.86	40713.63
746.199	40556.57
746.538	40480.64
746.877	40674.99
747.216	40634.31
747.556	40375.56
747.895	40528.1
748.234	40178.96
748.573	40246.98
748.911	40178.96
749.25	40255.34
749.589	40103.48
749.928	40114.55
750.267	40046.08
750.605	39933.54
750.944	39883.15
751.283	39723.15
751.621	39944.61
751.96	39694.68
752.298	39643.15
752.636	39599.99
752.975	39464.63
753.313	39315.25
753.651	39503.95
753.989	39312.99
754.327	39262.15
754.666	39140.79
755.004	39176.27
755.342	39176.5
755.679	39114.35
756.017	38931.76
756.355	38981.48
756.693	38813.57
757.031	38878.88
757.368	38578.77
757.706	38458.32
758.044	38383.75
758.381	38530.19
758.719	38273.7
759.056	38307.14
759.394	38127.94
759.731	37991.44
760.068	37965.91
760.405	37740.6
760.743	37685.69
761.08	37765.24
761.417	37644.11
761.754	37504
762.091	37454.74
762.428	37270.79
762.765	37026.27
763.102	37170.45
763.438	36913.96
763.775	36838.71
764.112	36927.29
764.449	36948.31
764.785	36747.64
765.122	36546.51
765.458	36415.67
765.795	36311.71
766.131	36310.36
766.467	36056.81
766.804	35897.94
767.14	35862.01
767.476	35731.62
767.812	35728
768.148	35714.67
768.485	35472.64
768.821	35221.12
769.157	35310.39
769.492	35082.59
769.828	35007.12
770.164	34877.85
770.5	34714.69
770.836	34627.24
771.171	34504.53
771.507	34330.52
771.842	34144.77
772.178	34207.36
772.513	34068.61
772.849	33945.68
773.184	33806.47
773.519	33810.09
773.855	33713.14
774.19	33547.49
774.525	33519.7
774.86	33492.35
775.195	33375.97
775.53	33192.02
775.865	33016.66
776.2	32798.59
776.535	32564.92
776.87	32629.33
777.205	32421.2
777.539	32329.67
777.874	32375.77
778.209	31902.79
778.543	32016.01
778.878	31777.82
779.212	31898.72
779.547	31646.53
779.881	31670.93
780.215	31471.16
780.55	31542.8
780.884	31266.2
781.218	31184.17
781.552	31166.77
781.886	30879.54
782.22	30841.58
782.554	30734.01
782.888	30540.79
783.222	30369.27
783.556	30150.52
783.889	30204.3
784.223	29999.79
784.557	29943.75
784.89	29872.11
785.224	29765.22
785.557	29697.43
785.891	29655.84
786.224	29560.93
786.558	29473.25
786.891	29278.68
787.224	29159.36
787.557	29072.81
787.891	29120.49
788.224	29107.84
788.557	28927.28
788.89	28848.63
789.223	28906.71
789.556	28582.88
789.888	28523.44
790.221	28428.53
790.554	28228.54
790.887	28251.59
791.219	28123
791.552	28029.45
791.884	27887.53
792.217	27824.93
792.549	27798.27
792.882	27621.1
793.214	27402.12
793.546	27544.71
793.879	27304.27
794.211	27175.68
794.543	27290.48
794.875	27088.68
795.207	27223.82
795.539	27066.99
795.871	26950.38
796.203	26731.85
796.535	26488.92
796.867	26608.69
797.198	26521.69
797.53	26466.78
797.862	26330.73
798.193	26417.29
798.525	26092.55
798.856	26164.64
799.188	25840.58
799.519	25803.97
799.85	25713.58
800.182	25780.47
800.513	25668.83
800.844	25408.72
801.175	25659.11
801.506	25516.29
801.837	25364.66
802.168	25299.35
802.499	25245.34
802.83	25062.74
803.161	24971.67
803.491	25008.06
803.822	24922.86
804.153	24888.51
804.483	24725.35
804.814	24604.23
805.145	24731.68
805.475	24632.25
805.805	24466.38
806.136	24567.39
806.466	24440.61
806.796	24434.51
807.126	24142.77
807.457	24117.91
807.787	24159.04
808.117	24025.48
808.447	24015.54
808.777	23978.93
809.107	23827.52
809.436	23773.97
809.766	23740.29
810.096	23633.86
810.426	23612.16
810.755	23689.45
811.085	23511.6
811.414	23552.95
811.744	23190.7
812.073	23216.69
812.403	23283.13
812.732	23111.84
813.061	23072.97
813.39	22937.6
813.719	22908
814.049	23086.75
814.378	22913.65
814.707	22799.98
815.036	22774.44
815.365	22687.21
815.693	22441.34
816.022	22477.5
816.351	22434.79
816.68	22344.17
817.008	22354.79
817.337	22108.7
817.665	22224.18
817.994	22167
818.322	22134.91
818.651	21997.29
818.979	21903.05
819.307	22007.01
819.636	22003.62
819.964	21746.67
820.292	21876.16
820.62	21855.6
820.948	21794.81
821.276	21728.14
821.604	21797.52
821.932	21787.58
822.259	21795.71
822.587	21777.63
822.915	21755.71
823.243	21810.18
823.57	21798.2
823.898	21708.93
824.225	21602.04
824.553	21601.14
824.88	21633.23
825.207	21711.42
825.535	21632.1
825.862	21752.78
826.189	21616.73
826.516	21782.61
826.843	21751.87
827.17	21813.34
827.497	21730.4
827.824	21654.47
828.151	21672.1
828.478	21588.94
828.805	21729.05
829.131	21566.57
829.458	21537.87
829.785	21561.59
830.111	21463.29
830.438	21726.11
830.764	21640.46
831.09	21708.71
831.417	21502.61
831.743	21665.55
832.069	21576.28
832.395	21452.67
832.722	21563.18
833.048	21397.3
833.374	21589.39
833.7	21372.67
834.026	21489.28
834.351	21414.25
834.677	21374.25
835.003	21468.72
835.329	21382.84
835.654	21408.83
835.98	21250.19
836.306	21287.93
836.631	21213.13
836.956	21265.33
837.282	21358.89
837.607	21217.42
837.932	21087.26
838.258	20982.17
838.583	21005.9
838.908	20854.95
839.233	20933.81
839.558	20941.27
839.883	20810.65
840.208	20782.41
840.533	20888.84
840.858	20860.82
841.182	20809.3
841.507	20789.41
841.832	20752.35
842.156	20624.44
842.481	20558.46
842.805	20600.49
843.13	20554.39
843.454	20533.82
843.778	20382.87
844.103	20319.37
844.427	20233.27
844.751	20340.61
845.075	20231.46
845.399	20191.91
845.723	20007.74
846.047	20056.1
846.371	19937.68
846.695	19848.19
847.019	19799.83
847.343	19690.46
847.666	19599.16
847.99	19506.05
848.313	19565.04
848.637	19415.21
848.96	19377.24
849.284	19289.11
849.607	19092.51
849.931	19118.72
850.254	18998.95
850.577	18930.93
850.9	18791.72
851.223	18815
851.546	18692.97
851.869	18594.67
852.192	18655.68
852.515	18433.31
852.838	18463.14
853.161	18424.5
853.483	18348.8
853.806	18213.43
854.129	18184.51
854.451	18061.57
854.774	18009.15
855.096	17875.36
855.419	17899.09
855.741	17902.93
856.063	17712.2
856.385	17672.2
856.708	17615.48
857.03	17652.54
857.352	17580.23
857.674	17447.58
857.996	17460.68
858.318	17450.06
858.64	17355.38
858.961	17360.57
859.283	17263.18
859.605	17267.24
859.926	17168.94
860.248	17177.3
860.57	17020.7
860.891	17114.93
861.212	17030.64
861.534	16893.02
861.855	16909.06
862.176	16952
862.498	17020.92
862.819	16776.18
863.14	16731.44
863.461	16802.4
863.782	16725.56
864.103	16699.8
864.424	16739.35
864.745	16687.37
865.065	16644.44
865.386	16464.33
865.707	16431.79
866.027	16535.51
866.348	16457.77
866.668	16528.05
866.989	16413.25
867.309	16318.79
867.63	16465.46
867.95	16349.75
868.27	16253.94
868.59	16309.98
868.91	16252.58
869.23	16122.19
869.55	16112.7
869.87	16209.42
870.19	16179.14
870.51	16197.44
870.83	16153.37
871.15	16068.41
871.469	15977.79
871.789	16046.03
872.109	16012.59
872.428	15844.46
872.748	15932.59
873.067	15896.21
873.386	15947.96
873.706	15903.44
874.025	15826.38
874.344	15719.26
874.663	15753.16
874.982	15689.88
875.301	15661.86
875.62	15596.55
875.939	15509.32
876.258	15676.33
876.577	15594.07
876.896	15622.09
877.214	15546.84
877.533	15521.3
877.852	15474.07
878.17	15488.53
878.489	15451.92
878.807	15471.58
879.125	15402.89
879.444	15375.09
879.762	15373.73
880.08	15268.2
880.398	15202.89
880.716	15322.89
881.034	15213.51
881.352	15267.52
881.67	15197.24
881.988	15123.8
882.306	15190.69
882.624	15087.41
882.941	14983.91
883.259	14975.55
883.577	14904.82
883.894	14856.01
884.212	14851.04
884.529	14892.84
884.846	14851.94
885.164	14754.99
885.481	14707.76
885.798	14708.67
886.115	14602.91
886.432	14703.47
886.75	14555
887.067	14572.85
887.383	14557.03
887.7	14567.65
888.017	14432.74
888.334	14431.39
888.651	14379.41
888.967	14291.05
889.284	14286.31
889.6	14377.6
889.917	14170.38
890.233	14165.18
890.55	14178.74
890.866	14157.04
891.182	14105.74
891.498	14069.14
891.815	14001.11
892.131	13977.39
892.447	13918.63
892.763	13873.66
893.079	13871.63
893.395	13795.7
893.71	13782.36
894.026	13689.03
894.342	13613.33
894.657	13514.35
894.973	13591.63
895.289	13495.37
895.604	13533.56
895.92	13472.99
896.235	13447.46
896.55	13362.49
896.865	13181.7
897.181	13221.02
897.496	13275.71
897.811	13132.66
898.126	13071.2
898.441	13111.87
898.756	13028.94
899.071	13017.19
899.386	12977.41
899.7	12856.74
900.015	12805.67
900.33	12769.96
900.644	12724.76
900.959	12736.97
901.273	12665.78
901.588	12574.26
901.902	12506.24
902.216	12480.25
902.531	12554.6
902.845	12400.93
903.159	12303.08
903.473	12339.46
903.787	12289.3
904.101	12207.26
904.415	12172.91
904.729	12139.24
905.042	12100.37
905.356	12086.36
905.67	12000.94
905.984	12024.44
906.297	11972.92
906.611	11875.52
906.924	11838.01
907.237	11818.12
907.551	11765.24
907.864	11686.15
908.177	11622.19
908.491	11667.62
908.804	11553.5
909.117	11482.09
909.43	11528.64
909.743	11461.52
910.056	11402.77
910.368	11344.91
910.681	11192.6
910.994	11208.87
911.307	11145.37
911.619	11080.51
911.932	11087.97
912.244	11036.45
912.557	10958.94
912.869	10964.36
913.181	10900.63
913.494	10856.11
913.806	10734.53
914.118	10757.58
914.43	10715.78
914.742	10737.02
915.054	10625.16
915.366	10614.09
915.678	10472.85
915.99	10449.57
916.302	10431.72
916.613	10389.23
916.925	10351.72
917.236	10328.22
917.548	10286.41
917.859	10238.5
918.171	10159.63
918.482	10144.49
918.794	10155.57
919.105	10108.79
919.416	9984.95
919.727	9989.24
920.038	9979.3
920.349	9858.17
920.66	9805.74
920.971	9831.96
921.282	9803.94
921.593	9718.97
921.903	9660.89
922.214	9626.09
922.525	9642.59
922.835	9586.99
923.146	9501.57
923.456	9545.19
923.767	9440.56
924.077	9364.85
924.387	9395.36
924.697	9294.57
925.008	9292.99
925.318	9221.58
925.628	9187.46
925.938	9153.11
926.248	9069.27
926.558	9032.66
926.867	9017.97
927.177	8997.18
927.487	8979.33
927.796	8906.11
928.106	8859.56
928.416	8850.52
928.725	8753.12
929.034	8720.58
929.344	8789.5
929.653	8696.17
929.962	8608.49
930.271	8638.32
930.581	8567.59
930.89	8584.99
931.199	8490.98
931.508	8475.38
931.817	8418.44
932.125	8451.66
932.434	8401.26
932.743	8294.82
933.051	8267.03
933.36	8246.46
933.669	8206.92
933.977	8108.61
934.286	8213.24
934.594	8109.07
934.902	8034.94
935.21	8060.93
935.519	8031.33
935.827	7968.05
936.135	7938.45
936.443	7877.89
936.751	7833.59
937.059	7816.19
937.367	7698.23
937.674	7797.89
937.982	7732.81
938.29	7645.58
938.597	7738.45
938.905	7538.46
939.213	7552.92
939.52	7488.52
939.827	7539.59
940.135	7457.33
940.442	7432.02
940.749	7425.69
941.056	7398.12
941.363	7313.16
941.67	7274.06
941.977	7182.31
942.284	7216.21
942.591	7226.6
942.898	7134.4
943.205	7142.31
943.511	7104.8
943.818	7066.38
944.125	7037
944.431	7005.14
944.738	6998.59
945.044	6950.23
945.35	6946.61
945.657	6835.65
945.963	6884.92
946.269	6832.94
946.575	6785.71
946.881	6711.14
947.187	6768.31
947.493	6759.27
947.799	6701.87
948.105	6630.46
948.41	6668.65
948.716	6622.1
949.022	6589.11
949.327	6574.42
949.633	6453.29
949.938	6463.01
950.244	6460.3
950.549	6416
950.854	6348.43
951.16	6374.87
951.465	6344.82
951.77	6298.72
952.075	6293.07
952.38	6284.03
952.685	6221.21
952.99	6204.48
953.294	6205.84
953.599	6112.28
953.904	6103.92
954.209	6057.14
954.513	6060.76
954.818	6049.23
955.122	6035
955.426	6003.81
955.731	5946.41
956.035	5884.49
956.339	5895.79
956.643	5877.49
956.948	5832.06
957.252	5881.78
957.556	5840.2
957.86	5782.57
958.163	5717.72
958.467	5713.42
958.771	5691.28
959.075	5668.9
959.378	5646.76
959.682	5610.38
959.985	5639.75
960.289	5596.36
960.592	5577.61
960.896	5486.54
961.199	5527.21
961.502	5435.01
961.805	5424.62
962.108	5425.52
962.411	5430.72
962.714	5361.34
963.017	5364.96
963.32	5362.47
963.623	5266.88
963.926	5245.19
964.228	5202.48
964.531	5212.87
964.833	5211.29
965.136	5189.82
965.438	5166.54
965.741	5172.42
966.043	5100.78
966.345	5011.07
966.648	5087.22
966.95	5053.33
967.252	4989.15
967.554	5019.2
967.856	5057.62
968.158	4965.19
968.46	4945.08
968.761	4917.06
969.063	4903.28
969.365	4843.84
969.666	4864.63
969.968	4811.3
970.269	4762.04
970.571	4795.93
970.872	4776.5
971.174	4703.96
971.475	4714.13
971.776	4671.19
972.077	4643.85
972.378	4668.93
972.679	4635.03
972.98	4616.95
973.281	4575.6
973.582	4607.01
973.883	4588.71
974.183	4496.51
974.484	4508.26
974.785	4485.43
975.085	4503.96
975.386	4496.73
975.686	4437.07
975.986	4441.14
976.287	4440.24
976.587	4377.19
976.887	4379.22
977.187	4369.28
977.487	4309.17
977.787	4299
978.087	4293.35
978.387	4291.09
978.687	4277.98
978.987	4226
979.286	4210.64
979.586	4179.68
979.885	4170.19
980.185	4127.93
980.484	4120.92
980.784	4091.77
981.083	4060.81
981.382	4062.62
981.682	4055.84
981.981	4007.93
982.28	4053.81
982.579	3979.23
982.878	3999.12
983.177	3981.27
983.475	3985.11
983.774	3907.82
984.073	3890.42
984.372	3890.87
984.67	3890.65
984.969	3864.43
985.267	3803.64
985.566	3804.77
985.864	3778.56
986.162	3803.19
986.461	3776.07
986.759	3812.46
987.057	3693.59
987.355	3728.16
987.653	3692.46
987.951	3689.07
988.249	3660.37
988.547	3639.35
988.844	3626.47
989.142	3603.42
989.44	3568.62
989.737	3555.51
990.035	3539.92
990.332	3528.17
990.63	3524.1
990.927	3497.66
991.224	3425.12
991.521	3473.71
991.819	3430.09
992.116	3451.79
992.413	3398.46
992.71	3346.93
993.006	3404.11
993.303	3403.88
993.6	3379.7
993.897	3331.11
994.193	3321.4
994.49	3324.33
994.787	3303.54
995.083	3241.4
995.379	3268.52
995.676	3229.87
995.972	3205.24
996.268	3178.8
996.565	3189.87
996.861	3160.04
997.157	3155.07
997.453	3131.12
997.749	3129.54
998.044	3109.42
998.34	3100.38
998.636	3071.23
998.932	3007.73
999.227	3068.97
999.523	2981.52
999.818	3019.26
1000.114	2995.08
1000.409	2972.03
1000.704	2986.04
1001	2917.79
1001.295	2949.2
1001.59	2932.03
1001.885	2876.21
1002.18	2841.18
1002.475	2866.49
1002.77	2831.47
1003.065	2817.45
1003.359	2818.13
1003.654	2793.95
1003.949	2804.57
1004.243	2806.16
1004.538	2718.25
1004.832	2727.29
1005.127	2747.17
1005.421	2682.54
1005.715	2705.37
1006.009	2671.47
1006.304	2655.65
1006.598	2662.43
1006.892	2631.47
1007.186	2610
1007.48	2593.51
1007.773	2612.71
1008.067	2553.96
1008.361	2529.78
1008.655	2534.75
1008.948	2503.11
1009.242	2514.41
1009.535	2490.68
1009.829	2464.7
1010.122	2457.46
1010.415	2457.69
1010.708	2405.26
1011.001	2435.09
1011.295	2411.36
1011.588	2384.02
1011.881	2355.77
1012.173	2351.93
1012.466	2346.05
1012.759	2337.47
1013.052	2341.31
1013.344	2289.56
1013.637	2248.2
1013.93	2245.72
1014.222	2258.82
1014.514	2229.67
1014.807	2212.95
1015.099	2213.18
1015.391	2200.52
1015.683	2201.2
1015.976	2176.12
1016.268	2148.32
1016.56	2179.96
1016.851	2136.57
1017.143	2095.21
1017.435	2112.84
1017.727	2104.7
1018.018	2082.78
1018.31	2088.43
1018.602	2046.4
1018.893	2078.26
1019.185	2007.98
1019.476	1999.85
1019.767	1993.75
1020.058	2003.46
1020.35	1979.06
1020.641	1934.54
1020.932	1948.1
1021.223	1935.67
1021.514	1904.71
1021.804	1896.35
1022.095	1894.31
1022.386	1858.16
1022.677	1870.59
1022.967	1864.48
1023.258	1819.06
1023.548	1844.82
1023.839	1822.23
1024.129	1791.49
1024.419	1783.36
1024.709	1753.3
1025	1766.86
1025.29	1766.41
1025.58	1726.18
1025.87	1695
1026.16	1700.87
1026.449	1709.46
1026.739	1686.86
1027.029	1679.63
1027.319	1679.4
1027.608	1658.84
1027.898	1658.39
1028.187	1650.48
1028.477	1649.12
1028.766	1613.64
1029.055	1591.95
1029.344	1600.99
1029.634	1559.63
1029.923	1589.69
1030.212	1551.5
1030.501	1566.64
1030.79	1531.39
1031.078	1534.32
1031.367	1504.49
1031.656	1512.63
1031.945	1443.7
1032.233	1478.05
1032.522	1465.85
1032.81	1463.59
1033.099	1434.67
1033.387	1461.33
1033.675	1424.04
1033.963	1392.63
1034.251	1414.78
1034.54	1435.12
1034.828	1372.97
1035.116	1393.54
1035.403	1368.45
1035.691	1377.04
1035.979	1349.02
1036.267	1338.4
1036.554	1321.45
1036.842	1312.86
1037.129	1306.76
1037.417	1292.3
1037.704	1273.54
1037.992	1302.01
1038.279	1269.92
1038.566	1247.33
1038.853	1247.33
1039.14	1247.33
