Data from orange_diffuse_book_FLMS001491_00086.txt Node
Date: Wed Feb 08 15:30:10 GMT 2017
User: dcchb
Spectrometer: FLMS00149
Trigger mode: 0
Integration Time (sec): 2.000000E-2
Scans to average: 10
Electric dark correction enabled: true
Nonlinearity correction enabled: false
Boxcar width: 0
XAxis mode: Wavelengths
Number of Pixels in Spectrum: 2048
>>>>>Begin Spectral Data<<<<<
341.393	3.77
341.776	3.77
342.16	3.77
342.543	-58.6
342.927	-50.69
343.31	-43.01
343.693	-68.77
344.077	-51.82
344.46	-65.83
344.843	-57.92
345.226	-50.24
345.61	-18.83
345.993	-24.48
346.376	-0.52
346.759	6.71
347.142	10.55
347.525	30.89
347.908	47.61
348.291	90.77
348.674	97.1
349.057	97.78
349.44	133.71
349.823	146.82
350.206	167.38
350.588	211.22
350.971	227.49
351.354	240.6
351.737	260.71
352.119	263.43
352.502	271.11
352.884	279.7
353.267	317.44
353.65	300.49
354.032	277.21
354.414	303.88
354.797	316.53
355.179	320.82
355.562	336.19
355.944	339.81
356.326	341.62
356.709	341.62
357.091	341.62
357.473	343.2
357.855	348.62
358.238	343.65
358.62	355.85
359.002	349.75
359.384	352.46
359.766	335.97
360.148	338.9
360.53	351.56
360.912	329.41
361.294	362.63
361.676	335.29
362.057	339.58
362.439	340.71
362.821	346.81
363.203	337.55
363.584	351.56
363.966	327.6
364.348	344.33
364.729	330.09
365.111	340.03
365.493	336.87
365.874	333.48
366.256	327.6
366.637	323.99
367.019	332.8
367.4	318.57
367.781	304.1
368.163	326.02
368.544	338.23
368.925	328.28
369.306	338.45
369.688	331.67
370.069	320.15
370.45	315.4
370.831	316.76
371.212	310.88
371.593	329.41
371.974	311.56
372.355	322.63
372.736	346.36
373.117	323.99
373.498	322.63
373.879	326.7
374.26	338.9
374.641	320.82
375.021	343.42
375.402	336.64
375.783	333.25
376.163	344.1
376.544	339.13
376.925	348.85
377.305	333.93
377.686	325.8
378.066	316.76
378.447	333.25
378.827	356.76
379.208	339.58
379.588	344.78
379.968	335.51
380.349	329.41
380.729	337.32
381.109	354.27
381.489	340.26
381.87	311.56
382.25	328.96
382.63	353.14
383.01	370.77
383.39	354.04
383.77	339.58
384.15	354.72
384.53	359.69
384.91	357.43
385.29	362.86
385.67	364.21
386.049	368.28
386.429	355.85
386.809	347.49
387.189	373.25
387.568	368.73
387.948	374.16
388.328	351.33
388.707	360.15
389.087	363.76
389.466	382.29
389.846	371.67
390.225	387.04
390.605	377.09
390.984	374.61
391.363	376.19
391.743	375.06
392.122	392.46
392.501	379.58
392.881	388.17
393.26	391.33
393.639	378.45
394.018	392.46
394.397	405.12
394.776	398.11
395.155	378.45
395.534	394.72
395.913	394.95
396.292	415.51
396.671	420.71
397.05	392.01
397.429	401.95
397.808	416.19
398.186	420.26
398.565	400.37
398.944	394.95
399.323	405.34
399.701	398.79
400.08	409.86
400.458	406.25
400.837	419.35
401.215	426.81
401.594	408.05
401.972	405.34
402.351	408.51
402.729	422.07
403.107	427.04
403.486	431.33
403.864	420.48
404.242	422.74
404.62	448.05
404.999	426.13
405.377	424.33
405.755	417.32
406.133	424.55
406.511	438.79
406.889	436.53
407.267	448.51
407.645	464.78
408.023	445.57
408.401	469.75
408.779	484.66
409.156	472.23
409.534	467.26
409.912	467.04
410.29	457.09
410.667	485.34
411.045	486.92
411.422	473.36
411.8	478.56
412.178	518.33
412.555	486.7
412.933	486.47
413.31	488.96
413.687	485.34
414.065	486.02
414.442	513.36
414.819	506.36
415.197	532.34
415.574	507.26
415.951	527.37
416.328	515.85
416.705	516.75
417.082	533.93
417.46	522.18
417.837	549.07
418.214	524.44
418.591	551.78
418.967	533.93
419.344	552.01
419.721	531.21
420.098	556.52
420.475	529.63
420.852	566.24
421.228	561.27
421.605	573.25
421.982	588.61
422.358	572.34
422.735	572.8
423.111	561.27
423.488	580.25
423.864	587.94
424.241	591.55
424.617	600.59
424.994	594.94
425.37	586.58
425.746	606.24
426.123	608.73
426.499	611.21
426.875	591.55
427.251	606.92
427.627	631.1
428.003	617.31
428.379	622.51
428.756	629.97
429.132	650.76
429.507	644.43
429.883	662.51
430.259	669.74
430.635	655.73
431.011	693.92
431.387	681.49
431.763	689.63
432.138	699.57
432.514	688.05
432.89	690.76
433.265	689.18
433.641	702.06
434.016	721.72
434.392	713.13
434.767	741.6
435.143	738.44
435.518	720.14
435.894	730.08
436.269	730.98
436.644	737.09
437.02	747.48
437.395	756.29
437.77	766.01
438.145	744.54
438.52	778.89
438.895	799.23
439.271	793.58
439.646	797.42
440.021	796.07
440.395	805.78
440.77	820.7
441.145	794.48
441.52	815.95
441.895	801.49
442.27	827.48
442.645	824.99
443.019	808.5
443.394	818.21
443.769	842.39
444.143	826.12
444.518	844.65
444.892	845.56
445.267	827.93
445.641	855.73
446.016	863.41
446.39	852.79
446.764	884.2
447.139	842.85
447.513	885.33
447.887	883.3
448.262	879.23
448.636	882.39
449.01	894.37
449.384	888.95
449.758	895.27
450.132	906.12
450.506	876.97
450.88	915.84
451.254	904.76
451.628	920.58
452.002	930.98
452.376	921.26
452.75	946.8
453.123	955.61
453.497	946.57
453.871	930.07
454.244	975.72
454.618	970.53
454.992	981.82
455.365	983.41
455.739	1012.56
456.112	988.15
456.486	997.42
456.859	1029.96
457.232	1024.99
457.606	1051.65
457.979	1028.15
458.352	1072.22
458.725	1085.55
459.099	1056.17
459.472	1042.84
459.845	1073.8
460.218	1086.91
460.591	1093.69
460.964	1109.73
461.337	1124.42
461.71	1105.21
462.083	1157.19
462.456	1132.1
462.829	1136.4
463.201	1147.02
463.574	1148.15
463.947	1140.92
464.32	1185.21
464.692	1206.9
465.065	1198.09
465.438	1226.11
465.81	1215.49
466.183	1219.11
466.555	1254.13
466.928	1255.26
467.3	1253.46
467.672	1253.46
468.045	1271.08
468.417	1281.03
468.789	1281.25
469.161	1327.35
469.534	1322.61
469.906	1324.64
470.278	1378.2
470.65	1358.76
471.022	1374.58
471.394	1384.3
471.766	1402.38
472.138	1412.55
472.51	1443.06
472.882	1453.22
473.253	1458.42
473.625	1490.51
473.997	1518.31
474.369	1505.88
474.74	1509.27
475.112	1543.17
475.484	1595.59
475.855	1598.08
476.227	1598.31
476.598	1607.8
476.97	1644.18
477.341	1686.66
477.713	1690.51
478.084	1700.45
478.455	1721.01
478.827	1778.64
479.198	1771.63
479.569	1774.8
479.94	1823.61
480.311	1826.1
480.682	1856.38
481.053	1900.44
481.424	1931.63
481.795	1952.65
482.166	1958.52
482.537	2005.53
482.908	2041.46
483.279	2044.85
483.65	2096.6
484.021	2148.12
484.391	2151.96
484.762	2175.47
485.133	2171.85
485.503	2215.46
485.874	2296.14
486.244	2286.87
486.615	2347.66
486.985	2333.65
487.356	2423.82
487.726	2426.76
488.097	2478.51
488.467	2445.97
488.837	2526.42
489.207	2580.43
489.578	2598.73
489.948	2622.01
490.318	2677.37
490.688	2720.31
491.058	2733.87
491.428	2765.28
491.798	2773.19
492.168	2843.47
492.538	2851.61
492.908	2910.14
493.278	2963.47
493.648	2939.06
494.017	2998.04
494.387	3034.88
494.757	3073.29
495.126	3093.86
495.496	3077.59
495.866	3141.32
496.235	3186.29
496.605	3192.39
496.974	3256.79
497.344	3264.93
497.713	3320.29
498.082	3341.31
498.452	3396
498.821	3439.61
499.19	3407.75
499.559	3479.16
499.928	3501.08
500.298	3496.79
500.667	3551.25
501.036	3579.27
501.405	3570.01
501.774	3575.43
502.143	3650.91
502.512	3702.2
502.88	3727.51
503.249	3730.68
503.618	3795.08
503.987	3789.66
504.356	3845.7
504.724	3860.84
505.093	3871.47
505.462	3882.54
505.83	3934.06
506.199	3955.31
506.567	4055.19
506.936	3986.94
507.304	4077.34
507.672	4103.1
508.041	4130.67
508.409	4148.75
508.777	4181.97
509.145	4204.79
509.514	4212.02
509.882	4266.03
510.25	4290.44
510.618	4285.01
510.986	4297.22
511.354	4383.09
511.722	4412.02
512.09	4488.85
512.458	4478.91
512.826	4504.67
513.193	4512.58
513.561	4514.61
513.929	4519.81
514.297	4601.84
514.664	4666.25
515.032	4666.7
515.4	4693.82
515.767	4705.12
516.135	4754.83
516.502	4763.87
516.869	4839.58
517.237	4837.54
517.604	4900.37
517.972	4872.8
518.339	4940.82
518.706	4965.67
519.073	5026.92
519.44	5067.14
519.808	5063.98
520.175	5059.91
520.542	5161.15
520.909	5186.46
521.276	5149.17
521.643	5236.63
522.009	5262.62
522.376	5306.46
522.743	5341.26
523.11	5372.67
523.477	5435.72
523.843	5454.93
524.21	5528.6
524.577	5556.17
524.943	5587.13
525.31	5579.67
525.676	5661.48
526.043	5696.05
526.409	5755.71
526.776	5811.75
527.142	5783.51
527.508	5809.49
527.874	5884.52
528.241	5885.2
528.607	5895.14
528.973	5940.79
529.339	5981.24
529.705	5993.67
530.071	6103.27
530.437	6109.37
530.803	6097.4
531.169	6190.05
531.535	6135.59
531.901	6227.56
532.267	6221.91
532.632	6268.24
532.998	6263.27
533.364	6334.45
533.73	6333.1
534.095	6403.15
534.461	6374.9
534.826	6490.15
535.192	6471.62
535.557	6531.96
535.923	6501.23
536.288	6540.55
536.653	6558.4
537.019	6563.37
537.384	6630.72
537.749	6657.16
538.114	6649.25
538.479	6649.7
538.845	6723.37
539.21	6714.1
539.575	6743.48
539.94	6810.82
540.305	6861.22
540.67	6829.58
541.034	6883.59
541.399	6959.07
541.764	6949.8
542.129	7008.56
542.494	6943.93
542.858	7023.93
543.223	7022.57
543.587	7076.81
543.952	7071.38
544.316	7145.05
544.681	7109.35
545.045	7262.11
545.41	7245.39
545.774	7262.11
546.138	7314.31
546.503	7323.35
546.867	7324.48
547.231	7394.99
547.595	7456
547.959	7469.56
548.324	7482.67
548.688	7544.59
549.052	7567.87
549.416	7526.96
549.779	7595.44
550.143	7621.42
550.507	7729.9
550.871	7787.07
551.235	7696.22
551.599	7799.72
551.962	7948.42
552.326	7933.51
552.689	7987.74
553.053	8018.48
553.417	8025.26
553.78	8184.8
554.143	8103.67
554.507	8158.81
554.87	8253.5
555.234	8293.04
555.597	8288.07
555.96	8340.73
556.323	8406.26
556.686	8482.64
557.05	8507.73
557.413	8580.72
557.776	8604
558.139	8706.14
558.502	8735.74
558.865	8822.97
559.228	8921.73
559.59	8913.14
559.953	9000.14
560.316	9129.41
560.679	9148.84
561.041	9238.78
561.404	9311.55
561.767	9369.85
562.129	9440.13
562.492	9582.95
562.854	9613.01
563.217	9658.21
563.579	9734.14
563.941	9818.2
564.304	9965.32
564.666	10006.45
565.028	10121.25
565.39	10160.79
565.753	10323.27
566.115	10397.17
566.477	10584.28
566.839	10543.38
567.201	10724.39
567.563	10885.97
567.925	10921
568.287	11093.42
568.648	11174.32
569.01	11283.93
569.372	11475.56
569.734	11510.81
570.095	11707.64
570.457	11737.47
570.819	11904.48
571.18	12037.58
571.542	12225.14
571.903	12371.81
572.265	12575.87
572.626	12682.99
572.987	12860.16
573.349	13037.78
573.71	13289.75
574.071	13489.29
574.432	13672.56
574.794	13834.37
575.155	14019.22
575.516	14203.4
575.877	14465.09
576.238	14666.21
576.599	14915.02
576.96	15011.29
577.32	15309.36
577.681	15556.58
578.042	15862.56
578.403	15994.54
578.763	16321.99
579.124	16649.66
579.485	17032.48
579.845	17305.46
580.206	17505.68
580.566	17819.35
580.927	18165.33
581.287	18634.69
581.648	18766.44
582.008	19152.19
582.368	19415.01
582.728	19856.36
583.089	20226.74
583.449	20564.81
583.809	20880.28
584.169	21333.15
584.529	21580.83
584.889	22160.7
585.249	22324.09
585.609	22737.86
585.969	23185.31
586.329	23560.21
586.688	24036.36
587.048	24386.18
587.408	24651.03
587.768	25237.01
588.127	25651.01
588.487	25998.57
588.846	26724.65
589.206	26890.75
589.565	27394.01
589.925	28039.42
590.284	28325.96
590.643	28850.7
591.003	29369.55
591.362	29832.59
591.721	30245.46
592.08	30718.44
592.44	31274.36
592.799	31609.72
593.158	32020.33
593.517	32585.06
593.876	33088.1
594.235	33510.23
594.593	34088.75
594.952	34529.87
595.311	34942.74
595.67	35441.26
596.029	36103.39
596.387	36750.15
596.746	37057.03
597.104	37307.2
597.463	37772.95
597.822	38516.66
598.18	38750.55
598.538	39059.02
598.897	39745.1
599.255	39913.91
599.613	40828.01
599.972	40967.44
600.33	41595.45
600.688	41703.69
601.046	42269.55
601.404	42912.47
601.762	43115.86
602.12	43660.7
602.478	44000.81
602.836	44385.88
603.194	44531.19
603.552	45002.59
603.91	45208.23
604.268	45857.93
604.625	46007.08
604.983	46467.41
605.341	46542.21
605.698	47167.5
606.056	47308.97
606.413	47587.38
606.771	48035.05
607.128	48368.15
607.485	48388.94
607.843	48650.4
608.2	48988.47
608.557	49396.6
608.914	49514.33
609.272	49846.98
609.629	50095.79
609.986	50397.47
610.343	50333.3
610.7	50746.39
611.057	50814.19
611.414	51005.59
611.771	51184.57
612.127	51423.66
612.484	51520.83
612.841	51701.85
613.198	51702.75
613.554	51826.82
613.911	52180.48
614.267	52267.03
614.624	52296.41
614.98	52472.22
615.337	52750.63
615.693	52845.09
616.05	52861.36
616.406	53104.97
616.762	53068.36
617.118	53151.07
617.475	53234.91
617.831	53449.15
618.187	53590.61
618.543	53698.4
618.899	53835.12
619.255	53805.07
619.611	53904.05
619.967	54067.21
620.323	54106.76
620.678	54082.12
621.034	54011.62
621.39	54169.58
621.746	54104.5
622.101	54499.74
622.457	54365.73
622.812	54412.96
623.168	54510.36
623.523	54532.05
623.879	54670.81
624.234	54483.24
624.589	54584.93
624.945	54663.58
625.3	54820.18
625.655	54789.9
626.01	54774.53
626.365	54864.48
626.72	54756.68
627.075	54808.43
627.43	54807.3
627.785	54854.98
628.14	54955.77
628.495	54960.07
628.85	54993.96
629.205	54908.54
629.559	55115.32
629.914	55045.94
630.269	55014.3
630.623	54951.25
630.978	54972.04
631.332	55065.83
631.687	55123
632.041	55125.94
632.396	55135.43
632.75	54921.65
633.104	55107.18
633.459	54993.74
633.813	54964.36
634.167	54952.83
634.521	54896.11
634.875	55060.4
635.229	55031.25
635.583	54876.68
635.937	54970.91
636.291	54876.9
636.645	54914.64
636.999	54790.81
637.352	54901.54
637.706	54836.68
638.06	54848.88
638.413	54796.45
638.767	54829.67
639.121	54845.72
639.474	54635.55
639.828	54746.96
640.181	54769.79
640.534	54775.44
640.888	54715.78
641.241	54653.41
641.594	54630.36
641.947	54806.62
642.301	54702.9
642.654	54731.6
643.007	54785.83
643.36	54733.18
643.713	54663.12
644.066	54708.1
644.419	54527.54
644.771	54382.68
645.124	54168.9
645.477	54040.09
645.83	54002.58
646.182	53785.18
646.535	53750.83
646.888	53828.8
647.24	53712.64
647.593	53926.42
647.945	53785.86
648.298	53669.93
648.65	53608.24
649.002	53626.09
649.355	53723.94
649.707	53648.91
650.059	53788.8
650.411	54165.96
650.763	54186.3
651.115	54361.21
651.467	54378.16
651.819	54329.57
652.171	54325.96
652.523	54239.86
652.875	54175.45
653.227	54173.87
653.578	54393.75
653.93	54319.63
654.282	54207.09
654.633	54138.62
654.985	54206.87
655.337	54173.42
655.688	54278.95
656.039	54355.56
656.391	54097.26
656.742	54135.91
657.094	54090.26
657.445	54272.17
657.796	54230.14
658.147	54170.48
658.498	54057.04
658.849	54168.9
659.2	54086.64
659.551	54082.35
659.902	54127.09
660.253	54048.9
660.604	54164.15
660.955	53950.6
661.306	54100.2
661.656	53982.01
662.007	54093.87
662.358	54081.67
662.708	54069.92
663.059	54003.03
663.409	53870.15
663.76	54093.2
664.11	54103.37
664.461	54193.76
664.811	54065.17
665.161	54066.98
665.511	54001.22
665.862	54020.66
666.212	54189.46
666.562	54081.67
666.912	54052.75
667.262	53977.04
667.612	53936.14
667.962	53919.87
668.312	53868.57
668.662	54015.68
669.011	53894.56
669.361	53897.95
669.711	53854.11
670.06	53842.36
670.41	53825.86
670.76	53695.92
671.109	53915.57
671.459	53778.85
671.808	53713.55
672.157	53788.57
672.507	53684.17
672.856	53598.97
673.205	53625.86
673.554	53726.43
673.904	53701.79
674.253	53705.41
674.602	53624.06
674.951	53162.15
675.3	53088.03
675.649	53464.51
675.998	53441.91
676.346	53542.7
676.695	53651.17
677.044	53274.23
677.393	53429.94
677.741	53457.51
678.09	53405.98
678.438	53333.44
678.787	53305.87
679.135	53335.25
679.484	53161.7
679.832	53264.74
680.181	53116.27
680.529	53263.16
680.877	53179.32
681.225	53119.44
681.573	53244.18
681.922	53042.83
682.27	52887.13
682.618	53035.6
682.966	52997.63
683.314	52916.28
683.661	52814.59
684.009	52653.23
684.357	52650.97
684.705	52572.78
685.053	52672.44
685.4	52570.75
685.748	52471.77
686.095	52515.16
686.443	52258.44
686.79	52305.45
687.138	52385.22
687.485	52221.61
687.832	52202.85
688.18	52184.32
688.527	51988.84
688.874	52024.1
689.221	51868.17
689.568	51836.53
689.915	51723.99
690.262	51764.44
690.609	51712.69
690.956	51500.95
691.303	51549.53
691.65	51283.78
691.997	51371.91
692.344	51095.31
692.69	51093.73
693.037	51172.37
693.383	50952.26
693.73	51025.71
694.077	50757.69
694.423	50900.51
694.769	50636.79
695.116	50498.04
695.462	50584.14
695.808	50425.27
696.155	50504.59
696.501	50105.28
696.847	50206.07
697.193	49984.38
697.539	50082.45
697.885	49792.52
698.231	49662.58
698.577	49674.1
698.923	49517.72
699.269	49428.91
699.614	49261.01
699.96	49260.78
700.306	49326.09
700.651	48977.62
700.997	48832.09
701.342	48993.9
701.688	48745.31
702.033	48683.85
702.379	48645.88
702.724	48513
703.069	48564.3
703.415	48153.92
703.76	48220.58
704.105	48112.56
704.45	48032.79
704.795	47847.48
705.14	47715.28
705.485	47711.44
705.83	47557.77
706.175	47582.41
706.52	47505.8
706.865	47332.24
707.209	47259.48
707.554	47063.55
707.899	47167.05
708.243	46901.97
708.588	46876.89
708.932	46577.91
709.277	46647.97
709.621	46545.37
709.966	46480.29
710.31	46432.83
710.654	46028.55
710.998	46218.83
711.342	46325.72
711.687	46081.43
712.031	45787.88
712.375	45821.55
712.719	45800.98
713.063	45798.27
713.407	46033.75
713.75	45580.43
714.094	45582.23
714.438	45516.25
714.782	45357.83
715.125	45287.33
715.469	45418.85
715.812	45184.5
716.156	44889.37
716.499	44968.24
716.843	44987.9
717.186	44846.21
717.53	45022.25
717.873	44956.71
718.216	44894.12
718.559	44620.23
718.902	44497.97
719.246	44385.88
719.589	44377.07
719.932	44199.9
720.275	44173.23
720.617	44192.89
720.96	44183.17
721.303	44101.59
721.646	44040.58
721.989	43841.71
722.331	44011.88
722.674	43889.4
723.016	43839.68
723.359	43758.78
723.701	43737.08
724.044	43442.63
724.386	43349.98
724.729	43670.65
725.071	43392.23
725.413	43380.26
725.755	43281.73
726.097	43164.9
726.439	43069.76
726.782	42970.55
727.124	43296.64
727.465	42947.95
727.807	42924
728.149	42973.71
728.491	42741.18
728.833	42839.93
729.175	42777.79
729.516	42687.62
729.858	42772.59
730.199	42775.3
730.541	42547.96
730.882	42544.57
731.224	42757.45
731.565	42340.51
731.906	42275.88
732.248	42463.67
732.589	42330.57
732.93	42094.87
733.271	42077.92
733.612	42169.44
733.953	42194.75
734.294	42078.82
734.635	42022.33
734.976	42098.71
735.317	41856.23
735.658	41804.03
735.999	41883.12
736.339	41673.64
736.68	41898.04
737.021	41641.32
737.361	41581.43
737.702	41872.73
738.042	41631.15
738.383	41389.12
738.723	41595.22
739.063	41334.21
739.404	41451.49
739.744	41335.11
740.084	41332.85
740.424	41409.46
740.764	41329.01
741.104	41312.29
741.444	41063.93
741.784	41081.56
742.124	41194.78
742.464	41051.05
742.804	40926.76
743.143	40879.53
743.483	40930.6
743.823	40716.37
744.162	40685.19
744.502	40822.13
744.841	40549.15
745.181	40833.43
745.52	40667.79
745.86	40680.89
746.199	40529.71
746.538	40285.65
746.877	40559.54
747.216	40521.35
747.556	40466.89
747.895	40441.13
748.234	40243.39
748.573	40161.59
748.911	40188.25
749.25	40210.85
749.589	40071.87
749.928	40079.33
750.267	40166.1
750.605	40021.93
750.944	39813.12
751.283	39676.63
751.621	39782.16
751.96	39454.03
752.298	39539.91
752.636	39679.11
752.975	39339.01
753.313	39342.17
753.651	39492.45
753.989	39202.06
754.327	39277.54
754.666	39010.88
755.004	39021.05
755.342	38960.94
755.679	38944.22
756.017	38751.45
756.355	38849.08
756.693	38612.47
757.031	38624.9
757.368	38438.47
757.706	38473.72
758.044	38417.45
758.381	38369.77
758.719	38272.6
759.056	38221.3
759.394	37955.99
759.731	37769.33
760.068	37753.29
760.405	37604.36
760.743	37646.4
761.08	37628.09
761.417	37571.6
761.754	37371.83
762.091	37444.37
762.428	37270.81
762.765	37068.79
763.102	36961.67
763.438	36849.13
763.775	36838.73
764.112	36800.54
764.449	36687.1
764.785	36563.94
765.122	36253.21
765.458	36212.08
765.795	36207.11
766.131	36069.72
766.467	36056.16
766.804	35774.36
767.14	35633.79
767.476	35749.5
767.812	35603.29
768.148	35584.76
768.485	35361.49
768.821	35150.64
769.157	35030.87
769.492	34955.85
769.828	34912.46
770.164	34674.27
770.5	34577.78
770.836	34671.33
771.171	34457.1
771.507	34262.98
771.842	34059.15
772.178	34114.96
772.513	33894.86
772.849	33884.46
773.184	33634.3
773.519	33556.79
773.855	33564.47
774.19	33408.32
774.525	33325.15
774.86	33383.46
775.195	33105.05
775.53	33083.81
775.865	32966.75
776.2	32685.17
776.535	32461.45
776.87	32387.78
777.205	32389.36
777.539	32199.08
777.874	32273.88
778.209	31990.05
778.543	31836.83
778.878	31776.72
779.212	31729.26
779.547	31578.99
779.881	31661.02
780.215	31413.34
780.55	31513.68
780.884	31257.64
781.218	31137.42
781.552	31065.1
781.886	30904.43
782.22	30819.01
782.554	30584.66
782.888	30540.82
783.222	30394.84
783.556	30199.59
783.889	30088.86
784.223	29925.7
784.557	29811.57
784.89	29971.12
785.224	29755.31
785.557	29565.71
785.891	29520.51
786.224	29453.84
786.558	29366.61
786.891	29157.13
787.224	29132.5
787.557	28923.69
787.891	28911.71
788.224	28913.52
788.557	28803.69
788.89	28805.05
789.223	28751.72
789.556	28371.16
789.888	28376.81
790.221	28213.88
790.554	28118.96
790.887	28155.8
791.219	28000.32
791.552	27969.59
791.884	27827.9
792.217	27707.22
792.549	27606.66
792.882	27483.73
793.214	27349.94
793.546	27422.71
793.879	27223.62
794.211	27095.94
794.543	27165.09
794.875	26996.51
795.207	27078.31
795.539	27015.26
795.871	26845.33
796.203	26636.29
796.535	26507.48
796.867	26480.36
797.198	26481.94
797.53	26353.36
797.862	26220.48
798.193	26216.42
798.525	26034.95
798.856	26075.18
799.188	25822.98
799.519	25794.05
799.85	25671.34
800.182	25716.77
800.513	25651.23
800.844	25425.48
801.175	25470.9
801.506	25371.24
801.837	25231.13
802.168	25259.38
802.499	25119.49
802.83	25035.2
803.161	25082.21
803.491	25061.19
803.822	24988.65
804.153	24695.78
804.483	24623.91
804.814	24364.71
805.145	24460.08
805.475	24465.27
805.805	24445.39
806.136	24435.45
806.466	24302.12
806.796	24253.53
807.126	24147.54
807.457	23996.81
807.787	23947.1
808.117	23931.28
808.447	23918.62
808.777	23945.06
809.107	23779.87
809.436	23705.29
809.766	23770.83
810.096	23603.38
810.426	23548.91
810.755	23515.92
811.085	23404.29
811.414	23321.12
811.744	23272.99
812.073	23179.88
812.403	23226.44
812.732	23002.04
813.061	23056.05
813.39	22843.62
813.719	22823.96
814.049	22878.88
814.378	22748.03
814.707	22771.76
815.036	22748.48
815.365	22572.44
815.693	22311.89
816.022	22416.52
816.351	22386.46
816.68	22325.9
817.008	22322.51
817.337	22106.47
817.665	22160.93
817.994	22105.34
818.322	21986.24
818.651	21874.83
818.979	21825.8
819.307	21982.18
819.636	21863.31
819.964	21692.01
820.292	21873.48
820.62	21750.09
820.948	21703.09
821.276	21752.35
821.604	21679.36
821.932	21720.49
822.259	21819.92
822.587	21599.81
822.915	21631.9
823.243	21735.4
823.57	21616.08
823.898	21688.62
824.225	21585.12
824.553	21611.56
824.88	21553.94
825.207	21668.96
825.535	21522.75
825.862	21553.03
826.189	21635.07
826.516	21595.07
826.843	21703.77
827.17	21667.83
827.497	21635.07
827.824	21576.31
828.151	21622.86
828.478	21570.66
828.805	21682.98
829.131	21471
829.458	21457.9
829.785	21456.77
830.111	21508.74
830.438	21607.72
830.764	21609.08
831.09	21589.42
831.417	21424
831.743	21622.64
832.069	21506.48
832.395	21400.95
832.722	21554.16
833.048	21435.98
833.374	21393.49
833.7	21290.44
834.026	21209.77
834.351	21399.14
834.677	21311.91
835.003	21301.29
835.329	21267.17
835.654	21324.11
835.98	21155.31
836.306	21230.33
836.631	21066.49
836.956	21148.75
837.282	21136.55
837.607	21046.61
837.932	21002.99
838.258	20973.39
838.583	20940.85
838.908	20852.49
839.233	20949.89
839.558	20792.38
839.883	20685.94
840.208	20620.18
840.533	20721.64
840.858	20776.78
841.182	20731.14
841.507	20653.85
841.832	20500.18
842.156	20563.46
842.481	20514.87
842.805	20485.94
843.13	20382.9
843.454	20357.36
843.778	20229.68
844.103	20217.25
844.427	20208.21
844.751	20248.66
845.075	20238.49
845.399	20184.48
845.723	19970.7
846.047	20039.4
846.371	19854.55
846.695	19789.24
847.019	19614.78
847.343	19678.51
847.666	19523.48
847.99	19471.73
848.313	19407.78
848.637	19307.67
848.96	19252.98
849.284	19157.17
849.607	19182.25
849.931	18977.51
850.254	18888.47
850.577	18857.74
850.9	18651.87
851.223	18680.12
851.546	18630.63
851.869	18590.85
852.192	18575.49
852.515	18490.74
852.838	18362.16
853.161	18366.45
853.483	18293.01
853.806	18178.89
854.129	18036.52
854.451	17930.76
854.774	17963.52
855.096	17845.79
855.419	17813.47
855.741	17759.01
856.063	17704.55
856.385	17659.13
856.708	17562.41
857.03	17452.58
857.352	17548.85
857.674	17373.71
857.996	17300.27
858.318	17240.38
858.64	17387.04
858.961	17215.97
859.283	17130.33
859.605	17140.72
859.926	17114.73
860.248	17018.24
860.57	17015.08
860.891	17034.51
861.212	16971.01
861.534	16978.01
861.855	16842.88
862.176	16848.07
862.498	16782.31
862.819	16746.61
863.14	16643.56
863.461	16659.38
863.782	16674.97
864.103	16642.66
864.424	16630.23
864.745	16680.62
865.065	16561.53
865.386	16448.31
865.707	16428.88
866.027	16448.31
866.348	16344.81
866.668	16377.58
866.989	16368.99
867.309	16240.18
867.63	16352.72
867.95	16279.28
868.27	16216.45
868.59	16188.2
868.91	16171.48
869.23	16129
869.55	15977.14
869.87	16094.65
870.19	16024.82
870.51	16060.75
870.83	16131.93
871.15	16031.82
871.469	16014.88
871.789	16015.33
872.109	15949.34
872.428	15802
872.748	15936.91
873.067	15882
873.386	15888.55
873.706	15822.79
874.025	15735.56
874.344	15689.91
874.663	15749.8
874.982	15728.78
875.301	15660.53
875.62	15616.02
875.939	15550.71
876.258	15523.14
876.577	15601.55
876.896	15494.89
877.214	15422.35
877.533	15497.15
877.852	15457.15
878.17	15440.43
878.489	15404.72
878.807	15394.1
879.125	15297.61
879.444	15401.33
879.762	15232.98
880.08	15265.74
880.398	15197.27
880.716	15182.81
881.034	15140.55
881.352	15188.23
881.67	15108.68
881.988	15117.5
882.306	15058.74
882.624	14981.91
882.941	14864.4
883.259	14904.17
883.577	14862.59
883.894	14814
884.212	14753.67
884.529	14742.37
884.846	14689.71
885.164	14711.63
885.481	14740.33
885.798	14714.12
886.115	14528.59
886.432	14657.62
886.75	14517.06
887.067	14507.12
887.383	14442.94
887.7	14480.68
888.017	14337.41
888.334	14408.36
888.651	14314.36
888.967	14325.2
889.284	14311.42
889.6	14270.74
889.917	14111.87
890.233	14170.63
890.55	14009.73
890.866	14125.66
891.182	14066.68
891.498	13975.83
891.815	13897.64
892.131	13894.93
892.447	13851.77
892.763	13808.61
893.079	13777.42
893.395	13675.73
893.71	13686.12
894.026	13693.58
894.342	13575.84
894.657	13559.8
894.973	13552.12
895.289	13461.27
895.604	13467.82
895.92	13360.71
896.235	13321.16
896.55	13357.77
896.865	13286.13
897.181	13243.42
897.496	13155.29
897.811	13094.27
898.126	13140.15
898.441	12998.68
898.756	12960.04
899.071	12890.21
899.386	12946.48
899.7	12867.61
900.015	12775.41
900.33	12656.77
900.644	12688.64
900.959	12686.6
901.273	12624.46
901.588	12476.44
901.902	12463.1
902.216	12437.57
902.531	12411.81
902.845	12329.55
903.159	12287.29
903.473	12241.42
903.787	12177.91
904.101	12089.78
904.415	12156.22
904.729	12138.37
905.042	11985.15
905.356	12079.16
905.67	11939.73
905.984	11888.2
906.297	11855.44
906.611	11822.9
906.924	11727.3
907.237	11824.48
907.551	11698.38
907.864	11619.51
908.177	11574.31
908.491	11604.6
908.804	11520.53
909.117	11465.84
909.43	11372.96
909.743	11412.51
910.056	11339.29
910.368	11250.48
910.681	11205.51
910.994	11203.93
911.307	11098.85
911.619	11031.05
911.932	11074.44
912.244	10993.54
912.557	10972.3
912.869	10792.87
913.181	10902.02
913.494	10788.35
913.806	10765.07
914.118	10714.22
914.43	10641.91
914.742	10692.53
915.054	10500.9
915.366	10593.55
915.678	10488.92
915.99	10485.3
916.302	10388.81
916.613	10331.18
916.925	10335.25
917.236	10293.67
917.548	10225.88
917.859	10253.67
918.171	10151.98
918.482	10057.74
918.794	10073.34
919.105	10108.82
919.416	9966
919.727	9969.61
920.038	9897.97
920.349	9831.76
920.66	9796.73
920.971	9849.61
921.282	9791.54
921.593	9717.64
921.903	9626.12
922.214	9534.82
922.525	9603.29
922.835	9578.43
923.146	9429.06
923.456	9452.11
923.767	9377.54
924.077	9367.37
924.387	9338.67
924.697	9290.98
925.008	9326.24
925.318	9254.6
925.628	9126.7
925.938	9075.85
926.248	8991.56
926.558	9022.07
926.867	9053.25
927.177	8980.71
927.487	8951.11
927.796	8871.33
928.106	8866.81
928.416	8743.43
928.725	8801.05
929.034	8615.07
929.344	8659.36
929.653	8654.62
929.962	8554.51
930.271	8547.05
930.581	8481.51
930.89	8528.52
931.199	8393.61
931.508	8458.46
931.817	8394.51
932.125	8342.53
932.434	8347.73
932.743	8235.42
933.051	8164.01
933.36	8244.68
933.669	8084.01
933.977	8103.9
934.286	8082.2
934.594	8073.39
934.902	8026.61
935.21	7988.87
935.519	8020.96
935.827	7929.44
936.135	7914.98
936.443	7806.05
936.751	7754.08
937.059	7793.17
937.367	7763.57
937.674	7757.47
937.982	7728.99
938.29	7646.96
938.597	7628.2
938.905	7580.52
939.213	7487.87
939.52	7451.26
939.827	7522.22
940.135	7427.3
940.442	7351.37
940.749	7397.02
941.056	7375.1
941.363	7358.38
941.67	7319.74
941.977	7242.68
942.284	7167.88
942.591	7202.23
942.898	7079.97
943.205	7108.44
943.511	7074.77
943.818	7060.99
944.125	7067.54
944.431	7003.59
944.738	6996.58
945.044	6953.64
945.35	6885.85
945.657	6849.92
945.963	6813.54
946.269	6774.89
946.575	6713.65
946.881	6738.51
947.187	6802.69
947.493	6693.76
947.799	6674.56
948.105	6615.8
948.41	6560.89
948.716	6597.04
949.022	6579.19
949.327	6487.67
949.633	6485.41
949.938	6424.62
950.244	6490.38
950.549	6359.76
950.854	6324.73
951.16	6364.06
951.465	6342.81
951.77	6297.84
952.075	6292.65
952.38	6218.97
952.685	6209.71
952.99	6179.2
953.294	6097.4
953.599	6072.31
953.904	6125.87
954.209	6058.3
954.513	5997.06
954.818	5996.61
955.122	6023.95
955.426	5992.54
955.731	5948.93
956.035	5843.17
956.339	5902.37
956.643	5867.57
956.948	5823.73
957.252	5847.23
957.556	5808.36
957.86	5750.74
958.163	5740.34
958.467	5717.29
958.771	5663.74
959.075	5647.46
959.378	5614.02
959.682	5638.88
959.985	5574.25
960.289	5591.42
960.592	5515.49
960.896	5470.52
961.199	5451.54
961.502	5478.88
961.805	5469.84
962.108	5426
962.411	5380.13
962.714	5322.05
963.017	5350.75
963.32	5339.22
963.623	5278.66
963.926	5307.59
964.228	5220.81
964.531	5181.71
964.833	5156.86
965.136	5187.59
965.438	5149.17
965.741	5061.94
966.043	5106.69
966.345	5031.89
966.648	5081.15
966.95	5060.36
967.252	5023.3
967.554	5000.48
967.856	4975.62
968.158	4876.86
968.46	4936.75
968.761	4873.02
969.063	4854.94
969.365	4807.71
969.666	4853.59
969.968	4779.01
970.269	4767.49
970.571	4748.28
970.872	4758
971.174	4707.6
971.475	4698.11
971.776	4710.31
972.077	4696.53
972.378	4655.85
972.679	4626.02
972.98	4607.27
973.281	4576.53
973.582	4539.02
973.883	4547.38
974.183	4501.05
974.484	4483.43
974.785	4468.29
975.085	4447.04
975.386	4479.59
975.686	4449.08
975.986	4405.24
976.287	4359.36
976.587	4297.44
976.887	4313.71
977.187	4316.43
977.487	4250.21
977.787	4271.46
978.087	4241.4
978.387	4275.52
978.687	4225.81
978.987	4209.08
979.286	4186.94
979.586	4183.32
979.885	4108.75
980.185	4134.96
980.484	4074.85
980.784	4056.09
981.083	4106.26
981.382	4015.87
981.682	4031.46
981.981	3991.69
982.28	3968.64
982.579	3981.75
982.878	3952.59
983.177	3914.85
983.475	3926.61
983.774	3846.38
984.073	3879.15
984.372	3893.16
984.67	3838.7
984.969	3855.87
985.267	3836.89
985.566	3811.35
985.864	3758.7
986.162	3774.52
986.461	3792.15
986.759	3711.24
987.057	3731.58
987.355	3712.83
987.653	3685.26
987.951	3632.38
988.249	3659.95
988.547	3636.44
988.844	3619.72
989.142	3666.5
989.44	3567.29
989.737	3554.41
990.035	3539.05
990.332	3553.96
990.63	3510.57
990.927	3483
991.224	3458.14
991.521	3459.27
991.819	3403.23
992.116	3431.25
992.413	3432.83
992.71	3352.38
993.006	3391.48
993.303	3364.13
993.6	3385.38
993.897	3343.12
994.193	3337.24
994.49	3272.61
994.787	3280.07
995.083	3280.07
995.379	3266.06
995.676	3246.4
995.972	3208.66
996.268	3210.24
996.565	3183.8
996.861	3195.78
997.157	3113.75
997.453	3144.48
997.749	3111.03
998.044	3090.47
998.34	3098.6
998.636	3060.19
998.932	3053.41
999.227	3029
999.523	3010.25
999.818	2957.37
1000.114	2960.53
1000.409	2988.1
1000.704	2961.66
1001	2920.08
1001.295	2916.91
1001.59	2885.73
1001.885	2881.21
1002.18	2851.38
1002.475	2841.66
1002.77	2836.46
1003.065	2792.17
1003.359	2804.83
1003.654	2799.4
1003.949	2768.9
1004.243	2746.07
1004.538	2730.25
1004.832	2722.12
1005.127	2728.45
1005.421	2675.79
1005.715	2658.62
1006.009	2648
1006.304	2628.11
1006.598	2639.41
1006.892	2622.01
1007.186	2585.62
1007.48	2595.12
1007.773	2568.45
1008.067	2563.7
1008.361	2522.12
1008.655	2509.47
1008.948	2462.24
1009.242	2494.55
1009.535	2474.67
1009.829	2434.67
1010.122	2428.11
1010.415	2375.46
1010.708	2380.66
1011.001	2393.31
1011.295	2388.12
1011.588	2395.57
1011.881	2372.3
1012.173	2341.56
1012.466	2309.7
1012.759	2296.37
1013.052	2322.58
1013.344	2287.78
1013.637	2262.24
1013.93	2278.97
1014.222	2227.22
1014.514	2239.42
1014.807	2211.4
1015.099	2205.52
1015.391	2186.54
1015.683	2205.3
1015.976	2163.26
1016.268	2156.48
1016.56	2123.04
1016.851	2135.47
1017.143	2107.44
1017.435	2079.2
1017.727	2072.87
1018.018	2058.86
1018.31	2080.78
1018.602	2042.14
1018.893	2023.6
1019.185	2012.31
1019.476	1961.23
1019.767	1980.89
1020.058	1936.6
1020.35	1953.32
1020.641	1924.17
1020.932	1935.25
1021.223	1921.69
1021.514	1892.99
1021.804	1909.71
1022.095	1852.54
1022.386	1890.5
1022.677	1836.27
1022.967	1840.56
1023.258	1798.3
1023.548	1836.72
1023.839	1794.91
1024.129	1801.46
1024.419	1758.08
1024.709	1804.63
1025	1724.86
1025.29	1738.87
1025.58	1753.1
1025.87	1714.01
1026.16	1669.94
1026.449	1697.51
1026.739	1692.09
1027.029	1673.11
1027.319	1651.19
1027.608	1635.82
1027.898	1655.71
1028.187	1605.76
1028.477	1610.06
1028.766	1594.92
1029.055	1581.81
1029.344	1579.55
1029.634	1587.46
1029.923	1563.96
1030.212	1540
1030.501	1534.13
1030.79	1516.5
1031.078	1493.68
1031.367	1523.05
1031.656	1492.77
1031.945	1461.81
1032.233	1493
1032.522	1462.49
1032.81	1439.67
1033.099	1440.8
1033.387	1439.67
1033.675	1423.62
1033.963	1390.63
1034.251	1383.85
1034.54	1391.98
1034.828	1380.01
1035.116	1352.21
1035.403	1354.7
1035.691	1358.54
1035.979	1340.01
1036.267	1321.02
1036.554	1303.4
1036.842	1286
1037.129	1300.01
1037.417	1279.9
1037.704	1282.61
1037.992	1281.7
1038.279	1286.22
1038.566	1254.13
1038.853	1254.13
1039.14	1254.13
