Data from orange_diffuse_book_FLMS001491_00008.txt Node
Date: Wed Feb 08 15:29:03 GMT 2017
User: dcchb
Spectrometer: FLMS00149
Trigger mode: 0
Integration Time (sec): 2.000000E-2
Scans to average: 10
Electric dark correction enabled: true
Nonlinearity correction enabled: false
Boxcar width: 0
XAxis mode: Wavelengths
Number of Pixels in Spectrum: 2048
>>>>>Begin Spectral Data<<<<<
341.393	-15.48
341.776	-15.48
342.16	-15.48
342.543	-65.87
342.927	-57.06
343.31	-76.04
343.693	-76.95
344.077	-74.01
344.46	-56.83
344.843	-47.8
345.226	-41.47
345.61	-40.34
345.993	-15.71
346.376	12.09
346.759	18.64
347.142	23.62
347.525	51.86
347.908	62.48
348.291	78.53
348.674	78.08
349.057	103.84
349.44	149.71
349.823	137.51
350.206	149.49
350.588	192.2
350.971	228.36
351.354	234.01
351.737	240.11
352.119	272.2
352.502	276.72
352.884	282.59
353.267	296.15
353.65	309.03
354.032	308.81
354.414	314.91
354.797	325.08
355.179	327.79
355.562	341.57
355.944	326.21
356.326	352.42
356.709	353.1
357.091	343.83
357.473	354
357.855	341.35
358.238	345.87
358.62	351.52
359.002	346.54
359.384	357.84
359.766	353.78
360.148	356.49
360.53	336.15
360.912	346.32
361.294	338.86
361.676	335.7
362.057	344.06
362.439	345.64
362.821	363.49
363.203	359.88
363.584	348.35
363.966	330.27
364.348	330.95
364.729	322.82
365.111	313.33
365.493	333.89
365.874	330.5
366.256	346.09
366.637	334.57
367.019	303.38
367.4	327.79
367.781	322.36
368.163	337.05
368.544	300.44
368.925	312.65
369.306	327.34
369.688	319.88
370.069	337.05
370.45	316.71
370.831	320.78
371.212	337.73
371.593	328.47
371.974	330.27
372.355	320.56
372.736	332.53
373.117	338.18
373.498	348.13
373.879	349.03
374.26	316.26
374.641	321.91
375.021	332.31
375.402	324.85
375.783	335.92
376.163	339.31
376.544	348.58
376.925	330.95
377.305	325.08
377.686	344.06
378.066	330.27
378.447	323.04
378.827	335.92
379.208	343.38
379.588	346.77
379.968	337.05
380.349	360.56
380.729	344.74
381.109	360.56
381.489	348.13
381.87	351.97
382.25	368.46
382.63	376.6
383.01	356.94
383.39	338.86
383.77	371.4
384.15	352.42
384.53	361.23
384.91	366.21
385.29	358.75
385.67	350.84
386.049	353.32
386.429	372.53
386.809	366.21
387.189	357.39
387.568	373.66
387.948	377.96
388.328	397.39
388.707	359.2
389.087	379.76
389.466	383.15
389.846	389.26
390.225	388.58
390.605	376.15
390.984	384.96
391.363	373.21
391.743	400.1
392.122	394.23
392.501	403.04
392.881	368.01
393.26	394.68
393.639	387.67
394.018	404.85
394.397	405.53
394.776	396.94
395.155	397.16
395.534	391.29
395.913	410.5
396.292	402.14
396.671	383.83
397.05	421.12
397.429	410.72
397.808	407.79
398.186	389.26
398.565	429.03
398.944	416.37
399.323	445.3
399.701	425.64
400.08	404.85
400.458	421.8
400.837	435.13
401.215	429.25
401.594	437.84
401.972	422.02
402.351	425.86
402.729	418.86
403.107	449.37
403.486	425.64
403.864	440.78
404.242	441.46
404.62	451.85
404.999	447.56
405.377	452.08
405.755	453.21
406.133	463.6
406.511	481.46
406.889	450.72
407.267	463.6
407.645	464.51
408.023	453.43
408.401	487.33
408.779	477.61
409.156	459.08
409.534	511.96
409.912	477.39
410.29	487.56
410.667	503.15
411.045	492.53
411.422	497.73
411.8	475.58
412.178	501.79
412.555	528.01
412.933	517.39
413.31	517.84
413.687	514
414.065	516.03
414.442	514.9
414.819	523.26
415.197	522.13
415.574	508.8
415.951	549.7
416.328	525.07
416.705	542.02
417.082	550.83
417.46	543.38
417.837	542.02
418.214	567.78
418.591	561.23
418.967	557.84
419.344	555.13
419.721	570.95
420.098	579.31
420.475	579.53
420.852	575.24
421.228	579.53
421.605	611.17
421.982	601.91
422.358	600.1
422.735	603.03
423.111	614.33
423.488	619.31
423.864	606.2
424.241	613.88
424.617	613.88
424.994	612.53
425.37	628.35
425.746	625.18
426.123	640.77
426.499	609.81
426.875	655.01
427.251	663.37
427.627	654.79
428.003	655.91
428.379	679.87
428.756	668.34
429.132	675.8
429.507	687.55
429.883	668.8
430.259	711.73
430.635	713.77
431.011	708.57
431.387	740.88
431.763	702.02
432.138	715.8
432.514	745.18
432.89	751.51
433.265	726.65
433.641	735.23
434.016	732.98
434.392	749.92
434.767	772.75
435.143	761
435.518	783.6
435.894	767.1
436.269	776.36
436.644	804.61
437.02	815.68
437.395	808
437.77	790.83
438.145	835.57
438.52	848
438.895	844.61
439.271	850.03
439.646	833.09
440.021	859.98
440.395	838.28
440.77	843.93
441.145	855.23
441.52	877.15
441.895	865.85
442.27	868.11
442.645	864.27
443.019	892.97
443.394	875.8
443.769	900.88
444.143	893.2
444.518	924.61
444.892	912.63
445.267	903.59
445.641	925.51
446.016	915.34
446.39	916.47
446.764	913.99
447.139	907.89
447.513	911.05
447.887	941.78
448.262	941.33
448.636	946.75
449.01	933.65
449.384	972.74
449.758	929.58
450.132	957.83
450.506	983.59
450.88	973.65
451.254	976.13
451.628	975.68
452.002	991.95
452.376	1020.65
452.75	1013.19
453.123	1017.71
453.497	1029.46
453.871	1050.25
454.244	1052.51
454.618	1056.36
454.992	1073.53
455.365	1049.58
455.739	1084.6
456.112	1089.35
456.486	1080.08
456.859	1095.45
457.232	1105.39
457.606	1117.82
457.979	1112.63
458.352	1123.25
458.725	1129.35
459.099	1137.71
459.472	1180.65
459.845	1191.95
460.218	1165.28
460.591	1208.67
460.964	1185.84
461.337	1226.07
461.71	1227.65
462.083	1237.82
462.456	1235.11
462.829	1246.18
463.201	1266.97
463.574	1266.52
463.947	1284.15
464.32	1286.63
464.692	1312.62
465.065	1302.45
465.438	1321.66
465.81	1370.02
466.183	1353.98
466.555	1393.52
466.928	1347.87
467.3	1384.03
467.672	1395.56
468.045	1434.65
468.417	1434.88
468.789	1392.39
469.161	1454.99
469.534	1463.58
469.906	1466.52
470.278	1510.36
470.65	1506.74
471.022	1527.53
471.394	1548.55
471.766	1579.73
472.138	1564.59
472.51	1592.84
472.882	1611.6
473.253	1646.17
473.625	1657.02
473.997	1664.48
474.369	1685.27
474.74	1717.81
475.112	1736.34
475.484	1769.11
475.855	1781.76
476.227	1774.3
476.598	1802.1
476.97	1843
477.341	1859.73
477.713	1882.1
478.084	1917.58
478.455	1949.89
478.827	1941.3
479.198	1995.77
479.569	2018.14
479.94	2060.62
480.311	2070.34
480.682	2124.58
481.053	2127.06
481.424	2194.41
481.795	2209.55
482.166	2222.65
482.537	2286.61
482.908	2325.48
483.279	2323.44
483.65	2339.49
484.021	2374.74
484.391	2454.51
484.762	2445.02
485.133	2486.38
485.503	2535.41
485.874	2582.87
486.244	2571.57
486.615	2620.16
486.985	2689.99
487.356	2684.56
487.726	2733.83
488.097	2755.97
488.467	2823.32
488.837	2869.19
489.207	2900.15
489.578	2911.22
489.948	2986.02
490.318	3025.12
490.688	3019.92
491.058	3102.4
491.428	3089.98
491.798	3153.25
492.168	3231.89
492.538	3212.46
492.908	3280.48
493.278	3325
493.648	3333.13
494.017	3396.41
494.387	3414.71
494.757	3440.02
495.126	3508.95
495.496	3470.98
495.866	3532.68
496.235	3593.46
496.605	3684.76
496.974	3685.89
497.344	3711.88
497.713	3739.68
498.082	3736.96
498.452	3819.22
498.821	3814.7
499.19	3811.54
499.559	3881.59
499.928	3916.17
500.298	3979.67
500.667	3989.84
501.036	4018.09
501.405	4062.61
501.774	4098.76
502.143	4135.6
502.512	4163.62
502.88	4174.92
503.249	4189.16
503.618	4213.34
503.987	4275.93
504.356	4317.97
504.724	4329.72
505.093	4361.81
505.462	4350.06
505.83	4405.42
506.199	4508.24
506.567	4514.34
506.936	4480.67
507.304	4556.15
507.672	4579.65
508.041	4611.97
508.409	4626.21
508.777	4704.62
509.145	4730.38
509.514	4747.11
509.882	4782.13
510.25	4806.54
510.618	4877.72
510.986	4892.19
511.354	4898.52
511.722	4983.71
512.09	4939.64
512.458	5024.84
512.826	5043.14
513.193	5073.2
513.561	5164.5
513.929	5180.99
514.297	5178.96
514.664	5262.35
515.032	5261.44
515.4	5324.04
515.767	5322.91
516.135	5349.58
516.502	5357.94
516.869	5421.44
517.237	5455.11
517.604	5443.59
517.972	5548.89
518.339	5515
518.706	5542.79
519.073	5677.7
519.44	5657.82
519.808	5715.67
520.175	5654.88
520.542	5797.47
520.909	5815.1
521.276	5837.7
521.643	5886.29
522.009	5885.83
522.376	5952.27
522.743	5984.59
523.11	6053.51
523.477	6141.19
523.843	6143
524.21	6244.24
524.577	6285.37
524.943	6256.9
525.31	6318.14
525.676	6410.79
526.043	6430.9
526.409	6414.41
526.776	6568.53
527.142	6550.22
527.508	6549.77
527.874	6626.83
528.241	6688.3
528.607	6639.26
528.973	6730.56
529.339	6739.82
529.705	6814.4
530.071	6903.43
530.437	6949.99
530.803	6987.05
531.169	6985.92
531.535	6936.2
531.901	6954.05
532.267	7005.8
532.632	7096.65
532.998	7136.87
533.364	7202.18
533.73	7175.97
534.095	7262.07
534.461	7246.25
534.826	7290.99
535.192	7281.5
535.557	7399.24
535.923	7413.03
536.288	7402.86
536.653	7466.36
537.019	7476.98
537.384	7478.11
537.749	7573.25
538.114	7578.22
538.479	7604.66
538.845	7660.25
539.21	7642.4
539.575	7641.95
539.94	7763.75
540.305	7753.36
540.67	7833.35
541.034	7740.93
541.399	7824.54
541.764	7875.16
542.129	7888.95
542.494	7962.84
542.858	7980.92
543.223	8000.13
543.587	8025.21
543.952	8126.23
544.316	8063.18
544.681	8064.08
545.045	8208.71
545.41	8176.62
545.774	8207.81
546.138	8343.17
546.503	8271.31
546.867	8344.3
547.231	8401.93
547.595	8409.84
547.959	8431.76
548.324	8469.04
548.688	8514.24
549.052	8502.04
549.416	8530.51
549.779	8634.46
550.143	8666.55
550.507	8747.23
550.871	8765.31
551.235	8834.91
551.599	8853.89
551.962	8858.19
552.326	8836.04
552.689	8984.96
553.053	9028.12
553.417	9044.17
553.78	9147.22
554.143	9116.26
554.507	9229.25
554.87	9219.08
555.234	9367.32
555.597	9325.07
555.96	9364.84
556.323	9447.55
556.686	9510.15
557.05	9586.3
557.413	9596.02
557.776	9633.98
558.139	9758.27
558.502	9827.65
558.865	9834.43
559.228	9898.16
559.59	9939.06
559.953	10069.45
560.316	10160.75
560.679	10244.14
561.041	10213.86
561.404	10278.26
561.767	10404.13
562.129	10429.44
562.492	10544.47
562.854	10645.48
563.217	10655.65
563.579	10719.61
563.941	10884.35
564.304	10900.62
564.666	11058.35
565.028	11097
565.39	11245.47
565.753	11318.91
566.115	11395.07
566.477	11470.09
566.839	11688.39
567.201	11709.64
567.563	11821.27
567.925	12012.68
568.287	12068.27
568.648	12108.5
569.01	12300.35
569.372	12459.22
569.734	12459.22
570.095	12669.38
570.457	12737.63
570.819	12881.81
571.18	13020.34
571.542	13201.12
571.903	13306.88
572.265	13512.75
572.626	13591.62
572.987	13729.02
573.349	13992.29
573.71	14060.31
574.071	14263.24
574.432	14510.24
574.794	14680.86
575.155	14865.48
575.516	14970.34
575.877	15211.92
576.238	15358.81
576.599	15647.61
576.96	15841.5
577.32	15944.33
577.681	16229.06
578.042	16472
578.403	16695.04
578.763	16826.11
579.124	17202.82
579.485	17527.79
579.845	17801.68
580.206	18028.11
580.566	18308.56
580.927	18455.9
581.287	18859.5
581.648	19144.24
582.008	19486.38
582.368	19592.14
582.728	19989.42
583.089	20229.64
583.449	20527.26
583.809	20906.46
584.169	21288.14
584.529	21549.38
584.889	22077.05
585.249	22253.54
585.609	22543.25
585.969	23114.76
586.329	23357.92
586.688	23844.23
587.048	24114.06
587.408	24486.7
587.768	24954.94
588.127	25152.22
588.487	25604.86
588.846	26050.05
589.206	26442.36
589.565	26834.89
589.925	27341.99
590.284	27519.16
590.643	27997.34
591.003	28562.98
591.362	28971.33
591.721	29237.54
592.08	29638.43
592.44	30290.84
592.799	30726.76
593.158	30997.94
593.517	31523.13
593.876	31936.22
594.235	32296.66
594.593	32835.41
594.952	33372.12
595.311	33664.76
595.67	34116.28
596.029	34752.87
596.387	35055.69
596.746	35598.5
597.104	35783.13
597.463	36313.28
597.822	36805.02
598.18	37178.34
598.538	37387.83
598.897	38104.87
599.255	38223.97
599.613	39077.73
599.972	39151.63
600.33	39715.68
600.688	39936.46
601.046	40539.39
601.404	40937.79
601.762	41215.53
602.12	41756.76
602.478	41961.04
602.836	42500.01
603.194	42565.55
603.552	42969.6
603.91	43245.3
604.268	43697.5
604.625	43897.26
604.983	44408.44
605.341	44682.78
605.698	45198.02
606.056	45374.97
606.413	45668.52
606.771	46021.73
607.128	46346.92
607.485	46421.72
607.843	46752.56
608.2	47143.73
608.557	47449.03
608.914	47489.49
609.272	47906.88
609.629	48066.87
609.986	48472.51
610.343	48431.16
610.7	48866.85
611.057	48920.41
611.414	49106.17
611.771	49349.1
612.127	49634.97
612.484	49601.52
612.841	49943.66
613.198	49983.66
613.554	50107.95
613.911	50472.46
614.267	50535.06
614.624	50618.9
614.98	50761.26
615.337	51017.98
615.693	51099.56
616.05	51172.78
616.406	51462.94
616.762	51391.76
617.118	51399.44
617.475	51552.88
617.831	51761.69
618.187	51833.55
618.543	51984.06
618.899	52182.92
619.255	52085.98
619.611	52158.52
619.967	52411.62
620.323	52478.06
620.678	52329.58
621.034	52507.66
621.39	52503.59
621.746	52440.54
622.101	52926.86
622.457	52636.92
622.812	52745.17
623.168	52973.18
623.523	52873.3
623.879	53109.23
624.234	52904.03
624.589	53019.28
624.945	53013.86
625.3	53176.79
625.655	53192.39
626.01	53245.27
626.365	53268.99
626.72	53327.75
627.075	53225.83
627.43	53216.11
627.785	53315.55
628.14	53367.75
628.495	53439.16
628.85	53418.82
629.205	53412.04
629.559	53527.29
629.914	53337.47
630.269	53476.45
630.623	53334.08
630.978	53366.39
631.332	53414.53
631.687	53510.57
632.041	53372.49
632.396	53510.8
632.75	53454.75
633.104	53559.38
633.459	53403.68
633.813	53353.06
634.167	53306.51
634.521	53341.99
634.875	53368.43
635.229	53378.82
635.583	53312.38
635.937	53364.36
636.291	53266.51
636.645	53281.42
636.999	53304.7
637.352	53298.82
637.706	53111.26
638.06	53278.71
638.413	53257.47
638.767	53213.86
639.121	53248.2
639.474	52992.17
639.828	53080.3
640.181	53191.26
640.534	53087.98
640.888	53163.91
641.241	53006.4
641.594	53057.02
641.947	53141.31
642.301	53077.14
642.654	53060.64
643.007	53044.37
643.36	53059.51
643.713	52996.01
644.066	53097.02
644.419	52939.29
644.771	52703.59
645.124	52491.39
645.477	52446.64
645.83	52255.01
646.182	52128.01
646.535	52068.57
646.888	52192.19
647.24	51904.51
647.593	52180.44
647.945	52044.17
648.298	51917.62
648.65	51912.19
649.002	51758.98
649.355	51878.07
649.707	51986.77
650.059	52063.83
650.411	52485.74
650.763	52433.54
651.115	52784.04
651.467	52598.73
651.819	52655.9
652.171	52529.13
652.523	52519.64
652.875	52543.14
653.227	52466.76
653.578	52664.49
653.93	52534.1
654.282	52424.05
654.633	52405.74
654.985	52402.8
655.337	52414.1
655.688	52473.31
656.039	52589.69
656.391	52379.75
656.742	52381.33
657.094	52466.53
657.445	52520.54
657.796	52503.14
658.147	52409.58
658.498	52382.01
658.849	52416.36
659.2	52306.31
659.551	52300.88
659.902	52519.18
660.253	52332.97
660.604	52429.02
660.955	52285.07
661.306	52469.24
661.656	52361
662.007	52347.66
662.358	52354.89
662.708	52316.93
663.059	52296.82
663.409	52158.74
663.76	52386.53
664.11	52262.47
664.461	52380.2
664.811	52374.33
665.161	52281.22
665.511	52222.02
665.862	52282.35
666.212	52363.03
666.562	52336.14
666.912	52271.73
667.262	52184.05
667.612	52231.06
667.962	52174.33
668.312	52170.49
668.662	52355.12
669.011	52254.56
669.361	52126.2
669.711	52117.16
670.06	52102.47
670.41	52045.3
670.76	52001.91
671.109	52128.23
671.459	51980.89
671.808	51994.9
672.157	52089.36
672.507	51820.9
672.856	51907
673.205	51950.16
673.554	51952.65
673.904	51804.63
674.253	52000.55
674.602	51800.78
674.951	51392.89
675.3	51222.72
675.649	51666.55
675.998	51754.46
676.346	51672.43
676.695	51808.47
677.044	51536.16
677.393	51678.75
677.741	51687.79
678.09	51592.2
678.438	51462.04
678.787	51555.14
679.135	51572.54
679.484	51367.35
679.832	51511.3
680.181	51311.53
680.529	51425.2
680.877	51289.39
681.225	51258.43
681.573	51385.43
681.922	51220.91
682.27	51036.29
682.618	51156.96
682.966	51110.86
683.314	51105.44
683.661	50973.01
684.009	50838.32
684.357	50665.67
684.705	50737.08
685.053	50682.4
685.4	50738.44
685.748	50577.99
686.095	50542.96
686.443	50476.07
686.79	50333.25
687.138	50459.35
687.485	50498.45
687.832	50346.36
688.18	50340.71
688.527	50054.16
688.874	50036.76
689.221	50013.94
689.568	49884.9
689.915	49785.47
690.262	49784.11
690.609	49759.71
690.956	49604.46
691.303	49610.33
691.65	49362.2
691.997	49381.64
692.344	49126.28
692.69	49119.05
693.037	49123.57
693.383	48813.97
693.73	48944.81
694.077	48704.82
694.423	48716.57
694.769	48704.14
695.116	48651.94
695.462	48489.01
695.808	48352.29
696.155	48381.89
696.501	48004.5
696.847	48126.53
697.193	47813.55
697.539	47990.04
697.885	47560.9
698.231	47578.75
698.577	47521.58
698.923	47461.01
699.269	47218.31
699.614	47166.56
699.96	47004.75
700.306	47183.73
700.651	46871.87
700.997	46746.23
701.342	46658.32
701.688	46623.07
702.033	46572
702.379	46513.24
702.724	46384.2
703.069	46449.51
703.415	45953.71
703.76	45941.5
704.105	46074.16
704.45	45850.21
704.795	45683.88
705.14	45612.25
705.485	45555.53
705.83	45308.3
706.175	45341.29
706.52	45156.67
706.865	45068.31
707.209	45001.42
707.554	44895.66
707.899	44968.42
708.243	44561.88
708.588	44541.99
708.932	44331.15
709.277	44248.89
709.621	44337.48
709.966	44057.49
710.31	44285.05
710.654	43837.83
710.998	43815.23
711.342	43876.93
711.687	43830.82
712.031	43587.89
712.375	43446.43
712.719	43498.86
713.063	43440.55
713.407	43671.96
713.75	43367.11
714.094	43307.45
714.438	43022.48
714.782	43168.47
715.125	43006.44
715.469	42879.66
715.812	42878.53
716.156	42711.76
716.499	42645.55
716.843	42692.32
717.186	42443.29
717.53	42657.52
717.873	42638.31
718.216	42469.5
718.559	42269.06
718.902	42204.43
719.246	42186.12
719.589	42081.94
719.932	41951.1
720.275	41839.01
720.617	41912.46
720.96	41765.12
721.303	41801.5
721.646	41748.17
721.989	41541.85
722.331	41669.98
722.674	41465.01
723.016	41528.29
723.359	41416.88
723.701	41569.42
724.044	41215.07
724.386	41013.05
724.729	41228.18
725.071	41200.39
725.413	41169.65
725.755	41098.02
726.097	40954.52
726.439	40839.49
726.782	40839.49
727.124	40975.53
727.465	40806.72
727.807	40723.79
728.149	40650.12
728.491	40569.89
728.833	40546.17
729.175	40432.95
729.516	40432.72
729.858	40379.39
730.199	40524.25
730.541	40448.54
730.882	40287.19
731.224	40341.88
731.565	40093.3
731.906	40161.77
732.248	40176.01
732.589	40066.4
732.93	39853.53
733.271	39954.54
733.612	40072.96
733.953	39910.02
734.294	39774.21
734.635	39749.58
734.976	39835.45
735.317	39571.73
735.658	39710.03
735.999	39606.98
736.339	39468.23
736.68	39592.74
737.021	39522.69
737.361	39302.81
737.702	39495.8
738.042	39381
738.383	39338.51
738.723	39316.14
739.063	39122.47
739.404	39282.24
739.744	39118.41
740.084	39123.15
740.424	39079.54
740.764	39070.5
741.104	39024.62
741.444	38932.2
741.784	38744.18
742.124	38934.68
742.464	38822.82
742.804	38667.34
743.143	38724.97
743.483	38715.93
743.823	38448.59
744.162	38415.83
744.502	38683.84
744.841	38366.34
745.181	38553.68
745.52	38469.16
745.86	38322.95
746.199	38381.02
746.538	38228.03
746.877	38437.07
747.216	38216.51
747.556	38208.83
747.895	38154.59
748.234	37875.5
748.573	37965.89
748.911	37986.68
749.25	38018.32
749.589	37840.7
749.928	37782.4
750.267	37749.85
750.605	37721.38
750.944	37708.05
751.283	37674.38
751.621	37574.04
751.96	37433.03
752.298	37527.04
752.636	37429.41
752.975	37245.01
753.313	37022.64
753.651	37411.33
753.989	37127.72
754.327	36989.87
754.666	36800.73
755.004	36889.54
755.342	36943.1
755.679	36964.11
756.017	36604.35
756.355	36612.48
756.693	36641.64
757.031	36592.37
757.368	36395.77
757.706	36366.84
758.044	36147.64
758.381	36144.25
758.719	36116.9
759.056	36063.12
759.394	35947.19
759.731	35678.95
760.068	35702.45
760.405	35578.61
760.743	35506.3
761.08	35579.06
761.417	35267.89
761.754	35303.14
762.091	35288.45
762.428	34951.28
762.765	35022.92
763.102	35011.17
763.438	34862.25
763.775	34695.25
764.112	34671.29
764.449	34673.1
764.785	34482.37
765.122	34186.11
765.458	34297.74
765.795	34158.31
766.131	34118.31
766.467	33911.31
766.804	33736.4
767.14	33646.91
767.476	33663.18
767.812	33507.93
768.148	33589.96
768.485	33393.81
768.821	33163.08
769.157	33019.36
769.492	33201.27
769.828	32991.34
770.164	32771.91
770.5	32698.46
770.836	32603.78
771.171	32350.22
771.507	32498.92
771.842	31987.52
772.178	32176.22
772.513	32138.93
772.849	32071.13
773.184	31765.38
773.519	31845.38
773.855	31652.84
774.19	31553.18
774.525	31449.46
774.86	31416.01
775.195	31303.24
775.53	31260.53
775.865	30938.73
776.2	30893.99
776.535	30610.83
776.87	30621.91
777.205	30494.9
777.539	30422.36
777.874	30326.55
778.209	30200
778.543	30076.38
778.878	29934.69
779.212	29977.63
779.547	29707.13
779.881	29857.41
780.215	29586.91
780.55	29749.61
780.884	29409.06
781.218	29274.37
781.552	29291.09
781.886	29106.01
782.22	29067.15
782.554	28850.2
782.888	28685.23
783.222	28571.34
783.556	28500.61
783.889	28468.52
784.223	28213.38
784.557	28188.52
784.89	28231.91
785.224	28077.57
785.557	27977.23
785.891	27898.14
786.224	27726.62
786.558	27651.59
786.891	27466.28
787.224	27396.68
787.557	27371.14
787.891	27364.14
788.224	27281.88
788.557	27286.63
788.89	27201.66
789.223	27135.67
789.556	26735.23
789.888	26746.08
790.221	26733.65
790.554	26472.41
790.887	26548.57
791.219	26383.6
791.552	26378.4
791.884	26261.57
792.217	26103.83
792.549	25952.42
792.882	25886.89
793.214	25727.35
793.546	25855.7
793.879	25591.3
794.211	25477.41
794.543	25590.17
794.875	25467.01
795.207	25435.6
795.539	25253.01
795.871	25258.88
796.203	25099.11
796.535	25035.39
796.867	24960.59
797.198	24891.44
797.53	24885.33
797.862	24669.75
798.193	24735.51
798.525	24385.91
798.856	24572.8
799.188	24345.01
799.519	24321.06
799.85	24166.26
800.182	24219.82
800.513	24051.68
800.844	23955.87
801.175	23987.96
801.506	24055.3
801.837	23817.79
802.168	23660.73
802.499	23715.65
802.83	23548.65
803.161	23486.5
803.491	23455.77
803.822	23355.43
804.153	23307.75
804.483	23124.02
804.814	23134.19
805.145	23046.74
805.475	23112.5
805.805	22911.37
806.136	23063.46
806.466	22895.56
806.796	22853.75
807.126	22604.26
807.457	22674.55
807.787	22595
808.117	22503.48
808.447	22576.92
808.777	22439.52
809.107	22370.6
809.436	22425.96
809.766	22298.74
810.096	22229.58
810.426	22091.28
810.755	22173.32
811.085	22096.26
811.414	21981.91
811.744	21957.73
812.073	21864.85
812.403	21853.1
812.732	21704.4
813.061	21724.97
813.39	21564.97
813.719	21457.85
814.049	21580.11
814.378	21521.13
814.707	21387.35
815.036	21372.66
815.365	21166.79
815.693	21049.28
816.022	21146
816.351	20917.76
816.68	20838.66
817.008	21033.68
817.337	20784.88
817.665	20799.57
817.994	20833.46
818.322	20920.47
818.651	20679.12
818.979	20664.65
819.307	20698.55
819.636	20585.11
819.964	20573.13
820.292	20487.71
820.62	20471.44
820.948	20489.07
821.276	20456.52
821.604	20351.44
821.932	20434.6
822.259	20413.81
822.587	20330.2
822.915	20384.44
823.243	20468.73
823.57	20402.06
823.898	20344.21
824.225	20321.39
824.553	20300.82
824.88	20301.5
825.207	20352.8
825.535	20250.2
825.862	20319.13
826.189	20280.71
826.516	20393.48
826.843	20415.62
827.17	20382.85
827.497	20323.19
827.824	20447.03
828.151	20319.35
828.478	20317.09
828.805	20453.36
829.131	20348.05
829.458	20265.34
829.785	20102.41
830.111	20153.93
830.438	20285.68
830.764	20331.1
831.09	20308.96
831.417	20198.68
831.743	20336.53
832.069	20296.53
832.395	20154.16
832.722	20266.47
833.048	20106.03
833.374	20099.02
833.7	20045.91
834.026	20105.8
834.351	20175.63
834.677	20174.95
835.003	20165.46
835.329	19997.78
835.654	19919.14
835.98	20009.3
836.306	20023.54
836.631	19897.89
836.956	19909.65
837.282	20005.46
837.607	19829.42
837.932	19856.09
838.258	19747.16
838.583	19724.34
838.908	19697.45
839.233	19681.4
839.558	19657
839.883	19490
840.208	19464.91
840.533	19475.53
840.858	19560.95
841.182	19488.41
841.507	19451.8
841.832	19345.14
842.156	19259.95
842.481	19362.77
842.805	19287.97
843.13	19167.07
843.454	19238.7
843.778	19019.95
844.103	19087.97
844.427	19112.6
844.751	19031.48
845.075	18925.72
845.399	18900.41
845.723	18847.53
846.047	18784.93
846.371	18657.25
846.695	18629.91
847.019	18582
847.343	18429.23
847.666	18388.33
847.99	18288.67
848.313	18310.82
848.637	18200.76
848.96	18112.18
849.284	18159.18
849.607	17960.09
849.931	17923.26
850.254	17742.02
850.577	17735.69
850.9	17620.67
851.223	17658.63
851.546	17484.17
851.869	17434.68
852.192	17433.1
852.515	17283.73
852.838	17301.13
853.161	17321.24
853.483	17182.26
853.806	17076.27
854.129	17062.94
854.451	16913.11
854.774	16834.47
855.096	16798.09
855.419	16770.52
855.741	16677.41
856.063	16636.51
856.385	16580.02
856.708	16628.83
857.03	16463.18
857.352	16472.22
857.674	16399.68
857.996	16348.16
858.318	16172.8
858.64	16243.3
858.961	16207.14
859.283	16185.68
859.605	16128.5
859.926	16194.94
860.248	16032.69
860.57	16063.87
860.891	16042.18
861.212	15916.98
861.534	15885.8
861.855	15882.41
862.176	15886.93
862.498	15800.83
862.819	15790.88
863.14	15729.42
863.461	15603.77
863.782	15598.8
864.103	15604.22
864.424	15669.31
864.745	15679.47
865.065	15543.21
865.386	15436.54
865.707	15514.06
866.027	15443.55
866.348	15442.87
866.668	15478.35
866.989	15433.61
867.309	15340.73
867.63	15266.38
867.95	15304.8
868.27	15235.64
868.59	15293.5
868.91	15106.61
869.23	15113.39
869.55	15071.58
869.87	15099.83
870.19	15118.81
870.51	15049.43
870.83	15103.22
871.15	15016.44
871.469	15066.61
871.789	15118.81
872.109	14952.26
872.428	14882.66
872.748	14956.33
873.067	14960.62
873.386	15023.67
873.706	14943.22
874.025	14747.07
874.344	14744.36
874.663	14752.95
874.982	14792.27
875.301	14807.41
875.62	14732.16
875.939	14666.39
876.258	14568.77
876.577	14612.84
876.896	14601.54
877.214	14487.19
877.533	14528.77
877.852	14501.88
878.17	14505.95
878.489	14502.1
878.807	14404.25
879.125	14394.08
879.444	14489
879.762	14420.07
880.08	14350.47
880.398	14366.97
880.716	14304.6
881.034	14342.79
881.352	14288.78
881.67	14232.73
881.988	14184.37
882.306	14171.94
882.624	14041.55
882.941	14092.4
883.259	14019.41
883.577	14054.21
883.894	13920.2
884.212	13934.21
884.529	13987.32
884.846	13982.57
885.164	13895.79
885.481	13777.6
885.798	13831.39
886.115	13714.55
886.432	13731.5
886.75	13703.93
887.067	13714.1
887.383	13557.5
887.7	13643.6
888.017	13546.65
888.334	13559.3
888.651	13578.74
888.967	13489.48
889.284	13384.17
889.6	13398.86
889.917	13252.19
890.233	13352.53
890.55	13233.89
890.866	13270.5
891.182	13148.24
891.498	13143.04
891.815	13139.43
892.131	13047.23
892.447	13010.17
892.763	13069.6
893.079	13007.45
893.395	12988.47
893.71	12915.71
894.026	12962.71
894.342	12836.61
894.657	12799.32
894.973	12741.92
895.289	12709.61
895.604	12698.08
895.92	12541.7
896.235	12581.93
896.55	12578.99
896.865	12492.67
897.181	12463.74
897.496	12429.39
897.811	12372.22
898.126	12328.15
898.441	12249.51
898.756	12243.63
899.071	12204.99
899.386	12154.6
899.7	12114.6
900.015	12127.03
900.33	11944.88
900.644	11882.29
900.959	11937.65
901.273	11874.83
901.588	11774.72
901.902	11741.27
902.216	11704.89
902.531	11672.8
902.845	11629.41
903.159	11589.41
903.473	11461.96
903.787	11449.76
904.101	11442.98
904.415	11473.48
904.729	11363.88
905.042	11322.98
905.356	11288.18
905.67	11314.17
905.984	11291.57
906.297	11232.59
906.611	11188.97
906.924	11118.46
907.237	11145.36
907.551	10981.29
907.864	10996.21
908.177	10922.99
908.491	10919.83
908.804	10830.56
909.117	10758.47
909.43	10782.2
909.743	10714.41
910.056	10720.28
910.368	10723.45
910.681	10627.18
910.994	10463.79
911.307	10507.86
911.619	10418.6
911.932	10429.22
912.244	10358.03
912.557	10327.3
912.869	10235.32
913.181	10271.71
913.494	10270.8
913.806	10170.02
914.118	10089.11
914.43	10062.67
914.742	10002.11
915.054	9957.59
915.366	9975.67
915.678	9952.85
915.99	9844.6
916.302	9821.78
916.613	9751.04
916.925	9782.45
917.236	9746.52
917.548	9667.43
917.859	9638.28
918.171	9575.23
918.482	9598.5
918.794	9526.64
919.105	9465.17
919.416	9430.15
919.727	9440.09
920.038	9359.64
920.349	9289.13
920.66	9282.58
920.971	9252.53
921.282	9228.34
921.593	9123.49
921.903	9116.94
922.214	9102.7
922.525	9059.99
922.835	9017.5
923.146	8934.57
923.456	8897.96
923.767	8904.29
924.077	8834.68
924.387	8818.19
924.697	8722.82
925.008	8681.69
925.318	8694.12
925.628	8643.73
925.938	8605.99
926.248	8508.36
926.558	8534.58
926.867	8523.73
927.177	8441.25
927.487	8447.35
927.796	8374.36
928.106	8346.11
928.416	8354.47
928.725	8305.21
929.034	8222.04
929.344	8230.86
929.653	8203.97
929.962	8118.09
930.271	8104.76
930.581	8047.81
930.89	8003.74
931.199	7968.72
931.508	7930.75
931.817	7944.76
932.125	7909.06
932.434	7877.65
932.743	7759.01
933.051	7775.5
933.36	7710.19
933.669	7701.83
933.977	7664.54
934.286	7606.47
934.594	7575.96
934.902	7567.37
935.21	7489.63
935.519	7530.54
935.827	7512.23
936.135	7410.09
936.443	7367.38
936.751	7300.49
937.059	7361.95
937.367	7321.5
937.674	7320.37
937.982	7287.83
938.29	7234.5
938.597	7219.81
938.905	7158.57
939.213	7126.71
939.52	7034.28
939.827	7079.7
940.135	6979.36
940.442	6962.64
940.749	7025.46
941.056	6989.76
941.363	6902.08
941.67	6867.5
941.977	6795.41
942.284	6783.66
942.591	6785.7
942.898	6766.26
943.205	6751.8
943.511	6721.74
943.818	6672.48
944.125	6658.47
944.431	6633.84
944.738	6627.51
945.044	6585.7
945.35	6523.33
945.657	6520.39
945.963	6496.21
946.269	6434.75
946.575	6427.51
946.881	6347.29
947.187	6313.17
947.493	6324.24
947.799	6267.74
948.105	6299.38
948.41	6213.73
948.716	6216.67
949.022	6182.32
949.327	6156.56
949.633	6108.43
949.938	6148.2
950.244	6083.12
950.549	6004.93
950.854	6036.56
951.16	5980.07
951.465	5969.22
951.77	5913.4
952.075	5949.34
952.38	5917.92
952.685	5879.05
952.99	5809
953.294	5804.25
953.599	5807.87
953.904	5787.31
954.209	5722
954.513	5791.83
954.818	5689.45
955.122	5676.35
955.426	5658.04
955.731	5616.91
956.035	5540.31
956.339	5597.25
956.643	5609.91
956.948	5618.5
957.252	5554.09
957.556	5525.62
957.86	5437.48
958.163	5452.4
958.467	5417.82
958.771	5368.79
959.075	5371.27
959.378	5342.12
959.682	5336.02
959.985	5282.69
960.289	5224.83
960.592	5214.21
960.896	5226.87
961.199	5205.4
961.502	5193.65
961.805	5142.35
962.108	5072.75
962.411	5135.35
962.714	5093.99
963.017	5034.56
963.32	5071.17
963.623	5010.38
963.926	4988
964.228	4936.03
964.531	4949.14
964.833	4956.59
965.136	4835.24
965.438	4866.65
965.741	4890.38
966.043	4842.47
966.345	4818.97
966.648	4790.72
966.95	4754.34
967.252	4701.46
967.554	4732.19
967.856	4700.78
968.158	4639.99
968.46	4623.49
968.761	4635.02
969.063	4576.94
969.365	4605.87
969.666	4587.11
969.968	4549.82
970.269	4510.5
970.571	4539.43
970.872	4500.56
971.174	4434.35
971.475	4460.11
971.776	4478.41
972.077	4405.42
972.378	4363.39
972.679	4412.88
972.98	4382.82
973.281	4364.29
973.582	4322.49
973.883	4322.49
974.183	4292.88
974.484	4267.57
974.785	4237.97
975.085	4235.93
975.386	4254.92
975.686	4167.24
975.986	4151.19
976.287	4182.38
976.587	4080.68
976.887	4069.84
977.187	4086.33
977.487	4073.45
977.787	4063.73
978.087	4035.71
978.387	4044.53
978.687	3997.07
978.987	3969.5
979.286	3945.55
979.586	3967.69
979.885	3920.24
980.185	3906.22
980.484	3926.79
980.784	3891.31
981.083	3840.01
981.382	3842.5
981.682	3853.8
981.981	3788.71
982.28	3815.61
982.579	3758.21
982.878	3803.85
983.177	3734.25
983.475	3766.57
983.774	3700.35
984.073	3615.16
984.372	3643.86
984.67	3639.57
984.969	3630.98
985.267	3624.42
985.566	3625.33
985.864	3614.26
986.162	3583.97
986.461	3514.37
986.759	3561.83
987.057	3557.08
987.355	3499.46
987.653	3476.18
987.951	3428.72
988.249	3456.52
988.547	3448.61
988.844	3445.45
989.142	3456.75
989.44	3428.72
989.737	3410.42
990.035	3381.72
990.332	3353.02
990.63	3321.16
990.927	3350.99
991.224	3286.81
991.521	3289.74
991.819	3273.47
992.116	3262.4
992.413	3218.79
992.71	3218.11
993.006	3223.08
993.303	3157.77
993.6	3210.88
993.897	3142.86
994.193	3137.66
994.49	3130.2
994.787	3096.75
995.083	3092.24
995.379	3072.8
995.676	3098.79
995.972	3049.3
996.268	3031.45
996.565	3051.11
996.861	2991.67
997.157	2981.73
997.453	2964.33
997.749	2932.01
998.044	2966.36
998.34	2959.13
998.636	2906.03
998.932	2889.75
999.227	2894.05
999.523	2839.59
999.818	2839.59
1000.114	2842.75
1000.409	2802.3
1000.704	2805.46
1001	2818.12
1001.295	2748.74
1001.59	2781.06
1001.885	2743.32
1002.18	2714.62
1002.475	2730.21
1002.77	2700.15
1003.065	2641.4
1003.359	2652.25
1003.654	2662.42
1003.949	2615.86
1004.243	2608.18
1004.538	2563.89
1004.832	2576.77
1005.127	2571.34
1005.421	2549.65
1005.715	2528.63
1006.009	2544.45
1006.304	2517.79
1006.598	2477.34
1006.892	2503.1
1007.186	2473.27
1007.48	2473.72
1007.773	2462.87
1008.067	2421.07
1008.361	2428.52
1008.655	2409.54
1008.948	2396.43
1009.242	2368.41
1009.535	2351.46
1009.829	2381.97
1010.122	2309.66
1010.415	2320.05
1010.708	2302.43
1011.001	2287.74
1011.295	2258.58
1011.588	2259.94
1011.881	2262.2
1012.173	2234.18
1012.466	2265.36
1012.759	2250.9
1013.052	2179.04
1013.344	2173.16
1013.637	2167.74
1013.93	2171.58
1014.222	2140.85
1014.514	2111.24
1014.807	2129.55
1015.099	2100.62
1015.391	2103.56
1015.683	2071.7
1015.976	2088.65
1016.268	2067.63
1016.56	2048.65
1016.851	2054.3
1017.143	2019.72
1017.435	2002.77
1017.727	2018.82
1018.018	1988.08
1018.31	1954.41
1018.602	1953.73
1018.893	1951.02
1019.185	1890.91
1019.476	1906.28
1019.767	1894.98
1020.058	1877.8
1020.35	1887.52
1020.641	1859.5
1020.932	1827.64
1021.223	1837.58
1021.514	1805.94
1021.804	1812.27
1022.095	1811.82
1022.386	1801.2
1022.677	1751.93
1022.967	1772.95
1023.258	1744.02
1023.548	1734.98
1023.839	1707.64
1024.129	1744.25
1024.419	1693.85
1024.709	1696.57
1025	1654.98
1025.29	1659.05
1025.58	1648.43
1025.87	1660.41
1026.16	1622.44
1026.449	1621.54
1026.739	1625.83
1027.029	1596.91
1027.319	1572.73
1027.608	1570.69
1027.898	1604.14
1028.187	1541.54
1028.477	1537.93
1028.766	1525.04
1029.055	1486.18
1029.344	1527.98
1029.634	1499.28
1029.923	1478.94
1030.212	1483.01
1030.501	1443.24
1030.79	1461.09
1031.078	1440.98
1031.367	1421.09
1031.656	1442.11
1031.945	1412.51
1032.233	1404.14
1032.522	1364.37
1032.81	1393.52
1033.099	1383.58
1033.387	1372.73
1033.675	1353.98
1033.963	1339.96
1034.251	1334.99
1034.54	1326.41
1034.828	1299.06
1035.116	1323.69
1035.403	1312.62
1035.691	1309.68
1035.979	1293.86
1036.267	1264.03
1036.554	1247.99
1036.842	1276.24
1037.129	1274.66
1037.417	1242.34
1037.704	1225.62
1037.992	1197.14
1038.279	1211.15
1038.566	1194.21
1038.853	1194.21
1039.14	1194.21
