Data from orange_diffuse_book_FLMS001491_00049.txt Node
Date: Wed Feb 08 15:29:38 GMT 2017
User: dcchb
Spectrometer: FLMS00149
Trigger mode: 0
Integration Time (sec): 2.000000E-2
Scans to average: 10
Electric dark correction enabled: true
Nonlinearity correction enabled: false
Boxcar width: 0
XAxis mode: Wavelengths
Number of Pixels in Spectrum: 2048
>>>>>Begin Spectral Data<<<<<
341.393	-7.43
341.776	-7.43
342.16	-7.43
342.543	-68.67
342.927	-57.82
343.31	-72.96
343.693	-74.32
344.077	-85.62
344.46	-43.36
344.843	-57.6
345.226	-47.2
345.61	-23.25
345.993	-26.64
346.376	0.48
346.759	23.76
347.142	3.42
347.525	60.59
347.908	59.69
348.291	82.29
348.674	94.26
349.057	106.47
349.44	128.39
349.823	147.59
350.206	172.91
350.588	201.15
350.971	218.1
351.354	235.73
351.737	232.11
352.119	251.1
352.502	241.6
352.884	284.54
353.267	308.27
353.65	288.83
354.032	321.6
354.414	299.91
354.797	302.62
355.179	330.42
355.562	346.46
355.944	341.71
356.326	348.27
356.709	323.41
357.091	347.82
357.473	350.98
357.855	357.53
358.238	326.35
358.62	349.85
359.002	346.69
359.384	362.96
359.766	360.7
360.148	341.04
360.53	353.47
360.912	345.33
361.294	347.59
361.676	338.32
362.057	342.39
362.439	334.93
362.821	345.1
363.203	340.13
363.584	343.3
363.966	346.69
364.348	320.7
364.729	338.32
365.111	325.9
365.493	325.67
365.874	349.4
366.256	327.48
366.637	320.25
367.019	336.06
367.4	342.62
367.781	300.13
368.163	326.8
368.544	319.79
368.925	306.91
369.306	334.48
369.688	334.71
370.069	340.13
370.45	317.53
370.831	326.35
371.212	342.62
371.593	327.7
371.974	334.71
372.355	308.95
372.736	321.38
373.117	316.86
373.498	342.17
373.879	320.92
374.26	307.14
374.641	315.73
375.021	317.76
375.402	324.77
375.783	347.36
376.163	346.46
376.544	319.79
376.925	325.67
377.305	329.51
377.686	317.76
378.066	348.49
378.447	322.96
378.827	347.82
379.208	331.09
379.588	339.68
379.968	343.3
380.349	347.82
380.729	350.08
381.109	330.87
381.489	356.4
381.87	347.82
382.25	347.14
382.63	344.2
383.01	346.01
383.39	367.93
383.77	354.82
384.15	348.95
384.53	363.18
384.91	359.79
385.29	361.15
385.67	335.16
386.049	363.18
386.429	355.05
386.809	359.57
387.189	367.7
387.568	337.87
387.948	377.42
388.328	367.02
388.707	368.38
389.087	376.97
389.466	374.48
389.846	367.02
390.225	390.53
390.605	371.54
390.984	381.49
391.363	370.64
391.743	359.34
392.122	385.33
392.501	386.68
392.881	384.88
393.26	391.43
393.639	388.72
394.018	390.98
394.397	376.29
394.776	379.45
395.155	399.57
395.534	372.45
395.913	398.66
396.292	384.42
396.671	420.13
397.05	405.67
397.429	413.12
397.808	407.02
398.186	400.02
398.565	387.36
398.944	413.8
399.323	403.63
399.701	410.41
400.08	419.9
400.458	421.94
400.837	406.57
401.215	428.27
401.594	392.11
401.972	411.99
402.351	422.39
402.729	411.99
403.107	437.76
403.486	424.88
403.864	424.65
404.242	426.01
404.62	435.05
404.999	416.51
405.377	419.23
405.755	423.29
406.133	433.46
406.511	430.98
406.889	441.15
407.267	466.46
407.645	450.19
408.023	440.69
408.401	432.79
408.779	450.41
409.156	465.33
409.534	446.34
409.912	446.12
410.29	464.2
410.667	469.17
411.045	471.88
411.422	482.73
411.8	480.69
412.178	486.34
412.555	504.87
412.933	487.02
413.31	479.11
413.687	497.64
414.065	510.3
414.442	512.33
414.819	491.77
415.197	501.03
415.574	500.81
415.951	501.03
416.328	507.13
416.705	491.54
417.082	534.93
417.46	519.11
417.837	531.99
418.214	516.85
418.591	548.04
418.967	529.96
419.344	536.96
419.721	552.78
420.098	557.98
420.475	546.91
420.852	560.92
421.228	564.99
421.605	546.91
421.982	570.86
422.358	578.77
422.735	583.29
423.111	565.89
423.488	572.44
423.864	589.17
424.241	557.98
424.617	586
424.994	586.45
425.37	593.46
425.746	582.39
426.123	597.3
426.499	576.28
426.875	619.67
427.251	608.15
427.627	619
428.003	623.51
428.379	633.23
428.756	633.23
429.132	668.49
429.507	648.37
429.883	653.12
430.259	642.72
430.635	640.24
431.011	634.36
431.387	674.81
431.763	680.69
432.138	674.81
432.514	678.2
432.89	701.93
433.265	715.49
433.641	710.29
434.016	699.22
434.392	716.39
434.767	724.08
435.143	737.86
435.518	752.55
435.894	744.19
436.269	758.65
436.644	750.07
437.02	760.46
437.395	773.12
437.77	778.99
438.145	773.79
438.52	788.71
438.895	774.7
439.271	772.66
439.646	800.01
440.021	820.57
440.395	798.43
440.77	805.66
441.145	794.13
441.52	817.18
441.895	814.47
442.27	824.41
442.645	819.44
443.019	838.65
443.394	823.74
443.769	845.66
444.143	861.25
444.518	853.79
444.892	827.8
445.267	845.66
445.641	842.04
446.016	852.89
446.39	863.51
446.764	883.39
447.139	865.77
447.513	882.94
447.887	883.17
448.262	898.31
448.636	887.69
449.01	888.37
449.384	897.41
449.758	905.09
450.132	902.38
450.506	895.82
450.88	906.67
451.254	875.26
451.628	928.14
452.002	939.21
452.376	947.8
452.75	937.63
453.123	935.82
453.497	941.25
453.871	968.59
454.244	963.84
454.618	955.71
454.992	996.84
455.365	988.25
455.739	991.64
456.112	1003.17
456.486	1006.56
456.859	1021.7
457.232	1065.54
457.606	1034.58
457.979	1023.96
458.352	1050.4
458.725	1075.93
459.099	1064.18
459.472	1099.21
459.845	1080
460.218	1121.81
460.591	1101.24
460.964	1091.98
461.337	1126.1
461.71	1145.08
462.083	1139.66
462.456	1130.85
462.829	1141.24
463.201	1145.99
463.574	1152.09
463.947	1205.19
464.32	1198.64
464.692	1214.69
465.065	1196.15
465.438	1234.8
465.81	1231.63
466.183	1251.07
466.555	1239.54
466.928	1251.29
467.3	1278.64
467.672	1234.8
468.045	1307.11
468.417	1318.19
468.789	1324.97
469.161	1339.43
469.534	1326.77
469.906	1353.66
470.278	1380.1
470.65	1381.01
471.022	1395.02
471.394	1404.29
471.766	1395.7
472.138	1438.86
472.51	1461.46
472.882	1437.5
473.253	1466.2
473.625	1494.68
473.997	1530.16
474.369	1525.19
474.74	1551.85
475.112	1593.88
475.484	1583.72
475.855	1622.36
476.227	1624.17
476.598	1637.73
476.97	1676.14
477.341	1672.98
477.713	1727.44
478.084	1721.79
478.455	1724.73
478.827	1787.55
479.198	1822.58
479.569	1818.96
479.94	1870.04
480.311	1874.33
480.682	1899.87
481.053	1929.24
481.424	1922.46
481.795	1993.42
482.166	2020.77
482.537	2037.26
482.908	2067.54
483.279	2074.55
483.65	2141.21
484.021	2166.3
484.391	2195.22
484.762	2232.96
485.133	2223.25
485.503	2277.93
485.874	2298.95
486.244	2358.84
486.615	2394.77
486.985	2396.35
487.356	2453.3
487.726	2435.44
488.097	2515.44
488.467	2514.09
488.837	2572.16
489.207	2588.43
489.578	2613.52
489.948	2667.08
490.318	2691.26
490.688	2699.17
491.058	2746.17
491.428	2837.02
491.798	2817.58
492.168	2905.94
492.538	2904.81
492.908	2913.85
493.278	3005.15
493.648	2989.33
494.017	3057.12
494.387	3039.04
494.757	3118.36
495.126	3132.83
495.496	3179.61
495.866	3168.76
496.235	3236.78
496.605	3265.71
496.974	3298.7
497.344	3362.43
497.713	3354.06
498.082	3378.47
498.452	3411.69
498.821	3498.02
499.19	3470.67
499.559	3511.12
499.928	3531.23
500.298	3556.77
500.667	3607.17
501.036	3586.83
501.405	3654.85
501.774	3646.03
502.143	3736.43
502.512	3730.1
502.88	3798.57
503.249	3771.45
503.618	3797.89
503.987	3887.16
504.356	3897.78
504.724	3906.14
505.093	3964.9
505.462	3954.27
505.83	3968.96
506.199	4019.13
506.567	4052.35
506.936	4085.12
507.304	4122.86
507.672	4131.9
508.041	4165.12
508.409	4170.99
508.777	4250.54
509.145	4291.44
509.514	4281.95
509.882	4287.37
510.25	4347.48
510.618	4368.95
510.986	4377.09
511.354	4448.5
511.722	4459.12
512.09	4519.68
512.458	4523.98
512.826	4532.56
513.193	4560.81
513.561	4606.01
513.929	4619.57
514.297	4670.19
514.664	4753.8
515.032	4695.5
515.4	4779.79
515.767	4778.66
516.135	4822.5
516.502	4818.66
516.869	4871.99
517.237	4873.8
517.604	4918.09
517.972	4971.87
518.339	4986.11
518.706	5035.15
519.073	5001.25
519.44	5101.14
519.808	5121.02
520.175	5149.95
520.542	5161.93
520.909	5223.17
521.276	5215.26
521.643	5307.23
522.009	5316.27
522.376	5360.34
522.743	5384.75
523.11	5474.23
523.477	5532.76
523.843	5571.41
524.21	5572.31
524.577	5597.17
524.943	5642.59
525.31	5663.83
525.676	5716.04
526.043	5793.32
526.409	5761.01
526.776	5828.58
527.142	5914.45
527.508	5921.45
527.874	5923.49
528.241	5952.41
528.607	5979.76
528.973	6068.12
529.339	6076.93
529.705	6153.31
530.071	6166.19
530.437	6137.72
530.803	6223.37
531.169	6274.44
531.535	6252.29
531.901	6249.81
532.267	6276.93
532.632	6378.39
532.998	6335.45
533.364	6396.92
533.73	6414.32
534.095	6498.61
534.461	6559.86
534.826	6552.62
535.192	6568.9
535.557	6625.39
535.923	6582.45
536.288	6643.47
536.653	6676.01
537.019	6630.36
537.384	6717.82
537.749	6735.22
538.114	6812.05
538.479	6804.6
538.845	6792.17
539.21	6819.06
539.575	6893.63
539.94	6849.79
540.305	6924.82
540.67	6897.47
541.034	6976.79
541.399	7015.66
541.764	7112.38
542.129	7076
542.494	7136.34
542.858	7145.15
543.223	7163
543.587	7200.29
543.952	7230.12
544.316	7228.31
544.681	7253.17
545.045	7345.37
545.41	7382.66
545.774	7360.29
546.138	7418.59
546.503	7423.56
546.867	7432.15
547.231	7551.69
547.595	7485.48
547.959	7574.29
548.324	7668.53
548.688	7643.9
549.052	7646.83
549.416	7719.15
549.779	7735.64
550.143	7777.68
550.507	7801.86
550.871	7922.31
551.235	7860.39
551.599	7963.89
551.962	8025.58
552.326	8011.34
552.689	8138.57
553.053	8096.99
553.417	8131.57
553.78	8284.56
554.143	8252.47
554.507	8307.83
554.87	8324.78
555.234	8405.91
555.597	8417.43
555.96	8427.6
556.323	8527.49
556.686	8546.92
557.05	8721.83
557.413	8647.03
557.776	8759.12
558.139	8838.89
558.502	8887.03
558.865	8943.07
559.228	9019
559.59	9083.86
559.953	9167.47
560.316	9190.75
560.679	9186.91
561.041	9288.82
561.404	9394.58
561.767	9465.54
562.129	9480.91
562.492	9592.09
562.854	9699.66
563.217	9719.77
563.579	9790.73
563.941	9877.06
564.304	9960.44
564.666	10120.67
565.028	10220.32
565.39	10278.85
565.753	10299.19
566.115	10522.24
566.477	10559.75
566.839	10581.9
567.201	10779.63
567.563	10810.82
567.925	10975.78
568.287	11087.65
568.648	11206.06
569.01	11238.83
569.372	11395.43
569.734	11545.26
570.095	11669.33
570.457	11775.54
570.819	11866.83
571.18	12030.22
571.542	12265.24
571.903	12368.29
572.265	12525.12
572.626	12626.59
572.987	12755.17
573.349	13005.11
573.71	13282.84
574.071	13381.82
574.432	13534.81
574.794	13768.03
575.155	13840.79
575.516	14022.03
575.877	14303.15
576.238	14503.38
576.599	14796.25
576.96	14915.79
577.32	15139.97
577.681	15355.78
578.042	15571.82
578.403	15849.56
578.763	16084.8
579.124	16356.89
579.485	16595.07
579.845	16936.76
580.206	17165.68
580.566	17452.45
580.927	17741.03
581.287	18094.02
581.648	18297.4
582.008	18609.48
582.368	18910.27
582.728	19255.34
583.089	19460.99
583.449	19975.55
583.809	20319.95
584.169	20562.2
584.529	20984.79
584.889	21455.96
585.249	21633.58
585.609	22027.02
585.969	22443.96
586.329	22765.98
586.688	23250.04
587.048	23571.39
587.408	23897.03
587.768	24363.68
588.127	24683
588.487	25080.95
588.846	25589.19
589.206	25918.89
589.565	26265.33
589.925	26790.96
590.284	27156.38
590.643	27649.24
591.003	28147.08
591.362	28585.49
591.721	28912.49
592.08	29462.53
592.44	30012.35
592.799	30365.56
593.158	30788.15
593.517	31229.04
593.876	31736.14
594.235	32152.63
594.593	32617.93
594.952	33103.56
595.311	33371.58
595.67	33901.96
596.029	34544.88
596.387	34942.16
596.746	35392.77
597.104	35625.53
597.463	36017.39
597.822	36711.38
598.18	36931.03
598.538	37337.8
598.897	37968.52
599.255	38166.26
599.613	39148.83
599.972	39239.45
600.33	39601.25
600.688	39780.68
601.046	40307.22
601.404	40872.63
601.762	41205.95
602.12	41713.28
602.478	42074.4
602.836	42541.96
603.194	42521.85
603.552	43036.18
603.91	43227.82
604.268	43737.18
604.625	44025.31
604.983	44457.16
605.341	44618.52
605.698	45153.87
606.056	45580.52
606.413	45617.13
606.771	45994.98
607.128	46363.1
607.485	46300.28
607.843	46734.62
608.2	47144.55
608.557	47433.81
608.914	47449.4
609.272	47964.87
609.629	48167.58
609.986	48467.45
610.343	48479.21
610.7	48870.61
611.057	49129.58
611.414	49193.31
611.771	49317.38
612.127	49691.38
612.484	49761.21
612.841	49975.66
613.198	50043.01
613.554	50075.1
613.911	50513.28
614.267	50563.9
614.624	50682.09
614.98	50820.16
615.337	51117.55
615.693	51081.4
616.05	51309.41
616.406	51554.83
616.762	51530.65
617.118	51572.46
617.475	51549.18
617.831	51777.88
618.187	51937.65
618.543	52065.78
618.899	52191.2
619.255	52070.98
619.611	52289.95
619.967	52503.51
620.323	52532.21
620.678	52411.08
621.034	52391.42
621.39	52514.13
621.746	52563.84
622.101	52933.55
622.457	52752.99
622.812	52746.21
623.168	52927
623.523	52995.92
623.879	53137.39
624.234	52929.94
624.589	53105.98
624.945	53164.73
625.3	53235.01
625.655	53188.69
626.01	53286.31
626.365	53329.25
626.72	53374.22
627.075	53298.06
627.43	53377.61
627.785	53359.98
628.14	53389.58
628.495	53449.92
628.85	53554.78
629.205	53407.89
629.559	53562.01
629.914	53499.86
630.269	53509.81
630.623	53469.13
630.978	53467.77
631.332	53546.87
631.687	53602.01
632.041	53446.08
632.396	53606.53
632.75	53513.88
633.104	53562.46
633.459	53432.75
633.813	53433.65
634.167	53443.37
634.521	53451.5
634.875	53589.13
635.229	53426.87
635.583	53363.37
635.937	53404.95
636.291	53430.94
636.645	53409.7
636.999	53362.47
637.352	53496.93
637.706	53268.01
638.06	53427.55
638.413	53307.78
638.767	53193.66
639.121	53290.38
639.474	53055.81
639.828	53159.31
640.181	53247.89
640.534	53191.85
640.888	53072.76
641.241	53056.94
641.594	53165.41
641.947	53130.16
642.301	53201.57
642.654	53188.23
643.007	53169.93
643.36	53192.75
643.713	53119.31
644.066	53233.88
644.419	52928.58
644.771	52912.08
645.124	52634.58
645.477	52519.55
645.83	52370.63
646.182	52287.24
646.535	52217.19
646.888	52220.35
647.24	52117.3
647.593	52209.28
647.945	52169.5
648.298	52052.44
648.65	51945.56
649.002	51939.68
649.355	52093.35
649.707	52027.13
650.059	52058.77
650.411	52555.26
650.763	52581.24
651.115	52803.39
651.467	52679.55
651.819	52726.55
652.171	52650.62
652.523	52672.77
652.875	52684.29
653.227	52571.3
653.578	52729.04
653.93	52699.89
654.282	52616.95
654.633	52550.28
654.985	52566.78
655.337	52540.79
655.688	52637.06
656.039	52699.89
656.391	52478.42
656.742	52488.37
657.094	52548.93
657.445	52627.12
657.796	52542.6
658.147	52477.74
658.498	52504.86
658.849	52562.94
659.2	52517.07
659.551	52488.37
659.902	52638.19
660.253	52541.92
660.604	52566.56
660.955	52482.94
661.306	52507.35
661.656	52509.61
662.007	52443.85
662.358	52557.06
662.708	52470.29
663.059	52417.41
663.409	52285.21
663.76	52516.39
664.11	52466.45
664.461	52568.14
664.811	52405.88
665.161	52441.14
665.511	52393.23
665.862	52422.38
666.212	52451.76
666.562	52487.24
666.912	52412.66
667.262	52369.05
667.612	52277.75
667.962	52317.3
668.312	52276.17
668.662	52520.46
669.011	52448.59
669.361	52306
669.711	52304.42
670.06	52209.28
670.41	52250.86
670.76	52129.51
671.109	52251.99
671.459	52209.28
671.808	52102.39
672.157	52223.29
672.507	51965.89
672.856	51916.4
673.205	51991.88
673.554	52095.61
673.904	52028.72
674.253	52201.14
674.602	51969.96
674.951	51536.75
675.3	51498.56
675.649	51918.21
675.998	51858.33
676.346	51941.71
676.695	51906.23
677.044	51566.13
677.393	51760.02
677.741	51775.16
678.09	51654.72
678.438	51703.98
678.787	51705.56
679.135	51656.07
679.484	51487.49
679.832	51543.76
680.181	51445.68
680.529	51575.85
680.877	51447.72
681.225	51411.56
681.573	51643.64
681.922	51295.4
682.27	51203.2
682.618	51284.33
682.966	51181.73
683.314	51238.68
683.661	51127.5
684.009	50975.64
684.357	50964.34
684.705	50893.83
685.053	50952.81
685.4	50915.3
685.748	50685.7
686.095	50667.62
686.443	50595.76
686.79	50511.24
687.138	50611.13
687.485	50607.51
687.832	50185.6
688.18	50550.79
688.527	50197.8
688.874	50177.01
689.221	49991.03
689.568	50013.63
689.915	49860.86
690.262	49965.27
690.609	49704.26
690.956	49712.39
691.303	49660.64
691.65	49455.45
691.997	49396.7
692.344	49248
692.69	49173.65
693.037	49373.87
693.383	48996.93
693.73	49158.06
694.077	48819.08
694.423	48757.16
694.769	48696.6
695.116	48782.02
695.462	48669.26
695.808	48479.43
696.155	48550.39
696.501	48256.39
696.847	48234.92
697.193	47947.02
697.539	48140.46
697.885	47910.63
698.231	47772.11
698.577	47829.96
698.923	47555.39
699.269	47502.28
699.614	47207.6
699.96	47316.75
700.306	47179.58
700.651	47071.11
700.997	46949.08
701.342	46893.48
701.688	46698.69
702.033	46682.42
702.379	46514.96
702.724	46420.5
703.069	46535.53
703.415	46060.51
703.76	46091.7
704.105	46105.26
704.45	45884.02
704.795	45782.78
705.14	45698.04
705.485	45663.23
705.83	45408.1
706.175	45568.55
706.52	45339.85
706.865	45170.82
707.209	45289.23
707.554	45066.87
707.899	45117.03
708.243	44801.11
708.588	44803.14
708.932	44632.53
709.277	44465.75
709.621	44534.45
709.966	44252.65
710.31	44329.48
710.654	44092.43
710.998	44064.63
711.342	44174.46
711.687	44015.59
712.031	43925.43
712.375	43712.1
712.719	43634.14
713.063	43657.41
713.407	43702.38
713.75	43498.32
714.094	43361.37
714.438	43213.36
714.782	43338.1
715.125	43163.19
715.469	43261.72
715.812	43033.47
716.156	42953.7
716.499	42809.75
716.843	42859.01
717.186	42605.24
717.53	42801.84
717.873	42647.27
718.216	42507.84
718.559	42470.32
718.902	42416.09
719.246	42412.02
719.589	42410.21
719.932	42173.38
720.275	42092.93
720.617	42205.92
720.96	42125.25
721.303	41963.44
721.646	41880.06
721.989	41801.87
722.331	41875.76
722.674	41834.63
723.016	41753.96
723.359	41645.94
723.701	41637.58
724.044	41524.81
724.386	41354.42
724.729	41476.9
725.071	41450.01
725.413	41234.42
725.755	41233.52
726.097	41077.14
726.439	40981.78
726.782	40987.43
727.124	41165.05
727.465	40857.26
727.807	40888.9
728.149	40841.89
728.491	40637.38
728.833	40829.01
729.175	40701.78
729.516	40601.22
729.858	40528.23
730.199	40627.43
730.541	40583.37
730.882	40395.12
731.224	40538.62
731.565	40335.24
731.906	40360.55
732.248	40465.18
732.589	40263.6
732.93	40174.11
733.271	40104.96
733.612	40212.76
733.953	40231.74
734.294	40036.26
734.635	39762.37
734.976	40058.86
735.317	39761.69
735.658	39740.45
735.999	39725.31
736.339	39741.58
736.68	39878.75
737.021	39681.7
737.361	39591.08
737.702	39662.04
738.042	39526.45
738.383	39450.97
738.723	39627.69
739.063	39371.2
739.404	39346.56
739.744	39350.63
740.084	39239.45
740.424	39315.83
740.764	39114.03
741.104	39278.32
741.444	39011.66
741.784	38973.47
742.124	39093.01
742.464	38994.94
742.804	38900.02
743.143	38787.03
743.483	38882.17
743.823	38743.19
744.162	38674.72
744.502	38765.34
744.841	38546.36
745.181	38774.38
745.52	38479.24
745.86	38629.07
746.199	38575.74
746.538	38436.76
746.877	38595.62
747.216	38467.72
747.556	38372.13
747.895	38435.18
748.234	38185.01
748.573	38158.57
748.911	38184.79
749.25	38220.94
749.589	37935.75
749.928	37966.94
750.267	38058.01
750.605	37904.12
750.944	37894.4
751.283	37741.86
751.621	37855.08
751.96	37638.59
752.298	37622.32
752.636	37653.05
752.975	37447.18
753.313	37350.91
753.651	37526.05
753.989	37275.88
754.327	37314.75
754.666	37149.79
755.004	37051.71
755.342	37057.58
755.679	37111.14
756.017	36824.14
756.355	36996.12
756.693	36709.8
757.031	36718.61
757.368	36543.7
757.706	36531.27
758.044	36383.25
758.381	36356.36
758.719	36322.91
759.056	36414.66
759.394	36122.47
759.731	35854.23
760.068	35905.52
760.405	35783.27
760.743	35680.22
761.08	35801.57
761.417	35549.38
761.754	35453.11
762.091	35405.88
762.428	35146.67
762.765	34978.54
763.102	35249.04
763.438	34932.22
763.775	34791.43
764.112	34823.52
764.449	34920.01
764.785	34717.31
765.122	34543.3
765.458	34425.34
765.795	34356.41
766.131	34359.8
766.467	34073.48
766.804	33981.28
767.14	33984.22
767.476	33908.52
767.812	33731.34
768.148	33730.21
768.485	33632.59
768.821	33392.82
769.157	33225.14
769.492	33340.85
769.828	33184.69
770.164	32883.23
770.5	32765.27
770.836	32949.9
771.171	32540.64
771.507	32632.62
771.842	32349.91
772.178	32377.93
772.513	32243.25
772.849	32213.64
773.184	32038.28
773.519	32091.84
773.855	31749.48
774.19	31683.26
774.525	31601.01
774.86	31598.75
775.195	31512.87
775.53	31488.47
775.865	31202.15
776.2	31024.75
776.535	30798.54
776.87	30835.6
777.205	30582.5
777.539	30584.31
777.874	30603.74
778.209	30375.05
778.543	30309.74
778.878	30062.74
779.212	29965.57
779.547	29941.39
779.881	30015.28
780.215	29602.64
780.55	29655.52
780.884	29519.7
781.218	29553.15
781.552	29424.11
781.886	29245.81
782.22	29160.17
782.554	29107.96
782.888	28833.17
783.222	28715.88
783.556	28658.26
783.889	28571.25
784.223	28415.1
784.557	28354.76
784.89	28476.57
785.224	28392.05
785.557	28086.97
785.891	28094.43
786.224	28018.27
786.558	27926.98
786.891	27616.93
787.224	27666.19
787.557	27642.24
787.891	27539.42
788.224	27471.17
788.557	27392.53
788.89	27351.63
789.223	27137.85
789.556	27030.96
789.888	26880
790.221	26753.68
790.554	26652.43
790.887	26691.76
791.219	26575.37
791.552	26561.82
791.884	26462.84
792.217	26231.43
792.549	26246.12
792.882	25969.29
793.214	25980.14
793.546	25885
793.879	25798.22
794.211	25597.32
794.543	25786.47
794.875	25607.94
795.207	25640.71
795.539	25572.92
795.871	25419.7
796.203	25281.4
796.535	25091.12
796.867	25090.44
797.198	24938.36
797.53	25016.77
797.862	24842.09
798.193	24769.32
798.525	24636.89
798.856	24638.7
799.188	24520.29
799.519	24510.12
799.85	24482.32
800.182	24384.47
800.513	24404.36
800.844	24130.02
801.175	24110.81
801.506	24138.6
801.837	24064.03
802.168	23985.84
802.499	23882.79
802.83	23790.82
803.161	23668.33
803.491	23770.25
803.822	23604.38
804.153	23476.7
804.483	23365.29
804.814	23300.43
805.145	23231.28
805.475	23324.61
805.805	23163.94
806.136	23118.97
806.466	23165.52
806.796	22980.89
807.126	22832.42
807.457	22697.96
807.787	22723.5
808.117	22694.8
808.447	22540.23
808.777	22781.8
809.107	22520.57
809.436	22474.69
809.766	22537.29
810.096	22411.42
810.426	22274.02
810.755	22270.18
811.085	22221.59
811.414	22118.32
811.744	21944.31
812.073	21897.08
812.403	21928.94
812.732	21850.75
813.061	21896.4
813.39	21691.44
813.719	21734.15
814.049	21774.82
814.378	21621.15
814.707	21517.43
815.036	21496.64
815.365	21335.74
815.693	21274.95
816.022	21200.37
816.351	21149.08
816.68	21046.71
817.008	21124.44
817.337	21022.98
817.665	20955.41
817.994	21006.48
818.322	20891.68
818.651	20802.42
818.979	20702.31
819.307	20785.47
819.636	20756.09
819.964	20559.49
820.292	20712.93
820.62	20625.25
820.948	20605.59
821.276	20559.94
821.604	20541.64
821.932	20515.87
822.259	20579.6
822.587	20575.53
822.915	20555.65
823.243	20464.35
823.57	20561.3
823.898	20524.69
824.225	20382.32
824.553	20514.29
824.88	20463.67
825.207	20545.48
825.535	20452.15
825.862	20547.06
826.189	20397.23
826.516	20573.95
826.843	20570.11
827.17	20626.38
827.497	20630.22
827.824	20543.44
828.151	20576.66
828.478	20482.88
828.805	20517.91
829.131	20483.33
829.458	20604.91
829.785	20379.61
830.111	20305.03
830.438	20422.54
830.764	20464.35
831.09	20434.52
831.417	20259.61
831.743	20439.26
832.069	20359.27
832.395	20316.78
832.722	20330.12
833.048	20344.13
833.374	20392.71
833.7	20254.64
834.026	20327.63
834.351	20363.79
834.677	20279.5
835.003	20265.71
835.329	20187.97
835.654	20168.99
835.98	20137.13
836.306	20148.88
836.631	20177.12
836.956	20060.97
837.282	20016
837.607	20019.61
837.932	19954.98
838.258	19991.59
838.583	19870.01
838.908	19788.66
839.233	19832.05
839.558	19756.57
839.883	19746.18
840.208	19614.65
840.533	19681.32
840.858	19593.19
841.182	19585.73
841.507	19540.31
841.832	19596.35
842.156	19486.52
842.481	19411.95
842.805	19338.95
843.13	19410.37
843.454	19392.74
843.778	19298.96
844.103	19236.81
844.427	19133.99
844.751	19161.33
845.075	19095.8
845.399	19154.78
845.723	18919.3
846.047	18945.52
846.371	18844.28
846.695	18751.63
847.019	18681.12
847.343	18669.82
847.666	18551.18
847.99	18408.81
848.313	18468.7
848.637	18335.37
848.96	18380.56
849.284	18262.37
849.607	18115.71
849.931	18112.32
850.254	17999.33
850.577	17917.07
850.9	17757.98
851.223	17736.06
851.546	17713.23
851.869	17499
852.192	17589.17
852.515	17446.8
852.838	17408.61
853.161	17352.11
853.483	17326.58
853.806	17161.16
854.129	17145.79
854.451	17016.08
854.774	16941.73
855.096	17014.5
855.419	16793.26
855.741	16831.45
856.063	16718.46
856.385	16735.18
856.708	16694.73
857.03	16667.39
857.352	16653.6
857.674	16571.57
857.996	16525.24
858.318	16400.27
858.64	16421.29
858.961	16396.43
859.283	16328.64
859.605	16192.82
859.926	16251.8
860.248	16203.67
860.57	16164.57
860.891	16166.61
861.212	16040.06
861.534	16058.82
861.855	16042.77
862.176	16035.09
862.498	15951.7
862.819	15941.76
863.14	15902.43
863.461	15800.97
863.782	15889.55
864.103	15847.75
864.424	15798.26
864.745	15777.92
865.065	15721.42
865.386	15631.03
865.707	15624.7
866.027	15584.7
866.348	15491.37
866.668	15488.21
866.989	15482.56
867.309	15483.69
867.63	15490.92
867.95	15476.91
868.27	15350.59
868.59	15447.76
868.91	15216.35
869.23	15303.58
869.55	15185.62
869.87	15276.69
870.19	15193.53
870.51	15191.72
870.83	15239.63
871.15	15122.34
871.469	15139.52
871.789	15104.72
872.109	15149.69
872.428	15011.16
872.748	15114.66
873.067	15025.85
873.386	15064.94
873.706	14991.72
874.025	14866.98
874.344	14956.02
874.663	14904.5
874.982	14777.72
875.301	14802.12
875.62	14705.4
875.939	14668.8
876.258	14805.97
876.577	14713.77
876.896	14717.16
877.214	14623.6
877.533	14734.78
877.852	14603.94
878.17	14647.55
878.489	14629.47
878.807	14583.37
879.125	14645.29
879.444	14556.03
879.762	14534.34
880.08	14461.12
880.398	14412.76
880.716	14433.1
881.034	14383.6
881.352	14406.88
881.67	14341.35
881.988	14312.65
882.306	14261.57
882.624	14248.02
882.941	14139.77
883.259	14128.7
883.577	14077.62
883.894	14083.27
884.212	14088.47
884.529	14066.78
884.846	14012.09
885.164	14016.83
885.481	13953.11
885.798	13889.61
886.115	13888.02
886.432	13885.54
886.75	13708.37
887.067	13794.69
887.383	13755.15
887.7	13751.98
888.017	13635.15
888.334	13806.22
888.651	13559.9
888.967	13563.06
889.284	13512.22
889.6	13479.22
889.917	13402.39
890.233	13412.56
890.55	13394.03
890.866	13296.4
891.182	13289.62
891.498	13226.8
891.815	13287.14
892.131	13143.41
892.447	13185.9
892.763	13116.52
893.079	13057.31
893.395	13041.72
893.71	12968.73
894.026	12952.23
894.342	12883.53
894.657	12785
894.973	12771.22
895.289	12779.35
895.604	12888.73
895.92	12706.81
896.235	12669.3
896.55	12623.65
896.865	12635.85
897.181	12548.17
897.496	12468.63
897.811	12427.5
898.126	12377.1
898.441	12356.31
898.756	12272.93
899.071	12288.29
899.386	12307.28
899.7	12259.82
900.015	12128.75
900.33	12038.58
900.644	11977.57
900.959	12003.1
901.273	11974.4
901.588	11909.55
901.902	11819.15
902.216	11787.97
902.531	11813.28
902.845	11754.52
903.159	11648.76
903.473	11585.03
903.787	11586.16
904.101	11597.92
904.415	11530.12
904.729	11532.83
905.042	11524.92
905.356	11409.67
905.67	11409.9
905.984	11403.8
906.297	11321.99
906.611	11349.79
906.924	11271.6
907.237	11241.54
907.551	11049.46
907.864	11036.57
908.177	11040.64
908.491	11034.54
908.804	10948.89
909.117	10912.51
909.43	10873.41
909.743	10797.48
910.056	10768.11
910.368	10786.64
910.681	10666.19
910.994	10663.02
911.307	10569.02
911.619	10505.97
911.932	10515.23
912.244	10437.95
912.557	10453.09
912.869	10314.79
913.181	10325.63
913.494	10341
913.806	10248.12
914.118	10217.61
914.43	10112.08
914.742	10121.8
915.054	10048.35
915.366	10048.13
915.678	10002.93
915.99	9967.9
916.302	9866.66
916.613	9880.9
916.925	9824.63
917.236	9771.52
917.548	9731.52
917.859	9760.9
918.171	9673.67
918.482	9597.74
918.794	9533.34
919.105	9637.74
919.416	9401.36
919.727	9446.79
920.038	9451.31
920.349	9341.25
920.66	9274.59
920.971	9342.16
921.282	9294.02
921.593	9186.91
921.903	9179.67
922.214	9188.71
922.525	9130.64
922.835	9089.51
923.146	9013.35
923.456	9015.38
923.767	8939.91
924.077	8880.92
924.387	8851.09
924.697	8862.17
925.008	8779.23
925.318	8783.98
925.628	8713.7
925.938	8638.22
926.248	8558.67
926.558	8579.46
926.867	8570.88
927.177	8514.61
927.487	8508.73
927.796	8448.39
928.106	8405.91
928.416	8345.57
928.725	8365.23
929.034	8268.74
929.344	8250.43
929.653	8311
929.962	8198.68
930.271	8202.75
930.581	8184.67
930.89	8122.75
931.199	8016.77
931.508	8095.63
931.817	7984.9
932.125	7999.59
932.434	7919.59
932.743	7904
933.051	7818.35
933.36	7787.39
933.669	7837.56
933.977	7743.78
934.286	7674.63
934.594	7700.16
934.902	7575.65
935.21	7617.46
935.519	7653.61
935.827	7559.38
936.135	7483.9
936.443	7415.88
936.751	7441.64
937.059	7407.07
937.367	7312.6
937.674	7294.3
937.982	7289.1
938.29	7280.29
938.597	7235.54
938.905	7179.05
939.213	7184.7
939.52	7073.74
939.827	7174.08
940.135	7092.95
940.442	7052.05
940.749	7050.69
941.056	7039.62
941.363	6920.98
941.67	6958.94
941.977	6902.22
942.284	6812.5
942.591	6775.44
942.898	6773.86
943.205	6766.86
943.511	6737.25
943.818	6727.53
944.125	6665.84
944.431	6702.68
944.738	6656.58
945.044	6580.87
945.35	6550.36
945.657	6554.21
945.963	6560.08
946.269	6451.38
946.575	6439.63
946.881	6388.11
947.187	6399.86
947.493	6342.91
947.799	6374.1
948.105	6357.38
948.41	6281.45
948.716	6249.81
949.022	6245.29
949.327	6265.17
949.633	6163.93
949.938	6144.05
950.244	6192.18
950.549	6107.21
950.854	6068.34
951.16	6071.06
951.465	5967.33
951.77	6012.07
952.075	6047.33
952.38	5959.87
952.685	5920.32
952.99	5911.29
953.294	5833.32
953.599	5837.84
953.904	5809.59
954.209	5767.11
954.513	5800.1
954.818	5744.06
955.122	5696.15
955.426	5696.15
955.731	5640.56
956.035	5650.5
956.339	5629.71
956.643	5604.85
956.948	5522.82
957.252	5527.79
957.556	5541.8
957.86	5464.74
958.163	5483.05
958.467	5413.9
958.771	5424.29
959.075	5432.88
959.378	5377.97
959.682	5370.73
959.985	5324.18
960.289	5271.53
960.592	5320.57
960.896	5223.62
961.199	5230.85
961.502	5241.47
961.805	5162.83
962.108	5153.79
962.411	5147.01
962.714	5102.27
963.017	5103.17
963.32	5073.34
963.623	5038.77
963.926	5028.37
964.228	4996.28
964.531	4985.43
964.833	4973.46
965.136	4901.14
965.438	4886.91
965.741	4851.43
966.043	4842.61
966.345	4872.44
966.648	4870.18
966.95	4788.83
967.252	4712.22
967.554	4778.89
967.856	4777.3
968.158	4707.25
968.46	4685.33
968.761	4654.6
969.063	4620.47
969.365	4620.47
969.666	4614.6
969.968	4575.28
970.269	4600.36
970.571	4566.01
970.872	4495.05
971.174	4497.09
971.475	4498.67
971.776	4454.37
972.077	4447.37
972.378	4403.98
972.679	4429.97
972.98	4421.15
973.281	4318.78
973.582	4357.43
973.883	4289.41
974.183	4334.83
974.484	4253.7
974.785	4239.46
975.085	4278.33
975.386	4282.63
975.686	4211.89
975.986	4231.56
976.287	4213.48
976.587	4190.2
976.887	4105.46
977.187	4177.32
977.487	4094.61
977.787	4056.19
978.087	4046.93
978.387	4036.08
978.687	4083.99
978.987	4033.14
979.286	4024.78
979.586	3980.04
979.885	4011.9
980.185	3996.53
980.484	3861.4
980.784	3936.87
981.083	3865.46
981.382	3876.31
981.682	3826.37
981.981	3880.15
982.28	3818.23
982.579	3775.97
982.878	3804.22
983.177	3782.08
983.475	3761.29
983.774	3694.85
984.073	3704.11
984.372	3693.04
984.67	3701.4
984.969	3676.54
985.267	3681.97
985.566	3667.95
985.864	3590.44
986.162	3552.93
986.461	3609.42
986.759	3545.47
987.057	3525.59
987.355	3532.59
987.653	3510.44
987.951	3508.18
988.249	3506.15
988.547	3501.63
988.844	3415.76
989.142	3418.02
989.44	3418.7
989.737	3407.4
990.035	3390.9
990.332	3383.89
990.63	3386.83
990.927	3365.36
991.224	3341.18
991.521	3302.99
991.819	3344.8
992.116	3282.2
992.413	3228.19
992.71	3211.47
993.006	3229.1
993.303	3242.2
993.6	3234.97
993.897	3174.63
994.193	3168.53
994.49	3105.71
994.787	3095.31
995.083	3129.66
995.379	3051.93
995.676	3077.01
995.972	3027.97
996.268	3077.69
996.565	3033.17
996.861	3032.26
997.157	2997.24
997.453	2988.65
997.749	3032.04
998.044	2933.06
998.34	2910.46
998.636	2935.77
998.932	2900.97
999.227	2882.21
999.523	2858.94
999.818	2897.58
1000.114	2829.78
1000.409	2818.71
1000.704	2808.09
1001	2815.77
1001.295	2800.18
1001.59	2760.63
1001.885	2774.19
1002.18	2728.77
1002.475	2710.92
1002.77	2726.28
1003.065	2714.08
1003.359	2710.24
1003.654	2662.11
1003.949	2616.68
1004.243	2626.63
1004.538	2601.99
1004.832	2613.29
1005.127	2604.25
1005.421	2584.37
1005.715	2561.54
1006.009	2573.52
1006.304	2557.93
1006.598	2496.69
1006.892	2497.59
1007.186	2469.57
1007.48	2484.48
1007.773	2444.71
1008.067	2439.29
1008.361	2445.61
1008.655	2418.95
1008.948	2423.02
1009.242	2373.75
1009.535	2374.88
1009.829	2359.51
1010.122	2340.76
1010.415	2354.54
1010.708	2319.52
1011.001	2308.22
1011.295	2320.19
1011.588	2281.78
1011.881	2214.21
1012.173	2230.7
1012.466	2258.5
1012.759	2208.56
1013.052	2213.53
1013.344	2208.33
1013.637	2185.06
1013.93	2191.16
1014.222	2177.15
1014.514	2132.85
1014.807	2161.33
1015.099	2111.16
1015.391	2118.39
1015.683	2108
1015.976	2080.2
1016.268	2075.23
1016.56	2056.92
1016.851	2055.12
1017.143	1992.97
1017.435	2016.7
1017.727	2017.6
1018.018	1977.15
1018.31	1933.99
1018.602	1960.2
1018.893	1945.51
1019.185	1922.01
1019.476	1926.31
1019.767	1902.35
1020.058	1909.13
1020.35	1878.17
1020.641	1842.69
1020.932	1887.21
1021.223	1870.26
1021.514	1819.64
1021.804	1826.87
1022.095	1773.99
1022.386	1797.72
1022.677	1755.69
1022.967	1738.29
1023.258	1769.7
1023.548	1747.78
1023.839	1725.63
1024.129	1729.25
1024.419	1710.72
1024.709	1693.09
1025	1665.52
1025.29	1658.74
1025.58	1653.54
1025.87	1661
1026.16	1649.93
1026.449	1616.03
1026.739	1602.47
1027.029	1607.67
1027.319	1600.66
1027.608	1568.57
1027.898	1571.06
1028.187	1557.28
1028.477	1543.49
1028.766	1547.78
1029.055	1526.99
1029.344	1536.71
1029.634	1489.25
1029.923	1487.22
1030.212	1480.67
1030.501	1464.62
1030.79	1467.56
1031.078	1458.52
1031.367	1439.09
1031.656	1421.01
1031.945	1399.99
1032.233	1395.7
1032.522	1394.12
1032.81	1394.79
1033.099	1390.5
1033.387	1381.46
1033.675	1360.9
1033.963	1335.59
1034.251	1355.47
1034.54	1312.08
1034.828	1325.42
1035.116	1316.38
1035.403	1294.01
1035.691	1301.24
1035.979	1282.03
1036.267	1271.86
1036.554	1264.18
1036.842	1236.38
1037.129	1245.87
1037.417	1235.25
1037.704	1245.42
1037.992	1226.21
1038.279	1217.4
1038.566	1211.75
1038.853	1211.75
1039.14	1211.75
