Data from orange_diffuse_book_FLMS001491_00096.txt Node
Date: Wed Feb 08 15:30:19 GMT 2017
User: dcchb
Spectrometer: FLMS00149
Trigger mode: 0
Integration Time (sec): 2.000000E-2
Scans to average: 10
Electric dark correction enabled: true
Nonlinearity correction enabled: false
Boxcar width: 0
XAxis mode: Wavelengths
Number of Pixels in Spectrum: 2048
>>>>>Begin Spectral Data<<<<<
341.393	-7.9
341.776	-7.9
342.16	-7.9
342.543	-64.39
342.927	-63.26
343.31	-47.67
343.693	-64.84
344.077	-61.23
344.46	-66.42
344.843	-60.1
345.226	-53.77
345.61	-24.62
345.993	-30.49
346.376	-10.16
346.759	17.41
347.142	25.1
347.525	19.67
347.908	69.84
348.291	87.92
348.674	87.24
349.057	112.1
349.44	127.47
349.823	150.74
350.206	193
350.588	204.08
350.971	223.29
351.354	252.66
351.737	253.34
352.119	269.39
352.502	283.62
352.884	280.01
353.267	278.65
353.65	315.26
354.032	332.43
354.414	341.02
354.797	331.98
355.179	354.36
355.562	325.43
355.944	343.06
356.326	360.23
356.709	348.93
357.091	344.64
357.473	360.46
357.855	343.28
358.238	361.36
358.62	351.19
359.002	362.72
359.384	341.02
359.766	357.07
360.148	359.33
360.53	357.07
360.912	332.43
361.294	351.19
361.676	339.21
362.057	357.52
362.439	341.7
362.821	353.45
363.203	339.89
363.584	339.67
363.966	344.64
364.348	332.43
364.729	320.46
365.111	358.42
365.493	333.79
365.874	317.97
366.256	333.34
366.637	310.51
367.019	328.82
367.4	348.93
367.781	337.18
368.163	340.8
368.544	307.12
368.925	348.25
369.306	356.39
369.688	348.48
370.069	342.38
370.45	337.41
370.831	332.21
371.212	329.27
371.593	347.12
371.974	331.98
372.355	317.97
372.736	345.09
373.117	342.38
373.498	340.12
373.879	319.1
374.26	310.29
374.641	347.35
375.021	349.16
375.402	348.93
375.783	338.31
376.163	357.07
376.544	347.35
376.925	334.69
377.305	323.4
377.686	323.4
378.066	345.54
378.447	338.99
378.827	346.67
379.208	335.37
379.588	347.58
379.968	349.16
380.349	360
380.729	362.94
381.109	346.9
381.489	362.04
381.87	336.73
382.25	353.68
382.63	365.65
383.01	371.98
383.39	357.29
383.77	349.61
384.15	344.41
384.53	350.97
384.91	378.08
385.29	374.69
385.67	355.03
386.049	381.02
386.429	359.78
386.809	374.02
387.189	362.26
387.568	364.07
387.948	396.39
388.328	401.13
388.707	376.28
389.087	373.79
389.466	378.31
389.846	385.31
390.225	372.43
390.605	399.1
390.984	408.14
391.363	389.61
391.743	401.81
392.122	410.17
392.501	379.21
392.881	408.59
393.26	401.81
393.639	414.01
394.018	389.16
394.397	401.59
394.776	406.33
395.155	400
395.534	402.49
395.913	410.62
396.292	395.26
396.671	416.73
397.05	392.77
397.429	400
397.808	415.14
398.186	433
398.565	407.69
398.944	411.3
399.323	435.93
399.701	440.23
400.08	409.95
400.458	430.06
400.837	430.74
401.215	441.13
401.594	430.51
401.972	409.95
402.351	429.83
402.729	438.65
403.107	448.36
403.486	437.06
403.864	441.58
404.242	450.4
404.62	441.36
404.999	454.92
405.377	448.14
405.755	449.04
406.133	428.7
406.511	467.8
406.889	463.73
407.267	454.92
407.645	470.28
408.023	477.74
408.401	473.22
408.779	491.75
409.156	468.7
409.534	463.73
409.912	490.4
410.29	479.55
410.667	495.37
411.045	477.74
411.422	493.56
411.8	497.63
412.178	496.5
412.555	516.84
412.933	519.55
413.31	507.35
413.687	507.12
414.065	514.8
414.442	534.69
414.819	544.86
415.197	541.24
415.574	547.8
415.951	547.12
416.328	543.28
416.705	567.46
417.082	546.21
417.46	548.25
417.837	554.12
418.214	559.1
418.591	569.49
418.967	549.6
419.344	560.45
419.721	541.47
420.098	588.47
420.475	598.64
420.852	568.36
421.228	599.09
421.605	600.68
421.982	604.97
422.358	609.49
422.735	640.22
423.111	621.69
423.488	604.07
423.864	610.62
424.241	625.53
424.617	615.82
424.994	626.21
425.37	655.36
425.746	627.34
426.123	633.44
426.499	658.3
426.875	658.98
427.251	671.18
427.627	675.25
428.003	652.65
428.379	666.66
428.756	673.22
429.132	682.26
429.507	690.84
429.883	681.35
430.259	710.5
430.635	710.05
431.011	706.21
431.387	726.32
431.763	721.35
432.138	733.78
432.514	753.21
432.89	748.02
433.265	755.47
433.641	753.89
434.016	745.08
434.392	766.55
434.767	788.92
435.143	785.53
435.518	774.91
435.894	788.92
436.269	808.13
436.644	812.65
437.02	804.29
437.395	839.99
437.77	816.94
438.145	828.92
438.52	853.1
438.895	874.79
439.271	860.1
439.646	863.72
440.021	866.88
440.395	846.09
440.77	856.26
441.145	858.3
441.52	897.62
441.895	896.04
442.27	905.53
442.645	894.23
443.019	894.68
443.394	900.56
443.769	914.57
444.143	922.48
444.518	909.82
444.892	907.79
445.267	935.58
445.641	924.96
446.016	936.26
446.39	947.56
446.764	939.2
447.139	926.09
447.513	947.33
447.887	961.57
448.262	986.43
448.636	953.21
449.01	975.13
449.384	967.22
449.758	965.41
450.132	991.17
450.506	990.04
450.88	983.72
451.254	990.27
451.628	1006.09
452.002	976.71
452.376	1004.96
452.75	993.66
453.123	988.46
453.497	1035.92
453.871	1037.05
454.244	1050.83
454.618	1036.15
454.992	1032.08
455.365	1049.25
455.739	1083.15
456.112	1084.51
456.486	1077.27
456.859	1113.66
457.232	1113.21
457.606	1105.3
457.979	1113.66
458.352	1126.99
458.725	1131.06
459.099	1144.16
459.472	1148.91
459.845	1156.82
460.218	1177.61
460.591	1185.29
460.964	1176.25
461.337	1208.57
461.71	1200.66
462.083	1233.88
462.456	1235.69
462.829	1234.56
463.201	1243.37
463.574	1249.92
463.947	1259.19
464.32	1278.62
464.692	1284.95
465.065	1283.37
465.438	1312.3
465.81	1342.8
466.183	1306.65
466.555	1317.72
466.928	1315.69
467.3	1322.69
467.672	1372.41
468.045	1369.47
468.417	1373.99
468.789	1399.53
469.161	1399.75
469.534	1418.06
469.906	1449.47
470.278	1469.58
470.65	1449.02
471.022	1483.36
471.394	1492.4
471.766	1501.22
472.138	1533.76
472.51	1521.33
472.882	1582.12
473.253	1602.01
473.625	1591.61
473.997	1602.68
474.369	1620.08
474.74	1638.39
475.112	1621.21
475.484	1672.51
475.855	1698.5
476.227	1691.27
476.598	1745.73
476.97	1756.8
477.341	1788.44
477.713	1814.43
478.084	1801.77
478.455	1866.86
478.827	1843.81
479.198	1935.78
479.569	1896.24
479.94	1936.46
480.311	1935.1
480.682	2027.53
481.053	2053.75
481.424	2073.18
481.795	2106.4
482.166	2121.31
482.537	2160.86
482.908	2163.35
483.279	2181.65
483.65	2217.36
484.021	2274.3
484.391	2286.51
484.762	2326.28
485.133	2361.53
485.503	2366.05
485.874	2416.67
486.244	2416.9
486.615	2472.49
486.985	2463.23
487.356	2558.82
487.726	2579.38
488.097	2636.33
488.467	2664.58
488.837	2713.84
489.207	2715.2
489.578	2779.38
489.948	2773.5
490.318	2860.28
490.688	2867.74
491.058	2858.24
491.428	2910.9
491.798	2989.77
492.168	3046.94
492.538	3027.73
492.908	3082.42
493.278	3126.71
493.648	3125.36
494.017	3146.6
494.387	3171.68
494.757	3246.71
495.126	3307.95
495.496	3300.27
495.866	3352.92
496.235	3329.64
496.605	3409.19
496.974	3488.51
497.344	3489.41
497.713	3491.45
498.082	3535.29
498.452	3608.96
498.821	3608.73
499.19	3605.12
499.559	3680.37
499.928	3749.97
500.298	3714.94
500.667	3764.21
501.036	3779.8
501.405	3837.43
501.774	3814.6
502.143	3872.91
502.512	3888.95
502.88	3929.63
503.249	3905.45
503.618	3995.62
503.987	4026.12
504.356	4024.77
504.724	4106.12
505.093	4135.5
505.462	4160.58
505.83	4187.93
506.199	4208.94
506.567	4232.45
506.936	4269.05
507.304	4343.18
507.672	4293.23
508.041	4363.97
508.409	4420.24
508.777	4465.66
509.145	4477.18
509.514	4508.37
509.882	4516.28
510.25	4526
510.618	4587.01
510.986	4639.67
511.354	4649.84
511.722	4709.95
512.09	4717.86
512.458	4727.12
512.826	4771.64
513.193	4805.31
513.561	4801.92
513.929	4855.48
514.297	4936.16
514.664	4932.77
515.032	4965.08
515.4	5014.12
515.767	5029.26
516.135	5057.51
516.502	5054.12
516.869	5135.47
517.237	5175.25
517.604	5172.31
517.972	5197.17
518.339	5239.2
518.706	5243.72
519.073	5298.41
519.44	5325.07
519.808	5404.17
520.175	5380.66
520.542	5478.29
520.909	5470.38
521.276	5516.03
521.643	5507.89
522.009	5578.4
522.376	5657.94
522.743	5658.4
523.11	5731.61
523.477	5759.18
523.843	5788.56
524.21	5845.51
524.577	5884.83
524.943	5903.14
525.31	5978.84
525.676	6070.59
526.043	6058.84
526.409	6086.41
526.776	6134.54
527.142	6177.03
527.508	6213.18
527.874	6220.42
528.241	6257.93
528.607	6229
528.973	6365.27
529.339	6333.63
529.705	6438.04
530.071	6464.02
530.437	6453.63
530.803	6521.88
531.169	6536.34
531.535	6541.31
531.901	6590.12
532.267	6598.71
532.632	6610.01
532.998	6702.44
533.364	6729.78
533.73	6701.76
534.095	6760.29
534.461	6891.13
534.826	6878.7
535.192	6867.4
535.557	6919.83
535.923	6972.94
536.288	6941.3
536.653	6982.88
537.019	7015.65
537.384	7038.7
537.749	7078.02
538.114	7089.77
538.479	7092.03
538.845	7207.73
539.21	7133.84
539.575	7186.72
539.94	7208.41
540.305	7253.61
540.67	7273.5
541.034	7303.1
541.399	7366.15
541.764	7440.72
542.129	7419.93
542.494	7476.43
542.858	7532.7
543.223	7525.69
543.587	7539.93
543.952	7578.35
544.316	7594.16
544.681	7595.52
545.045	7669.19
545.41	7663.32
545.774	7689.53
546.138	7759.81
546.503	7814.5
546.867	7809.07
547.231	7914.16
547.595	7943.08
547.959	7913.25
548.324	8031.89
548.688	7996.19
549.052	8029.86
549.416	8085.68
549.779	8051.33
550.143	8188.05
550.507	8211.32
550.871	8254.94
551.235	8318.89
551.599	8316.41
551.962	8414.26
552.326	8425.33
552.689	8459.9
553.053	8442.28
553.417	8501.49
553.78	8602.73
554.143	8637.75
554.507	8715.49
554.87	8744.87
555.234	8851.08
555.597	8799.1
555.96	8921.14
556.323	8961.36
556.686	8988.03
557.05	9073.22
557.413	9160.45
557.776	9174.91
558.139	9275.7
558.502	9263.5
558.865	9354.57
559.228	9418.3
559.59	9458.97
559.953	9500.56
560.316	9642.02
560.679	9659.65
561.041	9801.34
561.404	9875.69
561.767	9948.68
562.129	9988.68
562.492	10053.31
562.854	10114.32
563.217	10148.45
563.579	10287.65
563.941	10354.09
564.304	10490.13
564.666	10650.13
565.028	10778.71
565.39	10732.61
565.753	10844.25
566.115	10977.8
566.477	10989.1
566.839	11173.28
567.201	11311.13
567.563	11364.01
567.925	11536.43
568.287	11606.94
568.648	11728.07
569.01	11848.52
569.372	11995.63
569.734	12010.77
570.095	12196.08
570.457	12387.49
570.819	12554.03
571.18	12671.09
571.542	12818.43
571.903	12919.67
572.265	13183.4
572.626	13307.69
572.987	13479.21
573.349	13645.53
573.71	13917.16
574.071	13991.28
574.432	14261.56
574.794	14513.53
575.155	14606.41
575.516	14746.97
575.877	15041.2
576.238	15183.57
576.599	15438.48
576.96	15677.12
577.32	15829.65
577.681	16154.39
578.042	16446.14
578.403	16729.97
578.763	16975.39
579.124	17320.24
579.485	17649.04
579.845	17955.7
580.206	18115.02
580.566	18448.12
580.927	18793.19
581.287	19163.58
581.648	19351.14
582.008	19716.56
582.368	20132.37
582.728	20414.17
583.089	20672.46
583.449	21159.23
583.809	21465.44
584.169	21855.71
584.529	22129.6
584.889	22811.17
585.249	22971.39
585.609	23264.04
585.969	23896.11
586.329	24219.04
586.688	24695.64
587.048	25022.18
587.408	25454.03
587.768	25891.76
588.127	26368.36
588.487	26696.26
588.846	27352.97
589.206	27616.01
589.565	28108.65
589.925	28600.39
590.284	28931.91
590.643	29548.16
591.003	29938.66
591.362	30441.7
591.721	30861.58
592.08	31462.24
592.44	32002.34
592.799	32416.11
593.158	32769.1
593.517	33313.94
593.876	33941.49
594.235	34296.29
594.593	34762.26
594.952	35339.42
595.311	35706.42
595.67	36205.39
596.029	36857.58
596.387	37382.76
596.746	37798.34
597.104	38137.99
597.463	38495.27
597.822	39179.55
598.18	39473.1
598.538	39865.63
598.897	40687.76
599.255	40782.44
599.613	41718.24
599.972	41845.24
600.33	42294.5
600.688	42607.03
601.046	43197.3
601.404	43611.52
601.762	44000.67
602.12	44470.71
602.478	44916.12
602.836	45237.24
603.194	45370.12
603.552	45757.46
603.91	45957.68
604.268	46594.5
604.625	46678.79
604.983	47173.01
605.341	47282.16
605.698	47833.33
606.056	48162.82
606.413	48310.16
606.771	48651.84
607.128	48895
607.485	49078.95
607.843	49200.08
608.2	49634.19
608.557	49967.74
608.914	50097.45
609.272	50443.89
609.629	50829.19
609.986	51001.84
610.343	51005.45
610.7	51362.28
611.057	51443.18
611.414	51586.23
611.771	51829.61
612.127	51907.8
612.484	52066.22
612.841	52358.86
613.198	52307.11
613.554	52485.64
613.911	52780.1
614.267	52859.87
614.624	52852.86
614.98	53071.16
615.337	53301.21
615.693	53379.85
616.05	53383.24
616.406	53647.64
616.762	53608.32
617.118	53738.49
617.475	53746.85
617.831	53896.9
618.187	54105.03
618.543	54176.44
618.899	54353.16
619.255	54320.39
619.611	54484.46
619.967	54547.28
620.323	54623.21
620.678	54615.08
621.034	54564.68
621.39	54631.35
621.746	54649.88
622.101	55023.65
622.457	54845.35
622.812	54848.29
623.168	55013.03
623.523	55012.8
623.879	55148.62
624.234	54961.51
624.589	55128.28
624.945	55135.29
625.3	55185.23
625.655	55320.82
626.01	55351.33
626.365	55322.63
626.72	55307.26
627.075	55297.77
627.43	55262.06
627.785	55290.99
628.14	55430.87
628.495	55475.17
628.85	55413.02
629.205	55402.4
629.559	55530.31
629.914	55522.85
630.269	55516.52
630.623	55451.21
630.978	55366.02
631.332	55661.6
631.687	55648.04
632.041	55519.46
632.396	55535.05
632.75	55434.71
633.104	55538.89
633.459	55403.3
633.813	55415.51
634.167	55466.13
634.521	55411.89
634.875	55531.44
635.229	55490.08
635.583	55396.52
635.937	55397.2
636.291	55412.12
636.645	55389.29
636.999	55309.75
637.352	55480.59
637.706	55248.28
638.06	55345.23
638.413	55307.94
638.767	55308.84
639.121	55363.53
639.474	55237.66
639.828	55174.38
640.181	55203.53
640.534	55333.25
640.888	55181.84
641.241	55149.07
641.594	55209.18
641.947	55268.17
642.301	55234.27
642.654	55203.31
643.007	55279.92
643.36	55186.36
643.713	55193.59
644.066	55288.28
644.419	55018.23
644.771	54881.06
645.124	54661.85
645.477	54625.47
645.83	54475.64
646.182	54343.44
646.535	54325.37
646.888	54382.99
647.24	54265.93
647.593	54397
647.945	54350.22
648.298	54192.71
648.65	54127.18
649.002	54129.44
649.355	54270.45
649.707	54173.96
650.059	54286.27
650.411	54576.21
650.763	54694.17
651.115	54993.82
651.467	54839.93
651.819	54851.68
652.171	54834.28
652.523	54715.19
652.875	54766.48
653.227	54733.04
653.578	54906.14
653.93	54724.22
654.282	54732.59
654.633	54627.28
654.985	54711.57
655.337	54778.46
655.688	54760.38
656.039	54789.53
656.391	54660.27
656.742	54642.87
657.094	54645.36
657.445	54733.72
657.796	54744.34
658.147	54650.55
658.498	54694.62
658.849	54717.9
659.2	54716.54
659.551	54610.78
659.902	54683.77
660.253	54633.61
660.604	54660.05
660.955	54636.32
661.306	54610.78
661.656	54605.81
662.007	54637.22
662.358	54582.08
662.708	54578.47
663.059	54608.97
663.409	54397.91
663.76	54641.06
664.11	54608.52
664.461	54693.27
664.811	54638.13
665.161	54581.4
665.511	54537.56
665.862	54540.73
666.212	54614.85
666.562	54585.02
666.912	54572.14
667.262	54576.88
667.612	54481.97
667.962	54456.21
668.312	54454.18
668.662	54588.86
669.011	54364.01
669.361	54471.35
669.711	54507.96
670.06	54330.56
670.41	54317
670.76	54255.54
671.109	54387.96
671.459	54251.47
671.808	54232.71
672.157	54298.47
672.507	54161.98
672.856	54124.69
673.205	54224.35
673.554	54213.96
673.904	54091.25
674.253	54419.37
674.602	54124.47
674.951	53724.7
675.3	53597.7
675.649	54043.11
675.998	53995.66
676.346	54043.11
676.695	54098.03
677.044	53876.56
677.393	54004.02
677.741	54014.41
678.09	53956.34
678.438	53851.93
678.787	53894.19
679.135	53988.2
679.484	53714.53
679.832	53897.35
680.181	53558.38
680.529	53767.64
680.877	53703.46
681.225	53619.85
681.573	53780.29
681.922	53663.01
682.27	53541.66
682.618	53579.62
682.966	53445.39
683.314	53564.26
683.661	53391.83
684.009	53235
684.357	53271.61
684.705	53109.8
685.053	53233.19
685.4	53158.84
685.748	53037.49
686.095	52936.7
686.443	52846.99
686.79	52790.72
687.138	52883.14
687.485	52911.62
687.832	52702.81
688.18	52741
688.527	52565.41
688.874	52671.17
689.221	52537.84
689.568	52463.95
689.915	52389.15
690.262	52299.66
690.609	52201.81
690.956	52098.98
691.303	52131.75
691.65	51884.53
691.997	52003.84
692.344	51717.52
692.69	51716.17
693.037	51817.63
693.383	51460.36
693.73	51575.16
694.077	51287.71
694.423	51442.28
694.769	51325.9
695.116	51213.13
695.462	51153.7
695.808	51028.5
696.155	51087.03
696.501	50864.21
696.847	50828.73
697.193	50640.72
697.539	50816.76
697.885	50410.89
698.231	50355.75
698.577	50351.23
698.923	50242.53
699.269	50092.71
699.614	49892.26
699.96	49819.5
700.306	49933.84
700.651	49786.28
700.997	49599.16
701.342	49536.34
701.688	49475.1
702.033	49284.59
702.379	49347.64
702.724	49246.18
703.069	49281.66
703.415	48858.84
703.76	48895.9
704.105	48784.95
704.45	48846.19
704.795	48476.71
705.14	48393.32
705.485	48426.09
705.83	48242.14
706.175	48263.15
706.52	48229.48
706.865	47951.3
707.209	47922.6
707.554	47822.49
707.899	47859.32
708.243	47615.26
708.588	47569.16
708.932	47372.1
709.277	47227.47
709.621	47256.62
709.966	46973.92
710.31	47171.88
710.654	46958.55
710.998	46928.27
711.342	46988.16
711.687	46744.55
712.031	46583.2
712.375	46454.16
712.719	46536.87
713.063	46428.4
713.407	46527.6
713.75	46371.22
714.094	46236.09
714.438	46155.86
714.782	46248.97
715.125	46048.29
715.469	46081.29
715.812	45844.23
716.156	45703.9
716.499	45607.85
716.843	45675.65
717.186	45486.05
717.53	45735.31
717.873	45583.9
718.216	45564.69
718.559	45334.87
718.902	45202.67
719.246	45235.66
719.589	45076.12
719.932	44977.59
720.275	44908.44
720.617	44990.7
720.96	44946.85
721.303	44830.7
721.646	44762
721.989	44560.88
722.331	44811.72
722.674	44462.35
723.016	44524.04
723.359	44465.51
723.701	44477.04
724.044	44225.52
724.386	44107.78
724.729	44260.55
725.071	44101
725.413	44070.72
725.755	44120.44
726.097	43937.39
726.439	43784.4
726.782	43865.98
727.124	44021.68
727.465	43775.59
727.807	43736.72
728.149	43753.44
728.491	43554.12
728.833	43729.03
729.175	43611.97
729.516	43424.86
729.858	43378.31
730.199	43618.3
730.541	43341.47
730.882	43307.35
731.224	43482.94
731.565	43051.31
731.906	43142.61
732.248	43276.16
732.589	43081.14
732.93	42932.67
733.271	42859.9
733.612	42890.19
733.953	42946.91
734.294	42817.87
734.635	42800.47
734.976	42856.51
735.317	42680.02
735.658	42533.36
735.999	42531.33
736.339	42596.41
736.68	42621.27
737.021	42537.65
737.361	42267.38
737.702	42596.41
738.042	42361.61
738.383	42211.79
738.723	42411.78
739.063	42115.97
739.404	42380.14
739.744	42284.78
740.084	42175.18
740.424	42155.52
740.764	42159.36
741.104	42115.29
741.444	41940.83
741.784	41742.19
742.124	41967.05
742.464	41814.51
742.804	41621.07
743.143	41683.44
743.483	41789.42
743.823	41420.39
744.162	41534.97
744.502	41607.51
744.841	41538.81
745.181	41515.31
745.52	41330.23
745.86	41291.13
746.199	41285.48
746.538	41318.02
746.877	41349.21
747.216	41142.89
747.556	41256.33
747.895	41207.07
748.234	40928.88
748.573	40876.91
748.911	40804.82
749.25	40948.09
749.589	40771.82
749.928	40805.04
750.267	40858.6
750.605	40763.46
750.944	40683.01
751.283	40465.39
751.621	40587.2
751.96	40380.2
752.298	40322.57
752.636	40382.91
752.975	40225.17
753.313	40046.42
753.651	40283.02
753.989	39994.89
754.327	39873.09
754.666	39837.38
755.004	39788.57
755.342	39852.75
755.679	39784.05
756.017	39572.53
756.355	39594.91
756.693	39367.34
757.031	39489.82
757.368	39271.07
757.706	39266.33
758.044	39054.13
758.381	39174.13
758.719	39061.13
759.056	39044.41
759.394	38751.09
759.731	38551.77
760.068	38444.2
760.405	38442.39
760.743	38354.71
761.08	38550.86
761.417	38112.23
761.754	38103.19
762.091	38058.22
762.428	37847.83
762.765	37695.29
763.102	37707.95
763.438	37487.39
763.775	37408.52
764.112	37433.61
764.449	37481.06
764.785	37154.97
765.122	36962.43
765.458	36925.14
765.795	36979.15
766.131	36884.47
766.467	36647.86
766.804	36470.92
767.14	36334.43
767.476	36217.82
767.812	36200.64
768.148	36251.26
768.485	36097.6
768.821	35855.57
769.157	35819.41
769.492	35690.83
769.828	35617.16
770.164	35297.39
770.5	35313.89
770.836	35218.75
771.171	35085.42
771.507	35071.18
771.842	34891.3
772.178	34751.64
772.513	34683.17
772.849	34659.44
773.184	34468.26
773.519	34431.88
773.855	34127.25
774.19	34153.01
774.525	33919.57
774.86	33993.47
775.195	33995.96
775.53	33812.91
775.865	33613.59
776.2	33294.73
776.535	33106.71
776.87	33026.49
777.205	33028.52
777.539	32912.6
777.874	32878.25
778.209	32601.87
778.543	32555.99
778.878	32322.78
779.212	32349.22
779.547	32282.78
779.881	32344.25
780.215	32084.59
780.55	32220.18
780.884	31910.59
781.218	31833.98
781.552	31746.3
781.886	31452.97
782.22	31435.57
782.554	31284.39
782.888	31085.75
783.222	31008.69
783.556	30878.98
783.889	30745.19
784.223	30534.8
784.557	30561.02
784.89	30595.59
785.224	30393.34
785.557	30323.74
785.891	30195.83
786.224	30199.9
786.558	30027.7
786.891	29772.56
787.224	29684.43
787.557	29548.39
787.891	29649.18
788.224	29464.32
788.557	29494.61
788.89	29406.02
789.223	29354.04
789.556	29044.45
789.888	28983.21
790.221	28870.89
790.554	28796.77
790.887	28666.38
791.219	28611.01
791.552	28472.26
791.884	28453.28
792.217	28449.44
792.549	28168.76
792.882	28028.2
793.214	27926.29
793.546	27972.61
793.879	27798.15
794.211	27494.21
794.543	27763.58
794.875	27601.32
795.207	27723.13
795.539	27377.37
795.871	27297.38
796.203	27183.48
796.535	27136.93
796.867	27044.73
797.198	26993.43
797.53	27012.19
797.862	26749.59
798.193	26675.92
798.525	26528.58
798.856	26606.32
799.188	26300.57
799.519	26278.42
799.85	26116.62
800.182	26160
800.513	26140.57
800.844	25870.52
801.175	26150.74
801.506	25950.97
801.837	25854.93
802.168	25739.68
802.499	25628.49
802.83	25632.56
803.161	25416.97
803.491	25465.56
803.822	25382.4
804.153	25252.68
804.483	25071.67
804.814	25114.83
805.145	24997.32
805.475	25121.39
805.805	24921.39
806.136	24839.59
806.466	24904.44
806.796	24718.69
807.126	24633.26
807.457	24506.94
807.787	24560.27
808.117	24472.37
808.447	24370.22
808.777	24457.9
809.107	24283.44
809.436	24085.48
809.766	24215.65
810.096	24144.01
810.426	24048.2
810.755	23957.58
811.085	23862.66
811.414	23915.09
811.744	23734.31
812.073	23703.35
812.403	23678.49
812.732	23418.16
813.061	23498.15
813.39	23429
813.719	23320.08
814.049	23387.65
814.378	23275.11
814.707	23124.15
815.036	23192.85
815.365	22981.1
815.693	22911.28
816.022	22850.26
816.351	22788.12
816.68	22814.78
817.008	22809.81
817.337	22519.42
817.665	22512.64
817.994	22521.46
818.322	22488.69
818.651	22390.16
818.979	22315.81
819.307	22396.49
819.636	22306.09
819.964	22268.58
820.292	22320.78
820.62	22181.58
820.948	22119.21
821.276	22138.87
821.604	22177.28
821.932	22172.76
822.259	22151.3
822.587	22073.78
822.915	22158.53
823.243	22290.5
823.57	22135.03
823.898	22125.76
824.225	22057.51
824.553	22077.85
824.88	22059.32
825.207	22115.14
825.535	22054.12
825.862	22080.34
826.189	21973.22
826.516	22188.36
826.843	22079.43
827.17	22048.47
827.497	22199.43
827.824	22104.52
828.151	22120.34
828.478	22049.83
828.805	22010.06
829.131	22002.83
829.458	21996.95
829.785	21866.11
830.111	21856.84
830.438	22028.81
830.764	22023.16
831.09	22049.38
831.417	21881.25
831.743	22029.94
832.069	21941.58
832.395	21925.99
832.722	21878.53
833.048	21714.47
833.374	21812.32
833.7	21729.61
834.026	21808.25
834.351	21860.91
834.677	21858.2
835.003	21795.37
835.329	21734.13
835.654	21704.75
835.98	21583.18
836.306	21698.88
836.631	21542.5
836.956	21625.89
837.282	21559.22
837.607	21511.99
837.932	21414.82
838.258	21309.28
838.583	21355.16
838.908	21304.31
839.233	21364.65
839.558	21253.24
839.883	21150.19
840.208	21191.1
840.533	21248.95
840.858	21207.37
841.182	21151.77
841.507	21127.82
841.832	21020.7
842.156	20962.4
842.481	21011.21
842.805	20878.79
843.13	20822.29
843.454	20890.31
843.778	20721.73
844.103	20720.6
844.427	20662.52
844.751	20717.89
845.075	20619.13
845.399	20554.95
845.723	20496.2
846.047	20413.26
846.371	20297.56
846.695	20170.56
847.019	20084.91
847.343	20107.96
847.666	19991.13
847.99	19815.76
848.313	19755.43
848.637	19767.63
848.96	19705.71
849.284	19647.41
849.607	19525.38
849.931	19459.84
850.254	19357.25
850.577	19207.87
850.9	19113.86
851.223	19120.87
851.546	18938.27
851.869	18824.6
852.192	18987.76
852.515	18763.81
852.838	18766.75
853.161	18626.19
853.483	18566.98
853.806	18519.53
854.129	18348.23
854.451	18358.63
854.774	18371.51
855.096	18257.39
855.419	18245.86
855.741	18166.54
856.063	18075.25
856.385	17997.28
856.708	17955.7
857.03	17823.73
857.352	17891.97
857.674	17702.37
857.996	17743.5
858.318	17643.39
858.64	17710.96
858.961	17623.05
859.283	17489.05
859.605	17488.37
859.926	17492.44
860.248	17468.93
860.57	17325.43
860.891	17461.25
861.212	17255.61
861.534	17282.72
861.855	17298.77
862.176	17327.47
862.498	17277.53
862.819	17230.52
863.14	17120.02
863.461	17034.14
863.782	17081.82
864.103	17033.01
864.424	16946.46
864.745	17103.52
865.065	16897.87
865.386	16827.14
865.707	16834.37
866.027	16776.3
866.348	16657.88
866.668	16772.68
866.989	16689.29
867.309	16654.72
867.63	16709.86
867.95	16654.94
868.27	16513.93
868.59	16554.83
868.91	16477.55
869.23	16464.21
869.55	16426.93
869.87	16453.82
870.19	16383.31
870.51	16434.61
870.83	16350.77
871.15	16306.25
871.469	16312.35
871.789	16318.23
872.109	16294.73
872.428	16170.89
872.748	16204.56
873.067	16195.75
873.386	16207.27
873.706	16167.05
874.025	15960.05
874.344	15983.77
874.663	15938.13
874.982	15950.33
875.301	15982.19
875.62	15825.13
875.939	15911.69
876.258	15861.74
876.577	15757.79
876.896	15790.56
877.214	15713.95
877.533	15713.05
877.852	15688.19
878.17	15740.84
878.489	15691.58
878.807	15739.26
879.125	15607.06
879.444	15651.58
879.762	15593.95
880.08	15666.95
880.398	15482.77
880.716	15438.7
881.034	15400.06
881.352	15395.99
881.67	15519.38
881.988	15406.39
882.306	15316
882.624	15338.82
882.941	15293.85
883.259	15162.78
883.577	15251.14
883.894	15054.08
884.212	15113.74
884.529	15118.26
884.846	15153.74
885.164	15029
885.481	14991.94
885.798	15006.17
886.115	14846.18
886.432	14750.59
886.75	14826.06
887.067	14746.07
887.383	14756.91
887.7	14771.38
888.017	14584.72
888.334	14714.2
888.651	14627.65
888.967	14529.35
889.284	14458.39
889.6	14521.44
889.917	14432.63
890.233	14469.69
890.55	14366.19
890.866	14460.42
891.182	14368.22
891.498	14267.21
891.815	14145.4
892.131	14106.54
892.447	14091.17
892.763	14064.96
893.079	14079.87
893.395	14084.16
893.71	14020.66
894.026	13857.95
894.342	13798.97
894.657	13775.92
894.973	13741.12
895.289	13735.02
895.604	13776.83
895.92	13651.86
896.235	13497.96
896.55	13533.22
896.865	13512.43
897.181	13478.53
897.496	13445.76
897.811	13356.73
898.126	13322.38
898.441	13298.2
898.756	13252.55
899.071	13203.28
899.386	13156.05
899.7	13052.78
900.015	12954.25
900.33	12942.27
900.644	12960.58
900.959	12852.56
901.273	12873.35
901.588	12812.11
901.902	12712.67
902.216	12717.19
902.531	12697.99
902.845	12635.39
903.159	12589.29
903.473	12491.44
903.787	12465
904.101	12465.22
904.415	12347.94
904.729	12350.65
905.042	12269.75
905.356	12272.46
905.67	12215.96
905.984	12216.87
906.297	12192.46
906.611	12075.63
906.924	12093.71
907.237	11987.95
907.551	11928.74
907.864	11843.77
908.177	11896.42
908.491	11783.89
908.804	11759.03
909.117	11680.38
909.43	11601.74
909.743	11644.45
910.056	11606.04
910.368	11591.57
910.681	11429.32
910.994	11373.5
911.307	11351.35
911.619	11259.83
911.932	11300.28
912.244	11253.05
912.557	11209.66
912.869	11058.25
913.181	11061.87
913.494	11018.71
913.806	10968.99
914.118	10948.65
914.43	10837.7
914.742	10786.62
915.054	10751.6
915.366	10730.35
915.678	10685.16
915.99	10558.38
916.302	10540.75
916.613	10542.79
916.925	10474.99
917.236	10435.67
917.548	10420.08
917.859	10450.13
918.171	10352.06
918.482	10297.6
918.794	10269.12
919.105	10266.18
919.416	10189.12
919.727	10099.41
920.038	10102.8
920.349	10079.98
920.66	9957.49
920.971	10004.04
921.282	9942.13
921.593	9893.31
921.903	9770.6
922.214	9783.49
922.525	9837.27
922.835	9764.5
923.146	9619.87
923.456	9601.12
923.767	9552.98
924.077	9545.3
924.387	9435.02
924.697	9474.12
925.008	9416.26
925.318	9376.94
925.628	9351.86
925.938	9281.13
926.248	9241.81
926.558	9238.87
926.867	9221.69
927.177	9161.58
927.487	9109.83
927.796	9047.69
928.106	8955.26
928.416	8999.1
928.725	8942.83
929.034	8851.31
929.344	8857.63
929.653	8863.74
929.962	8788.03
930.271	8767.92
930.581	8672.78
930.89	8645.66
931.199	8647.24
931.508	8607.47
931.817	8591.2
932.125	8541.48
932.434	8472.33
932.743	8453.58
933.051	8407.93
933.36	8342.39
933.669	8276.18
933.977	8328.61
934.286	8280.7
934.594	8267.37
934.902	8112.12
935.21	8221.27
935.519	8136.3
935.827	8130.42
936.135	8009.75
936.443	8069.41
936.751	7955.51
937.059	7912.35
937.367	7924.55
937.674	7844.78
937.982	7785.12
938.29	7800.71
938.597	7783.09
938.905	7701.96
939.213	7656.31
939.52	7621.28
939.827	7626.71
940.135	7554.39
940.442	7569.31
940.749	7534.96
941.056	7515.07
941.363	7454.51
941.67	7418.58
941.977	7334.28
942.284	7286.6
942.591	7275.53
942.898	7307.84
943.205	7244.12
943.511	7220.16
943.818	7201.41
944.125	7162.54
944.431	7129.32
944.738	7065.37
945.044	7080.96
945.35	7028.76
945.657	6944.01
945.963	6918.93
946.269	6920.96
946.575	6916.67
946.881	6874.64
947.187	6868.99
947.493	6849.55
947.799	6818.37
948.105	6787.63
948.41	6739.95
948.716	6734.3
949.022	6661.76
949.327	6610.24
949.633	6580.86
949.938	6602.33
950.244	6655.43
950.549	6508.54
950.854	6533.4
951.16	6447.3
951.465	6389.9
951.77	6436.68
952.075	6444.82
952.38	6378.83
952.685	6370.24
952.99	6309.68
953.294	6277.14
953.599	6203.24
953.904	6226.29
954.209	6215.22
954.513	6176.8
954.818	6147.65
955.122	6127.54
955.426	6072.62
955.731	6055.22
956.035	6019.29
956.339	5989.24
956.643	5988.78
956.948	5903.59
957.252	5901.33
957.556	5942.68
957.86	5885.28
958.163	5859.97
958.467	5802.35
958.771	5802.57
959.075	5725.74
959.378	5690.26
959.682	5704.72
959.985	5723.71
960.289	5693.2
960.592	5641.22
960.896	5586.31
961.199	5585.18
961.502	5571.85
961.805	5515.35
962.108	5517.84
962.411	5463.6
962.714	5479.87
963.017	5403.49
963.32	5420.44
963.623	5383.83
963.926	5344.73
964.228	5338.18
964.531	5298.18
964.833	5315.81
965.136	5240.78
965.438	5245.53
965.741	5192.19
966.043	5239.65
966.345	5187.9
966.648	5139.54
966.95	5135.47
967.252	5102.03
967.554	5119.88
967.856	5090.5
968.158	4996.27
968.46	4969.37
968.761	4978.41
969.063	4914.01
969.365	4932.99
969.666	4940.45
969.968	4922.14
970.269	4846.21
970.571	4875.37
970.872	4820.68
971.174	4799.21
971.475	4804.86
971.776	4766.22
972.077	4754.92
972.378	4742.26
972.679	4738.65
972.98	4654.13
973.281	4676.28
973.582	4644.19
973.883	4634.92
974.183	4596.28
974.484	4592.21
974.785	4548.14
975.085	4568.03
975.386	4558.99
975.686	4517.86
975.986	4491.42
976.287	4490.74
976.587	4419.78
976.887	4425.21
977.187	4393.12
977.487	4365.32
977.787	4345.66
978.087	4326.68
978.387	4359.9
978.687	4263.4
978.987	4323.29
979.286	4226.34
979.586	4208.72
979.885	4239
980.185	4187.02
980.484	4172.33
980.784	4134.14
981.083	4151.77
981.382	4157.64
981.682	4091.88
981.981	4111.77
982.28	4062.73
982.579	4057.08
982.878	4010.3
983.177	4022.51
983.475	4017.76
983.774	3981.38
984.073	3926.92
984.372	3937.54
984.67	3926.69
984.969	3919.46
985.267	3882.85
985.566	3826.58
985.864	3830.2
986.162	3871.55
986.461	3822.51
986.759	3797.88
987.057	3751.55
987.355	3754.94
987.653	3729.63
987.951	3742.51
988.249	3713.14
988.547	3691.44
988.844	3668.62
989.142	3682.63
989.44	3645.79
989.737	3632.91
990.035	3570.09
990.332	3600.37
990.63	3535.97
990.927	3560.37
991.224	3526.25
991.521	3502.52
991.819	3517.66
992.116	3492.13
992.413	3457.32
992.71	3396.53
993.006	3420.49
993.303	3396.31
993.6	3380.49
993.897	3375.97
994.193	3373.03
994.49	3316.09
994.787	3332.58
995.083	3296.88
995.379	3356.08
995.676	3247.61
995.972	3255.52
996.268	3251.45
996.565	3210.78
996.861	3208.74
997.157	3180.27
997.453	3178.46
997.749	3230.66
998.044	3142.08
998.34	3145.02
998.636	3074.06
998.932	3113.6
999.227	3081.06
999.523	3058.69
999.818	3037.67
1000.114	3017.11
1000.409	2967.85
1000.704	2952.03
1001	2993.61
1001.295	2985.7
1001.59	2928.07
1001.885	2960.16
1002.18	2934.63
1002.475	2900.5
1002.77	2904.57
1003.065	2872.03
1003.359	2849.43
1003.654	2848.53
1003.949	2833.61
1004.243	2824.57
1004.538	2797
1004.832	2793.16
1005.127	2756.78
1005.421	2746.16
1005.715	2721.98
1006.009	2750.22
1006.304	2668.87
1006.598	2654.63
1006.892	2667.51
1007.186	2627.06
1007.48	2654.86
1007.773	2624.8
1008.067	2609.66
1008.361	2569.89
1008.655	2562.66
1008.948	2531.92
1009.242	2526.95
1009.535	2532.6
1009.829	2508.87
1010.122	2473.17
1010.415	2506.16
1010.708	2455.99
1011.001	2454.19
1011.295	2422.78
1011.588	2428.88
1011.881	2380.74
1012.173	2365.38
1012.466	2362.66
1012.759	2356.56
1013.052	2330.8
1013.344	2316.79
1013.637	2309.78
1013.93	2287.64
1014.222	2274.08
1014.514	2251.93
1014.807	2245.83
1015.099	2238.37
1015.391	2230.92
1015.683	2219.62
1015.976	2188.21
1016.268	2209.67
1016.56	2169.9
1016.851	2152.95
1017.143	2155.44
1017.435	2148.21
1017.727	2103.69
1018.018	2111.6
1018.31	2086.06
1018.602	2067.76
1018.893	2023.69
1019.185	2019.62
1019.476	2011.49
1019.767	2043.58
1020.058	2005.61
1020.35	1953.18
1020.641	1987.98
1020.932	1954.76
1021.223	1974.43
1021.514	1952.96
1021.804	1911.15
1022.095	1910.47
1022.386	1889.68
1022.677	1894.2
1022.967	1840.87
1023.258	1854.43
1023.548	1837.25
1023.839	1860.3
1024.129	1811.04
1024.419	1837.25
1024.709	1796.8
1025	1789.57
1025.29	1771.94
1025.58	1756.35
1025.87	1728.56
1026.16	1731.95
1026.449	1733.3
1026.739	1735.11
1027.029	1732.4
1027.319	1674.77
1027.608	1702.57
1027.898	1672.96
1028.187	1651.27
1028.477	1655.79
1028.766	1624.38
1029.055	1601.1
1029.344	1619.86
1029.634	1592.74
1029.923	1593.64
1030.212	1579.18
1030.501	1549.8
1030.79	1566.53
1031.078	1536.92
1031.367	1541.44
1031.656	1517.49
1031.945	1489.01
1032.233	1486.98
1032.522	1475.91
1032.81	1477.04
1033.099	1449.24
1033.387	1448.11
1033.675	1434.33
1033.963	1413.76
1034.251	1397.27
1034.54	1407.89
1034.828	1392.29
1035.116	1385.97
1035.403	1366.76
1035.691	1396.81
1035.979	1371.28
1036.267	1328.57
1036.554	1346.87
1036.842	1319.3
1037.129	1297.16
1037.417	1299.19
1037.704	1294.67
1037.992	1304.16
1038.279	1303.93
1038.566	1268.46
1038.853	1268.46
1039.14	1268.46
