Data from orange_diffuse_book_FLMS001491_00082.txt Node
Date: Wed Feb 08 15:30:09 GMT 2017
User: dcchb
Spectrometer: FLMS00149
Trigger mode: 0
Integration Time (sec): 2.000000E-2
Scans to average: 10
Electric dark correction enabled: true
Nonlinearity correction enabled: false
Boxcar width: 0
XAxis mode: Wavelengths
Number of Pixels in Spectrum: 2048
>>>>>Begin Spectral Data<<<<<
341.393	-8.88
341.776	-8.88
342.16	-8.88
342.543	-63.57
342.927	-60.63
343.31	-77.58
343.693	-57.24
344.077	-75.1
344.46	-72.39
344.843	-53.4
345.226	-50.46
345.61	-9.11
345.993	-12.95
346.376	-21.99
346.759	10.1
347.142	11.23
347.525	40.15
347.908	53.26
348.291	106.59
348.674	107.5
349.057	101.4
349.44	137.33
349.823	144.78
350.206	172.58
350.588	195.63
350.971	215.06
351.354	248.28
351.737	269.07
352.119	264.78
352.502	271.11
352.884	279.02
353.267	280.37
353.65	305.23
354.032	313.14
354.414	333.25
354.797	316.31
355.179	336.42
355.562	340.94
355.944	342.29
356.326	335.97
356.709	374.61
357.091	333.03
357.473	360.37
357.855	344.78
358.238	342.29
358.62	341.84
359.002	333.93
359.384	336.42
359.766	327.83
360.148	343.65
360.53	344.78
360.912	335.51
361.294	346.13
361.676	325.57
362.057	336.87
362.439	349.52
362.821	331.67
363.203	330.99
363.584	347.72
363.966	343.88
364.348	344.1
364.729	321.28
365.111	339.58
365.493	330.99
365.874	333.48
366.256	331.22
366.637	337.32
367.019	305.46
367.4	326.7
367.781	314.5
368.163	323.08
368.544	347.72
368.925	337.77
369.306	326.7
369.688	316.98
370.069	310.66
370.45	336.64
370.831	333.71
371.212	329.19
371.593	335.29
371.974	334.38
372.355	307.72
372.736	324.89
373.117	348.17
373.498	313.82
373.879	306.36
374.26	329.86
374.641	323.76
375.021	347.49
375.402	314.05
375.783	338.9
376.163	330.54
376.544	332.12
376.925	349.07
377.305	331.45
377.686	329.86
378.066	330.32
378.447	344.33
378.827	338.9
379.208	358.79
379.588	354.27
379.968	317.21
380.349	342.29
380.729	359.92
381.109	328.96
381.489	358.11
381.87	368.06
382.25	330.77
382.63	349.07
383.01	353.82
383.39	348.85
383.77	349.3
384.15	361.28
384.53	352.24
384.91	370.09
385.29	346.36
385.67	349.3
386.049	360.6
386.429	368.96
386.809	361.28
387.189	361.5
387.568	374.16
387.948	361.05
388.328	361.5
388.707	368.06
389.087	377.09
389.466	355.17
389.846	370.09
390.225	378.22
390.605	371.9
390.984	358.79
391.363	373.03
391.743	385
392.122	401.95
392.501	386.13
392.881	396.53
393.26	398.56
393.639	399.92
394.018	359.47
394.397	375.96
394.776	384.55
395.155	393.82
395.534	404.44
395.913	378.45
396.292	419.13
396.671	391.78
397.05	418.22
397.429	406.92
397.808	401.73
398.186	402.4
398.565	411.9
398.944	430.2
399.323	402.63
399.701	428.17
400.08	422.97
400.458	377.09
400.837	409.41
401.215	413.7
401.594	388.85
401.972	443.08
402.351	411.67
402.729	450.54
403.107	412.12
403.486	416.19
403.864	413.03
404.242	423.2
404.62	433.36
404.999	411.67
405.377	451.44
405.755	426.58
406.133	437.43
406.511	446.92
406.889	430.65
407.267	443.76
407.645	448.96
408.023	446.47
408.401	450.54
408.779	434.49
409.156	453.02
409.534	463.42
409.912	459.13
410.29	476.08
410.667	459.8
411.045	480.14
411.422	478.79
411.8	503.87
412.178	498.9
412.555	463.42
412.933	488.05
413.31	506.13
413.687	495.06
414.065	503.42
414.442	508.84
414.819	512.01
415.197	502.97
415.574	524.21
415.951	514.49
416.328	508.39
416.705	502.52
417.082	507.03
417.46	551.55
417.837	529.86
418.214	538.9
418.591	550.42
418.967	541.84
419.344	556.98
419.721	553.14
420.098	555.62
420.475	543.42
420.852	567.15
421.228	572.57
421.605	555.4
421.982	557.2
422.358	606.47
422.735	583.42
423.111	585
423.488	571.21
423.864	614.6
424.241	592.68
424.617	584.77
424.994	587.03
425.37	594.04
425.746	599.46
426.123	606.69
426.499	608.95
426.875	618.44
427.251	600.37
427.627	630.42
428.003	643.08
428.379	617.54
428.756	624.09
429.132	634.94
429.507	651.89
429.883	657.77
430.259	660.25
430.635	682.85
431.011	678.33
431.387	656.41
431.763	677.43
432.138	698.22
432.514	713.13
432.89	685.11
433.265	698.22
433.641	690.98
434.016	697.99
434.392	719.68
434.767	729.4
435.143	722.62
435.518	750.19
435.894	737.76
436.269	744.99
436.644	742.51
437.02	743.86
437.395	760.59
437.77	779.12
438.145	766.69
438.52	767.82
438.895	785.22
439.271	803.3
439.646	808.72
440.021	789.06
440.395	822.96
440.77	800.59
441.145	787.71
441.52	833.81
441.895	818.44
442.27	831.77
442.645	818.21
443.019	836.52
443.394	832.22
443.769	848.04
444.143	858.44
444.518	839.91
444.892	839.23
445.267	847.59
445.641	864.77
446.016	850.08
446.39	850.75
446.764	889.4
447.139	866.57
447.513	871.77
447.887	901.83
448.262	878.78
448.636	875.61
449.01	891.21
449.384	901.15
449.758	892.11
450.132	895.05
450.506	896.4
450.88	898.21
451.254	916.97
451.628	908.38
452.002	947.25
452.376	935.27
452.75	959.9
453.123	937.08
453.497	974.82
453.871	936.85
454.244	967.59
454.618	985.67
454.992	985.44
455.365	978.21
455.739	990.41
456.112	1023.41
456.486	1014.14
456.859	1025.67
457.232	1022.05
457.606	1039.68
457.979	1031.99
458.352	1056.85
458.725	1064.99
459.099	1056.4
459.472	1068.6
459.845	1085.78
460.218	1069.96
460.591	1066.34
460.964	1074.7
461.337	1155.83
461.71	1126.91
462.083	1142.5
462.456	1144.53
462.829	1136.62
463.201	1142.72
463.574	1176.17
463.947	1186.11
464.32	1208.94
464.692	1201.48
465.065	1194.93
465.438	1205.32
465.81	1215.04
466.183	1213.91
466.555	1229.28
466.928	1251.42
467.3	1243.74
467.672	1241.93
468.045	1262.72
468.417	1312.89
468.789	1285.77
469.161	1307.24
469.534	1324.64
469.906	1336.39
470.278	1332.32
470.65	1348.14
471.022	1380.91
471.394	1385.88
471.766	1392.44
472.138	1437.41
472.51	1422.94
472.882	1446.67
473.253	1461.36
473.625	1510.85
473.997	1492.32
474.369	1524.41
474.74	1540.68
475.112	1544.07
475.484	1574.13
475.855	1588.14
476.227	1595.37
476.598	1609.83
476.97	1655.93
477.341	1687.79
477.713	1671.3
478.084	1683.95
478.455	1720.79
478.827	1745.87
479.198	1780.45
479.569	1787.68
479.94	1855.7
480.311	1826.32
480.682	1889.6
481.053	1866.1
481.424	1920.33
481.795	1964.4
482.166	2002.59
482.537	2020.44
482.908	2007.56
483.279	2067.9
483.65	2083.94
484.021	2112.87
484.391	2163.26
484.762	2165.3
485.133	2190.15
485.503	2261.79
485.874	2279.19
486.244	2298.17
486.615	2314.44
486.985	2359.64
487.356	2415.91
487.726	2379.98
488.097	2472.63
488.467	2478.73
488.837	2517.15
489.207	2584.27
489.578	2613.19
489.948	2626.53
490.318	2659.75
490.688	2671.27
491.058	2711.04
491.428	2783.36
491.798	2791.49
492.168	2809.35
492.538	2837.37
492.908	2897.48
493.278	2952.17
493.648	2969.34
494.017	3006.86
494.387	3013.18
494.757	3025.61
495.126	3079.62
495.496	3136.8
495.866	3160.52
496.235	3207.53
496.605	3189
496.974	3268.32
497.344	3266.74
497.713	3292.72
498.082	3350.35
498.452	3372.95
498.821	3403.91
499.19	3434.42
499.559	3515.54
499.928	3497.69
500.298	3488.88
500.667	3540.85
501.036	3586.05
501.405	3575.88
501.774	3595.32
502.143	3654.97
502.512	3690.23
502.88	3723.9
503.249	3749.89
503.618	3763.67
503.987	3796.21
504.356	3821.75
504.724	3881.18
505.093	3903.33
505.462	3881.41
505.83	3948.07
506.199	3929.54
506.567	3989.88
506.936	4004.34
507.304	4041.86
507.672	4090.44
508.041	4074.17
508.409	4141.06
508.777	4157.11
509.145	4192.14
509.514	4216.99
509.882	4249.99
510.25	4278.01
510.618	4311.68
510.986	4333.6
511.354	4347.84
511.722	4415.41
512.09	4437.33
512.458	4478.46
512.826	4465.35
513.193	4520.04
513.561	4548.06
513.929	4577.89
514.297	4618.57
514.664	4642.52
515.032	4662.18
515.4	4687.49
515.767	4695.17
516.135	4754.83
516.502	4726.81
516.869	4865.11
517.237	4857.2
517.604	4849.97
517.972	4911.66
518.339	5005.45
518.706	4921.16
519.073	5003.64
519.44	4993.92
519.808	5097.87
520.175	5107.82
520.542	5140.59
520.909	5187.36
521.276	5166.8
521.643	5248.15
522.009	5248.6
522.376	5287.02
522.743	5341.71
523.11	5364.99
523.477	5456.28
523.843	5446.79
524.21	5485.43
524.577	5543.29
524.943	5558.65
525.31	5578.31
525.676	5687.24
526.043	5654.47
526.409	5679.33
526.776	5763.62
527.142	5744.64
527.508	5805.2
527.874	5865.09
528.241	5893.33
528.607	5912.77
528.973	5946.89
529.339	5913.67
529.705	5993.44
530.071	6079.54
530.437	6091.07
530.803	6135.81
531.169	6175.81
531.535	6144.17
531.901	6242.25
532.267	6235.47
532.632	6242.7
532.998	6324.96
533.364	6330.84
533.73	6351.63
534.095	6393.89
534.461	6401.34
534.826	6411.96
535.192	6434.34
535.557	6479.08
535.923	6490.38
536.288	6521.34
536.653	6576.03
537.019	6581.9
537.384	6611.28
537.749	6619.19
538.114	6654.9
538.479	6658.51
538.845	6674.1
539.21	6673.2
539.575	6757.04
539.94	6822.57
540.305	6797.49
540.67	6820.09
541.034	6902.35
541.399	6946.19
541.764	6951.16
542.129	6987.54
542.494	6993.64
542.858	6977.15
543.223	6968.56
543.587	7064.6
543.952	7110.48
544.316	7114.54
544.681	7148.89
545.045	7147.54
545.41	7242.68
545.774	7259.17
546.138	7283.13
546.503	7364.03
546.867	7322.45
547.231	7409.23
547.595	7432.5
547.959	7412.39
548.324	7494.42
548.688	7503.23
549.052	7528.54
549.416	7547.3
549.779	7672.04
550.143	7633.4
550.507	7704.13
550.871	7784.81
551.235	7740.74
551.599	7800.85
551.962	7907.52
552.326	7955.43
552.689	7945.71
553.053	8017.35
553.417	7962.88
553.78	8156.1
554.143	8092.82
554.507	8154.97
554.87	8225.7
555.234	8325.13
555.597	8337.56
555.96	8419.6
556.323	8420.72
556.686	8411.69
557.05	8518.58
557.413	8586.82
557.776	8674.28
558.139	8711.56
558.502	8768.06
558.865	8825.69
559.228	8930.54
559.59	8968.28
559.953	8957.66
560.316	9087.6
560.679	9131.21
561.041	9289.18
561.404	9340.93
561.767	9390.19
562.129	9397.65
562.492	9535.5
562.854	9571.2
563.217	9690.07
563.579	9611.43
563.941	9840.57
564.304	9916.28
564.666	10036.28
565.028	10086.9
565.39	10164.86
565.753	10351.75
566.115	10420.45
566.477	10531.18
566.839	10619.31
567.201	10700.89
567.563	10865.63
567.925	11059.98
568.287	11034.89
568.648	11137.94
569.01	11205.28
569.372	11390.59
569.734	11504.71
570.095	11724.37
570.457	11862.44
570.819	11989.9
571.18	12071.93
571.542	12169.55
571.903	12357.57
572.265	12624.46
572.626	12682.99
572.987	12862.42
573.349	13080.26
573.71	13296.3
574.071	13516.86
574.432	13662.17
574.794	13903.74
575.155	13996.17
575.516	14182.16
575.877	14473.67
576.238	14628.25
576.599	14919.54
576.96	15178.97
577.32	15294.44
577.681	15544.15
578.042	15838.83
578.403	16067.76
578.763	16382.1
579.124	16717.68
579.485	16981.86
579.845	17313.6
580.206	17594.72
580.566	17874.26
580.927	18110.64
581.287	18519.89
581.648	18835.14
582.008	19177.73
582.368	19422.02
582.728	19728.68
583.089	20202.11
583.449	20503.12
583.809	20816.56
584.169	21244.34
584.529	21483.43
584.889	22139.23
585.249	22328.38
585.609	22759.1
585.969	23251.3
586.329	23498.07
586.688	24054.89
587.048	24465.5
587.408	24770.58
587.768	25254.41
588.127	25709.76
588.487	26055.52
588.846	26629.51
589.206	26965.55
589.565	27481.24
589.925	28022.24
590.284	28321.9
590.643	28818.15
591.003	29306.05
591.362	29835.53
591.721	30214.73
592.08	30772.91
592.44	31227.58
592.799	31718.64
593.158	32068.92
593.517	32660.54
593.876	33072.73
594.235	33439.5
594.593	34050.56
594.952	34606.25
595.311	34937.09
595.67	35611.65
596.029	36071.75
596.387	36614.56
596.746	37126.86
597.104	37431.49
597.463	37903.79
597.822	38347.62
598.18	38672.81
598.538	39138.34
598.897	39829.16
599.255	39969.95
599.613	40944.84
599.972	40972.19
600.33	41410.37
600.688	41831.37
601.046	42359.27
601.404	42879.48
601.762	43105.69
602.12	43691.66
602.478	43968.72
602.836	44431.76
603.194	44607.34
603.552	45098.86
603.91	45187.22
604.268	45745.39
604.625	46080.3
604.983	46417.01
605.341	46605.03
605.698	47061.74
606.056	47416.76
606.413	47710.54
606.771	48077.31
607.128	48268.94
607.485	48404.08
607.843	48651.76
608.2	49090.62
608.557	49332.19
608.914	49394.79
609.272	49851.95
609.629	50123.13
609.986	50430.24
610.343	50343.92
610.7	50789.55
611.057	50829.33
611.414	50997.68
611.771	51166.27
612.127	51437.22
612.484	51542.3
612.841	51812.8
613.198	51828.17
613.554	51909.3
613.911	52219.57
614.267	52278.33
614.624	52418.44
614.98	52553.8
615.337	52752.21
615.693	52862.72
616.05	52971.19
616.406	53172.09
616.762	53173.22
617.118	53200.56
617.475	53301.13
617.831	53532.99
618.187	53619.08
618.543	53664.73
618.899	53842.58
619.255	53881.22
619.611	53864.05
619.967	54096.59
620.323	54135
620.678	54115.34
621.034	54110.15
621.39	54174.32
621.746	54143.14
622.101	54573.41
622.457	54308.33
622.812	54397.82
623.168	54556.91
623.523	54539.51
623.879	54676.23
624.234	54541.32
624.589	54677.81
624.945	54680.3
625.3	54825.38
625.655	54677.36
626.01	54781.77
626.365	54887.75
626.72	54801.65
627.075	54916.9
627.43	54932.27
627.785	54905.15
628.14	55021.99
628.495	55009.56
628.85	55110.34
629.205	54991.93
629.559	55163.9
629.914	54966.62
630.269	55088.42
630.623	55076.67
630.978	54923.46
631.332	55110.12
631.687	55167.74
632.041	54974.08
632.396	55138.37
632.75	55011.36
633.104	55117.8
633.459	54976.11
633.813	54952.83
634.167	55001.42
634.521	55019.95
634.875	55008.2
635.229	55030.12
635.583	54948.99
635.937	54886.4
636.291	54890.69
636.645	54934.98
636.999	54814.08
637.352	54947.86
637.706	54867.64
638.06	54933.4
638.413	54812.95
638.767	54776.57
639.121	54859.5
639.474	54767.08
639.828	54706.74
640.181	54757.13
640.534	54802.1
640.888	54800.3
641.241	54625.84
641.594	54744.48
641.947	54801.43
642.301	54734.76
642.654	54852.5
643.007	54758.49
643.36	54774.08
643.713	54598.04
644.066	54818.15
644.419	54568.89
644.771	54405.73
645.124	54145.17
645.477	54109.69
645.83	53964.16
646.182	53893.43
646.535	53765.52
646.888	54004.61
647.24	53796.71
647.593	53931.84
647.945	53859.08
648.298	53721.68
648.65	53677.61
649.002	53565.75
649.355	53776.37
649.707	53698.63
650.059	53796.03
650.411	54108.79
650.763	54220.88
651.115	54546.29
651.467	54316.69
651.819	54360.53
652.171	54353.3
652.523	54269.91
652.875	54309.46
653.227	54149.47
653.578	54446.86
653.93	54348.78
654.282	54200.31
654.633	54131.61
654.985	54242.57
655.337	54295.9
655.688	54209.58
656.039	54345.62
656.391	54065.17
656.742	54210.48
657.094	54171.61
657.445	54238.28
657.796	54181.33
658.147	54184.04
658.498	54183.14
658.849	54184.27
659.2	54098.85
659.551	54040.54
659.902	54147.66
660.253	54127.09
660.604	54182.91
660.955	54004.84
661.306	54201.67
661.656	54165.28
662.007	54049.36
662.358	54139.3
662.708	54060.43
663.059	54057.04
663.409	53892.98
663.76	54091.16
664.11	54095.91
664.461	54162.12
664.811	54084.38
665.161	54074.44
665.511	53946.76
665.862	54076.93
666.212	54069.92
666.562	54099.07
666.912	53966.19
667.262	54001.45
667.612	54034.67
667.962	53932.3
668.312	54001.67
668.662	54102.01
669.011	54043.71
669.361	53968.23
669.711	53890.72
670.06	53885.52
670.41	53751.74
670.76	53752.19
671.109	53830.38
671.459	53874.22
671.808	53818.18
672.157	53830.6
672.507	53591.29
672.856	53661.57
673.205	53647.11
673.554	53778.63
673.904	53634.23
674.253	53706.99
674.602	53683.94
674.951	53249.38
675.3	53092.09
675.649	53568.24
675.998	53538.18
676.346	53584.51
676.695	53650.72
677.044	53370.73
677.393	53464.96
677.741	53459.77
678.09	53457.05
678.438	53431.97
678.787	53483.27
679.135	53359.88
679.484	53214.8
679.832	53371.41
680.181	53178.64
680.529	53220.9
680.877	53111.75
681.225	53036.95
681.573	53334.8
681.922	53054.13
682.27	52930.74
682.618	52985.43
682.966	52854.81
683.314	52937.29
683.661	52860.01
684.009	52658.66
684.357	52672.22
684.705	52694.36
685.053	52716.51
685.4	52606.23
685.748	52577.98
686.095	52461.83
686.443	52366.01
686.79	52373.24
687.138	52352.23
687.485	52356.29
687.832	52139.12
688.18	52226.13
688.527	51990.2
688.874	51985.23
689.221	51923.08
689.568	51875.85
689.915	51772.13
690.262	51768.51
690.609	51646.03
690.956	51644.45
691.303	51591.12
691.65	51458.46
691.997	51298.24
692.344	51154.97
692.69	51209.43
693.037	51128.53
693.383	50953.39
693.73	51014.86
694.077	50820.06
694.423	50898.03
694.769	50765.83
695.116	50576
695.462	50585.72
695.808	50354.31
696.155	50470.47
696.501	50157.03
696.847	50283.13
697.193	49942.12
697.539	50013.3
697.885	49872.52
698.231	49621.9
698.577	49741.67
698.923	49690.6
699.269	49396.6
699.614	49262.81
699.96	49264.17
700.306	49228.01
700.651	49019.43
700.997	48922.94
701.342	48859.89
701.688	48912.77
702.033	48764.97
702.379	48572.66
702.724	48566.34
703.069	48685.2
703.415	48162.05
703.76	48272.33
704.105	48189.62
704.45	48093.35
704.795	47934.04
705.14	47745.57
705.485	47825.34
705.83	47587.15
706.175	47672.8
706.52	47383.32
706.865	47364.33
707.209	47276.65
707.554	47096.77
707.899	47322.53
708.243	46899.71
708.588	46947.4
708.932	46558.48
709.277	46637.35
709.621	46639.83
709.966	46447.75
710.31	46435.54
710.654	46193.29
710.998	46332.95
711.342	46199.62
711.687	46218.6
712.031	45953.07
712.375	45746.3
712.719	45853.86
713.063	45810.7
713.407	45847.99
713.75	45716.24
714.094	45645.28
714.438	45367.32
714.782	45545.62
715.125	45354.67
715.469	45411.39
715.812	45242.58
716.156	45006.88
716.499	44897.05
716.843	45088.69
717.186	44765.53
717.53	44991.29
717.873	44965.3
718.216	44759.43
718.559	44645.99
718.902	44380.68
719.246	44414.58
719.589	44427.01
719.932	44234.25
720.275	44125.77
720.617	44303.4
720.96	44094.14
721.303	44100.69
721.646	44075.61
721.989	43854.37
722.331	43968.72
722.674	43916.06
723.016	43987.7
723.359	43823.18
723.701	43793.81
724.044	43522.85
724.386	43412.8
724.729	43579.8
725.071	43366.7
725.413	43418
725.755	43394.27
726.097	43088.51
726.439	43106.82
726.782	43157.21
727.124	43262.29
727.465	43021.62
727.807	43088.06
728.149	42968.97
728.491	42924.45
728.833	43011.45
729.175	42827.73
729.516	42709.09
729.858	42691.69
730.199	42726.04
730.541	42625.25
730.882	42597.23
731.224	42658.92
731.565	42394.07
731.906	42389.32
732.248	42437.91
732.589	42357.91
732.93	42181.19
733.271	42224.58
733.612	42191.59
733.953	42267.97
734.294	42074.98
734.635	42019.84
734.976	42055.09
735.317	41899.39
735.658	41974.87
735.999	41887.19
736.339	41845.38
736.68	41874.76
737.021	41838.15
737.361	41515
737.702	41845.61
738.042	41637.93
738.383	41608.33
738.723	41651.94
739.063	41405.17
739.404	41618.72
739.744	41499.86
740.084	41406.3
740.424	41375.79
740.764	41202.46
741.104	41376.47
741.444	41080.88
741.784	41028.46
742.124	41096.25
742.464	40980.55
742.804	41015.57
743.143	41011.05
743.483	41014.67
743.823	40778.74
744.162	40794.11
744.502	40851.06
744.841	40591.4
745.181	40864.17
745.52	40657.39
745.86	40819.87
746.199	40594.34
746.538	40454.91
746.877	40518.19
747.216	40663.49
747.556	40538.3
747.895	40470.05
748.234	40334.69
748.573	40284.52
748.911	40214.69
749.25	40098.76
749.589	40012.44
749.928	40097.86
750.267	39988.71
750.605	40023.51
750.944	39897.86
751.283	39863.29
751.621	39870.07
751.96	39630.98
752.298	39492.9
752.636	39639.11
752.975	39493.81
753.313	39321.16
753.651	39468.72
753.989	39272.57
754.327	39221.72
754.666	39031.22
755.004	39173.81
755.342	39096.98
755.679	39013.37
756.017	38770.21
756.355	38985.12
756.693	38563.89
757.031	38820.15
757.368	38564.57
757.706	38541.06
758.044	38376.55
758.381	38367.06
758.719	38345.36
759.056	38278.47
759.394	38079.61
759.731	37960.29
760.068	37848.43
760.405	37697.7
760.743	37504.48
761.08	37593.52
761.417	37470.81
761.754	37289.34
762.091	37356.24
762.428	37290.93
762.765	36961.22
763.102	37127.31
763.438	36850.49
763.775	36726.42
764.112	36831.73
764.449	36750.83
764.785	36569.59
765.122	36384.74
765.458	36240.56
765.795	36298.18
766.131	36109.26
766.467	35982.26
766.804	35943.84
767.14	35726
767.476	35662.04
767.812	35518.54
768.148	35643.06
768.485	35452.1
768.821	35242.84
769.157	35098.67
769.492	35072
769.828	35045.79
770.164	34759.69
770.5	34658.23
770.836	34685.35
771.171	34433.15
771.507	34380.04
771.842	34155.64
772.178	34079.49
772.513	34075.42
772.849	33873.84
773.184	33700.06
773.519	33835.2
773.855	33502.1
774.19	33392.5
774.525	33364.48
774.86	33332.61
775.195	33323.8
775.53	33177.59
775.865	32822.8
776.2	32765.62
776.535	32508.23
776.87	32517.94
777.205	32357.95
777.539	32324.05
777.874	32403.82
778.209	32040.44
778.543	32115.47
778.878	31804.97
779.212	31716.61
779.547	31602.94
779.881	31621.24
780.215	31459.22
780.55	31435.71
780.884	31351.65
781.218	31218.77
781.552	31088.15
781.886	30882.96
782.22	30790.53
782.554	30758.44
782.888	30405.68
783.222	30292.01
783.556	30181.73
783.889	30311.9
784.223	29984.45
784.557	29936.32
784.89	29921.18
785.224	29862.87
785.557	29738.13
785.891	29667.17
786.224	29554.41
786.558	29504.46
786.891	29182.89
787.224	29072.84
787.557	29070.13
787.891	29038.26
788.224	28982.9
788.557	28962.78
788.89	28784.26
789.223	28684.82
789.556	28482.12
789.888	28395.34
790.221	28391.95
790.554	28195.35
790.887	28151.96
791.219	28049.59
791.552	27989.48
791.884	27877.61
792.217	27800.55
792.549	27633.1
792.882	27467
793.214	27458.19
793.546	27584.51
793.879	27265.65
794.211	27032.66
794.543	27220.68
794.875	26976.4
795.207	27149.05
795.539	26844.87
795.871	26824.31
796.203	26585.45
796.535	26553.13
796.867	26462.28
797.198	26485.79
797.53	26495.5
797.862	26290.99
798.193	26347.03
798.525	26034.73
798.856	26171.67
799.188	25810.78
799.519	25827.5
799.85	25663.21
800.182	25765.35
800.513	25674.51
800.844	25493.27
801.175	25522.2
801.506	25428.19
801.837	25283.78
802.168	25233.62
802.499	25164.69
802.83	25078.37
803.161	25126.27
803.491	25042.43
803.822	24944.13
804.153	24772.16
804.483	24645.84
804.814	24514.31
805.145	24406.07
805.475	24554.31
805.805	24416.69
806.136	24291.27
806.466	24405.39
806.796	24325.84
807.126	24094.66
807.457	24007.21
807.787	24027.55
808.117	23983.48
808.447	23870.04
808.777	23898.51
809.107	23773.09
809.436	23762.24
809.766	23720.89
810.096	23638.4
810.426	23485.19
810.755	23534.45
811.085	23550.5
811.414	23427.34
811.744	23281.35
812.073	23281.58
812.403	23076.84
812.732	23110.06
813.061	23097.18
813.39	22900.12
813.719	22831.19
814.049	23086.78
814.378	22826.45
814.707	22736.51
815.036	22709.39
815.365	22534.03
815.693	22470.07
816.022	22501.26
816.351	22380.58
816.68	22199.35
817.008	22310.3
817.337	22143.53
817.665	22080.7
817.994	22131.55
818.322	22092.68
818.651	21938.34
818.979	21893.14
819.307	21989.41
819.636	21876.19
819.964	21749.87
820.292	21817.21
820.62	21830.32
820.948	21784.22
821.276	21759.36
821.604	21700.6
821.932	21733.37
822.259	21797.32
822.587	21724.1
822.915	21517.78
823.243	21709.42
823.57	21751.45
823.898	21649.98
824.225	21601.85
824.553	21678.23
824.88	21570.21
825.207	21608.63
825.535	21566.59
825.862	21712.35
826.189	21524.11
826.516	21553.03
826.843	21594.62
827.17	21550.1
827.497	21634.61
827.824	21638
828.151	21689.75
828.478	21617.44
828.805	21694.73
829.131	21598.23
829.458	21540.61
829.785	21471
830.111	21390.55
830.438	21555.75
830.764	21604.56
831.09	21589.19
831.417	21404.11
831.743	21551.91
832.069	21547.61
832.395	21398.24
832.722	21476.88
833.048	21373.6
833.374	21492.25
833.7	21419.48
834.026	21325.24
834.351	21436.88
834.677	21447.73
835.003	21365.24
835.329	21297.9
835.654	21339.48
835.98	21171.12
836.306	21186.49
836.631	21152.37
836.956	21226.04
837.282	21143.55
837.607	20983.11
837.932	21017.46
838.258	21031.92
838.583	21082.54
838.908	20835.31
839.233	20915.54
839.558	20929.55
839.883	20783.56
840.208	20798.93
840.533	20844.13
840.858	20644.36
841.182	20707.18
841.507	20622.89
841.832	20567.3
842.156	20544.7
842.481	20443.01
842.805	20478.71
843.13	20431.26
843.454	20415.89
843.778	20313.52
844.103	20274.88
844.427	20191.94
844.751	20236.46
845.075	20129.34
845.399	20199.62
845.723	20054.54
846.047	20083.92
846.371	19791.27
846.695	19849.58
847.019	19602.35
847.343	19612.52
847.666	19511.28
847.99	19538.4
848.313	19447.55
848.637	19312.19
848.96	19301.79
849.284	19325.3
849.607	19040.78
849.931	19121.23
850.254	18878.53
850.577	18861.35
850.9	18724.63
851.223	18700
851.546	18612.55
851.869	18438.09
852.192	18634.47
852.515	18357.86
852.838	18452.55
853.161	18310.18
853.483	18118.55
853.806	18130.3
854.129	18146.12
854.451	17949.51
854.774	17937.31
855.096	17935.05
855.419	17775.28
855.741	17875.84
856.063	17694.15
856.385	17643.08
856.708	17552.69
857.03	17502.97
857.352	17546.81
857.674	17398.34
857.996	17295.52
858.318	17221.17
858.64	17337.1
858.961	17345.01
859.283	17236.99
859.605	17163.55
859.926	17221.62
860.248	17096.2
860.57	17127.84
860.891	17020.5
861.212	16945.92
861.534	16929.65
861.855	16877.68
862.176	16825.25
862.498	16875.19
862.819	16792.71
863.14	16716.33
863.461	16616.67
863.782	16678.81
864.103	16735.31
864.424	16631.81
864.745	16658.25
865.065	16584.8
865.386	16487.41
865.707	16469.78
866.027	16465.71
866.348	16371.48
866.668	16406.73
866.989	16367.41
867.309	16298.03
867.63	16260.29
867.95	16384.58
868.27	16120.86
868.59	16188.66
868.91	16155.44
869.23	16140.07
869.55	15949.11
869.87	16124.25
870.19	16060.98
870.51	16102.1
870.83	16121.99
871.15	15957.02
871.469	15973.07
871.789	16002.45
872.109	15889.23
872.428	15855.56
872.748	15860.3
873.067	15962.22
873.386	15863.69
873.706	15791.83
874.025	15712.74
874.344	15763.36
874.663	15757.71
874.982	15631.61
875.301	15617.15
875.62	15641.33
875.939	15512.74
876.258	15523.36
876.577	15559.75
876.896	15540.76
877.214	15397.94
877.533	15510.26
877.852	15430.03
878.17	15428.68
878.489	15387.32
878.807	15429.35
879.125	15355.46
879.444	15336.48
879.762	15221.9
880.08	15251.28
880.398	15146.65
880.716	15262.13
881.034	15098.29
881.352	15120.89
881.67	15306.87
881.988	15108.01
882.306	15089.02
882.624	15052.41
882.941	14981.23
883.259	14848.58
883.577	14802.48
883.894	14831.63
884.212	14781.69
884.529	14774.91
884.846	14780.56
885.164	14733.55
885.481	14688.81
885.798	14691.29
886.115	14534.69
886.432	14598.19
886.75	14649.49
887.067	14509.6
887.383	14475.03
887.7	14489.04
888.017	14355.48
888.334	14391.42
888.651	14396.84
888.967	14395.71
889.284	14309.38
889.6	14183.51
889.917	14204.53
890.233	14117.98
890.55	14075.04
890.866	14173.12
891.182	14032.55
891.498	13972.44
891.815	13966.57
892.131	13906.68
892.447	13866.01
892.763	13773.8
893.079	13789.4
893.395	13726.35
893.71	13680.25
894.026	13673.92
894.342	13645.45
894.657	13506.47
894.973	13557.09
895.289	13461.72
895.604	13490.65
895.92	13315.74
896.235	13347.15
896.55	13264.67
896.865	13308.05
897.181	13250.43
897.496	13223.54
897.811	13112.13
898.126	13086.59
898.441	13027.38
898.756	13057.67
899.071	12986.48
899.386	12991.9
899.7	12824.68
900.015	12798.91
900.33	12669.88
900.644	12661.74
900.959	12699.03
901.273	12635.98
901.588	12548.07
901.902	12589.65
902.216	12383.11
902.531	12476.44
902.845	12455.2
903.159	12271.47
903.473	12290.68
903.787	12185.82
904.101	12168.2
904.415	12199.38
904.729	12079.84
905.042	11960.97
905.356	11977.47
905.67	11984.47
905.984	11960.97
906.297	11867.41
906.611	11735.89
906.924	11751.48
907.237	11771.15
907.551	11701.54
907.864	11666.06
908.177	11618.61
908.491	11562.79
908.804	11495.22
909.117	11473.3
909.43	11476.01
909.743	11420.87
910.056	11362.34
910.368	11348.78
910.681	11212.29
910.994	11129.81
911.307	11186.53
911.619	11023.59
911.932	11074.21
912.244	11011.62
912.557	11008.91
912.869	10887.33
913.181	10879.87
913.494	10890.04
913.806	10775.01
914.118	10709.25
914.43	10629.71
914.742	10602.59
915.054	10617.28
915.366	10582.7
915.678	10505.42
915.99	10490.73
916.302	10356.27
916.613	10315.36
916.925	10329.38
917.236	10294.12
917.548	10250.73
917.859	10223.16
918.171	10170.96
918.482	10134.13
918.794	10079.21
919.105	10099.55
919.416	10021.13
919.727	9933.91
920.038	9855.72
920.349	9883.96
920.66	9839.44
920.971	9866.11
921.282	9785.89
921.593	9750.86
921.903	9673.12
922.214	9639.9
922.525	9588.38
922.835	9505.22
923.146	9436.52
923.456	9442.62
923.767	9367.82
924.077	9364.88
924.387	9319.01
924.697	9248.05
925.008	9225.68
925.318	9200.59
925.628	9224.32
925.938	9184.32
926.248	9058.67
926.558	8985.23
926.867	8951.78
927.177	8969.41
927.487	8970.09
927.796	8821.39
928.106	8883.31
928.416	8789.75
928.725	8747.72
929.034	8665.92
929.344	8741.62
929.653	8690.55
929.962	8589.99
930.271	8509.76
930.581	8483.77
930.89	8438.35
931.199	8458.69
931.508	8379.37
931.817	8404.68
932.125	8401.52
932.434	8359.71
932.743	8281.07
933.051	8257.79
933.36	8215.76
933.669	8149.09
933.977	8089.43
934.286	8067.29
934.594	8094.41
934.902	8008.08
935.21	7989.78
935.519	7944.58
935.827	7978.02
936.135	7947.52
936.443	7831.81
936.751	7797.69
937.059	7755.21
937.367	7705.26
937.674	7729.67
937.982	7723.12
938.29	7682.89
938.597	7654.19
938.905	7574.19
939.213	7435.89
939.52	7506.4
939.827	7466.4
940.135	7460.3
940.442	7397.7
940.749	7416.46
941.056	7484.7
941.363	7352.96
941.67	7312.28
941.977	7196.35
942.284	7195.9
942.591	7118.61
942.898	7107.77
943.205	7153.41
943.511	7100.76
943.818	7125.84
944.125	7070.03
944.431	7020.54
944.738	7010.37
945.044	6893.53
945.35	6879.75
945.657	6904.38
945.963	6801.33
946.269	6835.91
946.575	6801.33
946.881	6731.05
947.187	6691.5
947.493	6707.32
947.799	6673.65
948.105	6621.22
948.41	6590.72
948.716	6576.93
949.022	6504.84
949.327	6535.58
949.633	6468.91
949.938	6473.88
950.244	6449.25
950.549	6421.91
950.854	6315.47
951.16	6326.77
951.465	6365.19
951.77	6234.12
952.075	6223.72
952.38	6239.99
952.685	6278.18
952.99	6127.68
953.294	6099.66
953.599	6117.51
953.904	6127.45
954.209	6052.2
954.513	6058.98
954.818	6023.95
955.122	5961.81
955.426	5938.3
955.731	5939.89
956.035	5898.53
956.339	5875.93
956.643	5844.07
956.948	5842.94
957.252	5834.35
957.556	5808.36
957.86	5744.41
958.163	5748.7
958.467	5685.2
958.771	5710.97
959.075	5701.47
959.378	5642.04
959.682	5622.15
959.985	5551.65
960.289	5571.08
960.592	5518.65
960.896	5478.2
961.199	5458.09
961.502	5506.23
961.805	5468.26
962.108	5396.85
962.411	5368.83
962.714	5339.45
963.017	5309.17
963.32	5359.34
963.623	5311.43
963.926	5254.48
964.228	5240.02
964.531	5193.01
964.833	5235.27
965.136	5167.93
965.438	5175.84
965.741	5139.91
966.043	5081.15
966.345	5083.41
966.648	5047.71
966.95	5054.26
967.252	5003.64
967.554	5016.52
967.856	4948.95
968.158	4969.52
968.46	4945.34
968.761	4910.31
969.063	4878.45
969.365	4915.96
969.666	4802.51
969.968	4765.91
970.269	4766.81
970.571	4788.05
970.872	4717.09
971.174	4739.24
971.475	4698.79
971.776	4684.78
972.077	4672.8
972.378	4642.52
972.679	4640.26
972.98	4652.69
973.281	4560.26
973.582	4583.09
973.883	4536.99
974.183	4540.37
974.484	4519.58
974.785	4450.21
975.085	4447.04
975.386	4452.92
975.686	4390.1
975.986	4434.16
976.287	4428.97
976.587	4338.35
976.887	4356.43
977.187	4336.99
977.487	4318.01
977.787	4242.53
978.087	4257.67
978.387	4242.76
978.687	4225.36
978.987	4185.81
979.286	4171.35
979.586	4189.88
979.885	4139.93
980.185	4118.01
980.484	4110.56
980.784	4083.89
981.083	4021.74
981.382	4025.59
981.682	4072.82
981.981	3987.4
982.28	4022.87
982.579	3932.71
982.878	3981.75
983.177	3958.92
983.475	3908.53
983.774	3879.38
984.073	3838.02
984.372	3875.53
984.67	3835.53
984.969	3822.43
985.267	3819.49
985.566	3803.67
985.864	3799.6
986.162	3769.55
986.461	3754.63
986.759	3731.81
987.057	3716.22
987.355	3713.73
987.653	3676.67
987.951	3659.04
988.249	3622.66
988.547	3623.79
988.844	3611.13
989.142	3634.64
989.44	3583.79
989.737	3548.54
990.035	3545.82
990.332	3515.54
990.63	3492.94
990.927	3483.23
991.224	3464.7
991.521	3421.53
991.819	3453.85
992.116	3456.79
992.413	3431.93
992.71	3373.17
993.006	3367.3
993.303	3389.22
993.6	3380.63
993.897	3324.36
994.193	3318.71
994.49	3281.88
994.787	3266.06
995.083	3254.99
995.379	3217.47
995.676	3216.79
995.972	3208.21
996.268	3177.47
996.565	3182.44
996.861	3173.18
997.157	3142.45
997.453	3145.84
997.749	3099.73
998.044	3093.63
998.34	3091.37
998.636	3056.8
998.932	3058.83
999.227	3031.04
999.523	3026.29
999.818	2992.62
1000.114	2963.69
1000.409	2973.86
1000.704	2961.21
1001	2938.84
1001.295	2908.78
1001.59	2911.49
1001.885	2896.8
1002.18	2851.83
1002.475	2871.04
1002.77	2861.1
1003.065	2824.71
1003.359	2817.26
1003.654	2781.55
1003.949	2792.62
1004.243	2744.04
1004.538	2760.53
1004.832	2700.65
1005.127	2718.95
1005.421	2681.89
1005.715	2658.16
1006.009	2670.82
1006.304	2689.8
1006.598	2631.72
1006.892	2592.86
1007.186	2570.94
1007.48	2575.23
1007.773	2584.27
1008.067	2549.92
1008.361	2535.46
1008.655	2494.33
1008.948	2523.48
1009.242	2499.3
1009.535	2461.79
1009.829	2456.81
1010.122	2433.76
1010.415	2445.06
1010.708	2436.48
1011.001	2396.93
1011.295	2388.79
1011.588	2363.48
1011.881	2366.87
1012.173	2351.05
1012.466	2343.6
1012.759	2315.57
1013.052	2320.55
1013.344	2285.29
1013.637	2267.44
1013.93	2242.58
1014.222	2238.06
1014.514	2244.16
1014.807	2214.11
1015.099	2236.25
1015.391	2206.65
1015.683	2178.86
1015.976	2137.27
1016.268	2186.76
1016.56	2142.25
1016.851	2116.03
1017.143	2089.82
1017.435	2062.47
1017.727	2105.86
1018.018	2077.84
1018.31	2043.49
1018.602	2060.67
1018.893	2014.79
1019.185	2015.47
1019.476	1977.96
1019.767	1997.17
1020.058	2011.4
1020.35	1932.76
1020.641	1945.41
1020.932	1939.54
1021.223	1918.07
1021.514	1921.69
1021.804	1886.43
1022.095	1884.17
1022.386	1878.3
1022.677	1872.42
1022.967	1858.41
1023.258	1821.35
1023.548	1821.58
1023.839	1804.85
1024.129	1773.22
1024.419	1786.78
1024.709	1763.05
1025	1750.84
1025.29	1703.16
1025.58	1721.01
1025.87	1711.52
1026.16	1709.71
1026.449	1683.95
1026.739	1664.52
1027.029	1690.51
1027.319	1678.98
1027.608	1643.95
1027.898	1624.52
1028.187	1599.66
1028.477	1600.79
1028.766	1600.79
1029.055	1569.61
1029.344	1565.09
1029.634	1575.48
1029.923	1544.97
1030.212	1544.52
1030.501	1560.34
1030.79	1537.97
1031.078	1499.32
1031.367	1522.83
1031.656	1483.28
1031.945	1479.66
1032.233	1476.95
1032.522	1454.13
1032.81	1433.11
1033.099	1442.6
1033.387	1438.76
1033.675	1423.17
1033.963	1394.02
1034.251	1379.78
1034.54	1388.14
1034.828	1384.07
1035.116	1339.33
1035.403	1370.06
1035.691	1385.2
1035.979	1332.78
1036.267	1323.96
1036.554	1324.87
1036.842	1294.58
1037.129	1315.38
1037.417	1285.77
1037.704	1300.23
1037.992	1252.78
1038.279	1281.93
1038.566	1271.53
1038.853	1271.53
1039.14	1271.53
