Data from orange_diffuse_book_FLMS001491_00007.txt Node
Date: Wed Feb 08 15:29:03 GMT 2017
User: dcchb
Spectrometer: FLMS00149
Trigger mode: 0
Integration Time (sec): 2.000000E-2
Scans to average: 10
Electric dark correction enabled: true
Nonlinearity correction enabled: false
Boxcar width: 0
XAxis mode: Wavelengths
Number of Pixels in Spectrum: 2048
>>>>>Begin Spectral Data<<<<<
341.393	-11.89
341.776	-11.89
342.16	-11.89
342.543	-58.22
342.927	-45.34
343.31	-68.39
343.693	-83.08
344.077	-77.43
344.46	-73.13
344.843	-67.71
345.226	-34.72
345.61	-20.71
345.993	-29.29
346.376	-3.98
346.759	18.39
347.142	38.95
347.525	63.81
347.908	47.09
348.291	69.01
348.674	96.58
349.057	124.6
349.44	125.05
349.823	146.97
350.206	160.98
350.588	200.08
350.971	225.16
351.354	244.15
351.737	257.25
352.119	264.71
352.502	272.39
352.884	274.88
353.267	293.64
353.65	320.98
354.032	341.54
354.414	328.89
354.797	328.89
355.179	361.21
355.562	333.41
355.944	346.97
356.326	358.04
356.709	341.32
357.091	346.29
357.473	359.85
357.855	366.85
358.238	348.1
358.62	363.01
359.002	353.75
359.384	352.84
359.766	365.05
360.148	372.05
360.53	357.59
360.912	342.67
361.294	355.56
361.676	356.91
362.057	364.82
362.439	343.58
362.821	343.8
363.203	358.95
363.584	351.26
363.966	351.94
364.348	329.34
364.729	352.39
365.111	338.15
365.493	330.92
365.874	331.6
366.256	343.58
366.637	329.79
367.019	334.77
367.4	342.45
367.781	324.14
368.163	326.4
368.544	332.73
368.925	315.1
369.306	339.51
369.688	332.73
370.069	358.04
370.45	344.26
370.831	336.35
371.212	345.61
371.593	346.52
371.974	322.11
372.355	333.86
372.736	344.03
373.117	341.77
373.498	347.19
373.879	351.71
374.26	338.83
374.641	342
375.021	344.93
375.402	338.38
375.783	343.13
376.163	355.78
376.544	354.88
376.925	346.29
377.305	338.38
377.686	355.1
378.066	351.94
378.447	331.15
378.827	365.72
379.208	352.39
379.588	364.82
379.968	375.44
380.349	358.04
380.729	379.51
381.109	352.17
381.489	363.92
381.87	364.37
382.25	360.08
382.63	347.19
383.01	337.25
383.39	378.15
383.77	363.69
384.15	354.88
384.53	342.9
384.91	361.66
385.29	370.92
385.67	366.63
386.049	368.44
386.429	388.32
386.809	360.53
387.189	367.98
387.568	372.73
387.948	367.53
388.328	389.23
388.707	389.68
389.087	394.65
389.466	372.96
389.846	379.06
390.225	393.75
390.605	390.58
390.984	377.7
391.363	397.14
391.743	394.42
392.122	377.48
392.501	397.59
392.881	400.75
393.26	399.62
393.639	377.93
394.018	401.88
394.397	406.18
394.776	405.5
395.155	399.17
395.534	403.01
395.913	389.68
396.292	426.29
396.671	424.25
397.05	416.8
397.429	400.3
397.808	428.32
398.186	381.54
398.565	413.86
398.944	428.77
399.323	425.61
399.701	410.47
400.08	433.97
400.458	418.6
400.837	423.8
401.215	430.13
401.594	429.68
401.972	451.6
402.351	424.03
402.729	415.89
403.107	441.43
403.486	436.91
403.864	440.98
404.242	434.2
404.62	420.64
404.999	445.5
405.377	436.91
405.755	456.12
406.133	438.27
406.511	465.84
406.889	477.13
407.267	478.94
407.645	457.93
408.023	485.95
408.401	472.84
408.779	477.36
409.156	476
409.534	478.72
409.912	476.91
410.29	478.72
410.667	497.7
411.045	493.63
411.422	518.49
411.8	512.61
412.178	501.77
412.555	480.3
412.933	514.65
413.31	508.32
413.687	533.63
414.065	531.6
414.442	523.69
414.819	524.59
415.197	549.67
415.574	520.07
415.951	554.19
416.328	566.4
416.705	535.66
417.082	550.35
417.46	544.93
417.837	581.99
418.214	539.05
418.591	544.48
418.967	557.58
419.344	572.05
419.721	561.2
420.098	580.63
420.475	574.76
420.852	590.8
421.228	593.06
421.605	592.16
421.982	608.66
422.358	590.35
422.735	600.07
423.111	588.77
423.488	596.91
423.864	607.75
424.241	629.67
424.617	629.45
424.994	615.66
425.37	630.12
425.746	615.66
426.123	620.18
426.499	659.73
426.875	655.21
427.251	666.06
427.627	675.1
428.003	691.37
428.379	660.63
428.756	671.93
429.132	672.16
429.507	688.88
429.883	675.32
430.259	711.03
430.635	703.12
431.011	703.34
431.387	712.61
431.763	729.56
432.138	715.77
432.514	726.85
432.89	719.39
433.265	770.23
433.641	750.57
434.016	760.29
434.392	751.03
434.767	788.76
435.143	767.97
435.518	790.12
435.894	797.58
436.269	795.77
436.644	803.45
437.02	796.67
437.395	796.9
437.77	810.91
438.145	839.38
438.52	832.38
438.895	836.67
439.271	844.13
439.646	857.46
440.021	864.69
440.395	856.56
440.77	867.41
441.145	851.14
441.52	855.2
441.895	853.4
442.27	896.78
442.645	879.16
443.019	915.77
443.394	894.75
443.769	890
444.143	890
444.518	899.5
444.892	885.49
445.267	912.83
445.641	932.49
446.016	916.22
446.39	932.94
446.764	937.46
447.139	913.73
447.513	925.71
447.887	913.96
448.262	951.7
448.636	949.21
449.01	939.95
449.384	959.83
449.758	966.61
450.132	984.24
450.506	982.43
450.88	1007.74
451.254	995.09
451.628	988.08
452.002	1014.97
452.376	983.79
452.75	1022.43
453.123	1013.17
453.497	1028.76
453.871	1023.11
454.244	1046.61
454.618	1066.27
454.992	1064.24
455.365	1040.96
455.739	1072.37
456.112	1108.53
456.486	1108.53
456.859	1134.74
457.232	1108.3
457.606	1113.95
457.979	1111.02
458.352	1157.79
458.725	1156.44
459.099	1164.57
459.472	1171.35
459.845	1204.57
460.218	1199.83
460.591	1205.25
460.964	1210.22
461.337	1212.93
461.71	1247.51
462.083	1212.26
462.456	1231.01
462.829	1239.6
463.201	1267.17
463.574	1294.97
463.947	1260.62
464.32	1298.81
464.692	1334.74
465.065	1292.93
465.438	1335.19
465.81	1337.68
466.183	1355.08
466.555	1381.29
466.928	1389.2
467.3	1376.77
467.672	1393.72
468.045	1434.62
468.417	1446.6
468.789	1429.43
469.161	1466.26
469.534	1487.73
469.906	1513.27
470.278	1522.76
470.65	1499.03
471.022	1540.38
471.394	1576.99
471.766	1534.51
472.138	1561.17
472.51	1568.18
472.882	1611.57
473.253	1608.63
473.625	1651.57
473.997	1686.82
474.369	1683.2
474.74	1682.53
475.112	1737.21
475.484	1747.61
475.855	1794.39
476.227	1748.74
476.598	1848.62
476.97	1867.38
477.341	1872.8
477.713	1877.32
478.084	1885.68
478.455	1937.43
478.827	1964.55
479.198	2010.65
479.569	2043.65
479.94	2047.94
480.311	2101.5
480.682	2122.51
481.053	2146.02
481.424	2173.81
481.795	2213.36
482.166	2209.29
482.537	2269.18
482.908	2279.8
483.279	2316.86
483.65	2381.49
484.021	2385.56
484.391	2455.61
484.762	2481.83
485.133	2501.71
485.503	2510.75
485.874	2597.53
486.244	2602.05
486.615	2600.47
486.985	2643.86
487.356	2749.39
487.726	2745.55
488.097	2786
488.467	2790.29
488.837	2853.34
489.207	2905.55
489.578	2949.84
489.948	2991.42
490.318	3023.51
490.688	3084.52
491.058	3103.05
491.428	3115.71
491.798	3137.18
492.168	3240.45
492.538	3227.8
492.908	3246.33
493.278	3339.88
493.648	3348.02
494.017	3379.2
494.387	3420.33
494.757	3445.42
495.126	3521.8
495.496	3542.36
495.866	3524.74
496.235	3582.82
496.605	3606.77
496.974	3665.53
497.344	3682.7
497.713	3761.12
498.082	3752.75
498.452	3793.66
498.821	3858.29
499.19	3819.42
499.559	3902.58
499.928	3943.03
500.298	3986.19
500.667	3991.62
501.036	4032.07
501.405	4059.41
501.774	4050.37
502.143	4128.11
502.512	4146.19
502.88	4240.43
503.249	4211.5
503.618	4233.87
503.987	4257.15
504.356	4312.97
504.724	4340.31
505.093	4345.28
505.462	4370.82
505.83	4410.82
506.199	4436.35
506.567	4533.75
506.936	4494.66
507.304	4555.45
507.672	4549.34
508.041	4566.74
508.409	4665.95
508.777	4740.98
509.145	4735.1
509.514	4748.66
509.882	4826.85
510.25	4804.48
510.618	4841.31
510.986	4888.09
511.354	4919.73
511.722	4955.21
512.09	5005.83
512.458	4973.06
512.826	5038.6
513.193	5089.44
513.561	5081.76
513.929	5158.59
514.297	5178.25
514.664	5210.8
515.032	5234.3
515.4	5323.33
515.767	5293.5
516.135	5391.13
516.502	5406.5
516.869	5424.35
517.237	5473.39
517.604	5480.84
517.972	5517.91
518.339	5597.23
518.706	5622.31
519.073	5626.15
519.44	5653.04
519.808	5704.57
520.175	5731.01
520.542	5806.26
520.909	5833.15
521.276	5843.77
521.643	5915.41
522.009	5913.6
522.376	6008.97
522.743	6056.42
523.11	6084.9
523.477	6120.38
523.843	6156.08
524.21	6158.79
524.577	6308.39
524.943	6355.62
525.31	6313.37
525.676	6394.04
526.043	6427.71
526.409	6472.91
526.776	6496.86
527.142	6568.95
527.508	6628.16
527.874	6623.87
528.241	6684.88
528.607	6725.11
528.973	6785.9
529.339	6779.12
529.705	6812.11
530.071	6887.81
530.437	6897.08
530.803	6942.5
531.169	7006.68
531.535	6954.03
531.901	6989.73
532.267	7039.9
532.632	7059.56
532.998	7185.88
533.364	7211.42
533.73	7198.09
534.095	7254.13
534.461	7295.03
534.826	7391.08
535.192	7326.45
535.557	7408.25
535.923	7361.93
536.288	7425.88
536.653	7476.05
537.019	7372.09
537.384	7544.75
537.749	7569.6
538.114	7518.98
538.479	7554.91
538.845	7643.73
539.21	7683.27
539.575	7697.28
539.94	7711.97
540.305	7702.48
540.67	7788.35
541.034	7815.25
541.399	7870.61
541.764	7829.03
542.129	7881.69
542.494	7939.99
542.858	7965.3
543.223	7960.33
543.587	8044.17
543.952	8083.94
544.316	8108.57
544.681	8188.57
545.045	8136.37
545.41	8231.96
545.774	8245.52
546.138	8236.48
546.503	8283.71
546.867	8278.51
547.231	8384.95
547.595	8426.76
547.959	8483.25
548.324	8480.31
548.688	8490.71
549.052	8571.61
549.416	8561.89
549.779	8673.53
550.143	8657.71
550.507	8769.57
550.871	8804.82
551.235	8818.61
551.599	8853.19
551.962	8878.04
552.326	8924.37
552.689	8917.36
553.053	8970.92
553.417	8970.02
553.78	9264.25
554.143	9078.26
554.507	9179.96
554.87	9226.28
555.234	9426.73
555.597	9332.72
555.96	9329.33
556.323	9454.98
556.686	9522.55
557.05	9610.23
557.413	9645.93
557.776	9668.98
558.139	9715.99
558.502	9800.51
558.865	9845.7
559.228	9882.99
559.59	9972.03
559.953	10038.46
560.316	10171.79
560.679	10181.29
561.041	10261.51
561.404	10354.84
561.767	10452.24
562.129	10447.27
562.492	10583.31
562.854	10678.9
563.217	10678.9
563.579	10712.8
563.941	10861.95
564.304	10952.57
564.666	11012
565.028	11154.14
565.39	11231.88
565.753	11311.2
566.115	11455.83
566.477	11524.98
566.839	11562.94
567.201	11716.39
567.563	11870.51
567.925	11979.43
568.287	12064.63
568.648	12267.56
569.01	12373.54
569.372	12465.52
569.734	12492.86
570.095	12663.93
570.457	12748.68
570.819	12935.79
571.18	13010.82
571.542	13136.91
571.903	13298.94
572.265	13517.92
572.626	13657.35
572.987	13783.68
573.349	13934.41
573.71	14090.79
574.071	14331.46
574.432	14558.35
574.794	14771.9
575.155	14898.68
575.516	14948.84
575.877	15120.59
576.238	15383.18
576.599	15660.69
576.96	15860.23
577.32	15964.64
577.681	16181.35
578.042	16499.54
578.403	16681.68
578.763	16963.93
579.124	17262.91
579.485	17628.77
579.845	17817.02
580.206	18031.02
580.566	18357.12
580.927	18603.44
581.287	18903.09
581.648	19118.45
582.008	19480.93
582.368	19689.51
582.728	20058.54
583.089	20256.95
583.449	20602.71
583.809	20947.78
584.169	21371.05
584.529	21603.36
584.889	22014.42
585.249	22285.15
585.609	22599.94
585.969	23025.47
586.329	23444.89
586.688	23872
587.048	24139.79
587.408	24525.09
587.768	24875.81
588.127	25214.79
588.487	25495.91
588.846	26144.71
589.206	26330.24
589.565	26829.21
589.925	27294.28
590.284	27604.56
590.643	28073.7
591.003	28516.17
591.362	28997.29
591.721	29377.39
592.08	29747.33
592.44	30336.69
592.799	30675.66
593.158	31115.2
593.517	31559.71
593.876	31889.19
594.235	32365.56
594.593	32744.99
594.952	33160.79
595.311	33607.11
595.67	34042.81
596.029	34706.97
596.387	35213.4
596.746	35685.93
597.104	35842.98
597.463	36313.48
597.822	36907.14
598.18	37056.29
598.538	37512.77
598.897	38144.17
599.255	38201.11
599.613	39070.24
599.972	39082.22
600.33	39761.3
600.688	39935.76
601.046	40440.15
601.404	40957.88
601.762	41206.46
602.12	41663.17
602.478	42090.28
602.836	42483.94
603.194	42635.12
603.552	43085.51
603.91	43345.16
604.268	43778.59
604.625	43893.62
604.983	44405.7
605.341	44497.22
605.698	45133.59
606.056	45342.17
606.413	45592.11
606.771	46004.07
607.128	46258.08
607.485	46338.08
607.843	46675.92
608.2	47040.88
608.557	47378.95
608.914	47403.13
609.272	47894.42
609.629	48078.37
609.986	48444.23
610.343	48399.26
610.7	48861.62
611.057	49043.77
611.414	49122.18
611.771	49268.85
612.127	49583.19
612.484	49715.61
612.841	49915.61
613.198	49997.19
613.554	50114.02
613.911	50481.24
614.267	50443.96
614.624	50681.01
614.98	50796.49
615.337	50912.64
615.693	51151.28
616.05	51167.33
616.406	51408.68
616.762	51317.38
617.118	51415.23
617.475	51530.48
617.831	51745.62
618.187	51782
618.543	52049.56
618.899	52231.03
619.255	52184.48
619.611	52224.93
619.967	52346.28
620.323	52440.97
620.678	52368.2
621.034	52475.32
621.39	52483.68
621.746	52479.16
622.101	52864.68
622.457	52602.09
622.812	52762.54
623.168	52884.8
623.523	52880.5
623.879	52999.82
624.234	52881.86
624.589	53027.39
624.945	53136.77
625.3	53248.85
625.655	53079.37
626.01	53233.94
626.365	53242.53
626.72	53249.08
627.075	53260.61
627.43	53327.27
627.785	53305.58
628.14	53379.47
628.495	53447.94
628.85	53347.38
629.205	53385.35
629.559	53575.17
629.914	53429.64
630.269	53499.92
630.623	53435.29
630.978	53335.63
631.332	53462.86
631.687	53451.11
632.041	53417.89
632.396	53472.8
632.75	53472.35
633.104	53439.36
633.459	53293.37
633.813	53447.04
634.167	53354.84
634.521	53346.93
634.875	53468.74
635.229	53407.04
635.583	53246.82
635.937	53368.85
636.291	53219.7
636.645	53294.95
636.999	53285.24
637.352	53385.35
637.706	53188.97
638.06	53359.59
638.413	53246.59
638.767	53161.4
639.121	53200.27
639.474	52979.71
639.828	53083.66
640.181	53251.34
640.534	53091.8
640.888	53107.39
641.241	52850.45
641.594	53032.59
641.947	53066.94
642.301	53114.62
642.654	53101.29
643.007	53094.28
643.36	53033.27
643.713	53014.06
644.066	53087.95
644.419	52885.02
644.771	52691.35
645.124	52474.19
645.477	52434.86
645.83	52259.05
646.182	52092.05
646.535	52087.98
646.888	52140.18
647.24	52024.48
647.593	52183.8
647.945	52115.55
648.298	52008.43
648.65	51900.19
649.002	51912.17
649.355	51990.36
649.707	51848.66
650.059	52093.63
650.411	52454.07
650.763	52461.98
651.115	52773.16
651.467	52771.8
651.819	52591.02
652.171	52629.44
652.523	52610
652.875	52578.82
653.227	52482.09
653.578	52615.2
653.93	52517.12
654.282	52488.65
654.633	52389.44
654.985	52473.73
655.337	52542.21
655.688	52490.46
656.039	52626.95
656.391	52410.01
656.742	52380.4
657.094	52531.36
657.445	52527.29
657.796	52454.3
658.147	52445.03
658.498	52390.35
658.849	52418.59
659.2	52421.98
659.551	52261.31
659.902	52414.3
660.253	52377.69
660.604	52485.26
660.955	52198.71
661.306	52489.1
661.656	52241.42
662.007	52366.17
662.358	52280.74
662.708	52376.79
663.059	52268.99
663.409	52136.57
663.76	52359.16
664.11	52396.9
664.461	52344.92
664.811	52352.15
665.161	52322.78
665.511	52141.54
665.862	52217.69
666.212	52397.13
666.562	52284.13
666.912	52247.07
667.262	52189.45
667.612	52317.35
667.962	52181.99
668.312	52168.66
668.662	52345.6
669.011	52208.88
669.361	52147.41
669.711	52189.45
670.06	52208.66
670.41	51996.46
670.76	52056.8
671.109	52117.81
671.459	52007.08
671.808	51951.04
672.157	52041.43
672.507	51876.23
672.856	51904.93
673.205	51897.7
673.554	51960.3
673.904	51842.34
674.253	51956.68
674.602	51866.52
674.951	51349.7
675.3	51299.53
675.649	51715.56
675.998	51720.08
676.346	51724.37
676.695	51839.63
677.044	51605.73
677.393	51695
677.741	51694.54
678.09	51565.51
678.438	51526.41
678.787	51640.53
679.135	51572.06
679.484	51336.36
679.832	51493.65
680.181	51414.33
680.529	51525.74
680.877	51305.63
681.225	51299.75
681.573	51530.93
681.922	51196.03
682.27	51152.19
682.618	51161
682.966	51047.56
683.314	51212.98
683.661	50994
684.009	50874.45
684.357	50788.35
684.705	50758.3
685.053	50825.64
685.4	50709.03
685.748	50548.13
686.095	50488.93
686.443	50408.7
686.79	50204.41
687.138	50505.88
687.485	50318.08
687.832	50262.94
688.18	50252.55
688.527	50025.21
688.874	50125.77
689.221	50052.1
689.568	49978.88
689.915	49734.37
690.262	49816.18
690.609	49745.67
690.956	49598.78
691.303	49546.8
691.65	49363.98
691.997	49422.51
692.344	49108.85
692.69	49105.01
693.037	49196.08
693.383	48893.04
693.73	49004.22
694.077	48633.38
694.423	48652.82
694.769	48551.12
695.116	48503.67
695.462	48516.78
695.808	48472.03
696.155	48481.3
696.501	48030.01
696.847	48076.56
697.193	47903.91
697.539	47980.97
697.885	47633.86
698.231	47576.91
698.577	47538.5
698.923	47435
699.269	47286.53
699.614	47079.75
699.96	47073.42
700.306	47132.63
700.651	46934.22
700.997	46641.12
701.342	46584.4
701.688	46572.19
702.033	46430.05
702.379	46400.22
702.724	46371.07
703.069	46422.14
703.415	46004.98
703.76	46016.5
704.105	45861.7
704.45	45821.93
704.795	45600.24
705.14	45517.98
705.485	45565.89
705.83	45306.46
706.175	45408.38
706.52	45138.11
706.865	45052.01
707.209	44900.37
707.554	44837.55
707.899	44905.57
708.243	44604.79
708.588	44639.81
708.932	44312.37
709.277	44231.92
709.621	44352.59
709.966	44063.56
710.31	44223.78
710.654	43879.61
710.998	43923.9
711.342	43922.55
711.687	43795.77
712.031	43574.76
712.375	43345.16
712.719	43490.01
713.063	43594.87
713.407	43650.24
713.75	43398.27
714.094	43352.62
714.438	43146.29
714.782	43060.87
715.125	42965.06
715.469	43065.85
715.812	42852.07
716.156	42745.18
716.499	42594.22
716.843	42792.41
717.186	42541.34
717.53	42698.17
717.873	42583.6
718.216	42474
718.559	42301.57
718.902	42095.7
719.246	42269.71
719.589	42094.35
719.932	41968.7
720.275	41939.32
720.617	41891.41
720.96	41855.48
721.303	41754.24
721.646	41868.14
721.989	41427.47
722.331	41829.49
722.674	41696.16
723.016	41457.3
723.359	41540.01
723.701	41471.99
724.044	41150.19
724.386	41012.11
724.729	41271.99
725.071	41121.94
725.413	41127.82
725.755	41086.24
726.097	40918.33
726.439	40756.98
726.782	40854.83
727.124	40886.24
727.465	40902.29
727.807	40714.27
728.149	40573.26
728.491	40676.98
728.833	40700.94
729.175	40529.64
729.516	40471.56
729.858	40507.95
730.199	40391.79
730.541	40249.2
730.882	40385.92
731.224	40322.41
731.565	40020.73
731.906	40075.64
732.248	40269.76
732.589	40113.38
732.93	39946.83
733.271	39855.99
733.612	39849.88
733.953	40005.36
734.294	39714.97
734.635	39688.76
734.976	39754.07
735.317	39543.23
735.658	39630.23
735.999	39633.39
736.339	39589.55
736.68	39692.6
737.021	39564.69
737.361	39255.32
737.702	39459.61
738.042	39314.53
738.383	39350.69
738.723	39336.45
739.063	39253.74
739.404	39271.37
739.744	39169.22
740.084	39025.73
740.424	39059.17
740.764	38987.53
741.104	39178.04
741.444	38989.79
741.784	38726.07
742.124	38944.6
742.464	38888.78
742.804	38805.17
743.143	38663.02
743.483	38772.17
743.823	38467.77
744.162	38463.93
744.502	38482.91
744.841	38386.87
745.181	38559.52
745.52	38449.7
745.86	38510.03
746.199	38213.77
746.538	38307.33
746.877	38429.36
747.216	38241.57
747.556	38188.01
747.895	38106.65
748.234	38033.66
748.573	37873.67
748.911	37920.44
749.25	37843.16
749.589	37745.08
749.928	37915.92
750.267	37839.32
750.605	37614.24
750.944	37604.75
751.283	37509.61
751.621	37701.69
751.96	37390.97
752.298	37461.92
752.636	37346
752.975	37116.85
753.313	37169.73
753.651	37359.33
753.989	37122.05
754.327	36998.89
754.666	36813.13
755.004	36971.09
755.342	36936.74
755.679	36848.61
756.017	36550.08
756.355	36680.48
756.693	36674.83
757.031	36523.87
757.368	36356.87
757.706	36193.48
758.044	36284.78
758.381	36259.92
758.719	36089.53
759.056	36103.09
759.394	35957.33
759.731	35685.47
760.068	35685.25
760.405	35617.68
760.743	35489.77
761.08	35510.11
761.417	35403
761.754	35377.46
762.091	35206.39
762.428	35189.44
762.765	34866.51
763.102	35036.9
763.438	34896.79
763.775	34831.49
764.112	34772.5
764.449	34738.83
764.785	34592.85
765.122	34360.09
765.458	34223.59
765.795	34177.27
766.131	34135.91
766.467	33909.02
766.804	33714.45
767.14	33693.44
767.476	33778.63
767.812	33533.67
768.148	33683.04
768.485	33426.1
768.821	33255.93
769.157	33135.48
769.492	33065.66
769.828	32951.99
770.164	32725.55
770.5	32645.78
770.836	32648.72
771.171	32428.16
771.507	32441.04
771.842	32139.35
772.178	32193.81
772.513	32153.36
772.849	31960.6
773.184	31877.21
773.519	31871.11
773.855	31459.82
774.19	31560.61
774.525	31425.02
774.86	31385.02
775.195	31311.13
775.53	31252.37
775.865	30894.41
776.2	30822.78
776.535	30672.72
776.87	30639.73
777.205	30498.27
777.539	30384.14
777.874	30449.23
778.209	30060.54
778.543	30051.5
778.878	29998.62
779.212	29899.64
779.547	29768.79
779.881	29853.76
780.215	29519.31
780.55	29579.42
780.884	29436.6
781.218	29348.69
781.552	29331.29
781.886	29152.09
782.22	29071.86
782.554	28880
782.888	28678.88
783.222	28593.23
783.556	28374.48
783.889	28401.6
784.223	28233.01
784.557	28099.46
784.89	28279.12
785.224	27969.97
785.557	27969.97
785.891	27880.71
786.224	27865.34
786.558	27720.71
786.891	27484.56
787.224	27391
787.557	27376.09
787.891	27265.13
788.224	27322.08
788.557	27263.55
788.89	27018.36
789.223	26998.24
789.556	26891.58
789.888	26831.47
790.221	26779.27
790.554	26460.63
790.887	26510.12
791.219	26403.01
791.552	26185.38
791.884	26217.7
792.217	26123.92
792.549	25920.99
792.882	25838.95
793.214	25860.2
793.546	25886.41
793.879	25572.29
794.211	25505.4
794.543	25565.97
794.875	25469.7
795.207	25413.65
795.539	25350.83
795.871	25280.55
796.203	25078.97
796.535	25056.6
796.867	25055.47
797.198	24973.89
797.53	24761.02
797.862	24629.49
798.193	24817.74
798.525	24517.41
798.856	24525.77
799.188	24310.63
799.519	24256.17
799.85	24180.92
800.182	24126.23
800.513	24175.72
800.844	23949.74
801.175	24094.14
801.506	24019.57
801.837	23799.46
802.168	23770.53
802.499	23680.59
802.83	23651.21
803.161	23517.66
803.491	23462.97
803.822	23529.18
804.153	23300.49
804.483	23173.71
804.814	23091.23
805.145	23125.8
805.475	23000.16
805.805	22968.75
806.136	22940.05
806.466	22898.24
806.796	22980.05
807.126	22643.33
807.457	22630.68
807.787	22626.16
808.117	22449.21
808.447	22416.44
808.777	22537.35
809.107	22441.98
809.436	22378.93
809.766	22374.86
810.096	22200.4
810.426	22150.46
810.755	22104.36
811.085	22044.48
811.414	21958.38
811.744	21866.85
812.073	21874.54
812.403	21900.07
812.732	21745.73
813.061	21639.97
813.39	21605.17
813.719	21432.74
814.049	21571.72
814.378	21531.27
814.707	21437.04
815.036	21348
815.365	21121.79
815.693	21065.52
816.022	21113.65
816.351	21020.77
816.68	20934
817.008	21078.4
817.337	20862.81
817.665	20747.56
817.994	20893.55
818.322	20756.83
818.651	20752.76
818.979	20599.77
819.307	20628.47
819.636	20569.71
819.964	20447.68
820.292	20574.23
820.62	20461.02
820.948	20424.86
821.276	20497.85
821.604	20308.25
821.932	20443.39
822.259	20438.19
822.587	20501.01
822.915	20362.71
823.243	20324.52
823.57	20390.06
823.898	20323.39
824.225	20291.75
824.553	20290.62
824.88	20392.32
825.207	20469.83
825.535	20288.82
825.862	20359.78
826.189	20218.54
826.516	20374.92
826.843	20401.58
827.17	20458.3
827.497	20361.81
827.824	20340.79
828.151	20432.09
828.478	20307.57
828.805	20399.77
829.131	20223.06
829.458	20240.23
829.785	20175.37
830.111	20199.33
830.438	20294.69
830.764	20236.84
831.09	20321.13
831.417	20188.48
831.743	20249.27
832.069	20249.04
832.395	20226.67
832.722	20199.55
833.048	20150.74
833.374	20148.48
833.7	20061.03
834.026	20137.86
834.351	20215.6
834.677	20139.89
835.003	20160.01
835.329	20050.86
835.654	20054.02
835.98	19937.64
836.306	20042.04
836.631	19955.94
836.956	19970.63
837.282	19902.84
837.607	19817.87
837.932	19761.15
838.258	19829.62
838.583	19733.13
838.908	19676.86
839.233	19704.43
839.558	19613.58
839.883	19554.6
840.208	19641.15
840.533	19527.93
840.858	19482.96
841.182	19528.61
841.507	19453.13
841.832	19336.53
842.156	19279.35
842.481	19285.91
842.805	19246.36
843.13	19216.98
843.454	19146.25
843.778	19039.81
844.103	19084.1
844.427	18976.99
844.751	19132.24
845.075	18979.47
845.399	18892.92
845.723	18873.71
846.047	18847.05
846.371	18778.12
846.695	18660.39
847.019	18523.44
847.343	18460.84
847.666	18410
847.99	18366.16
848.313	18328.42
848.637	18225.59
848.96	18193.73
849.284	18137.91
849.607	17950.12
849.931	18022.21
850.254	17852.5
850.577	17711.48
850.9	17634.2
851.223	17593.97
851.546	17556.69
851.869	17412.06
852.192	17478.04
852.515	17258.16
852.838	17202.57
853.161	17229.69
853.483	17207.99
853.806	17118.05
854.129	16995.12
854.451	16942.69
854.774	16824.28
855.096	16878.51
855.419	16807.1
855.741	16744.28
856.063	16645.52
856.385	16625.64
856.708	16547.45
857.03	16465.64
857.352	16463.83
857.674	16433.78
857.996	16333.21
858.318	16276.94
858.64	16256.38
858.961	16255.02
859.283	16260
859.605	16085.99
859.926	16116.27
860.248	16052.54
860.57	16058.65
860.891	15990.85
861.212	15890.51
861.534	15885.09
861.855	15818.2
862.176	15883.28
862.498	15817.3
862.819	15793.79
863.14	15761.93
863.461	15715.38
863.782	15636.74
864.103	15683.06
864.424	15623.85
864.745	15631.31
865.065	15641.03
865.386	15540.02
865.707	15431.09
866.027	15475.61
866.348	15460.92
866.668	15351.77
866.989	15439.45
867.309	15286.24
867.63	15311.32
867.95	15447.81
868.27	15268.38
868.59	15236.97
868.91	15140.7
869.23	15147.94
869.55	15060.71
869.87	15190.42
870.19	15171.66
870.51	15107.03
870.83	15069.52
871.15	14982.74
871.469	15039.69
871.789	15039.92
872.109	15003.31
872.428	14986.81
872.748	14967.15
873.067	15004.66
873.386	14909.75
873.706	14899.13
874.025	14752.01
874.344	14786.59
874.663	14840.37
874.982	14805.12
875.301	14735.97
875.62	14619.81
875.939	14624.78
876.258	14715.63
876.577	14601.96
876.896	14644.45
877.214	14505.01
877.533	14549.76
877.852	14480.16
878.17	14512.02
878.489	14586.14
878.807	14453.04
879.125	14373.49
879.444	14502.53
879.762	14406.26
880.08	14382.76
880.398	14260.95
880.716	14327.39
881.034	14347.96
881.352	14213.04
881.67	14321.74
881.988	14249.2
882.306	14184.34
882.624	14172.59
882.941	14091.24
883.259	13869.32
883.577	13954.07
883.894	13912.94
884.212	13919.49
884.529	13993.84
884.846	13849.21
885.164	13844.69
885.481	13824.81
885.798	13777.58
886.115	13706.84
886.432	13765.37
886.75	13641.31
887.067	13734.86
887.383	13619.16
887.7	13629.56
888.017	13567.86
888.334	13585.04
888.651	13570.35
888.967	13467.3
889.284	13380.52
889.6	13419.62
889.917	13275.67
890.233	13374.87
890.55	13279.28
890.866	13272.96
891.182	13218.04
891.498	13172.39
891.815	13123.13
892.131	13098.05
892.447	13059.4
892.763	13064.15
893.079	13010.59
893.395	12969.24
893.71	12936.69
894.026	12939.18
894.342	12835
894.657	12706.87
894.973	12729.24
895.289	12698.51
895.604	12660.32
895.92	12704.84
896.235	12530.83
896.55	12553.88
896.865	12423.49
897.181	12563.37
897.496	12435.46
897.811	12334
898.126	12355.24
898.441	12232.08
898.756	12270.95
899.071	12115.47
899.386	12194.34
899.7	12086.55
900.015	12022.37
900.33	11983.05
900.644	11996.38
900.959	11947.57
901.273	11864.41
901.588	11820.34
901.902	11777.4
902.216	11698.99
902.531	11659.67
902.845	11647.01
903.159	11581.02
903.473	11473.23
903.787	11535.6
904.101	11420.58
904.415	11472.1
904.729	11388.94
905.042	11322.72
905.356	11309.39
905.67	11281.6
905.984	11323.63
906.297	11224.65
906.611	11139.45
906.924	11135.84
907.237	11021.72
907.551	10972
907.864	10921.38
908.177	10988.27
908.491	10884.32
908.804	10823.3
909.117	10792.8
909.43	10826.01
909.743	10716.64
910.056	10712.35
910.368	10604.1
910.681	10665.57
910.994	10567.26
911.307	10494.72
911.619	10417.89
911.932	10435.52
912.244	10325.01
912.557	10437.32
912.869	10246.37
913.181	10254.28
913.494	10211.34
913.806	10167.95
914.118	10089.09
914.43	10074.85
914.742	10033.72
915.054	10029.43
915.366	9988.75
915.678	9939.94
915.99	9894.97
916.302	9826.95
916.613	9795.76
916.925	9757.34
917.236	9686.38
917.548	9624.46
917.859	9703.11
918.171	9629.89
918.482	9583.34
918.794	9510.8
919.105	9486.39
919.416	9470.34
919.727	9464.69
920.038	9393.74
920.349	9347.86
920.66	9298.37
920.971	9255.89
921.282	9236.23
921.593	9125.49
921.903	9137.25
922.214	9055.21
922.525	9015.89
922.835	8999.62
923.146	8933.41
923.456	8920.3
923.767	8873.52
924.077	8873.3
924.387	8819.97
924.697	8739.06
925.008	8764.83
925.318	8695.22
925.628	8668.78
925.938	8549.01
926.248	8571.84
926.558	8502.69
926.867	8500.88
927.177	8448.45
927.487	8378.4
927.796	8396.93
928.106	8345.85
928.416	8291.84
928.725	8256.14
929.034	8226.76
929.344	8216.37
929.653	8247.1
929.962	8104.73
930.271	8075.8
930.581	8091.4
930.89	8057.5
931.199	7966.2
931.508	7984.96
931.817	7981.12
932.125	7916.49
932.434	7855.7
932.743	7786.09
933.051	7747
933.36	7749.49
933.669	7727.79
933.977	7681.92
934.286	7605.53
934.594	7571.64
934.902	7575.7
935.21	7552.88
935.519	7575.93
935.827	7517.63
936.135	7458.19
936.443	7388.14
936.751	7358.76
937.059	7389.49
937.367	7267.24
937.674	7293.45
937.982	7281.7
938.29	7198.09
938.597	7178.43
938.905	7174.36
939.213	7111.99
939.52	7068.37
939.827	7083.51
940.135	7026.11
940.442	7020.69
940.749	7027.92
941.056	7011.43
941.363	6935.5
941.67	6878.32
941.977	6757.87
942.284	6794.03
942.591	6760.13
942.898	6784.54
943.205	6770.53
943.511	6700.93
943.818	6672.68
944.125	6619.12
944.431	6608.72
944.738	6581.15
945.044	6566.92
945.35	6529.18
945.657	6502.06
945.963	6485.79
946.269	6381.39
946.575	6442.63
946.881	6395.62
947.187	6358.79
947.493	6347.26
947.799	6377.77
948.105	6267.04
948.41	6220.26
948.716	6235.63
949.022	6186.36
949.327	6212.35
949.633	6025.46
949.938	6063.88
950.244	6067.04
950.549	5998.12
950.854	6001.96
951.16	6001.51
951.465	5938.01
951.77	5956.54
952.075	5908.4
952.38	5874.96
952.685	5858.91
952.99	5800.84
953.294	5808.75
953.599	5793.83
953.904	5734.85
954.209	5729.88
954.513	5778.46
954.818	5716.32
955.122	5686.04
955.426	5656.89
955.731	5603.1
956.035	5590.9
956.339	5569.43
956.643	5565.36
956.948	5485.59
957.252	5568.75
957.556	5544.12
957.86	5485.82
958.163	5441.52
958.467	5365.37
958.771	5385.03
959.075	5391.13
959.378	5366.5
959.682	5364.69
959.985	5246.95
960.289	5329.44
960.592	5204.24
960.896	5233.85
961.199	5184.81
961.502	5208.31
961.805	5160.4
962.108	5108.43
962.411	5091.48
962.714	5098.71
963.017	5049.9
963.32	5039.5
963.623	5040.18
963.926	4995.66
964.228	5000.86
964.531	4921.99
964.833	4946.85
965.136	4889.45
965.438	4844.48
965.741	4815.33
966.043	4817.59
966.345	4806.96
966.648	4759.51
966.95	4779.39
967.252	4726.06
967.554	4731.03
967.856	4713.86
968.158	4682.67
968.46	4617.82
968.761	4626.63
969.063	4613.75
969.365	4619.17
969.666	4570.36
969.968	4544.37
970.269	4527.42
970.571	4558.83
970.872	4463.24
971.174	4518.84
971.475	4498.72
971.776	4440.19
972.077	4424.83
972.378	4400.65
972.679	4361.33
972.98	4386.64
973.281	4331.72
973.582	4335.79
973.883	4273.64
974.183	4265.51
974.484	4285.4
974.785	4262.8
975.085	4256.24
975.386	4229.8
975.686	4219.63
975.986	4147.09
976.287	4145.51
976.587	4139.18
976.887	4134.44
977.187	4104.38
977.487	4057.83
977.787	4036.36
978.087	4035.91
978.387	4014.22
978.687	4017.83
978.987	3980.77
979.286	3960.66
979.586	3943.03
979.885	3941.22
980.185	3932.64
980.484	3913.88
980.784	3910.49
981.083	3859.42
981.382	3843.83
981.682	3814.67
981.981	3810.83
982.28	3757.27
982.579	3740.1
982.878	3777.16
983.177	3725.41
983.475	3735.35
983.774	3701
984.073	3682.47
984.372	3692.42
984.67	3691.74
984.969	3667.78
985.267	3643.15
985.566	3622.81
985.864	3602.25
986.162	3590.95
986.461	3549.82
986.759	3537.39
987.057	3528.58
987.355	3535.13
987.653	3508.92
987.951	3488.58
988.249	3478.19
988.547	3478.41
988.844	3393.44
989.142	3466.43
989.44	3407.9
989.737	3359.54
990.035	3319.32
990.332	3337.4
990.63	3348.02
990.927	3302.37
991.224	3296.27
991.521	3276.38
991.819	3273.9
992.116	3280.45
992.413	3240
992.71	3263.28
993.006	3244.75
993.303	3212.2
993.6	3169.49
993.897	3189.15
994.193	3175.82
994.49	3104.18
994.787	3113.45
995.083	3111.42
995.379	3099.66
995.676	3065.54
995.972	3041.13
996.268	3048.37
996.565	3019.67
996.861	2981.02
997.157	2976.28
997.453	2988.48
997.749	2940.8
998.044	2941.93
998.34	2906.45
998.636	2932.66
998.932	2855.6
999.227	2873.23
999.523	2873
999.818	2862.83
1000.114	2874.13
1000.409	2823.74
1000.704	2794.59
1001	2816.28
1001.295	2844.3
1001.59	2753.01
1001.885	2732.89
1002.18	2718.88
1002.475	2744.87
1002.77	2682.05
1003.065	2666.23
1003.359	2662.84
1003.654	2674.36
1003.949	2616.29
1004.243	2609.96
1004.538	2563.86
1004.832	2584.88
1005.127	2583.75
1005.421	2611.77
1005.715	2554.14
1006.009	2557.53
1006.304	2494.71
1006.598	2490.19
1006.892	2494.26
1007.186	2468.95
1007.48	2447.7
1007.773	2459.23
1008.067	2430.08
1008.361	2407.25
1008.655	2427.14
1008.948	2377.65
1009.242	2409.06
1009.535	2400.93
1009.829	2341.27
1010.122	2357.31
1010.415	2333.13
1010.708	2314.83
1011.001	2296.52
1011.295	2300.59
1011.588	2285.9
1011.881	2247.48
1012.173	2238.44
1012.466	2219.01
1012.759	2233.92
1013.052	2221.5
1013.344	2189.63
1013.637	2191.89
1013.93	2144.44
1014.222	2144.21
1014.514	2099.24
1014.807	2143.76
1015.099	2097.88
1015.391	2098.79
1015.683	2059.92
1015.976	2094.27
1016.268	2066.47
1016.56	2050.2
1016.851	2027.83
1017.143	2038.45
1017.435	2025.79
1017.727	2003.42
1018.018	1971.78
1018.31	1958
1018.602	1982.41
1018.893	1970.43
1019.185	1941.05
1019.476	1927.27
1019.767	1917.55
1020.058	1885.91
1020.35	1874.39
1020.641	1883.43
1020.932	1828.51
1021.223	1830.09
1021.514	1814.27
1021.804	1820.38
1022.095	1823.31
1022.386	1790.55
1022.677	1788.96
1022.967	1762.3
1023.258	1737.21
1023.548	1739.02
1023.839	1729.98
1024.129	1707.38
1024.419	1707.61
1024.709	1662.64
1025	1682.3
1025.29	1634.62
1025.58	1658.8
1025.87	1642.3
1026.16	1612.47
1026.449	1593.94
1026.739	1610.21
1027.029	1592.36
1027.319	1533.38
1027.608	1583.55
1027.898	1560.5
1028.187	1572.25
1028.477	1564.56
1028.766	1558.46
1029.055	1498.35
1029.344	1514.85
1029.634	1512.59
1029.923	1509.65
1030.212	1501.97
1030.501	1489.99
1030.79	1482.98
1031.078	1446.15
1031.367	1414.74
1031.656	1432.82
1031.945	1431.91
1032.233	1423.32
1032.522	1429.88
1032.81	1407.51
1033.099	1391.91
1033.387	1392.59
1033.675	1375.19
1033.963	1349.88
1034.251	1351.46
1034.54	1343.55
1034.828	1325.47
1035.116	1304.01
1035.403	1298.13
1035.691	1283.89
1035.979	1295.42
1036.267	1256.77
1036.554	1269.66
1036.842	1276.66
1037.129	1236.44
1037.417	1228.98
1037.704	1225.82
1037.992	1190.79
1038.279	1234.85
1038.566	1199.83
1038.853	1199.83
1039.14	1199.83
