Data from orange_diffuse_book_FLMS001491_00005.txt Node
Date: Wed Feb 08 15:29:02 GMT 2017
User: dcchb
Spectrometer: FLMS00149
Trigger mode: 0
Integration Time (sec): 2.000000E-2
Scans to average: 10
Electric dark correction enabled: true
Nonlinearity correction enabled: false
Boxcar width: 0
XAxis mode: Wavelengths
Number of Pixels in Spectrum: 2048
>>>>>Begin Spectral Data<<<<<
341.393	6.74
341.776	6.74
342.16	6.74
342.543	-51.79
342.927	-87.5
343.31	-94.5
343.693	-83.88
344.077	-46.59
344.46	-50.66
344.843	-60.38
345.226	-56.09
345.61	-28.29
345.993	-18.35
346.376	2.67
346.759	11.93
347.142	32.73
347.525	56
347.908	57.81
348.291	62.33
348.674	105.72
349.057	109.56
349.44	125.83
349.823	147.07
350.206	161.99
350.588	195.66
350.971	197.47
351.354	234.53
351.737	250.35
352.119	264.58
352.502	293.28
352.884	282.66
353.267	285.37
353.65	299.38
354.032	296.45
354.414	327.41
354.797	330.57
355.179	325.6
355.562	326.5
355.944	356.33
356.326	359.72
356.709	336.22
357.091	331.93
357.473	339.84
357.855	361.08
358.238	354.75
358.62	357.24
359.002	360.17
359.384	339.84
359.766	350.23
360.148	345.49
360.53	351.59
360.912	339.61
361.294	346.16
361.676	361.76
362.057	319.05
362.439	356.11
362.821	342.32
363.203	345.94
363.584	345.26
363.966	335.09
364.348	326.05
364.729	333.06
365.111	339.38
365.493	342.77
365.874	330.57
366.256	338.71
366.637	348.42
367.019	337.58
367.4	323.34
367.781	326.5
368.163	346.62
368.544	334.86
368.925	335.54
369.306	324.92
369.688	311.36
370.069	322.21
370.45	330.8
370.831	335.09
371.212	306.16
371.593	328.99
371.974	339.61
372.355	335.99
372.736	317.46
373.117	326.05
373.498	319.95
373.879	319.72
374.26	318.14
374.641	318.59
375.021	330.8
375.402	362.89
375.783	311.59
376.163	334.86
376.544	333.73
376.925	323.11
377.305	355.88
377.686	318.37
378.066	325.15
378.447	343
378.827	354.07
379.208	338.03
379.588	338.48
379.968	323.34
380.349	330.57
380.729	346.84
381.109	349.78
381.489	357.69
381.87	332.6
382.25	328.31
382.63	367.86
383.01	350.46
383.39	361.98
383.77	362.21
384.15	355.2
384.53	339.16
384.91	357.46
385.29	371.93
385.67	366.05
386.049	359.95
386.429	359.27
386.809	371.47
387.189	373.06
387.568	367.86
387.948	385.26
388.328	379.83
388.707	376.9
389.087	383.22
389.466	384.13
389.846	379.83
390.225	369.67
390.605	367.86
390.984	381.42
391.363	362.43
391.743	362.89
392.122	378.7
392.501	394.07
392.881	404.92
393.26	389.1
393.639	384.81
394.018	413.51
394.397	390.46
394.776	406.05
395.155	417.8
395.534	410.12
395.913	391.59
396.292	422.55
396.671	398.37
397.05	397.01
397.429	401.75
397.808	415.31
398.186	402.66
398.565	397.91
398.944	412.38
399.323	408.53
399.701	430.91
400.08	423.68
400.458	420.96
400.837	424.13
401.215	423.22
401.594	433.62
401.972	418.03
402.351	419.61
402.729	423.68
403.107	438.59
403.486	430.23
403.864	441.98
404.242	420.06
404.62	437.01
404.999	452.15
405.377	443.11
405.755	454.86
406.133	447.86
406.511	443.34
406.889	447.4
407.267	452.38
407.645	466.16
408.023	456.22
408.401	467.06
408.779	461.41
409.156	467.06
409.534	492.37
409.912	459.38
410.29	483.56
410.667	487.4
411.045	476.56
411.422	493.05
411.8	499.83
412.178	503.45
412.555	520.4
412.933	528.08
413.31	515.65
413.687	504.58
414.065	521.07
414.442	551.36
414.819	513.39
415.197	541.41
415.574	544.8
415.951	535.54
416.328	556.33
416.705	538.7
417.082	551.36
417.46	543.45
417.837	558.36
418.214	554.07
418.591	561.75
418.967	548.87
419.344	576.44
419.721	579.6
420.098	540.96
420.475	576.21
420.852	564.91
421.228	585.7
421.605	587.29
421.982	585.48
422.358	578.02
422.735	593.61
423.111	601.98
423.488	595.87
423.864	575.31
424.241	615.76
424.617	618.92
424.994	608.76
425.37	645.59
425.746	628.64
426.123	624.57
426.499	633.39
426.875	648.53
427.251	654.63
427.627	653.05
428.003	653.5
428.379	682.88
428.756	661.18
429.132	681.52
429.507	676.32
429.883	677
430.259	705.48
430.635	686.27
431.011	694.85
431.387	699.6
431.763	735.31
432.138	734.4
432.514	735.31
432.89	713.84
433.265	754.51
433.641	744.57
434.016	768.75
434.392	785.25
434.767	773.04
435.143	778.47
435.518	784.57
435.894	793.16
436.269	785.25
436.644	793.16
437.02	816.89
437.395	814.63
437.77	825.25
438.145	812.82
438.52	821.4
438.895	835.87
439.271	833.83
439.646	843.55
440.021	871.8
440.395	854.62
440.77	864.79
441.145	869.99
441.52	868.64
441.895	872.7
442.27	873.61
442.645	884.23
443.019	891.46
443.394	894.4
443.769	898.47
444.143	884
444.518	892.82
444.892	896.43
445.267	889.88
445.641	927.16
446.016	916.77
446.39	919.48
446.764	914.96
447.139	939.59
447.513	953.15
447.887	938.92
448.262	945.47
448.636	942.08
449.01	952.93
449.384	960.61
449.758	965.13
450.132	978.91
450.506	976.88
450.88	989.76
451.254	960.38
451.628	977.79
452.002	1009.2
452.376	1016.88
452.75	1018.69
453.123	1020.5
453.497	1033.83
453.871	1009.87
454.244	1045.58
454.618	1044.45
454.992	1042.87
455.365	1068.86
455.739	1100.95
456.112	1084.9
456.486	1098.91
456.859	1127.16
457.232	1128.29
457.606	1076.09
457.979	1129.65
458.352	1147.05
458.725	1122.41
459.099	1124.9
459.472	1154.96
459.845	1192.92
460.218	1188.4
460.591	1193.37
460.964	1201.73
461.337	1218.23
461.71	1237.44
462.083	1259.59
462.456	1265.01
462.829	1266.82
463.201	1273.37
463.574	1252.81
463.947	1290.55
464.32	1305.46
464.692	1301.17
465.065	1302.75
465.438	1352.46
465.81	1331.9
466.183	1334.16
466.555	1372.58
466.928	1351.79
467.3	1398.34
467.672	1387.49
468.045	1424.78
468.417	1437.21
468.789	1417.55
469.161	1449.86
469.534	1463.2
469.906	1485.12
470.278	1498
470.65	1514.49
471.022	1528.73
471.394	1564.66
471.766	1570.31
472.138	1576.87
472.51	1586.58
472.882	1608.73
473.253	1620.03
473.625	1659.8
473.997	1682.4
474.369	1687.6
474.74	1660.48
475.112	1712.23
475.484	1747.48
475.855	1774.6
476.227	1779.35
476.598	1804.88
476.97	1818.67
477.341	1834.03
477.713	1885.11
478.084	1894.6
478.455	1952.9
478.827	1961.94
479.198	2021.15
479.569	1989.06
479.94	2080.81
480.311	2050.07
480.682	2100.69
481.053	2141.14
481.424	2161.71
481.795	2208.04
482.166	2240.58
482.537	2243.51
482.908	2299.56
483.279	2346.34
483.65	2347.92
484.021	2409.39
484.391	2427.01
484.762	2470.63
485.133	2492.55
485.503	2533.45
485.874	2556.73
486.244	2586.33
486.615	2629.27
486.985	2665.88
487.356	2696.16
487.726	2725.08
488.097	2808.7
488.467	2823.16
488.837	2842.59
489.207	2892.54
489.578	2910.84
489.948	2960.33
490.318	3018.86
490.688	3016.6
491.058	3078.75
491.428	3099.76
491.798	3138.63
492.168	3275.13
492.538	3226.99
492.908	3268.57
493.278	3316.71
493.648	3333.66
494.017	3399.64
494.387	3430.83
494.757	3476.25
495.126	3537.49
495.496	3506.98
495.866	3514.67
496.235	3605.51
496.605	3668.34
496.974	3653.42
497.344	3686.64
497.713	3728
498.082	3781.55
498.452	3806.86
498.821	3852.74
499.19	3838.73
499.559	3938.61
499.928	3926.41
500.298	3970.47
500.667	3993.07
501.036	3982.23
501.405	4053.86
501.774	4074.2
502.143	4182.67
502.512	4158.49
502.88	4177.93
503.249	4190.36
503.618	4225.38
503.987	4247.3
504.356	4325.72
504.724	4357.13
505.093	4356.23
505.462	4408.88
505.83	4393.74
506.199	4436.9
506.567	4498.6
506.936	4508.99
507.304	4557.58
507.672	4597.8
508.041	4649.55
508.409	4680.06
508.777	4693.17
509.145	4752.83
509.514	4735.65
509.882	4812.03
510.25	4846.84
510.618	4879.38
510.986	4850.45
511.354	4937.91
511.722	4951.01
512.09	4993.27
512.458	5014.06
512.826	5065.14
513.193	5047.28
513.561	5067.62
513.929	5125.02
514.297	5206.15
514.664	5251.34
515.032	5247.96
515.4	5327.5
515.767	5373.38
516.135	5348.29
516.502	5299.48
516.869	5425.13
517.237	5498.12
517.604	5484.79
517.972	5502.86
518.339	5548.51
518.706	5572.01
519.073	5609.08
519.44	5681.16
519.808	5696.98
520.175	5748.73
520.542	5742.63
520.909	5832.57
521.276	5840.26
521.643	5864.66
522.009	5932.91
522.376	5993.47
522.743	5981.27
523.11	6006.81
523.477	6103.3
523.843	6195.73
524.21	6238.21
524.577	6282.5
524.943	6299
525.31	6322.05
525.676	6409.51
526.043	6475.04
526.409	6470.3
526.776	6522.5
527.142	6522.95
527.508	6543.06
527.874	6592.33
528.241	6649.5
528.607	6654.47
528.973	6763.4
529.339	6782.6
529.705	6762.94
530.071	6851.53
530.437	6889.95
530.803	6920.68
531.169	7016.27
531.535	6991.19
531.901	6971.53
532.267	6992.54
532.632	7092.65
532.998	7152.76
533.364	7127.45
533.73	7160.67
534.095	7219.65
534.461	7223.04
534.826	7289.48
535.192	7334.68
535.557	7373.1
535.923	7406.32
536.288	7427.78
536.653	7390.95
537.019	7490.83
537.384	7511.62
537.749	7549.36
538.114	7585.97
538.479	7596.14
538.845	7623.49
539.21	7610.15
539.575	7689.92
539.94	7711.39
540.305	7768.34
540.67	7828.9
541.034	7845.85
541.399	7831.62
541.764	7858.73
542.129	7872.97
542.494	7962.69
542.858	7997.26
543.223	8019.18
543.587	8105.28
543.952	8082.01
544.316	8116.58
544.681	8130.82
545.045	8171.72
545.41	8188.67
545.774	8263.24
546.138	8291.27
546.503	8333.52
546.867	8307.76
547.231	8389.34
547.595	8407.42
547.959	8477.93
548.324	8456.91
548.688	8532.61
549.052	8569.22
549.416	8612.84
549.779	8634.53
550.143	8685.15
550.507	8749.33
550.871	8752.27
551.235	8815.09
551.599	8855.32
551.962	8865.26
552.326	8915.43
552.689	9006.73
553.053	8956.56
553.417	8994.98
553.78	9120.4
554.143	9147.29
554.507	9209.66
554.87	9282.88
555.234	9355.87
555.597	9320.39
555.96	9389.54
556.323	9413.95
556.686	9522.19
557.05	9629.31
557.413	9624.79
557.776	9647.16
558.139	9687.84
558.502	9813.71
558.865	9821.17
559.228	9896.65
559.59	9977.1
559.953	10038.79
560.316	10138.67
560.679	10177.54
561.041	10273.81
561.404	10346.13
561.767	10380.7
562.129	10428.84
562.492	10642.62
562.854	10663.63
563.217	10685.78
563.579	10762.84
563.941	10825.21
564.304	10962.83
564.666	11036.5
565.028	11146.33
565.39	11241.24
565.753	11335.25
566.115	11400.34
566.477	11506.32
566.839	11561.01
567.201	11793.32
567.563	11843.26
567.925	11983.37
568.287	12024.5
568.648	12156.02
569.01	12275.57
569.372	12489.35
569.734	12510.36
570.095	12633.07
570.457	12760.07
570.819	12932.27
571.18	13056.79
571.542	13254.98
571.903	13341.08
572.265	13503.56
572.626	13583.33
572.987	13811.57
573.349	13942.87
573.71	14134.95
574.071	14214.95
574.432	14539.69
574.794	14726.35
575.155	14877.31
575.516	14943.75
575.877	15188.71
576.238	15400.68
576.599	15616.04
576.96	15760
577.32	16059.2
577.681	16268.23
578.042	16499.18
578.403	16647.88
578.763	16973.97
579.124	17219.84
579.485	17481.76
579.845	17784.35
580.206	18032.93
580.566	18305.47
580.927	18640.15
581.287	18826.81
581.648	19114.48
582.008	19476.51
582.368	19660.01
582.728	20037.85
583.089	20257.05
583.449	20565.97
583.809	20957.37
584.169	21185.62
584.529	21497.7
584.889	22123.44
585.249	22223.33
585.609	22583.54
585.969	23033.02
586.329	23358.89
586.688	23783.29
587.048	24100.11
587.408	24497.62
587.768	24884.05
588.127	25174.21
588.487	25473.64
588.846	26155.2
589.206	26335.54
589.565	26823.43
589.925	27309.52
590.284	27681.04
590.643	27945.66
591.003	28544.97
591.362	29001.68
591.721	29345.17
592.08	29874.88
592.44	30191.25
592.799	30780.84
593.158	31092.7
593.517	31635.74
593.876	31983.3
594.235	32255.38
594.593	32686.1
594.952	33332.19
595.311	33734.21
595.67	34032.96
596.029	34647.18
596.387	35276.32
596.746	35648.74
597.104	35813.71
597.463	36297.76
597.822	36855.71
598.18	37063.62
598.538	37360.11
598.897	38158.05
599.255	38226.07
599.613	39161.41
599.972	39349.43
600.33	39660.61
600.688	39821.74
601.046	40517.76
601.404	41073.45
601.762	41303.73
602.12	41745.3
602.478	42120.21
602.836	42415.11
603.194	42621.44
603.552	43006.51
603.91	43325.37
604.268	43869.76
604.625	44084.9
604.983	44543.65
605.341	44624.1
605.698	45054.59
606.056	45386.33
606.413	45633.56
606.771	46034.91
607.128	46331.17
607.485	46339.08
607.843	46681.44
608.2	47028.55
608.557	47350.35
608.914	47472.38
609.272	47944.23
609.629	48139.93
609.986	48358.69
610.343	48463.54
610.7	48902.85
611.057	48933.36
611.414	49059.23
611.771	49228.27
612.127	49561.37
612.484	49564.08
612.841	49858.08
613.198	49909.83
613.554	50067.79
613.911	50437.05
614.267	50381.91
614.624	50618.06
614.98	50817.6
615.337	51044.27
615.693	51037.26
616.05	51072.74
616.406	51410.58
616.762	51388.66
617.118	51552.27
617.475	51588.88
617.831	51715.89
618.187	51818.48
618.543	51990.68
618.899	52101.64
619.255	52160.62
619.611	52198.13
619.967	52438.8
620.323	52586.82
620.678	52386.38
621.034	52330.11
621.39	52562.19
621.746	52488.75
622.101	52963.08
622.457	52630.44
622.812	52715.18
623.168	52854.16
623.523	52926.02
623.879	53039.47
624.234	52900.26
624.589	53062.07
624.945	53088.96
625.3	53130.76
625.655	53122.4
626.01	53241.72
626.365	53240.37
626.72	53269.52
627.075	53251.66
627.43	53268.84
627.785	53283.3
628.14	53351.1
628.495	53344.54
628.85	53443.52
629.205	53302.51
629.559	53601.26
629.914	53344.54
630.269	53369.18
630.623	53413.47
630.978	53394.49
631.332	53512
631.687	53629.28
632.041	53468.61
632.396	53479.46
632.75	53453.02
633.104	53472.22
633.459	53307.48
633.813	53343.87
634.167	53415.5
634.521	53365.33
634.875	53454.15
635.229	53361.04
635.583	53222.96
635.937	53300.03
636.291	53273.59
636.645	53294.83
636.999	53261.38
637.352	53281.95
637.706	53197.43
638.06	53228.84
638.413	53237.43
638.767	53161.05
639.121	53244.89
639.474	53044.44
639.828	53173.47
640.181	53135.51
640.534	53177.54
640.888	53061.84
641.241	53017.77
641.594	53015.96
641.947	53075.17
642.301	53016.64
642.654	53001.28
643.007	52987.94
643.36	53023.42
643.713	53051.44
644.066	53053.48
644.419	52886.93
644.771	52669.76
645.124	52423.89
645.477	52483.1
645.83	52275.87
646.182	52123.33
646.535	52067.74
646.888	52141.41
647.24	51902.55
647.593	52085.82
647.945	52092.83
648.298	51914.52
648.65	51969.89
649.002	51805.6
649.355	51923.11
649.707	51841.31
650.059	52027.06
650.411	52370.11
650.763	52468.86
651.115	52802.41
651.467	52661.4
651.819	52628.86
652.171	52615.75
652.523	52495.3
652.875	52579.59
653.227	52498.92
653.578	52716.31
653.93	52601.29
654.282	52404.23
654.633	52415.75
654.985	52515.19
655.337	52491.91
655.688	52374.63
656.039	52625.01
656.391	52357
656.742	52456.88
657.094	52490.55
657.445	52509.76
657.796	52545.69
658.147	52446.26
658.498	52379.6
658.849	52515.19
659.2	52402.65
659.551	52292.14
659.902	52407.85
660.253	52320.39
660.604	52484.68
660.955	52356.55
661.306	52294.4
661.656	52330.56
662.007	52310.9
662.358	52259.15
662.708	52315.42
663.059	52279.94
663.409	52222.09
663.76	52338.69
664.11	52277.91
664.461	52339.15
664.811	52350.67
665.161	52303.89
665.511	52186.16
665.862	52268.64
666.212	52399.71
666.562	52372.82
666.912	52206.95
667.262	52221.86
667.612	52149.09
667.962	52217.57
668.312	52160.62
668.662	52385.92
669.011	52117.91
669.361	52217.57
669.711	52117.68
670.06	52116.33
670.41	52053.28
670.76	52016.22
671.109	52038.14
671.459	52014.86
671.808	51952.94
672.157	52009.21
672.507	51848.09
672.856	51897.35
673.205	51853.51
673.554	52057.8
673.904	51809.44
674.253	52006.95
674.602	51872.94
674.951	51406.97
675.3	51227.76
675.649	51784.36
675.998	51766.28
676.346	51715.89
676.695	51763.57
677.044	51529.22
677.393	51672.27
677.741	51697.58
678.09	51578.26
678.438	51609.45
678.787	51571.26
679.135	51583.46
679.484	51356.12
679.832	51428.44
680.181	51306.41
680.529	51429.34
680.877	51332.39
681.225	51329.46
681.573	51447.19
681.922	51105.96
682.27	51117.48
682.618	51159.74
682.966	51107.09
683.314	51161.78
683.661	51030.71
684.009	50825.97
684.357	50790.71
684.705	50729.02
685.053	50816.25
685.4	50684.05
685.748	50623.71
686.095	50562.47
686.443	50461.91
686.79	50404.51
687.138	50339.42
687.485	50355.92
687.832	50298.52
688.18	50379.88
688.527	50076.38
688.874	50100.56
689.221	50023.95
689.568	49912.09
689.915	49864.64
690.262	49784.19
690.609	49658.76
690.956	49618.77
691.303	49562.5
691.65	49396.4
691.997	49379.22
692.344	49228.95
692.69	49233.01
693.037	49189.85
693.383	48862.18
693.73	48987.14
694.077	48721.84
694.423	48695.4
694.769	48488.17
695.116	48632.35
695.462	48391.91
695.808	48348.52
696.155	48512.58
696.501	48056.77
696.847	47978.36
697.193	47869.43
697.539	48014.74
697.885	47752.83
698.231	47466.28
698.577	47623.34
698.923	47459.5
699.269	47259.28
699.614	47178.15
699.96	47052.51
700.306	47066.29
700.651	46768.22
700.997	46686.64
701.342	46698.62
701.688	46619.3
702.033	46422.92
702.379	46584.27
702.724	46480.32
703.069	46438.96
703.415	45867.9
703.76	46014.34
704.105	45953.1
704.45	45875.59
704.795	45550.17
705.14	45372.1
705.485	45573.67
705.83	45349.95
706.175	45279.9
706.52	45240.58
706.865	45066.57
707.209	45105.89
707.554	44797.88
707.899	44886.24
708.243	44634.94
708.588	44636.52
708.932	44298.91
709.277	44386.14
709.621	44359.47
709.966	44105.69
710.31	44069.76
710.654	43858.69
710.998	43880.61
711.342	43960.16
711.687	43815.08
712.031	43668.64
712.375	43660.05
712.719	43582.99
713.063	43524.01
713.407	43693.5
713.75	43442.66
714.094	43253.28
714.438	42942.78
714.782	43241.08
715.125	42891.94
715.469	43176.9
715.812	42774.2
716.156	42630.48
716.499	42645.16
716.843	42791.6
717.186	42429.8
717.53	42558.39
717.873	42587.99
718.216	42549.12
718.559	42348
718.902	42127.66
719.246	42185.97
719.589	42123.37
719.932	41995.92
720.275	41845.19
720.617	41973.77
720.96	41833.21
721.303	41914.79
721.646	41753.21
721.989	41450.39
722.331	41662.82
722.674	41559.09
723.016	41619.88
723.359	41456.72
723.701	41461.01
724.044	41170.85
724.386	41034.36
724.729	41318.42
725.071	41122.72
725.413	41126.56
725.755	41041.36
726.097	40868.49
726.439	40798.43
726.782	40738.32
727.124	41007.92
727.465	40830.97
727.807	40693.8
728.149	40537.87
728.491	40729.96
728.833	40771.54
729.175	40621.04
729.516	40546.91
729.858	40450.87
730.199	40507.37
730.541	40310.08
730.882	40373.36
731.224	40332.23
731.565	40007.04
731.906	40181.95
732.248	40295.4
732.589	40110.54
732.93	39957.55
733.271	40033.93
733.612	39893.6
733.953	39947.61
734.294	39844.79
734.635	39692.47
734.976	39791.68
735.317	39641.4
735.658	39576.09
735.999	39640.05
736.339	39454.06
736.68	39559.82
737.021	39426.49
737.361	39358.92
737.702	39566.83
738.042	39384.46
738.383	39341.75
738.723	39172.71
739.063	39232.37
739.404	39339.49
739.744	39297.91
740.084	39082.55
740.424	39231.47
740.764	39012.27
741.104	39070.79
741.444	38897.24
741.784	38830.58
742.124	38990.8
742.464	38724.14
742.804	38832.61
743.143	38713.97
743.483	38799.84
743.823	38573.86
744.162	38505.39
744.502	38615.44
744.841	38281.44
745.181	38657.02
745.52	38281.21
745.86	38416.8
746.199	38298.84
746.538	38307.2
746.877	38389.68
747.216	38156.92
747.556	38178.84
747.895	38164.6
748.234	38024.04
748.573	37955.34
748.911	37939.3
749.25	37919.64
749.589	37717.61
749.928	37789.92
750.267	37944.27
750.605	37797.83
750.944	37477.39
751.283	37515.36
751.621	37664.96
751.96	37377.73
752.298	37402.59
752.636	37392.87
752.975	37272.65
753.313	37114.46
753.651	37288.47
753.989	37024.52
754.327	37096.16
754.666	36876.95
755.004	36904.98
755.342	36923.51
755.679	36717.86
756.017	36593.8
756.355	36777.3
756.693	36498.21
757.031	36717.41
757.368	36423.41
757.706	36394.93
758.044	36229.97
758.381	36167.59
758.719	36070.65
759.056	36018.22
759.394	35899.58
759.731	35759.47
760.068	35612.81
760.405	35690.77
760.743	35539.36
761.08	35604.67
761.417	35323.1
761.754	35364
762.091	35307.96
762.428	35034.97
762.765	34913.62
763.102	34914.07
763.438	34751.59
763.775	34627.75
764.112	34723.34
764.449	34685.6
764.785	34517.24
765.122	34308.66
765.458	34352.95
765.795	34266.85
766.131	34121.09
766.467	33929.91
766.804	33807.2
767.14	33731.95
767.476	33703.25
767.812	33462.81
768.148	33583.48
768.485	33460.09
768.821	33241.57
769.157	33150.5
769.492	33210.84
769.828	33067.56
770.164	32652.66
770.5	32577.18
770.836	32656.5
771.171	32507.13
771.507	32344.19
771.842	32190.52
772.178	32080.47
772.513	31996.4
772.849	31921.15
773.184	31790.53
773.519	31821.27
773.855	31638.22
774.19	31536.98
774.525	31386.03
774.86	31373.14
775.195	31255.41
775.53	31106.94
775.865	30999.14
776.2	30838.92
776.535	30636.21
776.87	30585.82
777.205	30530
777.539	30426.73
777.874	30403.9
778.209	30047.53
778.543	30050.92
778.878	29858.16
779.212	30004.82
779.547	29783.36
779.881	29794.43
780.215	29587.65
780.55	29620.42
780.884	29461.33
781.218	29361.67
781.552	29369.81
781.886	29022.25
782.22	29046.88
782.554	28939.08
782.888	28700.22
783.222	28626.1
783.556	28423.62
783.889	28349.95
784.223	28131.2
784.557	28249.16
784.89	28179.1
785.224	28059.33
785.557	27984.31
785.891	27866.8
786.224	27728.95
786.558	27719.91
786.891	27424.55
787.224	27369.41
787.557	27292.57
787.891	27355.62
788.224	27316.53
788.557	27219.81
788.89	27108.4
789.223	27126.02
789.556	26886.03
789.888	26846.94
790.221	26674.51
790.554	26426.16
790.887	26460.73
791.219	26390
791.552	26449.21
791.884	26170.79
792.217	26190.23
792.549	25933.06
792.882	25841.31
793.214	25724.25
793.546	25806.51
793.879	25586.4
794.211	25438.84
794.543	25538.72
794.875	25498.95
795.207	25561.32
795.539	25320.65
795.871	25379.4
796.203	25034.1
796.535	24999.07
796.867	25009.92
797.198	24929.02
797.53	24796.37
797.862	24717.5
798.193	24700.78
798.525	24484.74
798.856	24494.45
799.188	24376.27
799.519	24247.23
799.85	24150.06
800.182	24202.49
800.513	24180.79
800.844	23979.21
801.175	24123.39
801.506	23993.45
801.837	23773.34
802.168	23696.51
802.499	23623.97
802.83	23494.03
803.161	23583.07
803.491	23536.51
803.822	23456.06
804.153	23296.97
804.483	23142.4
804.814	23118.9
805.145	23080.71
805.475	23068.05
805.805	22901.05
806.136	22989.18
806.466	22925.68
806.796	22858.11
807.126	22659.93
807.457	22657.44
807.787	22651.34
808.117	22536.99
808.447	22500.83
808.777	22526.82
809.107	22319.37
809.436	22271.91
809.766	22334.74
810.096	22310.56
810.426	22090.45
810.755	22111.01
811.085	22085.48
811.414	21939.04
811.744	21868.99
812.073	21866.73
812.403	21829.89
812.732	21673.51
813.061	21567.53
813.39	21498.6
813.719	21461.77
814.049	21546.74
814.378	21495.89
814.707	21424.93
815.036	21240.08
815.365	21292.73
815.693	21120.76
816.022	21135.67
816.351	21127.09
816.68	20914.21
817.008	21019.29
817.337	20821.11
817.665	20801.67
817.994	20796.02
818.322	20860.65
818.651	20656.36
818.979	20566.2
819.307	20732.29
819.636	20590.6
819.964	20488.91
820.292	20539.76
820.62	20487.78
820.948	20500.21
821.276	20424.05
821.604	20315.13
821.932	20452.3
822.259	20370.5
822.587	20455.46
822.915	20327.33
823.243	20543.82
823.57	20337.95
823.898	20336.82
824.225	20279.2
824.553	20357.61
824.88	20277.62
825.207	20466.99
825.535	20296.37
825.862	20290.5
826.189	20271.06
826.516	20294.79
826.843	20382.7
827.17	20311.97
827.497	20350.83
827.824	20308.12
828.151	20372.08
828.478	20375.69
828.805	20444.39
829.131	20351.74
829.458	20275.58
829.785	20229.48
830.111	20302.25
830.438	20332.98
830.764	20212.53
831.09	20245.53
831.417	20245.3
831.743	20284.17
832.069	20245.98
832.395	20170.73
832.722	20146.32
833.048	20106.55
833.374	20229.03
833.7	20011.18
834.026	20123.04
834.351	20165.76
834.677	20027.68
835.003	20163.72
835.329	20120.78
835.654	20075.14
835.98	19889.15
836.306	20018.19
836.631	19890.96
836.956	19965.99
837.282	19887.8
837.607	19845.99
837.932	19794.69
838.258	19718.76
838.583	19759.21
838.908	19561.03
839.233	19671.53
839.558	19643.51
839.883	19546.34
840.208	19561.48
840.533	19561.7
840.858	19526
841.182	19498.65
841.507	19359.67
841.832	19283.07
842.156	19249.85
842.481	19260.02
842.805	19307.25
843.13	19206.23
843.454	19156.29
843.778	19056.18
844.103	19046.01
844.427	19015.05
844.751	19069.74
845.075	19017.08
845.399	18924.43
845.723	18810.08
846.047	18860.25
846.371	18666.59
846.695	18743.19
847.019	18496.65
847.343	18372.36
847.666	18420.94
847.99	18413.26
848.313	18368.06
848.637	18213.49
848.96	18151.34
849.284	18124.23
849.607	17933.5
849.931	17925.36
850.254	17886.94
850.577	17718.81
850.9	17636.1
851.223	17532.15
851.546	17576.44
851.869	17360.63
852.192	17548.65
852.515	17385.26
852.838	17346.39
853.161	17302.33
853.483	17059.4
853.806	17136.91
854.129	17034.99
854.451	16947.99
854.774	16888.78
855.096	16798.61
855.419	16837.03
855.741	16730.14
856.063	16624.61
856.385	16585.28
856.708	16598.39
857.03	16519.07
857.352	16511.39
857.674	16356.36
857.996	16325.18
858.318	16346.87
858.64	16273.2
858.961	16183.03
859.283	16160.44
859.605	16054
859.926	16164.96
860.248	16092.42
860.57	15962.7
860.891	16014
861.212	15958.41
861.534	15862.59
861.855	15828.02
862.176	15871.86
862.498	15815.59
862.819	15832.54
863.14	15678.42
863.461	15642.26
863.782	15666.44
864.103	15595.48
864.424	15604.52
864.745	15683.16
865.065	15526.56
865.386	15552.32
865.707	15459.66
866.027	15493.79
866.348	15382.6
866.668	15451.08
866.989	15391.87
867.309	15257.41
867.63	15381.93
867.95	15395.94
868.27	15286.79
868.59	15187.81
868.91	15234.81
869.23	15147.58
869.55	15084.53
869.87	15204.76
870.19	15073.69
870.51	15059.45
870.83	15172.89
871.15	14972.22
871.469	15021.48
871.789	15123.4
872.109	15018.77
872.428	14845.67
872.748	15098.32
873.067	14955.5
873.386	14968.6
873.706	14933.12
874.025	14830.3
874.344	14815.16
874.663	14846.8
874.982	14759.12
875.301	14819.23
875.62	14732.23
875.939	14640.93
876.258	14719.8
876.577	14670.76
876.896	14633.7
877.214	14560.93
877.533	14523.42
877.852	14502.63
878.17	14464.21
878.489	14576.07
878.807	14427.15
879.125	14450.88
879.444	14444.1
879.762	14317.32
880.08	14398.9
880.398	14231.67
880.716	14389.64
881.034	14221.28
881.352	14264.89
881.67	14242.52
881.988	14222.86
882.306	14130.89
882.624	14045.69
882.941	14020.83
883.259	14019.7
883.577	14014.28
883.894	13880.04
884.212	13974.28
884.529	13929.76
884.846	13929.76
885.164	13836.2
885.481	13823.77
885.798	13825.36
886.115	13694.06
886.432	13699.26
886.75	13673.95
887.067	13630.56
887.383	13654.06
887.7	13563.22
888.017	13513.95
888.334	13588.75
888.651	13515.99
888.967	13475.76
889.284	13407.51
889.6	13336.56
889.917	13336.78
890.233	13310.57
890.55	13293.17
890.866	13291.36
891.182	13244.81
891.498	13192.15
891.815	13090.91
892.131	13099.27
892.447	13052.27
892.763	13019.05
893.079	12984.02
893.395	12987.19
893.71	12982.89
894.026	12943.35
894.342	12796.68
894.657	12696.8
894.973	12724.82
895.289	12744.48
895.604	12682.56
895.92	12661.77
896.235	12478.5
896.55	12598.72
896.865	12466.97
897.181	12444.38
897.496	12463.13
897.811	12367.99
898.126	12297.94
898.441	12328.22
898.756	12197.15
899.071	12199.18
899.386	12226.53
899.7	12035.12
900.015	12071.28
900.33	11948.8
900.644	11899.98
900.959	11940.21
901.273	11850.95
901.588	11725.98
901.902	11731.63
902.216	11695.92
902.531	11662.02
902.845	11688.24
903.159	11516.49
903.473	11534.57
903.787	11495.93
904.101	11404.4
904.415	11450.73
904.729	11426.78
905.042	11355.82
905.356	11334.8
905.67	11283.5
905.984	11347
906.297	11256.38
906.611	11190.17
906.924	11083.73
907.237	11005.77
907.551	11057.07
907.864	11070.63
908.177	10903.63
908.491	10860.91
908.804	10880.58
909.117	10826.57
909.43	10780.69
909.743	10715.38
910.056	10768.71
910.368	10643.07
910.681	10582.73
910.994	10537.31
911.307	10468.83
911.619	10412.11
911.932	10476.52
912.244	10372.11
912.557	10377.31
912.869	10265
913.181	10217.09
913.494	10250.54
913.806	10153.36
914.118	10086.47
914.43	10038.56
914.742	10061.39
915.054	9963.31
915.366	9975.97
915.678	9904.33
915.99	9857.33
916.302	9814.84
916.613	9818
916.925	9710.66
917.236	9714.5
917.548	9638.57
917.859	9627.95
918.171	9625.02
918.482	9581.63
918.794	9520.61
919.105	9473.38
919.416	9474.74
919.727	9388.41
920.038	9381.18
920.349	9320.39
920.66	9316.55
920.971	9245.59
921.282	9233.39
921.593	9182.09
921.903	9081.3
922.214	9098.02
922.525	9032.04
922.835	8975.54
923.146	8900.97
923.456	8912.04
923.767	8824.58
924.077	8813.96
924.387	8815.32
924.697	8738.03
925.008	8757.92
925.318	8668.43
925.628	8645.15
925.938	8590.47
926.248	8551.6
926.558	8542.56
926.867	8509.79
927.177	8492.39
927.487	8431.15
927.796	8380.53
928.106	8371.71
928.416	8282.23
928.725	8276.8
929.034	8233.87
929.344	8206.07
929.653	8198.84
929.962	8111.16
930.271	8078.39
930.581	8072.29
930.89	8009.24
931.199	7929.47
931.508	7983.48
931.817	7926.3
932.125	7889.24
932.434	7872.29
932.743	7805.85
933.051	7780.09
933.36	7722.92
933.669	7702.35
933.977	7689.47
934.286	7700.55
934.594	7578.29
934.902	7519.99
935.21	7526.99
935.519	7561.34
935.827	7532.64
936.135	7476.37
936.443	7363.38
936.751	7396.83
937.059	7318.18
937.367	7286.32
937.674	7249.48
937.982	7260.78
938.29	7225.98
938.597	7259.43
938.905	7172.88
939.213	7123.61
939.52	7084.97
939.827	7105.76
940.135	7038.42
940.442	6986.67
940.749	6993.22
941.056	7013.11
941.363	6921.81
941.67	6885.43
941.977	6855.6
942.284	6784.41
942.591	6748.03
942.898	6706
943.205	6745.77
943.511	6666
943.818	6668.93
944.125	6652.89
944.431	6647.24
944.738	6623.74
945.044	6546.23
945.35	6524.31
945.657	6497.41
945.963	6461.71
946.269	6393.24
946.575	6477.98
946.881	6382.16
947.187	6435.04
947.493	6279.34
947.799	6301.49
948.105	6324.76
948.41	6238.89
948.716	6264.65
949.022	6170.42
949.327	6165.9
949.633	6167.71
949.938	6091.55
950.244	6088.39
950.549	6037.54
950.854	6013.36
951.16	5955.51
951.465	5989.63
951.77	5908.73
952.075	5942.63
952.38	5919.35
952.685	5883.42
952.99	5738.79
953.294	5827.38
953.599	5732.01
953.904	5748.96
954.209	5777.43
954.513	5711.45
954.818	5716.64
955.122	5658.11
955.426	5659.02
955.731	5605.69
956.035	5546.03
956.339	5561.39
956.643	5535.63
956.948	5510.77
957.252	5473.49
957.556	5511
957.86	5482.53
958.163	5419.7
958.467	5462.86
958.771	5445.24
959.075	5383.77
959.378	5304.9
959.682	5281.4
959.985	5339.48
960.289	5289.08
960.592	5202.08
960.896	5159.6
961.199	5198.92
961.502	5212.48
961.805	5169.31
962.108	5102.87
962.411	5136.55
962.714	5074.4
963.017	5021.97
963.32	5046.83
963.623	4997.11
963.926	4999.6
964.228	4992.82
964.531	4894.74
964.833	4928.42
965.136	4869.89
965.438	4871.69
965.741	4830.57
966.043	4825.59
966.345	4789.44
966.648	4817.68
966.95	4787.4
967.252	4756.44
967.554	4721.87
967.856	4728.42
968.158	4697.46
968.46	4612.27
968.761	4630.34
969.063	4606.62
969.365	4611.59
969.666	4572.27
969.968	4528.2
970.269	4571.81
970.571	4488.88
970.872	4485.72
971.174	4469.44
971.475	4466.73
971.776	4463.8
972.077	4409.56
972.378	4402.1
972.679	4386.51
972.98	4370.69
973.281	4369.56
973.582	4301.77
973.883	4357.13
974.183	4307.41
974.484	4285.49
974.785	4233.97
975.085	4234.42
975.386	4245.95
975.686	4193.97
975.986	4195.1
976.287	4173.41
976.587	4097.48
976.887	4084.6
977.187	4116.01
977.487	4038.95
977.787	4067.2
978.087	3990.14
978.387	4006.63
978.687	3995.33
978.987	3989.68
979.286	3966.18
979.586	3975.22
979.885	3913.75
980.185	3868.33
980.484	3905.17
980.784	3895.9
981.083	3844.6
981.382	3848.44
981.682	3831.72
981.981	3784.72
982.28	3782.46
982.579	3800.31
982.878	3790.14
983.177	3708.33
983.475	3744.94
983.774	3705.4
984.073	3718.28
984.372	3637.38
984.67	3665.85
984.969	3664.04
985.267	3691.39
985.566	3601.9
985.864	3621.11
986.162	3613.87
986.461	3558.06
986.759	3526.19
987.057	3558.51
987.355	3513.09
987.653	3509.02
987.951	3483.26
988.249	3453.65
988.547	3420.43
988.844	3438.29
989.142	3439.87
989.44	3415.69
989.737	3362.81
990.035	3319.64
990.332	3308.35
990.63	3327.55
990.927	3300.89
991.224	3315.58
991.521	3305.41
991.819	3232.87
992.116	3231.06
992.413	3221.79
992.71	3208.91
993.006	3178.41
993.303	3202.36
993.6	3159.2
993.897	3159.2
994.193	3169.37
994.49	3124.85
994.787	3113.1
995.083	3075.36
995.379	3057.05
995.676	3062.48
995.972	3055.24
996.268	3050.95
996.565	2990.84
996.861	3034
997.157	2993.1
997.453	2968.02
997.749	2942.48
998.044	2946.09
998.34	2943.61
998.636	2898.19
998.932	2889.15
999.227	2889.15
999.523	2829.26
999.818	2859.77
1000.114	2846.66
1000.409	2834.23
1000.704	2813.67
1001	2779.77
1001.295	2781.58
1001.59	2732.77
1001.885	2756.72
1002.18	2678.98
1002.475	2681.92
1002.77	2733.45
1003.065	2673.33
1003.359	2677.63
1003.654	2668.14
1003.949	2627.69
1004.243	2636.72
1004.538	2606.22
1004.832	2584.97
1005.127	2575.48
1005.421	2563.73
1005.715	2545.88
1006.009	2527.8
1006.304	2529.83
1006.598	2521.25
1006.892	2480.57
1007.186	2445.32
1007.48	2475.6
1007.773	2469.05
1008.067	2427.24
1008.361	2420.46
1008.655	2401.48
1008.948	2400.35
1009.242	2384.98
1009.535	2394.02
1009.829	2350.63
1010.122	2324.87
1010.415	2334.59
1010.708	2284.19
1011.001	2323.74
1011.295	2294.59
1011.588	2289.61
1011.881	2250.52
1012.173	2229.5
1012.466	2239.45
1012.759	2222.05
1013.052	2197.87
1013.344	2194.25
1013.637	2165.1
1013.93	2166.91
1014.222	2125.1
1014.514	2137.08
1014.807	2123.97
1015.099	2095.72
1015.391	2102.95
1015.683	2055.04
1015.976	2092.11
1016.268	2049.85
1016.56	2044.42
1016.851	2021.6
1017.143	2024.99
1017.435	1992.67
1017.727	1990.41
1018.018	1981.6
1018.31	1987.02
1018.602	1971.66
1018.893	1949.51
1019.185	1914.26
1019.476	1883.52
1019.767	1899.79
1020.058	1885.33
1020.35	1881.49
1020.641	1871.77
1020.932	1891.66
1021.223	1799.91
1021.514	1835.62
1021.804	1818.21
1022.095	1773.92
1022.386	1811.66
1022.677	1769.4
1022.967	1735.05
1023.258	1742.51
1023.548	1750.19
1023.839	1733.25
1024.129	1719.46
1024.419	1692.79
1024.709	1703.87
1025	1695.28
1025.29	1659.35
1025.58	1656.64
1025.87	1634.94
1026.16	1607.82
1026.449	1642.17
1026.739	1574.61
1027.029	1578.45
1027.319	1611.89
1027.608	1583.19
1027.898	1559.46
1028.187	1561.5
1028.477	1554.72
1028.766	1526.47
1029.055	1503.87
1029.344	1504.32
1029.634	1502.07
1029.923	1476.08
1030.212	1475.4
1030.501	1443.31
1030.79	1480.82
1031.078	1457.32
1031.367	1457.55
1031.656	1431.11
1031.945	1416.87
1032.233	1431.78
1032.522	1385.01
1032.81	1374.16
1033.099	1386.59
1033.387	1374.61
1033.675	1366.48
1033.963	1332.13
1034.251	1323.54
1034.54	1327.83
1034.828	1280.6
1035.116	1294.16
1035.403	1348.62
1035.691	1265.91
1035.979	1276.08
1036.267	1274.95
1036.554	1267.49
1036.842	1250.77
1037.129	1245.12
1037.417	1245.35
1037.704	1245.57
1037.992	1212.36
1038.279	1214.39
1038.566	1214.61
1038.853	1214.61
1039.14	1214.61
