Data from orange_diffuse_book_FLMS001491_00055.txt Node
Date: Wed Feb 08 15:29:45 GMT 2017
User: dcchb
Spectrometer: FLMS00149
Trigger mode: 0
Integration Time (sec): 2.000000E-2
Scans to average: 10
Electric dark correction enabled: true
Nonlinearity correction enabled: false
Boxcar width: 0
XAxis mode: Wavelengths
Number of Pixels in Spectrum: 2048
>>>>>Begin Spectral Data<<<<<
341.393	-11.86
341.776	-11.86
342.16	-11.86
342.543	-49.38
342.927	-50.28
343.31	-60.9
343.693	-71.98
344.077	-50.51
344.46	-64.74
344.843	-60.68
345.226	-54.57
345.61	-31.75
345.993	-20.23
346.376	-11.64
346.759	5.99
347.142	29.72
347.525	46.21
347.908	55.48
348.291	76.27
348.674	79.21
349.057	134.12
349.44	129.83
349.823	137.96
350.206	184.29
350.588	221.58
350.971	198.75
351.354	244.4
351.737	259.09
352.119	268.35
352.502	268.13
352.884	286.21
353.267	300.9
353.65	310.39
354.032	319.88
354.414	318.3
354.797	313.1
355.179	329.6
355.562	336.38
355.944	344.74
356.326	343.15
356.709	343.38
357.091	351.97
357.473	355.58
357.855	335.02
358.238	355.13
358.62	347.45
359.002	353.32
359.384	353.1
359.766	352.87
360.148	353.32
360.53	351.97
360.912	347.67
361.294	350.16
361.676	342.48
362.057	332.31
362.439	338.64
362.821	332.31
363.203	358.3
363.584	358.52
363.966	335.25
364.348	340.67
364.729	337.05
365.111	330.95
365.493	350.16
365.874	338.18
366.256	318.3
366.637	330.27
367.019	346.54
367.4	329.14
367.781	319.2
368.163	324.85
368.544	324.4
368.925	335.92
369.306	325.53
369.688	331.63
370.069	322.59
370.45	324.4
370.831	325.08
371.212	323.72
371.593	326.88
371.974	311.74
372.355	318.75
372.736	330.27
373.117	344.96
373.498	335.92
373.879	328.01
374.26	315.13
374.641	321.69
375.021	327.11
375.402	358.52
375.783	324.85
376.163	330.95
376.544	347
376.925	331.86
377.305	323.95
377.686	326.88
378.066	334.34
378.447	365.75
378.827	332.76
379.208	338.64
379.588	354.45
379.968	344.51
380.349	369.82
380.729	342.48
381.109	344.06
381.489	349.93
381.87	361.91
382.25	367.33
382.63	342.93
383.01	356.71
383.39	348.8
383.77	354.68
384.15	350.61
384.53	374.79
384.91	370.72
385.29	344.96
385.67	336.83
386.049	359.43
386.429	370.27
386.809	358.07
387.189	336.6
387.568	362.14
387.948	363.27
388.328	377.73
388.707	379.54
389.087	359.88
389.466	369.14
389.846	396.26
390.225	375.02
390.605	382.48
390.984	363.04
391.363	390.61
391.743	406.2
392.122	371.85
392.501	369.37
392.881	381.57
393.26	402.36
393.639	381.12
394.018	389.93
394.397	383.61
394.776	400.33
395.155	397.62
395.534	387.9
395.913	380.44
396.292	405.53
396.671	417.96
397.05	402.36
397.429	409.14
397.808	393.1
398.186	393.1
398.565	400.1
398.944	404.17
399.323	416.83
399.701	411.4
400.08	403.27
400.458	416.83
400.837	416.6
401.215	420.89
401.594	433.1
401.972	424.28
402.351	410.5
402.729	415.92
403.107	444.4
403.486	422.02
403.864	428.58
404.242	428.8
404.62	424.51
404.999	437.62
405.377	422.7
405.755	457.73
406.133	429.25
406.511	447.11
406.889	440.55
407.267	444.85
407.645	463.83
408.023	460.89
408.401	447.33
408.779	445.53
409.156	477.84
409.534	459.99
409.912	462.7
410.29	468.58
410.667	481.23
411.045	464.06
411.422	462.47
411.8	496.37
412.178	491.17
412.555	484.17
412.933	478.29
413.31	481.68
413.687	493.66
414.065	484.17
414.442	501.34
414.819	494.79
415.197	502.47
415.574	524.39
415.951	514.68
416.328	494.79
416.705	521.23
417.082	536.6
417.46	537.95
417.837	550.83
418.214	552.64
418.591	517.61
418.967	552.19
419.344	525.52
419.721	554.67
420.098	553.77
420.475	572.98
420.852	550.38
421.228	562.13
421.605	543.6
421.982	548.57
422.358	601.45
422.735	570.95
423.111	567.78
423.488	573.21
423.864	585.63
424.241	582.92
424.617	593.32
424.994	592.41
425.37	583.6
425.746	614.33
426.123	562.36
426.499	609.36
426.875	625.86
427.251	614.11
427.627	627.67
428.003	621.79
428.379	623.37
428.756	641.68
429.132	643.26
429.507	646.88
429.883	648.01
430.259	670.15
430.635	639.87
431.011	663.15
431.387	665.86
431.763	665.41
432.138	678.06
432.514	690.26
432.89	666.76
433.265	695.01
433.641	702.47
434.016	739.08
434.392	717.38
434.767	714.44
435.143	736.36
435.518	745.86
435.894	741.79
436.269	727.1
436.644	742.24
437.02	761
437.395	739.98
437.77	765.06
438.145	766.42
438.52	776.14
438.895	760.32
439.271	764.84
439.646	791.5
440.021	793.76
440.395	783.14
440.77	806.19
441.145	805.29
441.52	814.1
441.895	825.63
442.27	810.71
442.645	829.02
443.019	809.13
443.394	825.18
443.769	832.41
444.143	839.86
444.518	833.09
444.892	847.77
445.267	848.45
445.641	866.08
446.016	874.21
446.39	846.42
446.764	871.28
447.139	848
447.513	876.93
447.887	864.95
448.262	879.86
448.636	885.97
449.01	874.21
449.384	919.86
449.758	894.1
450.132	900.65
450.506	907.43
450.88	914.67
451.254	918.51
451.628	904.27
452.002	897.72
452.376	941.33
452.75	923.03
453.123	935.46
453.497	953.99
453.871	946.75
454.244	957.38
454.618	946.98
454.992	965.06
455.365	989.24
455.739	975
456.112	1010.93
456.486	1019.3
456.859	1022.23
457.232	1016.58
457.606	1017.49
457.979	1034.44
458.352	1030.14
458.725	1059.97
459.099	1035.57
459.472	1083.93
459.845	1081.89
460.218	1075.79
460.591	1073.53
460.964	1118.28
461.337	1115.56
461.71	1134.32
462.083	1159.4
462.456	1141.78
462.829	1117.82
463.201	1155.79
463.574	1133.64
463.947	1150.14
464.32	1180.65
464.692	1176.13
465.065	1185.17
465.438	1195.56
465.81	1221.55
466.183	1227.43
466.555	1230.59
466.928	1218.84
467.3	1243.47
467.672	1244.6
468.045	1294.99
468.417	1274.88
468.789	1293.86
469.161	1316.24
469.534	1335.9
469.906	1329.8
470.278	1344.48
470.65	1335.45
471.022	1384.94
471.394	1396.91
471.766	1389.68
472.138	1403.92
472.51	1456.12
472.882	1424.48
473.253	1445.95
473.625	1468.32
473.997	1495.67
474.369	1504.71
474.74	1512.39
475.112	1517.14
475.484	1562.56
475.855	1572.73
476.227	1610.92
476.598	1622.22
476.97	1593.07
477.341	1681.2
477.713	1641.88
478.084	1712.61
478.455	1739.28
478.827	1745.38
479.198	1789.22
479.569	1803.23
479.94	1813.62
480.311	1840.29
480.682	1871.93
481.053	1904.47
481.424	1933.4
481.795	1938.82
482.166	1976.56
482.537	2003.45
482.908	2047.06
483.279	2028.08
483.65	2050
484.021	2118.93
484.391	2134.75
484.762	2164.8
485.133	2177.46
485.503	2220.62
485.874	2250
486.244	2307.4
486.615	2310.56
486.985	2348.3
487.356	2354.85
487.726	2436.66
488.097	2421.97
488.467	2451.8
488.837	2482.08
489.207	2529.54
489.578	2592.36
489.948	2575.64
490.318	2680.72
490.688	2667.39
491.058	2735.41
491.428	2716.65
491.798	2772.7
492.168	2791.23
492.538	2835.07
492.908	2876.65
493.278	2894.05
493.648	2938.11
494.017	2956.87
494.387	3002.07
494.757	3024.44
495.126	3049.98
495.496	3086.81
495.866	3122.52
496.235	3159.13
496.605	3162.52
496.974	3204.1
497.344	3266.69
497.713	3296.07
498.082	3275.28
498.452	3333.36
498.821	3358.44
499.19	3358.67
499.559	3399.8
499.928	3421.72
500.298	3479.8
500.667	3487.7
501.036	3512.11
501.405	3547.14
501.774	3571.32
502.143	3613.13
502.512	3644.54
502.88	3663.52
503.249	3681.6
503.618	3694.93
503.987	3773.35
504.356	3779
504.724	3801.59
505.093	3800.24
505.462	3788.26
505.83	3867.58
506.199	3907.81
506.567	3959.33
506.936	3957.75
507.304	3986
507.672	4027.8
508.041	4012.89
508.409	4071.64
508.777	4121.59
509.145	4129.5
509.514	4143.51
509.882	4164.3
510.25	4141.92
510.618	4240
510.986	4248.36
511.354	4301.02
511.722	4336.72
512.09	4378.08
512.458	4377.85
512.826	4388.92
513.193	4428.92
513.561	4447.45
513.929	4479.32
514.297	4536.72
514.664	4573.55
515.032	4575.81
515.4	4616.71
515.767	4659.43
516.135	4673.21
516.502	4659.88
516.869	4704.62
517.237	4723.83
517.604	4719.76
517.972	4825.3
518.339	4842.92
518.706	4867.33
519.073	4894.22
519.44	4912.75
519.808	4984.61
520.175	4971.96
520.542	5013.54
520.909	5026.87
521.276	5077.49
521.643	5178.96
522.009	5098.96
522.376	5204.95
522.743	5237.72
523.11	5260.54
523.477	5284.72
523.843	5373.76
524.21	5417.82
524.577	5510.02
524.943	5457.37
525.31	5513.87
525.676	5582.79
526.043	5579.4
526.409	5663.69
526.776	5683.13
527.142	5680.87
527.508	5673.64
527.874	5743.24
528.241	5753.86
528.607	5768.32
528.973	5820.98
529.339	5864.82
529.705	5872.73
530.071	5962.44
530.437	5926.96
530.803	6047.64
531.169	5986.4
531.535	6020.75
531.901	6134.41
532.267	6070.69
532.632	6163.11
532.998	6159.27
533.364	6230.91
533.73	6246.05
534.095	6257.8
534.461	6245.37
534.826	6295.77
535.192	6366.5
535.557	6370.34
535.923	6376.67
536.288	6366.05
536.653	6438.36
537.019	6421.41
537.384	6460.96
537.749	6487.4
538.114	6498.25
538.479	6474.07
538.845	6549.77
539.21	6579.6
539.575	6633.61
539.94	6605.36
540.305	6714.51
540.67	6690.33
541.034	6719.26
541.399	6754.29
541.764	6793.61
542.129	6777.56
542.494	6823.66
542.858	6855.3
543.223	6863.21
543.587	6973.94
543.952	6930.33
544.316	7019.36
544.681	6979.36
545.045	7022.98
545.41	7089.87
545.774	7082.86
546.138	7115.18
546.503	7172.13
546.867	7207.38
547.231	7267.49
547.595	7287.83
547.959	7321.28
548.324	7324.67
548.688	7315.17
549.052	7355.17
549.416	7405.34
549.779	7451.67
550.143	7491.22
550.507	7495.51
550.871	7620.7
551.235	7553.81
551.599	7691.21
551.962	7759.68
552.326	7730.08
552.689	7839.68
553.053	7835.16
553.417	7854.6
553.78	7959
554.143	7970.3
554.507	7998.32
554.87	8068.15
555.234	8181.82
555.597	8123.52
555.96	8158.77
556.323	8235.38
556.686	8319.89
557.05	8421.36
557.413	8425.65
557.776	8498.65
558.139	8514.92
558.502	8564.86
558.865	8611.19
559.228	8761.46
559.59	8763.5
559.953	8794.46
560.316	8861.12
560.679	8902.48
561.041	9035.58
561.404	9105.86
561.767	9190.61
562.129	9252.98
562.492	9368.23
562.854	9384.72
563.217	9479.41
563.579	9550.82
563.941	9618.39
564.304	9744.49
564.666	9887.31
565.028	9921.43
565.39	9934.09
565.753	10138.15
566.115	10236
566.477	10228.32
566.839	10299.28
567.201	10495.66
567.563	10514.64
567.925	10720.74
568.287	10800.28
568.648	10949.88
569.01	11059.26
569.372	11222.42
569.734	11260.83
570.095	11473.94
570.457	11513.93
570.819	11701.95
571.18	11854.94
571.542	11953.92
571.903	12084.09
572.265	12317.08
572.626	12484.76
572.987	12636.16
573.349	12802.04
573.71	13037.74
574.071	13183.72
574.432	13348.69
574.794	13531.51
575.155	13757.04
575.516	13930.59
575.877	14170.59
576.238	14380.98
576.599	14623.23
576.96	14817.12
577.32	15085.14
577.681	15308.41
578.042	15601.06
578.403	15874.27
578.763	16060.03
579.124	16294.15
579.485	16704.76
579.845	16989.04
580.206	17288.25
580.566	17466.32
580.927	17779.08
581.287	18144.95
581.648	18430.36
582.008	18758.49
582.368	19095.66
582.728	19502.88
583.089	19758.24
583.449	20066.93
583.809	20466.69
584.169	20757.08
584.529	21057.19
584.889	21668.7
585.249	21857.84
585.609	22240.66
585.969	22851.04
586.329	23170.8
586.688	23567.63
587.048	23874.74
587.408	24261.62
587.768	24783.19
588.127	25058.44
588.487	25540.46
588.846	26204.85
589.206	26489.36
589.565	27001.21
589.925	27370.92
590.284	27763.9
590.643	28354.4
591.003	28787.38
591.362	29272.79
591.721	29741.7
592.08	30180.34
592.44	30651.28
592.799	31077.26
593.158	31562.22
593.517	32072.04
593.876	32598.35
594.235	32802.64
594.593	33554.26
594.952	34052.78
595.311	34475.59
595.67	35022.92
596.029	35489.12
596.387	35934.99
596.746	36452.94
597.104	36818.81
597.463	37249.53
597.822	37919.34
598.18	38110.07
598.538	38534.02
598.897	39175.81
599.255	39379.42
599.613	40307.75
599.972	40427.75
600.33	40906.83
600.688	41277.9
601.046	41806.02
601.404	42316.74
601.762	42538.2
602.12	43001.02
602.478	43539.31
602.836	43847.77
603.194	43936.58
603.552	44528.21
603.91	44792.83
604.268	45369.09
604.625	45400.28
604.983	45844.56
605.341	46059.47
605.698	46642.5
606.056	46881.82
606.413	47068.03
606.771	47546.66
607.128	47853.32
607.485	47898.06
607.843	48169.92
608.2	48522.23
608.557	48811.48
608.914	49008.99
609.272	49352.04
609.629	49570.79
609.986	49812.36
610.343	49808.75
610.7	50248.28
611.057	50419.8
611.414	50488.05
611.771	50761.94
612.127	50990.41
612.484	51189.73
612.841	51344.53
613.198	51312.66
613.554	51505.2
613.911	51798.75
614.267	51874.46
614.624	52018.63
614.98	52155.13
615.337	52351.73
615.693	52539.07
616.05	52500.2
616.406	52814.77
616.762	52768.89
617.118	52813.87
617.475	52873.53
617.831	53161.65
618.187	53087.98
618.543	53289.33
618.899	53476
619.255	53446.17
619.611	53535.43
619.967	53714.86
620.323	53820.17
620.678	53759.38
621.034	53718.7
621.39	53759.38
621.746	53774.29
622.101	54080.27
622.457	53895.87
622.812	54017.68
623.168	54081.18
623.523	54203.43
623.879	54296.54
624.234	54232.81
624.589	54292.02
624.945	54348.74
625.3	54525.91
625.655	54433.26
626.01	54419.47
626.365	54521.39
626.72	54474.61
627.075	54489.08
627.43	54567.27
627.785	54491.79
628.14	54666.7
628.495	54560.03
628.85	54676.64
629.205	54623.76
629.559	54821.95
629.914	54696.75
630.269	54668.73
630.623	54665.34
630.978	54627.6
631.332	54768.39
631.687	54864.89
632.041	54652.69
632.396	54791.67
632.75	54663.53
633.104	54725.45
633.459	54651.78
633.813	54765.23
634.167	54685.45
634.521	54700.14
634.875	54631.67
635.229	54718.22
635.583	54600.49
635.937	54547.15
636.291	54623.08
636.645	54574.27
636.999	54492.92
637.352	54539.24
637.706	54418.57
638.06	54590.32
638.413	54503.99
638.767	54460.38
639.121	54493.6
639.474	54302.87
639.828	54422.18
640.181	54472.35
640.534	54404.56
640.888	54434.16
641.241	54259.48
641.594	54398.91
641.947	54394.16
642.301	54418.8
642.654	54427.16
643.007	54405.46
643.36	54419.47
643.713	54311.68
644.066	54440.26
644.419	54224.45
644.771	54002.99
645.124	53674.63
645.477	53693.62
645.83	53645.71
646.182	53507.18
646.535	53477.12
646.888	53581.3
647.24	53443.91
647.593	53541.3
647.945	53448.43
648.298	53325.94
648.65	53311.25
649.002	53137.47
649.355	53350.12
649.707	53321.65
650.059	53386.73
650.411	53802.99
650.763	53757.12
651.115	54139.25
651.467	53950.78
651.819	53981.29
652.171	53981.07
652.523	53899.94
652.875	53827.62
653.227	53849.09
653.578	53983.33
653.93	53868.98
654.282	53751.24
654.633	53699.94
654.985	53790.56
655.337	53794.63
655.688	53914.85
656.039	53990.33
656.391	53700.17
656.742	53733.16
657.094	53686.84
657.445	53913.05
657.796	53830.11
658.147	53792.37
658.498	53747.85
658.849	53881.41
659.2	53802.77
659.551	53692.94
659.902	53811.81
660.253	53790.79
660.604	53826.27
660.955	53711.47
661.306	53772.71
661.656	53751.47
662.007	53672.83
662.358	53790.11
662.708	53684.13
663.059	53732.26
663.409	53537.69
663.76	53700.17
664.11	53696.55
664.461	53735.88
664.811	53673.73
665.161	53754.41
665.511	53587.86
665.862	53585.6
666.212	53805.7
666.562	53742.88
666.912	53683
667.262	53582.88
667.612	53656.33
667.962	53603.22
668.312	53535.2
668.662	53724.12
669.011	53590.79
669.361	53553.51
669.711	53544.47
670.06	53428.76
670.41	53403.68
670.76	53371.37
671.109	53558.93
671.459	53331.59
671.808	53265.38
672.157	53443.68
672.507	53267.41
672.856	53269.9
673.205	53242.1
673.554	53309.22
673.904	53202.33
674.253	53303.8
674.602	53262.44
674.951	52718.95
675.3	52677.6
675.649	53196.45
675.998	53148.09
676.346	53105.38
676.695	53250.69
677.044	52858.84
677.393	52921.21
677.741	53062.67
678.09	52991.71
678.438	52894.32
678.787	53053.41
679.135	53016.57
679.484	52806.86
679.832	52860.87
680.181	52687.32
680.529	52790.82
680.877	52727.54
681.225	52701.1
681.573	52836.24
681.922	52655.45
682.27	52595.79
682.618	52603.93
682.966	52432.63
683.314	52657.94
683.661	52424.95
684.009	52290.26
684.357	52273.77
684.705	52215.46
685.053	52270.83
685.4	52221.34
685.748	52074.45
686.095	52015.02
686.443	51909.26
686.79	51839.43
687.138	51941.8
687.485	51904.06
687.832	51808.02
688.18	51757.85
688.527	51530.28
688.874	51626.78
689.221	51580.68
689.568	51382.26
689.915	51333.68
690.262	51306.11
690.609	51301.59
690.956	51150.86
691.303	51147.92
691.65	50968.94
691.997	50919.23
692.344	50748.16
692.69	50677.42
693.037	50758.33
693.383	50507.94
693.73	50538.67
694.077	50345
694.423	50246.25
694.769	50240.37
695.116	50227.49
695.462	50139.81
695.808	50043.32
696.155	50099.36
696.501	49646.49
696.847	49726.94
697.193	49517
697.539	49676.09
697.885	49307.74
698.231	49153.62
698.577	49312.26
698.923	49093.74
699.269	48950.46
699.614	48768.55
699.96	48820.07
700.306	48762.9
700.651	48475
700.997	48439.07
701.342	48388.22
701.688	48408.33
702.033	48229.13
702.379	48147.77
702.724	48042.01
703.069	48128.11
703.415	47629.82
703.76	47666.66
704.105	47613.32
704.45	47620.78
704.795	47347.12
705.14	47315.03
705.485	47255.82
705.83	46979.89
706.175	46976.28
706.52	46985.09
706.865	46906.45
707.209	46771.99
707.554	46515.05
707.899	46693.8
708.243	46501.04
708.588	46365.67
708.932	46137.43
709.277	46120.93
709.621	46198.67
709.966	45847.27
710.31	46059.01
710.654	45726.82
710.998	45776.31
711.342	45766.59
711.687	45451.35
712.031	45337.9
712.375	45323.89
712.719	45377.22
713.063	45366.6
713.407	45436.66
713.75	45192.15
714.094	45032.83
714.438	44926.39
714.782	44963.22
715.125	44839.84
715.469	44866.73
715.812	44622.22
716.156	44492.95
716.499	44419.06
716.843	44518.94
717.186	44151.72
717.53	44346.29
717.873	44506.29
718.216	44320.08
718.559	44088.22
718.902	43870.37
719.246	43935.23
719.589	43826.53
719.932	43712.86
720.275	43804.84
720.617	43571.4
720.96	43662.69
721.303	43442.13
721.646	43581.34
721.989	43335.7
722.331	43426.32
722.674	43333.44
723.016	43305.42
723.359	43236.94
723.701	43287.56
724.044	43071.97
724.386	42843.73
724.729	42978.64
725.071	42940.68
725.413	42851.64
725.755	42848.7
726.097	42701.59
726.439	42603.96
726.782	42488.49
727.124	42683.51
727.465	42548.6
727.807	42557.64
728.149	42385.89
728.491	42460.69
728.833	42455.04
729.175	42129.85
729.516	42250.3
729.858	42183.64
730.199	42187.03
730.541	42074.26
730.882	42020.93
731.224	42181.6
731.565	41788.39
731.906	41927.82
732.248	42054.6
732.589	41799.24
732.93	41695.29
733.271	41639.24
733.612	41667.04
733.953	41634.95
734.294	41565.8
734.635	41483.99
734.976	41587.72
735.317	41260.72
735.658	41412.81
735.999	41346.37
736.339	41275.64
736.68	41382.53
737.021	41186.83
737.361	41105.92
737.702	41399.25
738.042	41135.3
738.383	41072.25
738.723	41040.62
739.063	40997.45
739.404	41024.8
739.744	41019.37
740.084	40694.41
740.424	40872.26
740.764	40692.6
741.104	40829.32
741.444	40632.26
741.784	40561.31
742.124	40658.7
742.464	40667.97
742.804	40452.61
743.143	40434.3
743.483	40294.87
743.823	40165.61
744.162	40171.94
744.502	40283.12
744.841	40191.6
745.181	40076.12
745.52	40114.09
745.86	40185.72
746.199	40047.87
746.538	39952.28
746.877	40043.58
747.216	39978.04
747.556	40015.33
747.895	39901.89
748.234	39700.99
748.573	39647.88
748.911	39649.47
749.25	39703.02
749.589	39537.15
749.928	39563.14
750.267	39571.5
750.605	39522.69
750.944	39398.85
751.283	39329.47
751.621	39493.76
751.96	39020.78
752.298	38947.34
752.636	39080.44
752.975	38873.89
753.313	38819.21
753.651	38919.77
753.989	38817.85
754.327	38666.67
754.666	38461.02
755.004	38544.18
755.342	38558.2
755.679	38509.16
756.017	38242.5
756.355	38429.84
756.693	38201.14
757.031	38265.55
757.368	38015.16
757.706	38053.12
758.044	37973.13
758.381	37932.67
758.719	37693.59
759.056	37705.56
759.394	37586.02
759.731	37257.89
760.068	37323.43
760.405	37190.77
760.743	37168.85
761.08	37200.94
761.417	36995.98
761.754	36906.26
762.091	36870.78
762.428	36689.77
762.765	36520.96
763.102	36690.67
763.438	36391.47
763.775	36257.01
764.112	36325.94
764.449	36383.56
764.785	36036.23
765.122	35959.39
765.458	35768.89
765.795	35627.2
766.131	35715.33
766.467	35422.68
766.804	35394.21
767.14	35176.82
767.476	35213.2
767.812	35022.02
768.148	35206.19
768.485	34934.56
768.821	34789.93
769.157	34662.48
769.492	34472.43
769.828	34519.43
770.164	34240.12
770.5	34162.83
770.836	34201.93
771.171	33991.31
771.507	33870.18
771.842	33595.16
772.178	33649.85
772.513	33466.58
772.849	33551.55
773.184	33301.16
773.519	33325.11
773.855	33146.59
774.19	32933.48
774.525	32968.74
774.86	32831.79
775.195	32811.45
775.53	32635.87
775.865	32392.93
776.2	32226.61
776.535	32099.38
776.87	31893.06
777.205	32033.62
777.539	31763.35
777.874	31848.99
778.209	31693.29
778.543	31609.68
778.878	31450.13
779.212	31341.66
779.547	31162.68
779.881	31197.26
780.215	31059.64
780.55	31046.53
780.884	30743.94
781.218	30753.43
781.552	30661.45
781.886	30438.18
782.22	30362.7
782.554	30291.52
782.888	30116.38
783.222	29870.29
783.556	29832.32
783.889	29752.78
784.223	29628.94
784.557	29585.55
784.89	29609.73
785.224	29475.5
785.557	29312.11
785.891	29152.11
786.224	29174.04
786.558	29082.06
786.891	28728.17
787.224	28719.81
787.557	28709.19
787.891	28696.08
788.224	28605.24
788.557	28547.16
788.89	28485.92
789.223	28364.56
789.556	28006.16
789.888	28048.19
790.221	28038.02
790.554	27732.72
790.887	27861.3
791.219	27691.59
791.552	27714.41
791.884	27482.55
792.217	27480.52
792.549	27284.82
792.882	27012.06
793.214	26977.48
793.546	27149.91
793.879	26882.8
794.211	26751.27
794.543	26749.01
794.875	26623.37
795.207	26794.66
795.539	26496.14
795.871	26498.4
796.203	26328.69
796.535	26177.05
796.867	26244.17
797.198	26168.01
797.53	26130.05
797.862	25943.16
798.193	25878.3
798.525	25819.55
798.856	25768.93
799.188	25497.07
799.519	25500.69
799.85	25376.62
800.182	25432.89
800.513	25399.9
800.844	25097.76
801.175	25187.47
801.506	25150.19
801.837	25004.43
802.168	24817.77
802.499	24772.57
802.83	24672.01
803.161	24707.26
803.491	24697.99
803.822	24586.81
804.153	24462.75
804.483	24201.96
804.814	24295.29
805.145	24158.35
805.475	24190.89
805.805	24138.91
806.136	24072.7
806.466	24100.72
806.796	24027.96
807.126	23867.73
807.457	23858.69
807.787	23722.65
808.117	23651.69
808.447	23564.47
808.777	23600.4
809.107	23507.74
809.436	23400.4
809.766	23372.61
810.096	23324.7
810.426	23145.27
810.755	23188.43
811.085	23124.48
811.414	23016.68
811.744	22868.21
812.073	22881.55
812.403	22880.42
812.732	22742.11
813.061	22730.14
813.39	22629.57
813.719	22495.79
814.049	22593.42
814.378	22521.55
814.707	22410.37
815.036	22380.09
815.365	22340.54
815.693	22076.59
816.022	22216.03
816.351	22001.79
816.68	21933.77
817.008	21989.82
817.337	21787.34
817.665	21754.57
817.994	21861.23
818.322	21879.09
818.651	21543.95
818.979	21577.85
819.307	21647.91
819.636	21448.59
819.964	21396.84
820.292	21520.23
820.62	21395.93
820.948	21338.08
821.276	21449.94
821.604	21296.5
821.932	21386.44
822.259	21371.08
822.587	21364.52
822.915	21363.62
823.243	21439.32
823.57	21279.1
823.898	21324.07
824.225	21317.07
824.553	21307.58
824.88	21213.11
825.207	21310.74
825.535	21206.56
825.862	21328.59
826.189	21266.67
826.516	21349.16
826.843	21406.33
827.17	21420.57
827.497	21313
827.824	21384.86
828.151	21426.22
828.478	21233
828.805	21389.61
829.131	21200.69
829.458	21219.44
829.785	21130.4
830.111	21226.22
830.438	21320.91
830.764	21213.34
831.09	21298.99
831.417	21086.56
831.743	21247.24
832.069	21193.23
832.395	21031.2
832.722	21280.46
833.048	21099.22
833.374	21270.97
833.7	21066.68
834.026	21141.48
834.351	21209.5
834.677	20986
835.003	21045.89
835.329	21067.58
835.654	20963.86
835.98	20911.2
836.306	20926.34
836.631	20817.42
836.956	20855.61
837.282	20896.29
837.607	20852.9
837.932	20725.9
838.258	20757.31
838.583	20646.35
838.908	20542.17
839.233	20612.68
839.558	20666.24
839.883	20406.81
840.208	20558.89
840.533	20473.25
840.858	20489.74
841.182	20508.5
841.507	20416.98
841.832	20335.4
842.156	20219.69
842.481	20347.83
842.805	20227.15
843.13	20045.01
843.454	20121.62
843.778	19987.61
844.103	19974.96
844.427	19896.54
844.751	19915.52
845.075	19926.14
845.399	19896.99
845.723	19810.44
846.047	19767.73
846.371	19524.8
846.695	19602.54
847.019	19433.73
847.343	19293.84
847.666	19229.66
847.99	19280.96
848.313	19244.35
848.637	19172.49
848.96	18995.77
849.284	18990.12
849.607	18901.54
849.931	18828.09
850.254	18722.78
850.577	18693.41
850.9	18455.45
851.223	18362.34
851.546	18322.57
851.869	18287.54
852.192	18440.98
852.515	18190.14
852.838	18033.09
853.161	18128.45
853.483	17967.55
853.806	17894.11
854.129	17848.46
854.451	17776.59
854.774	17713.32
855.096	17636.94
855.419	17506.55
855.741	17547.22
856.063	17486.88
856.385	17451.86
856.708	17338.87
857.03	17288.02
857.352	17275.14
857.674	17150.4
857.996	17198.76
858.318	16998.54
858.64	17054.58
858.961	17034.69
859.283	16977.07
859.605	16840.57
859.926	16963.96
860.248	16808.71
860.57	16715.15
860.891	16751.31
861.212	16829.05
861.534	16839.9
861.855	16615.5
862.176	16658.43
862.498	16597.19
862.819	16572.78
863.14	16531.88
863.461	16447.82
863.782	16461.83
864.103	16410.75
864.424	16467.25
864.745	16442.84
865.065	16377.99
865.386	16236.3
865.707	16214.15
866.027	16220.03
866.348	16154.26
866.668	16140.71
866.989	16156.98
867.309	16028.62
867.63	16120.37
867.95	16048.96
868.27	16076.75
868.59	15973.7
868.91	16014.61
869.23	15861.84
869.55	15822.75
869.87	15916.98
870.19	15816.87
870.51	15847.83
870.83	15903.42
871.15	15740.49
871.469	15762.18
871.789	15754.5
872.109	15744.33
872.428	15630.66
872.748	15736.87
873.067	15643.54
873.386	15569.42
873.706	15654.39
874.025	15513.83
874.344	15488.29
874.663	15574.62
874.982	15400.61
875.301	15373.72
875.62	15432.02
875.939	15410.56
876.258	15429.76
876.577	15359.94
876.896	15280.39
877.214	15259.82
877.533	15256.21
877.852	15234.74
878.17	15207.62
878.489	15203.33
878.807	15275.19
879.125	15149.09
879.444	15068.87
879.762	15049.89
880.08	15024.12
880.398	14928.53
880.716	14981.41
881.034	14949.1
881.352	15034.75
881.67	14917.23
881.988	14912.26
882.306	14968.31
882.624	14786.62
882.941	14675.66
883.259	14747.07
883.577	14667.3
883.894	14604.7
884.212	14681.08
884.529	14538.49
884.846	14551.37
885.164	14558.37
885.481	14535.1
885.798	14500.97
886.115	14413.75
886.432	14433.18
886.75	14337.82
887.067	14319.74
887.383	14286.29
887.7	14319.28
888.017	14210.59
888.334	14208.33
888.651	14222.34
888.967	14143.92
889.284	14075.9
889.6	14081.78
889.917	13980.31
890.233	13980.76
890.55	13896.47
890.866	13827.77
891.182	13859.41
891.498	13768.11
891.815	13715.23
892.131	13718.62
892.447	13661.67
892.763	13691.5
893.079	13631.17
893.395	13508.91
893.71	13540.32
894.026	13413.32
894.342	13396.14
894.657	13292.19
894.973	13306.43
895.289	13292.87
895.604	13333.55
895.92	13180.33
896.235	13204.51
896.55	13105.98
896.865	13096.94
897.181	12986.89
897.496	12995.7
897.811	12878.87
898.126	12862.6
898.441	12852.88
898.756	12848.81
899.071	12771.75
899.386	12734.24
899.7	12655.6
900.015	12606.79
900.33	12549.16
900.644	12573.79
900.959	12529.73
901.273	12462.16
901.588	12432.1
901.902	12326.57
902.216	12307.13
902.531	12184.2
902.845	12245.44
903.159	12055.39
903.473	12051.77
903.787	12034.6
904.101	11947.37
904.415	12044.32
904.729	11969.06
905.042	11873.02
905.356	11828.28
905.67	11793.7
905.984	11775.85
906.297	11802.74
906.611	11719.13
906.924	11701.27
907.237	11569.07
907.551	11505.57
907.864	11493.14
908.177	11446.14
908.491	11376.54
908.804	11342.64
909.117	11346.03
909.43	11242.3
909.743	11207.05
910.056	11217.67
910.368	11118.69
910.681	11136.54
910.994	11084.34
911.307	10895.65
911.619	10884.57
911.932	10942.65
912.244	10774.29
912.557	10843.44
912.869	10753.95
913.181	10743.79
913.494	10640.06
913.806	10612.04
914.118	10569.55
914.43	10431.93
914.742	10544.47
915.054	10511.7
915.366	10415.21
915.678	10376.56
915.99	10326.62
916.302	10261.76
916.613	10196.68
916.925	10238.26
917.236	10188.32
917.548	10066.97
917.859	10135.67
918.171	9993.07
918.482	10003.47
918.794	9976.8
919.105	9849.8
919.416	9826.07
919.727	9842.57
920.038	9793.3
920.349	9704.94
920.66	9684.15
920.971	9675.34
921.282	9591.73
921.593	9601.67
921.903	9545.85
922.214	9478.06
922.525	9473.76
922.835	9396.48
923.146	9281.68
923.456	9366.87
923.767	9325.07
924.077	9234.22
924.387	9138.63
924.697	9174.34
925.008	9111.06
925.318	9067.45
925.628	9053.89
925.938	9080.78
926.248	8946.32
926.558	8942.93
926.867	8910.84
927.177	8863.83
927.487	8818.41
927.796	8724.63
928.106	8707.23
928.416	8690.96
928.725	8667.91
929.034	8596.5
929.344	8610.28
929.653	8616.84
929.962	8457.29
930.271	8441.92
930.581	8403.28
930.89	8456.16
931.199	8349.5
931.508	8327.58
931.817	8239.44
932.125	8260.23
932.434	8185.21
932.743	8170.07
933.051	8116.28
933.36	8073.57
933.669	8063.4
933.977	8019.79
934.286	7971.88
934.594	7927.81
934.902	7897.76
935.21	7852.34
935.519	7885.1
935.827	7843.3
936.135	7836.74
936.443	7709.97
936.751	7702.28
937.059	7643.75
937.367	7649.18
937.674	7632.91
937.982	7622.51
938.29	7494.61
938.597	7562.85
938.905	7396.98
939.213	7430.2
939.52	7393.82
939.827	7357.21
940.135	7334.84
940.442	7318.56
940.749	7341.39
941.056	7306.36
941.363	7213.26
941.67	7129.19
941.977	7164.22
942.284	7105.01
942.591	7102.75
942.898	7069.31
943.205	7077.89
943.511	6971.46
943.818	6999.93
944.125	6922.42
944.431	6918.35
944.738	6837.67
945.044	6909.08
945.35	6847.62
945.657	6791.57
945.963	6753.83
946.269	6690.33
946.575	6645.59
946.881	6678.13
947.187	6671.58
947.493	6616.66
947.799	6619.83
948.105	6544.8
948.41	6489.43
948.716	6547.29
949.022	6445.14
949.327	6437.01
949.633	6361.3
949.938	6340.06
950.244	6390.91
950.549	6302.32
950.854	6269.1
951.16	6294.18
951.465	6216.67
951.77	6195.2
952.075	6172.61
952.38	6160.63
952.685	6190.23
952.99	6050.35
953.294	6038.15
953.599	6012.16
953.904	6000.41
954.209	5978.49
954.513	5951.82
954.818	5919.51
955.122	5933.97
955.426	5884.25
955.731	5871.6
956.035	5860.07
956.339	5804.71
956.643	5781.66
956.948	5753.86
957.252	5775.33
957.556	5700.08
957.86	5774.2
958.163	5689.91
958.467	5679.51
958.771	5625.5
959.075	5601.55
959.378	5507.09
959.682	5518.61
959.985	5537.82
960.289	5518.39
960.592	5443.59
960.896	5458.27
961.199	5386.64
961.502	5404.49
961.805	5403.36
962.108	5351.38
962.411	5352.06
962.714	5275.91
963.017	5271.61
963.32	5269.35
963.623	5233.65
963.926	5250.37
964.228	5162.01
964.531	5111.62
964.833	5133.76
965.136	5108.23
965.438	5068.68
965.741	5070.71
966.043	5079.3
966.345	5017.38
966.648	4976.93
966.95	4988.23
967.252	4955.69
967.554	4945.75
967.856	4948.23
968.158	4865.52
968.46	4818.07
968.761	4824.17
969.063	4841.34
969.365	4783.94
969.666	4793.66
969.968	4704.4
970.269	4775.58
970.571	4744.17
970.872	4698.75
971.174	4688.58
971.475	4634.79
971.776	4655.13
972.077	4604.96
972.378	4587.11
972.679	4558.41
972.98	4563.61
973.281	4493.1
973.582	4486.77
973.883	4451.52
974.183	4454.01
974.484	4445.19
974.785	4418.08
975.085	4417.17
975.386	4389.15
975.686	4399.55
975.986	4355.7
976.287	4295.14
976.587	4289.49
976.887	4316.84
977.187	4266.67
977.487	4252.66
977.787	4241.36
978.087	4215.82
978.387	4185.31
978.687	4178.31
978.987	4114.36
979.286	4147.12
979.586	4141.92
979.885	4129.5
980.185	4065.09
980.484	4027.8
980.784	4020.8
981.083	4011.53
981.382	4022.83
981.682	4037.97
981.981	3993.45
982.28	3909.84
982.579	3942.83
982.878	3916.62
983.177	3906
983.475	3895.38
983.774	3935.15
984.073	3816.51
984.372	3842.95
984.67	3826
984.969	3806.34
985.267	3760.92
985.566	3743.74
985.864	3746.91
986.162	3746.46
986.461	3681.37
986.759	3716.63
987.057	3665.55
987.355	3671.43
987.653	3615.84
987.951	3640.92
988.249	3605.67
988.547	3637.76
988.844	3555.95
989.142	3574.71
989.44	3487.25
989.737	3498.78
990.035	3494.48
990.332	3461.49
990.63	3451.1
990.927	3460.59
991.224	3419.23
991.521	3404.32
991.819	3382.17
992.116	3365.22
992.413	3338.33
992.71	3319.12
993.006	3330.42
993.303	3349.4
993.6	3293.36
993.897	3263.98
994.193	3292.46
994.49	3228.05
994.787	3250.2
995.083	3204.1
995.379	3227.82
995.676	3218.56
995.972	3155.96
996.268	3164.78
996.565	3148.05
996.861	3116.64
997.157	3114.16
997.453	3120.71
997.749	3064.44
998.044	3065.8
998.34	3059.47
998.636	3006.59
998.932	2990.99
999.227	3015.63
999.523	2996.42
999.818	2922.97
1000.114	2959.36
1000.409	2943.09
1000.704	2929.08
1001	2892.69
1001.295	2858.34
1001.59	2852.47
1001.885	2838.46
1002.18	2829.19
1002.475	2838
1002.77	2802.3
1003.065	2736.54
1003.359	2756.88
1003.654	2771.34
1003.949	2740.38
1004.243	2731.34
1004.538	2699.48
1004.832	2701.51
1005.127	2692.25
1005.421	2650.44
1005.715	2623.09
1006.009	2630.1
1006.304	2607.05
1006.598	2608.86
1006.892	2568.41
1007.186	2563.21
1007.48	2584.9
1007.773	2560.5
1008.067	2566.83
1008.361	2489.77
1008.655	2486.38
1008.948	2466.71
1009.242	2492.48
1009.535	2458.58
1009.829	2425.81
1010.122	2408.19
1010.415	2391.91
1010.708	2405.47
1011.001	2362.31
1011.295	2340.16
1011.588	2372.93
1011.881	2315.08
1012.173	2282.54
1012.466	2288.87
1012.759	2305.82
1013.052	2309.2
1013.344	2284.8
1013.637	2308.07
1013.93	2223.11
1014.222	2206.61
1014.514	2201.41
1014.807	2216.1
1015.099	2178.81
1015.391	2196.21
1015.683	2147.63
1015.976	2174.97
1016.268	2139.72
1016.56	2145.14
1016.851	2080.96
1017.143	2082.09
1017.435	2114.86
1017.727	2054.75
1018.018	2049.55
1018.31	2028.08
1018.602	2043.9
1018.893	2022.43
1019.185	1986.05
1019.476	1989.44
1019.767	1984.47
1020.058	1975.43
1020.35	1963.45
1020.641	1936.11
1020.932	1909.89
1021.223	1889.33
1021.514	1877.13
1021.804	1855.43
1022.095	1862.21
1022.386	1872.15
1022.677	1868.31
1022.967	1819.73
1023.258	1789.22
1023.548	1812.04
1023.839	1793.74
1024.129	1758.94
1024.419	1747.64
1024.709	1750.8
1025	1728.2
1025.29	1751.71
1025.58	1697.02
1025.87	1717.13
1026.16	1677.58
1026.449	1696.34
1026.739	1680.52
1027.029	1650.47
1027.319	1667.19
1027.608	1634.19
1027.898	1631.26
1028.187	1606.4
1028.477	1607.08
1028.766	1570.02
1029.055	1567.08
1029.344	1577.25
1029.634	1536.8
1029.923	1553.97
1030.212	1545.84
1030.501	1522.11
1030.79	1516.46
1031.078	1489.57
1031.367	1489.57
1031.656	1477.81
1031.945	1491.83
1032.233	1470.81
1032.522	1486.85
1032.81	1435.1
1033.099	1452.96
1033.387	1400.08
1033.675	1401.66
1033.963	1414.77
1034.251	1406.63
1034.54	1351.04
1034.828	1359.85
1035.116	1352.85
1035.403	1350.36
1035.691	1338.61
1035.979	1336.12
1036.267	1315.56
1036.554	1276.92
1036.842	1282.79
1037.129	1288.89
1037.417	1267.88
1037.704	1269.46
1037.992	1256.13
1038.279	1254.54
1038.566	1250.7
1038.853	1250.7
1039.14	1250.7
