Data from orange_diffuse_book_FLMS001491_00065.txt Node
Date: Wed Feb 08 15:29:53 GMT 2017
User: dcchb
Spectrometer: FLMS00149
Trigger mode: 0
Integration Time (sec): 2.000000E-2
Scans to average: 10
Electric dark correction enabled: true
Nonlinearity correction enabled: false
Boxcar width: 0
XAxis mode: Wavelengths
Number of Pixels in Spectrum: 2048
>>>>>Begin Spectral Data<<<<<
341.393	-10.17
341.776	-10.17
342.16	-10.17
342.543	-59.21
342.927	-52.2
343.31	-69.38
343.693	-60.11
344.077	-73.22
344.46	-63.28
344.843	-48.13
345.226	-47.68
345.61	-21.92
345.993	-18.53
346.376	-1.58
346.759	17.63
347.142	34.12
347.525	50.85
347.908	51.75
348.291	59.89
348.674	89.04
349.057	100.56
349.44	120.9
349.823	152.76
350.206	188.02
350.588	202.48
350.971	227.56
351.354	234.8
351.737	261.01
352.119	263.95
352.502	259.65
352.884	285.87
353.267	293.1
353.65	314.79
354.032	314.79
354.414	313.89
354.797	332.65
355.179	324.74
355.562	329.26
355.944	342.14
356.326	326.55
356.709	340.33
357.091	331.52
357.473	358.86
357.855	362.48
358.238	361.57
358.62	350.5
359.002	349.6
359.384	344.62
359.766	346.43
360.148	359.09
360.53	337.84
360.912	354.34
361.294	349.37
361.676	334.68
362.057	341.69
362.439	334.91
362.821	337.62
363.203	349.6
363.584	334.45
363.966	355.24
364.348	333.1
364.729	337.62
365.111	318.41
365.493	336.49
365.874	350.05
366.256	309.14
366.637	308.92
367.019	355.02
367.4	350.05
367.781	342.36
368.163	327.22
368.544	342.59
368.925	315.02
369.306	343.72
369.688	342.82
370.069	343.04
370.45	312.31
370.831	327.68
371.212	332.87
371.593	322.03
371.974	336.26
372.355	319.09
372.736	345.53
373.117	337.62
373.498	323.38
373.879	322.48
374.26	323.38
374.641	336.49
375.021	328.13
375.402	333.55
375.783	328.8
376.163	341.23
376.544	345.98
376.925	346.43
377.305	324.29
377.686	374.45
378.066	352.31
378.447	352.08
378.827	345.98
379.208	364.06
379.588	338.75
379.968	356.83
380.349	324.51
380.729	352.76
381.109	361.57
381.489	337.17
381.87	342.36
382.25	362.48
382.63	365.87
383.01	354.34
383.39	358.18
383.77	353.66
384.15	359.76
384.53	349.37
384.91	346.43
385.29	390.05
385.67	359.99
386.049	367.9
386.429	372.87
386.809	376.71
387.189	346.66
387.568	349.82
387.948	381.68
388.328	366.09
388.707	383.49
389.087	356.15
389.466	371.29
389.846	382.81
390.225	399.54
390.605	407.22
390.984	388.01
391.363	378.07
391.743	374.45
392.122	398.63
392.501	385.98
392.881	383.04
393.26	384.62
393.639	370.61
394.018	397.96
394.397	381.23
394.776	403.15
395.155	398.18
395.534	411.74
395.913	392.31
396.292	419.88
396.671	404.96
397.05	398.41
397.429	397.5
397.808	400.67
398.186	401.12
398.565	400.89
398.944	400.22
399.323	421.46
399.701	412.42
400.08	419.2
400.458	411.51
400.837	420.1
401.215	416.26
401.594	419.42
401.972	414.9
402.351	412.64
402.729	421.01
403.107	416.26
403.486	434.11
403.864	430.5
404.242	422.59
404.62	444.73
404.999	441.12
405.377	425.98
405.755	426.88
406.133	449.93
406.511	423.04
406.889	441.34
407.267	442.02
407.645	458.74
408.023	472.53
408.401	470.95
408.779	462.36
409.156	474.56
409.534	477.95
409.912	468.91
410.29	468.46
410.667	451.97
411.045	471.63
411.422	502.13
411.8	477.05
412.178	489.48
412.555	491.74
412.933	498.74
413.31	496.94
413.687	491.51
414.065	496.03
414.442	513.21
414.819	519.53
415.197	525.18
415.574	521.79
415.951	526.09
416.328	535.13
416.705	521.57
417.082	520.66
417.46	545.75
417.837	525.86
418.214	543.04
418.591	535.35
418.967	524.96
419.344	534.68
419.721	555.24
420.098	571.51
420.475	555.69
420.852	539.65
421.228	572.19
421.605	571.96
421.982	569.7
422.358	583.04
422.735	595.24
423.111	580.78
423.488	595.01
423.864	565.86
424.241	606.76
424.617	596.14
424.994	592.75
425.37	629.14
425.746	609.48
426.123	627.55
426.499	616.25
426.875	625.97
427.251	623.71
427.627	613.54
428.003	632.3
428.379	618.74
428.756	647.89
429.132	651.06
429.507	660.55
429.883	634.56
430.259	661
430.635	670.72
431.011	676.37
431.387	706.65
431.763	721.11
432.138	715.46
432.514	693.09
432.89	705.29
433.265	712.52
433.641	712.98
434.016	738.29
434.392	733.99
434.767	736.03
435.143	711.17
435.518	721.11
435.894	751.17
436.269	759.3
436.644	773.31
437.02	764.27
437.395	757.72
437.77	777.15
438.145	785.74
438.52	754.33
438.895	793.43
439.271	781.22
439.646	825.29
440.021	830.03
440.395	816.48
440.77	812.63
441.145	817.15
441.52	848.57
441.895	842.92
442.27	844.72
442.645	846.76
443.019	874.1
443.394	849.24
443.769	845.85
444.143	858.96
444.518	870.26
444.892	853.99
445.267	856.02
445.641	866.19
446.016	856.25
446.39	886.98
446.764	881.11
447.139	881.78
447.513	871.84
447.887	900.32
448.262	892.63
448.636	893.54
449.01	921.56
449.384	891.5
449.758	899.86
450.132	901.22
450.506	903.48
450.88	921.56
451.254	900.32
451.628	952.29
452.002	920.2
452.376	940.31
452.75	943.93
453.123	952.74
453.497	976.92
453.871	967.21
454.244	984.83
454.618	989.58
454.992	998.84
455.365	1012.63
455.739	985.96
456.112	1018.96
456.486	1009.69
456.859	1043.14
457.232	1034.1
457.606	1045.17
457.979	1060.76
458.352	1065.73
458.725	1069.12
459.099	1084.72
459.472	1079.75
459.845	1092.85
460.218	1117.71
460.591	1137.37
460.964	1119.29
461.337	1145.73
461.71	1157.48
462.083	1152.74
462.456	1147.09
462.829	1156.13
463.201	1148.9
463.574	1195.22
463.947	1187.31
464.32	1197.03
464.692	1177.14
465.065	1202.91
465.438	1205.62
465.81	1244.94
466.183	1257.37
466.555	1267.31
466.928	1250.14
467.3	1290.81
467.672	1283.13
468.045	1306.86
468.417	1306.18
468.789	1297.37
469.161	1310.02
469.534	1334.65
469.906	1340.3
470.278	1362.22
470.65	1373.98
471.022	1390.7
471.394	1406.74
471.766	1428.89
472.138	1432.73
472.51	1455.1
472.882	1486.51
473.253	1500.75
473.625	1467.53
473.997	1492.39
474.369	1517.47
474.74	1499.4
475.112	1551.82
475.484	1582.78
475.855	1599.05
476.227	1630.01
476.598	1650.58
476.97	1645.83
477.341	1719.73
477.713	1726.96
478.084	1703.91
478.455	1707.75
478.827	1776.22
479.198	1814.87
479.569	1827.07
479.94	1839.73
480.311	1828.65
480.682	1912.27
481.053	1931.02
481.424	1945.03
481.795	1982.55
482.166	2008.08
482.537	1999.5
482.908	2051.25
483.279	2067.97
483.65	2079.72
484.021	2165.14
484.391	2143.67
484.762	2163.56
485.133	2173.73
485.503	2273.61
485.874	2266.61
486.244	2300.28
486.615	2327.4
486.985	2360.62
487.356	2377.56
487.726	2432.48
488.097	2514.51
488.467	2509.09
488.837	2572.36
489.207	2579.37
489.578	2617.56
489.948	2639.25
490.318	2684.45
490.688	2705.24
491.058	2775.07
491.428	2792.47
491.798	2842.64
492.168	2888.51
492.538	2902.3
492.908	2939.36
493.278	3008.73
493.648	2997.21
494.017	3025.91
494.387	3076.08
494.757	3076.98
495.126	3156.53
495.496	3140.71
495.866	3183.87
496.235	3219.58
496.605	3279.46
496.974	3265.22
497.344	3283.3
497.713	3331.89
498.082	3375.73
498.452	3445.11
498.821	3457.08
499.19	3448.72
499.559	3507.25
499.928	3538.89
500.298	3579.57
500.667	3626.12
501.036	3623.86
501.405	3655.05
501.774	3662.73
502.143	3712.67
502.512	3747.25
502.88	3749.73
503.249	3801.48
503.618	3843.97
503.987	3858.2
504.356	3871.31
504.724	3929.84
505.093	3925.77
505.462	3953.79
505.83	3978.65
506.199	4030.85
506.567	4046.45
506.936	4093.9
507.304	4123.96
507.672	4159.21
508.041	4191.08
508.409	4230.62
508.777	4277.85
509.145	4225.43
509.514	4293.22
509.882	4320.79
510.25	4368.47
510.618	4425.19
510.986	4405.99
511.354	4467.45
511.722	4464.52
512.09	4536.38
512.458	4511.75
512.826	4591.07
513.193	4606.21
513.561	4600.78
513.929	4680.55
514.297	4732.3
514.664	4726.66
515.032	4711.74
515.4	4769.59
515.767	4855.24
516.135	4888.91
516.502	4803.94
516.869	4865.18
517.237	4953.54
517.604	4923.94
517.972	5012.75
518.339	5084.84
518.706	5016.37
519.073	5056.36
519.44	5089.58
519.808	5162.8
520.175	5220.43
520.542	5240.99
520.909	5243.25
521.276	5246.19
521.643	5327.32
522.009	5376.13
522.376	5434.89
522.743	5412.06
523.11	5465.17
523.477	5568.89
523.843	5543.58
524.21	5578.61
524.577	5612.51
524.943	5669
525.31	5674.88
525.676	5731.6
526.043	5789.45
526.409	5840.52
526.776	5830.13
527.142	5930.01
527.508	5920.07
527.874	5975.89
528.241	6021.08
528.607	6034.19
528.973	6103.79
529.339	6072.61
529.705	6104.25
530.071	6172.49
530.437	6215.2
530.803	6211.59
531.169	6266.95
531.535	6294.3
531.901	6284.58
532.267	6342.88
532.632	6339.95
532.998	6383.79
533.364	6404.35
533.73	6455.2
534.095	6465.59
534.461	6523.44
534.826	6520.96
535.192	6624.46
535.557	6626.72
535.923	6621.07
536.288	6645.47
536.653	6706.04
537.019	6671.91
537.384	6697.68
537.749	6771.35
538.114	6758.24
538.479	6776.54
538.845	6814.06
539.21	6823.32
539.575	6892.47
539.94	6913.49
540.305	6954.39
540.67	6935.86
541.034	6990.78
541.399	7005.47
541.764	7027.61
542.129	7086.37
542.494	7059.48
542.858	7146.25
543.223	7151.22
543.587	7202.75
543.952	7257.44
544.316	7264.22
544.681	7342.86
545.045	7331.56
545.41	7400.71
545.774	7446.36
546.138	7431.67
546.503	7479.8
546.867	7460.37
547.231	7536.53
547.595	7622.62
547.959	7585.79
548.324	7626.01
548.688	7644.54
549.052	7743.07
549.416	7752.56
549.779	7755.28
550.143	7808.83
550.507	7865.78
550.871	7915.95
551.235	7942.16
551.599	7945.55
551.962	8059
552.326	8104.65
552.689	8135.38
553.053	8169.28
553.417	8223.96
553.78	8321.59
554.143	8236.39
554.507	8313.45
554.87	8348.26
555.234	8441.81
555.597	8479.33
555.96	8574.46
556.323	8567.91
556.686	8644.07
557.05	8686.33
557.413	8775.81
557.776	8798.41
558.139	8899.43
558.502	8962.7
558.865	8997.96
559.228	9095.81
559.59	9139.87
559.953	9193.66
560.316	9280.89
560.679	9369.7
561.041	9504.83
561.404	9484.95
561.767	9538.73
562.129	9599.97
562.492	9774.66
562.854	9729.46
563.217	9872.06
563.579	9860.98
563.941	10004.03
564.304	10135.33
564.666	10201.54
565.028	10282.44
565.39	10324.25
565.753	10446.96
566.115	10650.34
566.477	10711.36
566.839	10771.92
567.201	10902.99
567.563	11006.26
567.925	11175.75
568.287	11238.8
568.648	11319.7
569.01	11527.61
569.372	11618.45
569.734	11676.08
570.095	11848.05
570.457	12018.22
570.819	12228.83
571.18	12213.01
571.542	12360.35
571.903	12532.78
572.265	12778.65
572.626	12951.75
572.987	13092.09
573.349	13378.63
573.71	13457.73
574.071	13658.4
574.432	13838.51
574.794	14001.89
575.155	14217.93
575.516	14357.81
575.877	14551.71
576.238	14860.17
576.599	15074.18
576.96	15339.94
577.32	15593.71
577.681	15806.36
578.042	16034.38
578.403	16244.32
578.763	16569.96
579.124	16824.19
579.485	17239.77
579.845	17534.68
580.206	17668.46
580.566	18035.46
580.927	18304.83
581.287	18686.74
581.648	18891.48
582.008	19362.65
582.368	19564.01
582.728	20026.59
583.089	20374.61
583.449	20654.82
583.809	21002.61
584.169	21418.65
584.529	21688.02
584.889	22218.62
585.249	22436.92
585.609	22887.99
585.969	23393.06
586.329	23713.05
586.688	24189.42
587.048	24567.26
587.408	25028.72
587.768	25411.54
588.127	25701.02
588.487	25991.86
588.846	26726.08
589.206	27052.4
589.565	27489.45
589.925	28091.69
590.284	28424.11
590.643	28957.66
591.003	29356.52
591.362	29859.33
591.721	30306.77
592.08	30753.09
592.44	31253.42
592.799	31841.2
593.158	32223.79
593.517	32845.24
593.876	33203.42
594.235	33517.08
594.593	34283.17
594.952	34674.34
595.311	35106.87
595.67	35663.24
596.029	36242.89
596.387	36695.08
596.746	37201.06
597.104	37487.83
597.463	37897.08
597.822	38511.3
598.18	38858.64
598.538	39169.82
598.897	39901.1
599.255	39972.06
599.613	41025.36
599.972	41037.57
600.33	41504.67
600.688	41927.49
601.046	42427.36
601.404	43110.73
601.762	43212.88
602.12	43788.45
602.478	44134.66
602.836	44512.95
603.194	44557.7
603.552	45040.85
603.91	45354.97
604.268	45829.3
604.625	46023.87
604.983	46608.27
605.341	46702.73
605.698	47245.76
606.056	47568.47
606.413	47694.11
606.771	48191.73
607.128	48330.71
607.485	48436.01
607.843	48717.59
608.2	49060.86
608.557	49412.94
608.914	49532.71
609.272	49936.54
609.629	50028.06
609.986	50356.42
610.343	50379.01
610.7	50757.76
611.057	50879.11
611.414	51015.61
611.771	51170.63
612.127	51506.22
612.484	51535.82
612.841	51748.24
613.198	51716.83
613.554	51954.11
613.911	52262.81
614.267	52343.71
614.624	52370.6
614.98	52519.52
615.337	52747.31
615.693	52771.72
616.05	52930.36
616.406	53090.81
616.762	53066.4
617.118	53187.53
617.475	53321.99
617.831	53428.88
618.187	53550.23
618.543	53648.53
618.899	53775.54
619.255	53823.9
619.611	53831.58
619.967	54010.11
620.323	54112.93
620.678	54023.89
621.034	53954.29
621.39	54082.42
621.746	54142.08
622.101	54554.5
622.457	54400.15
622.812	54375.97
623.168	54529.64
623.523	54523.54
623.879	54676.53
624.234	54477.21
624.589	54648.51
624.945	54643.99
625.3	54684.44
625.655	54782.29
626.01	54721.5
626.365	54782.51
626.72	54802.63
627.075	54938.44
627.43	54808.05
627.785	54831.55
628.14	54878.33
628.495	55027.93
628.85	55048.72
629.205	54942.51
629.559	55147.25
629.914	55024.09
630.269	55030.87
630.623	54956.52
630.978	54968.95
631.332	55057.54
631.687	55174.59
632.041	55057.08
632.396	55079
632.75	54995.16
633.104	55017.99
633.459	54912.45
633.813	54938.89
634.167	54993.81
634.521	54989.29
634.875	55057.99
635.229	54957.43
635.583	54824.32
635.937	54899.35
636.291	54899.12
636.645	54872.91
636.999	54848.28
637.352	54888.95
637.706	54767.6
638.06	54879.69
638.413	54841.5
638.767	54781.84
639.121	54860.03
639.474	54696.19
639.828	54653.48
640.181	54761.27
640.534	54712.23
640.888	54681.73
641.241	54610.77
641.594	54708.84
641.947	54772.12
642.301	54649.41
642.654	54687.15
643.007	54737.32
643.36	54706.81
643.713	54709.97
644.066	54757.88
644.419	54606.7
644.771	54348.4
645.124	54077.45
645.477	54020.27
645.83	53945.93
646.182	53876.1
646.535	53790.9
646.888	53814.4
647.24	53656.22
647.593	53936.21
647.945	53859.6
648.298	53605.14
648.65	53575.77
649.002	53497.35
649.355	53709.55
649.707	53700.28
650.059	53721.75
650.411	54083.1
650.763	54048.3
651.115	54425.24
651.467	54392.02
651.819	54321.96
652.171	54288.06
652.523	54355.18
652.875	54293.49
653.227	54213.04
653.578	54396.08
653.93	54284.9
654.282	54235.18
654.633	54104.34
654.985	54189.08
655.337	54214.39
655.688	54150.89
656.039	54270.21
656.391	54055.75
656.742	54123.1
657.094	54149.99
657.445	54260.49
657.796	54179.14
658.147	54132.59
658.498	54144.57
658.849	54199.93
659.2	54138.01
659.551	54016.43
659.902	54147.95
660.253	54101.4
660.604	54205.13
660.955	54055.08
661.306	54186.37
661.656	54069.99
662.007	54055.08
662.358	54058.01
662.708	54180.27
663.059	54010.78
663.409	53877.91
663.76	54204.45
664.11	54118.8
664.461	54114.96
664.811	54112.02
665.161	54092.59
665.511	53974.17
665.862	54027.73
666.212	54131.23
666.562	54093.94
666.912	54044.68
667.262	54026.83
667.612	54002.2
667.962	53923.55
668.312	53931.46
668.662	54011.01
669.011	53999.94
669.361	53923.55
669.711	53889.66
670.06	53917.23
670.41	53804.69
670.76	53713.84
671.109	53780.05
671.459	53787.29
671.808	53704.8
672.157	53782.77
672.507	53586.61
672.856	53604.92
673.205	53653.96
673.554	53674.75
673.904	53546.84
674.253	53636.56
674.602	53646.73
674.951	53192.27
675.3	53034.99
675.649	53537.58
675.998	53472.94
676.346	53514.75
676.695	53588.65
677.044	53361.08
677.393	53437.01
677.741	53504.13
678.09	53458.48
678.438	53382.55
678.787	53343.91
679.135	53393.17
679.484	53158.83
679.832	53221.65
680.181	53063.92
680.529	53217.13
680.877	53083.8
681.225	53130.35
681.573	53338.03
681.922	53053.75
682.27	52936.46
682.618	52882.45
682.966	52910.25
683.314	52967.42
683.661	52784.15
684.009	52749.57
684.357	52657.15
684.705	52616.24
685.053	52680.65
685.4	52565.4
685.748	52438.17
686.095	52411.05
686.443	52326.08
686.79	52298.96
687.138	52418.06
687.485	52321.11
687.832	52255.12
688.18	52243.6
688.527	52011.74
688.874	52010.84
689.221	51936.04
689.568	51824.85
689.915	51806.55
690.262	51803.84
690.609	51749.83
690.956	51569.49
691.303	51546.44
691.65	51420.79
691.997	51395.48
692.344	51190.29
692.69	51123.85
693.037	51208.6
693.383	50945.55
693.73	51054.7
694.077	50869.85
694.423	50839.79
694.769	50697.65
695.116	50626.01
695.462	50477.77
695.808	50493.14
696.155	50487.49
696.501	50204.56
696.847	50297.21
697.193	49944.68
697.539	50117.1
697.885	49781.97
698.231	49633.05
698.577	49746.71
698.923	49650.45
699.269	49394.86
699.614	49215.88
699.96	49308.08
700.306	49268.76
700.651	49042.55
700.997	48983.34
701.342	48882.33
701.688	48812.5
702.033	48710.13
702.379	48708.78
702.724	48610.02
703.069	48729.11
703.415	48214.55
703.76	48243.48
704.105	48093.42
704.45	48086.65
704.795	47923.26
705.14	47868.8
705.485	47827.89
705.83	47658.63
706.175	47736.37
706.52	47521.01
706.865	47432.88
707.209	47194.92
707.554	47105.88
707.899	47319.43
708.243	46953.12
708.588	46792.22
708.932	46702.05
709.277	46679.45
709.621	46640.36
709.966	46294.83
710.31	46450.3
710.654	46140.26
710.998	46251.21
711.342	46248.28
711.687	46059.58
712.031	45844.22
712.375	45769.42
712.719	45811.68
713.063	45873.82
713.407	45878.79
713.75	45704.11
714.094	45677.44
714.438	45258.25
714.782	45471.8
715.125	45311.12
715.469	45524.23
715.812	44996.78
716.156	45016.22
716.499	45010.79
716.843	45104.12
717.186	44845.37
717.53	45028.87
717.873	44914.53
718.216	44728.09
718.559	44626.4
718.902	44372.62
719.246	44559.51
719.589	44397.25
719.932	44217.37
720.275	44205.62
720.617	44211.94
720.96	44055.34
721.303	44107.31
721.646	44100.76
721.989	43893.54
722.331	44025.51
722.674	43891.5
723.016	43844.5
723.359	43796.81
723.701	43667.33
724.044	43516.14
724.386	43389.37
724.729	43599.76
725.071	43460.55
725.413	43514.11
725.755	43438.63
726.097	43163.84
726.439	43028.47
726.782	43015.37
727.124	43280.67
727.465	42941.92
727.807	43012.2
728.149	42938.98
728.491	42830.29
728.833	42978.98
729.175	42817.41
729.516	42722.49
729.858	42666.45
730.199	42810.63
730.541	42654.92
730.882	42623.96
731.224	42745.54
731.565	42339.45
731.906	42505.78
732.248	42551.88
732.589	42405.66
732.93	42161.15
733.271	42254.48
733.612	42206.12
733.953	42215.61
734.294	42174.03
734.635	41947.6
734.976	41970.2
735.317	41779.24
735.658	41872.8
735.999	41844.32
736.339	41798.9
736.68	41864.21
737.021	41661.5
737.361	41622.63
737.702	41932
738.042	41572.92
738.383	41599.36
738.723	41565.46
739.063	41444.79
739.404	41445.92
739.744	41457.67
740.084	41467.16
740.424	41374.05
740.764	41272.59
741.104	41430.1
741.444	41200.5
741.784	41085.02
742.124	41243.21
742.464	41099.03
742.804	40982.2
743.143	40957.79
743.483	40932.48
743.823	40846.61
744.162	40731.58
744.502	40901.75
744.841	40632.15
745.181	40837.8
745.52	40667.41
745.86	40673.51
746.199	40612.72
746.538	40624.69
746.877	40692.04
747.216	40588.99
747.556	40470.57
747.895	40464.92
748.234	40215.21
748.573	40155.33
748.911	40232.16
749.25	40253.4
749.589	39996.46
749.928	40062
750.267	40017.25
750.605	39935.45
750.944	39905.62
751.283	39707.88
751.621	39834.21
751.96	39657.71
752.298	39661.56
752.636	39627.88
752.975	39464.05
753.313	39296.82
753.651	39573.65
753.989	39263.37
754.327	39301.11
754.666	39088.01
755.004	39159.65
755.342	39152.64
755.679	39110.38
756.017	38780.68
756.355	39030.39
756.693	38776.61
757.031	38816.83
757.368	38548.36
757.706	38441.7
758.044	38426.11
758.381	38438.31
758.719	38239.67
759.056	38361.48
759.394	38209.84
759.731	37952.22
760.068	37926.01
760.405	37733.92
760.743	37669.07
761.08	37604.43
761.417	37478.34
761.754	37488.96
762.091	37313.14
762.428	37350.66
762.765	37010.78
763.102	37183.88
763.438	37088.06
763.775	36734.63
764.112	36885.13
764.449	36721.29
764.785	36535.76
765.122	36377.35
765.458	36305.26
765.795	36198.14
766.131	36329.89
766.467	36119.28
766.804	35865.05
767.14	35863.92
767.476	35776.46
767.812	35623.02
768.148	35542.34
768.485	35589.8
768.821	35118.4
769.157	35148.23
769.492	35132.41
769.828	35158.62
770.164	34736.71
770.5	34704.17
770.836	34771.52
771.171	34543.27
771.507	34414.91
771.842	34175.15
772.178	34190.74
772.513	34185.54
772.849	34022.38
773.184	33902.84
773.519	33757.76
773.855	33551.89
774.19	33530.42
774.525	33381.27
774.86	33446.58
775.195	33374.72
775.53	33171.78
775.865	32993.93
776.2	32808.85
776.535	32614.74
776.87	32548.3
777.205	32496.77
777.539	32347.4
777.874	32434.63
778.209	31931.59
778.543	32104.01
778.878	31820.63
779.212	31839.39
779.547	31741.54
779.881	31684.82
780.215	31602.78
780.55	31573.41
780.884	31307.43
781.218	31264.26
781.552	31190.59
781.886	30880.54
782.22	30944.27
782.554	30735.24
782.888	30544.06
783.222	30478.07
783.556	30249.15
783.889	30231.75
784.223	30002.83
784.557	29990.85
784.89	30005.31
785.224	29812.32
785.557	29818.65
785.891	29616.62
786.224	29481.48
786.558	29431.54
786.891	29239.01
787.224	29155.17
787.557	29007.37
787.891	29076.75
788.224	29042.85
788.557	28933.93
788.89	28962.85
789.223	28846.93
789.556	28566.48
789.888	28486.71
790.221	28490.78
790.554	28160.84
790.887	28262.08
791.219	28167.39
791.552	28129.2
791.884	27920.85
792.217	27812.15
792.549	27752.26
792.882	27639.95
793.214	27386.85
793.546	27543.23
793.879	27340.98
794.211	27211.71
794.543	27262.11
794.875	27206.29
795.207	27177.14
795.539	26920.2
795.871	26920.2
796.203	26671.39
796.535	26621.9
796.867	26631.16
797.198	26568.11
797.53	26544.39
797.862	26207.45
798.193	26298.97
798.525	26178.07
798.856	26132.65
799.188	25930.17
799.519	25765.2
799.85	25641.36
800.182	25755.03
800.513	25826.21
800.844	25526.79
801.175	25554.36
801.506	25567.46
801.837	25357.53
802.168	25383.29
802.499	25187.36
802.83	25252.44
803.161	25000.92
803.491	25050.19
803.822	25042.05
804.153	24820.82
804.483	24719.58
804.814	24557.77
805.145	24587.15
805.475	24554.61
805.805	24507.15
806.136	24572.69
806.466	24420.6
806.796	24471.9
807.126	24110.1
807.457	24059.71
807.787	24143.55
808.117	24019.93
808.447	24035.98
808.777	24074.62
809.107	23836.89
809.436	23844.12
809.766	23779.71
810.096	23641.19
810.426	23608.42
810.755	23711.69
811.085	23598.25
811.414	23394.87
811.744	23380.85
812.073	23273.74
812.403	23233.29
812.732	23166.85
813.061	23050.24
813.39	22856.35
813.719	22773.41
814.049	23033.52
814.378	22879.62
814.707	22763.92
815.036	22876.01
815.365	22760.76
815.693	22551.95
816.022	22503.59
816.351	22364.16
816.68	22331.84
817.008	22430.37
817.337	22142.69
817.665	22134.79
817.994	22185.86
818.322	22142.69
818.651	21956.26
818.979	21901.35
819.307	22050.04
819.636	21897.05
819.964	21845.98
820.292	21921.46
820.62	21851.18
820.948	21805.3
821.276	21802.36
821.604	21786.77
821.932	21750.39
822.259	21854.11
822.587	21775.7
822.915	21723.27
823.243	21743.16
823.57	21691.41
823.898	21809.6
824.225	21676.27
824.553	21594.01
824.88	21726.43
825.207	21785.19
825.535	21666.32
825.862	21768.02
826.189	21641.69
826.516	21714.23
826.843	21752.65
827.17	21665.65
827.497	21773.21
827.824	21675.59
828.151	21757.62
828.478	21704.97
828.805	21702.71
829.131	21618.19
829.458	21609.15
829.785	21433.33
830.111	21481.47
830.438	21578.42
830.764	21617.28
831.09	21578.19
831.417	21408.25
831.743	21617.28
832.069	21584.97
832.395	21464.75
832.722	21523.5
833.048	21588.58
833.374	21418.42
833.7	21399.66
834.026	21410.51
834.351	21380.23
834.677	21344.75
835.003	21421.13
835.329	21360.12
835.654	21262.27
835.98	21256.39
836.306	21358.31
836.631	21224.75
836.956	21229.27
837.282	21209.61
837.607	21143.85
837.932	21143.4
838.258	21060.69
838.583	21110.18
838.908	20951.31
839.233	20929.17
839.558	20998.32
839.883	20838.1
840.208	20829.28
840.533	20792.9
840.858	20821.15
841.182	20811.66
841.507	20801.49
841.832	20586.8
842.156	20559.69
842.481	20589.52
842.805	20591.77
843.13	20548.39
843.454	20500.7
843.778	20464.55
844.103	20232.24
844.427	20187.04
844.751	20267.04
845.075	20192.46
845.399	20162.86
845.723	20168.28
846.047	20062.75
846.371	19941.62
846.695	19839.7
847.019	19748.41
847.343	19670.9
847.666	19620.5
847.99	19537.34
848.313	19582.31
848.637	19426.38
848.96	19441.52
849.284	19336.67
849.607	19225.71
849.931	19093.28
850.254	19035.88
850.577	18889.67
850.9	18758.6
851.223	18772.16
851.546	18740.3
851.869	18526.07
852.192	18642.22
852.515	18473.86
852.838	18445.84
853.161	18408.1
853.483	18251.05
853.806	18239.97
854.129	18100.99
854.451	18078.62
854.774	17997.72
855.096	17913.2
855.419	17899.64
855.741	17859.64
856.063	17682.7
856.385	17722.25
856.708	17663.26
857.03	17564.51
857.352	17627.33
857.674	17455.13
857.996	17404.97
858.318	17359.77
858.64	17333.56
858.961	17305.08
859.283	17281.58
859.605	17111.64
859.926	17133.79
860.248	17150.74
860.57	17036.39
860.891	17179.89
861.212	16924.53
861.534	17022.6
861.855	16925.66
862.176	16948.48
862.498	16956.39
862.819	16848.14
863.14	16810.86
863.461	16645.21
863.782	16780.35
864.103	16649.28
864.424	16739.9
864.745	16700.8
865.065	16602.95
865.386	16541.03
865.707	16552.79
866.027	16524.76
866.348	16458.32
866.668	16486.8
866.989	16430.75
867.309	16288.61
867.63	16337.88
867.95	16325.45
868.27	16243.41
868.59	16232.57
868.91	16212.68
869.23	16113.02
869.55	16088.84
869.87	16166.13
870.19	16077.09
870.51	16131.78
870.83	16151.44
871.15	16015.17
871.469	16017.43
871.789	16082.29
872.109	16036.87
872.428	15816.08
872.748	15886.81
873.067	15901.5
873.386	15895.63
873.706	15890.66
874.025	15762.3
874.344	15806.82
874.663	15832.58
874.982	15737.89
875.301	15637.1
875.62	15691.34
875.939	15569.99
876.258	15621.51
876.577	15556.65
876.896	15586.48
877.214	15419.03
877.533	15520.5
877.852	15442.08
878.17	15516.88
878.489	15449.99
878.807	15485.24
879.125	15443.66
879.444	15478.69
879.762	15317.34
880.08	15279.82
880.398	15193.72
880.716	15233.72
881.034	15147.62
881.352	15204.8
881.67	15176.78
881.988	15139.49
882.306	15154.18
882.624	15042.99
882.941	15002.32
883.259	14976.1
883.577	14924.81
883.894	14827.41
884.212	14859.27
884.529	14869.67
884.846	14868.54
885.164	14828.76
885.481	14716
885.798	14716.22
886.115	14593.06
886.432	14621.76
886.75	14532.73
887.067	14626.73
887.383	14492.95
887.7	14499.05
888.017	14432.39
888.334	14445.95
888.651	14380.19
888.967	14409.11
889.284	14285.27
889.6	14247.31
889.917	14231.72
890.233	14273.07
890.55	14040.99
890.866	14082.34
891.182	13993.98
891.498	13961.21
891.815	14009.12
892.131	13870.6
892.447	13921.44
892.763	13951.72
893.079	13858.39
893.395	13817.72
893.71	13722.58
894.026	13652.75
894.342	13688.23
894.657	13524.39
894.973	13497.5
895.289	13532.3
895.604	13573.88
895.92	13418.63
896.235	13288.46
896.55	13391.29
896.865	13322.81
897.181	13224.51
897.496	13278.52
897.811	13151.07
898.126	13163.72
898.441	13015.93
898.756	12992.65
899.071	13020.67
899.386	12961.47
899.7	12851.19
900.015	12895.03
900.33	12774.13
900.644	12744.52
900.959	12747.69
901.273	12670.18
901.588	12645.32
901.902	12543.17
902.216	12491.42
902.531	12452.33
902.845	12327.59
903.159	12303.18
903.473	12312.9
903.787	12237.42
904.101	12166.69
904.415	12157.65
904.729	12154.26
905.042	12042.4
905.356	12012.79
905.67	12074.48
905.984	12013.02
906.297	11909.97
906.611	11878.56
906.924	11859.12
907.237	11836.75
907.551	11713.14
907.864	11674.27
908.177	11668.85
908.491	11622.52
908.804	11530.32
909.117	11535.74
909.43	11493.03
909.743	11405.8
910.056	11376.2
910.368	11307.05
910.681	11244.22
910.994	11251.68
911.307	11217.11
911.619	11077.22
911.932	11081.74
912.244	11034.51
912.557	11042.65
912.869	10914.06
913.181	10853.73
913.494	10843.33
913.806	10827.51
914.118	10786.61
914.43	10682.2
914.742	10756.78
915.054	10583
915.366	10513.85
915.678	10490.8
915.99	10539.16
916.302	10457.35
916.613	10362.44
916.925	10273.63
917.236	10358.82
917.548	10240.41
917.859	10250.35
918.171	10188.66
918.482	10159.51
918.794	10096.01
919.105	10140.75
919.416	9946.18
919.727	10000.64
920.038	9950.92
920.349	9865.96
920.66	9771.72
920.971	9869.35
921.282	9814.21
921.593	9671.38
921.903	9665.51
922.214	9713.87
922.525	9529.47
922.835	9533.76
923.146	9481.33
923.456	9453.31
923.767	9469.36
924.077	9369.25
924.387	9381.45
924.697	9310.26
925.008	9287.67
925.318	9232.75
925.628	9145.75
925.938	9195.24
926.248	9082.25
926.558	9032.98
926.867	9024.4
927.177	9035.47
927.487	8923.83
927.796	8895.36
928.106	8838.41
928.416	8856.26
928.725	8802.48
929.034	8740.56
929.344	8694.46
929.653	8746.21
929.962	8666.21
930.271	8682.03
930.581	8602.94
930.89	8505.54
931.199	8479.78
931.508	8456.27
931.817	8483.17
932.125	8385.32
932.434	8373.11
932.743	8326.33
933.051	8303.51
933.36	8209.73
933.669	8158.43
933.977	8078.66
934.286	8113.01
934.594	8083.63
934.902	7973.12
935.21	8018.55
935.519	8007.25
935.827	7988.26
936.135	7959.11
936.443	7796.18
936.751	7785.78
937.059	7784.88
937.367	7747.14
937.674	7670.08
937.982	7712.57
938.29	7702.17
938.597	7697.2
938.905	7550.54
939.213	7555.51
939.52	7536.52
939.827	7525.23
940.135	7446.81
940.442	7442.29
940.749	7432.35
941.056	7430.77
941.363	7323.42
941.67	7352.8
941.977	7215.63
942.284	7246.36
942.591	7172.47
942.898	7137.21
943.205	7147.38
943.511	7099.47
943.818	7082.07
944.125	7031.91
944.431	6981.06
944.738	7015.41
945.044	6963.21
945.35	6948.97
945.657	6890.89
945.963	6854.28
946.269	6784.68
946.575	6821.06
946.881	6781.06
947.187	6742.2
947.493	6678.92
947.799	6691.12
948.105	6661.07
948.41	6630.33
948.716	6624.01
949.022	6578.58
949.327	6602.31
949.633	6468.3
949.938	6461.75
950.244	6465.14
950.549	6381.3
950.854	6406.84
951.16	6396.22
951.465	6356.22
951.77	6283.22
952.075	6283.68
952.38	6220.63
952.685	6255.65
952.99	6193.06
953.294	6141.53
953.599	6106.05
953.904	6073.51
954.209	6054.76
954.513	6087.98
954.818	6051.59
955.122	6040.29
955.426	5916
955.731	5930.92
956.035	5936.57
956.339	5867.19
956.643	5856.34
956.948	5858.6
957.252	5796.23
957.556	5825.16
957.86	5778.15
958.163	5725.27
958.467	5730.7
958.771	5716.01
959.075	5653.18
959.378	5648.67
959.682	5663.81
959.985	5633.3
960.289	5575.45
960.592	5550.36
960.896	5534.32
961.199	5464.26
961.502	5476.69
961.805	5446.18
962.108	5426.52
962.411	5406.41
962.714	5384.49
963.017	5342.23
963.32	5362.57
963.623	5323.02
963.926	5277.6
964.228	5256.36
964.531	5235.12
964.833	5207.55
965.136	5160.99
965.438	5158.06
965.741	5098.4
966.043	5099.75
966.345	5084.84
966.648	5071.51
966.95	5080.54
967.252	4995.57
967.554	5010.49
967.856	4966.2
968.158	4972.07
968.46	4944.05
968.761	4884.62
969.063	4894.56
969.365	4877.39
969.666	4845.75
969.968	4801.23
970.269	4808.91
970.571	4799.42
970.872	4738.86
971.174	4746.77
971.475	4699.54
971.776	4696.37
972.077	4656.83
972.378	4674.91
972.679	4621.12
972.98	4657.96
973.281	4607.56
973.582	4570.05
973.883	4543.38
974.183	4517.85
974.484	4516.94
974.785	4458.64
975.085	4478.98
975.386	4479.2
975.686	4425.42
975.986	4387
976.287	4382.71
976.587	4336.38
976.887	4358.08
977.187	4331.41
977.487	4291.41
977.787	4261.81
978.087	4282.37
978.387	4239.44
978.687	4266.55
978.987	4263.62
979.286	4227.01
979.586	4209.83
979.885	4158.99
980.185	4124.19
980.484	4109.95
980.784	4142.04
981.083	4064.75
981.382	4039.89
981.682	4053.68
981.981	4051.64
982.28	3997.86
982.579	3983.85
982.878	3967.13
983.177	3934.81
983.475	3931.2
983.774	3902.04
984.073	3915.15
984.372	3846.68
984.67	3860.01
984.969	3857.07
985.267	3861.37
985.566	3771.43
985.864	3795.83
986.162	3810.3
986.461	3727.59
986.759	3703.63
987.057	3716.96
987.355	3719
987.653	3668.83
987.951	3686.68
988.249	3641.26
988.547	3631.09
988.844	3586.35
989.142	3590.19
989.44	3584.54
989.737	3552.67
990.035	3555.84
990.332	3526.69
990.63	3493.92
990.927	3538.44
991.224	3483.3
991.521	3464.99
991.819	3429.74
992.116	3456.18
992.413	3414.83
992.71	3377.99
993.006	3342.28
993.303	3354.94
993.6	3348.39
993.897	3323.3
994.193	3329.63
994.49	3283.98
994.787	3223.42
995.083	3261.16
995.379	3251.89
995.676	3244.21
995.972	3196.75
996.268	3203.31
996.565	3164.21
996.861	3176.87
997.157	3156.53
997.453	3175.28
997.749	3095.06
998.044	3096.42
998.34	3081.73
998.636	3085.12
998.932	3037.66
999.227	3030.2
999.523	3026.36
999.818	2995.4
1000.114	2995.4
1000.409	2946.36
1000.704	2980.71
1001	2963.76
1001.295	2937.78
1001.59	2895.07
1001.885	2913.37
1002.18	2849.64
1002.475	2876.08
1002.77	2850.77
1003.065	2786.82
1003.359	2810.77
1003.654	2792.47
1003.949	2778.46
1004.243	2764.67
1004.538	2712.7
1004.832	2749.76
1005.127	2708.18
1005.421	2682.42
1005.715	2683.32
1006.009	2710.89
1006.304	2630.67
1006.598	2631.34
1006.892	2581.18
1007.186	2583.66
1007.48	2625.92
1007.773	2589.31
1008.067	2575.53
1008.361	2597.22
1008.655	2540.5
1008.948	2500.27
1009.242	2499.14
1009.535	2488.52
1009.829	2462.53
1010.122	2468.64
1010.415	2429.99
1010.708	2423.44
1011.001	2376.66
1011.295	2361.75
1011.588	2414.4
1011.881	2363.33
1012.173	2327.17
1012.466	2326.72
1012.759	2316.1
1013.052	2334.4
1013.344	2312.71
1013.637	2317.23
1013.93	2270.67
1014.222	2214.18
1014.514	2243.1
1014.807	2228.42
1015.099	2222.31
1015.391	2217.57
1015.683	2219.15
1015.976	2170.34
1016.268	2176.89
1016.56	2121.3
1016.851	2128.98
1017.143	2138.02
1017.435	2089.21
1017.727	2079.95
1018.018	2030.23
1018.31	2057.12
1018.602	2060.74
1018.893	2049.21
1019.185	1979.38
1019.476	1991.81
1019.767	1976.45
1020.058	1969.89
1020.35	1978.71
1020.641	1911.36
1020.932	1955.2
1021.223	1935.09
1021.514	1912.72
1021.804	1893.96
1022.095	1867.3
1022.386	1846.73
1022.677	1853.96
1022.967	1844.7
1023.258	1810.35
1023.548	1801.99
1023.839	1777.58
1024.129	1808.54
1024.419	1808.09
1024.709	1768.99
1025	1737.58
1025.29	1743.68
1025.58	1690.35
1025.87	1712.72
1026.16	1720.18
1026.449	1717.47
1026.739	1674.98
1027.029	1650.13
1027.319	1659.39
1027.608	1632.73
1027.898	1657.81
1028.187	1639.05
1028.477	1605.38
1028.766	1617.58
1029.055	1577.59
1029.344	1618.49
1029.634	1546.85
1029.923	1563.8
1030.212	1563.57
1030.501	1529.9
1030.79	1494.42
1031.078	1537.13
1031.367	1483.35
1031.656	1483.12
1031.945	1452.17
1032.233	1483.35
1032.522	1458.49
1032.81	1450.81
1033.099	1426.63
1033.387	1425.5
1033.675	1410.81
1033.963	1440.64
1034.251	1392.96
1034.54	1382.56
1034.828	1390.92
1035.116	1369
1035.403	1385.27
1035.691	1360.42
1035.979	1337.14
1036.267	1335.33
1036.554	1329.91
1036.842	1304.6
1037.129	1293.75
1037.417	1286.97
1037.704	1277.71
1037.992	1282.23
1038.279	1279.51
1038.566	1296.69
1038.853	1296.69
1039.14	1296.69
