Data from orange_diffuse_book_FLMS001491_00022.txt Node
Date: Wed Feb 08 15:29:19 GMT 2017
User: dcchb
Spectrometer: FLMS00149
Trigger mode: 0
Integration Time (sec): 2.000000E-2
Scans to average: 10
Electric dark correction enabled: true
Nonlinearity correction enabled: false
Boxcar width: 0
XAxis mode: Wavelengths
Number of Pixels in Spectrum: 2048
>>>>>Begin Spectral Data<<<<<
341.393	-10.65
341.776	-10.65
342.16	-10.65
342.543	-52
342.927	-65.11
343.31	-73.92
343.693	-85.45
344.077	-57.2
344.46	-49.29
344.843	-44.55
345.226	-56.07
345.61	-23.08
345.993	9.24
346.376	2.46
346.759	9.24
347.142	36.35
347.525	33.42
347.908	29.35
348.291	64.15
348.674	84.04
349.057	121.32
349.44	139.18
349.823	155
350.206	174.66
350.588	219.4
350.971	229.34
351.354	236.35
351.737	246.52
352.119	245.84
352.502	255.11
352.884	284.94
353.267	293.52
353.65	312.51
354.032	313.18
354.414	323.13
354.797	328.78
355.179	345.5
355.562	342.11
355.944	369.91
356.326	345.5
356.709	353.63
357.091	339.4
357.473	366.29
357.855	368.32
358.238	360.19
358.62	338.04
359.002	365.39
359.384	344.6
359.766	347.31
360.148	335.78
360.53	365.84
360.912	371.71
361.294	367.42
361.676	348.21
362.057	357.93
362.439	350.92
362.821	354.54
363.203	377.36
363.584	322.45
363.966	336.23
364.348	335.78
364.729	339.85
365.111	328.32
365.493	332.39
365.874	329.45
366.256	342.79
366.637	333.97
367.019	335.56
367.4	333.75
367.781	332.84
368.163	336.91
368.544	324.71
368.925	324.48
369.306	323.58
369.688	331.26
370.069	328.1
370.45	333.75
370.831	342.79
371.212	315.9
371.593	338.95
371.974	341.66
372.355	333.75
372.736	352.5
373.117	345.5
373.498	326.97
373.879	338.72
374.26	324.93
374.641	323.58
375.021	315.22
375.402	329.68
375.783	332.17
376.163	328.32
376.544	357.93
376.925	327.19
377.305	346.4
377.686	333.75
378.066	349.57
378.447	357.02
378.827	329.23
379.208	327.42
379.588	339.4
379.968	357.7
380.349	338.72
380.729	337.36
381.109	350.25
381.489	352.73
381.87	362
382.25	356.8
382.63	370.36
383.01	359.51
383.39	346.63
383.77	353.18
384.15	375.56
384.53	362.45
384.91	354.09
385.29	361.54
385.67	365.16
386.049	353.18
386.429	345.05
386.809	382.56
387.189	352.5
387.568	394.99
387.948	362
388.328	369.23
388.707	385.95
389.087	364.03
389.466	380.75
389.846	387.31
390.225	388.89
390.605	386.18
390.984	385.05
391.363	376.23
391.743	375.78
392.122	392.73
392.501	410.13
392.881	408.55
393.26	372.84
393.639	388.21
394.018	388.66
394.397	396.35
394.776	399.28
395.155	407.87
395.534	407.87
395.913	411.49
396.292	399.74
396.671	408.1
397.05	414.88
397.429	404.71
397.808	392.05
398.186	422.11
398.565	405.84
398.944	399.51
399.323	413.07
399.701	407.19
400.08	428.44
400.458	416.68
400.837	405.38
401.215	434.54
401.594	445.16
401.972	425.95
402.351	432.05
402.729	434.31
403.107	461.2
403.486	439.51
403.864	429.56
404.242	446.51
404.62	455.1
404.999	448.1
405.377	433.63
405.755	456
406.133	444.03
406.511	463.69
406.889	458.49
407.267	458.49
407.645	464.14
408.023	469.11
408.401	468.21
408.779	462.33
409.156	468.66
409.534	489.68
409.912	460.07
410.29	491.94
410.667	460.75
411.045	472.28
411.422	500.3
411.8	475.67
412.178	491.94
412.555	494.65
412.933	489.68
413.31	512.95
413.687	488.32
414.065	486.74
414.442	521.54
414.819	494.65
415.197	522.67
415.574	525.61
415.951	540.52
416.328	555.66
416.705	528.55
417.082	544.59
417.46	526.06
417.837	531.26
418.214	551.82
418.591	559.73
418.967	541.43
419.344	551.37
419.721	566.06
420.098	576.68
420.475	539.39
420.852	562.44
421.228	564.48
421.605	559.28
421.982	577.13
422.358	580.52
422.735	586.17
423.111	590.24
423.488	600.86
423.864	599.73
424.241	596.34
424.617	615.55
424.994	608.54
425.37	611.48
425.746	609.9
426.123	609.22
426.499	637.7
426.875	624.36
427.251	638.37
427.627	630.01
428.003	642.21
428.379	669.78
428.756	661.42
429.132	654.42
429.507	666.62
429.883	679.73
430.259	688.99
430.635	683.57
431.011	688.54
431.387	713.63
431.763	702.78
432.138	703.23
432.514	707.07
432.89	715.21
433.265	704.36
433.641	726.05
434.016	749.56
434.392	729.22
434.767	756.56
435.143	750.23
435.518	763.57
435.894	751.59
436.269	753.17
436.644	758.14
437.02	783.45
437.395	784.58
437.77	765.6
438.145	798.37
438.52	801.98
438.895	821.87
439.271	794.75
439.646	810.12
440.021	841.76
440.395	812.83
440.77	811.02
441.145	792.95
441.52	815.54
441.895	839.72
442.27	823.45
442.645	861.42
443.019	859.38
443.394	851.25
443.769	862.32
444.143	862.32
444.518	874.75
444.892	848.31
445.267	877.91
445.641	883.34
446.016	881.08
446.39	895.77
446.764	874.75
447.139	909.55
447.513	911.59
447.887	918.37
448.262	909.78
448.636	898.48
449.01	912.49
449.384	926.95
449.758	920.17
450.132	913.62
450.506	917.24
450.88	922.21
451.254	945.26
451.628	959.72
452.002	963.56
452.376	961.08
452.75	955.43
453.123	983.9
453.497	981.41
453.871	981.64
454.244	990.45
454.618	1029.78
454.992	1015.09
455.365	1023.22
455.739	984.8
456.112	1036.55
456.486	1040.17
456.859	1019.61
457.232	1062.09
457.606	1053.96
457.979	1070.23
458.352	1104.8
458.725	1114.74
459.099	1117
459.472	1113.61
459.845	1130.79
460.218	1120.62
460.591	1137.57
460.964	1151.81
461.337	1145.25
461.71	1157
462.083	1202.65
462.456	1158.13
462.829	1203.56
463.201	1173.73
463.574	1183.9
463.947	1213.73
464.32	1232.26
464.692	1250.79
465.065	1234.74
465.438	1283.33
465.81	1271.12
466.183	1264.12
466.555	1294.18
466.928	1303.67
467.3	1270.22
467.672	1344.34
468.045	1335.76
468.417	1331.01
468.789	1357.68
469.161	1349.31
469.534	1351.12
469.906	1405.13
470.278	1394.51
470.65	1417.56
471.022	1410.1
471.394	1467.96
471.766	1447.62
472.138	1474.06
472.51	1504.79
472.882	1504.11
473.253	1526.94
473.625	1520.84
473.997	1548.86
474.369	1559.7
474.74	1544.79
475.112	1629.76
475.484	1619.59
475.855	1641.06
476.227	1670.89
476.598	1697.78
476.97	1686.03
477.341	1727.38
477.713	1728.51
478.084	1732.36
478.455	1806.93
478.827	1829.08
479.198	1905.91
479.569	1853.71
479.94	1917.89
480.311	1908.85
480.682	1935.51
481.053	1974.16
481.424	2012.57
481.795	2032.23
482.166	2055.51
482.537	2108.16
482.908	2135.96
483.279	2163.98
483.65	2164.21
484.021	2200.14
484.391	2248.95
484.762	2274.71
485.133	2246.92
485.503	2312.68
485.874	2368.27
486.244	2396.07
486.615	2389.06
486.985	2463.86
487.356	2517.42
487.726	2512.67
488.097	2580.02
488.467	2582.73
488.837	2671.09
489.207	2683.07
489.578	2721.03
489.948	2735.27
490.318	2803.06
490.688	2773.91
491.058	2847.13
491.428	2867.69
491.798	2885.32
492.168	2979.33
492.538	2999.21
492.908	3026.11
493.278	3056.84
493.648	3066.56
494.017	3131.64
494.387	3164.63
494.757	3188.59
495.126	3238.53
495.496	3276.95
495.866	3276.04
496.235	3302.94
496.605	3359.66
496.974	3394.46
497.344	3444.85
497.713	3440.79
498.082	3482.37
498.452	3525.08
498.821	3593.1
499.19	3583.83
499.559	3617.96
499.928	3655.69
500.298	3666.54
500.667	3707.9
501.036	3743.38
501.405	3817.5
501.774	3818.63
502.143	3822.47
502.512	3838.29
502.88	3877.84
503.249	3902.02
503.618	3949.47
503.987	3951.73
504.356	4004.16
504.724	4041.9
505.093	4047.32
505.462	4066.76
505.83	4145.17
506.199	4169.13
506.567	4171.84
506.936	4258.39
507.304	4225.62
507.672	4305.17
508.041	4257.71
508.409	4322.57
508.777	4375.9
509.145	4410.25
509.514	4420.65
509.882	4458.16
510.25	4488.44
510.618	4496.58
510.986	4486.63
511.354	4550.81
511.722	4630.81
512.09	4651.83
512.458	4637.14
512.826	4707.42
513.193	4763.91
513.561	4749
513.929	4835.32
514.297	4783.35
514.664	4885.94
515.032	4877.81
515.4	4900.18
515.767	4947.19
516.135	4945.6
516.502	4955.55
516.869	5076.22
517.237	5077.58
517.604	5113.06
517.972	5156.9
518.339	5212.94
518.706	5144.24
519.073	5204.81
519.44	5259.95
519.808	5308.76
520.175	5359.6
520.542	5440.28
520.909	5402.09
521.276	5461.07
521.643	5503.33
522.009	5506.72
522.376	5560.5
522.743	5569.99
523.11	5678.92
523.477	5686.38
523.843	5707.17
524.21	5797.33
524.577	5773.15
524.943	5833.72
525.31	5898.12
525.676	5946.26
526.043	5963.43
526.409	5972.92
526.776	6033.26
527.142	6125.01
527.508	6074.84
527.874	6139.92
528.241	6207.94
528.607	6253.37
528.973	6217.44
529.339	6272.12
529.705	6321.39
530.071	6333.59
530.437	6371.33
530.803	6445.23
531.169	6473.47
531.535	6445.68
531.901	6501.72
532.267	6498.78
532.632	6535.85
532.998	6543.08
533.364	6640.7
533.73	6646.58
534.095	6671.89
534.461	6668.95
534.826	6748.04
535.192	6775.61
535.557	6828.94
535.923	6802.5
536.288	6837.08
536.653	6923.18
537.019	6942.39
537.384	6972.9
537.749	6955.5
538.114	6977.87
538.479	6956.85
538.845	7028.94
539.21	7031.88
539.575	7080.69
539.94	7093.57
540.305	7188.48
540.67	7167.92
541.034	7215.83
541.399	7213.34
541.764	7292.44
542.129	7271.19
542.494	7334.24
542.858	7345.99
543.223	7374.47
543.587	7448.82
543.952	7442.71
544.316	7416.27
544.681	7447.23
545.045	7545.31
545.41	7599.09
545.774	7586.44
546.138	7642.93
546.503	7585.99
546.867	7702.14
547.231	7754.12
547.595	7790.5
547.959	7843.83
548.324	7861.23
548.688	7836.6
549.052	7911.85
549.416	7932.87
549.779	7986.88
550.143	8014.9
550.507	8127.44
550.871	8117.95
551.235	8174.45
551.599	8225.07
551.962	8188.68
552.326	8292.86
552.689	8388.23
553.053	8347.32
553.417	8423.48
553.78	8519.07
554.143	8491.5
554.507	8530.82
554.87	8578.28
555.234	8741.44
555.597	8644.04
555.96	8797.25
556.323	8809.23
556.686	8853.07
557.05	9000.19
557.413	8942.79
557.776	9044.93
558.139	9147.3
558.502	9081.09
558.865	9225.04
559.228	9334.87
559.59	9360.18
559.953	9360.86
560.316	9573.51
560.679	9578.93
561.041	9672.49
561.404	9751.58
561.767	9839.49
562.129	9889.88
562.492	9958.81
562.854	9956.32
563.217	10115.41
563.579	10156.77
563.941	10283.32
564.304	10377.1
564.666	10488.06
565.028	10519.47
565.39	10624.55
565.753	10771.44
566.115	10869.06
566.477	10962.4
566.839	11077.42
567.201	11163.07
567.563	11241.03
567.925	11415.49
568.287	11480.8
568.648	11558.99
569.01	11753.11
569.372	11949.94
569.734	11954.69
570.095	12174.11
570.457	12290.5
570.819	12431.51
571.18	12551.05
571.542	12739.52
571.903	12920.08
572.265	13027.43
572.626	13164.82
572.987	13412.27
573.349	13626.05
573.71	13739.27
574.071	13900.85
574.432	14181.97
574.794	14439.37
575.155	14460.38
575.516	14606.37
575.877	14926.13
576.238	15155.28
576.599	15447.93
576.96	15588.26
577.32	15870.74
577.681	16134.46
578.042	16364.06
578.403	16624.39
578.763	16873.2
579.124	17214.89
579.485	17569.45
579.845	17741.43
580.206	18068.2
580.566	18428.87
580.927	18751.12
581.287	19050.09
581.648	19350.42
582.008	19698.44
582.368	20106.56
582.728	20409.38
583.089	20593.33
583.449	21058.4
583.809	21311.95
584.169	21706.29
584.529	22132.27
584.889	22618.13
585.249	22833.27
585.609	23287.95
585.969	23691.33
586.329	24177.64
586.688	24551.42
587.048	24996.6
587.408	25404.95
587.768	25722.69
588.127	26239.28
588.487	26595.66
588.846	27256.2
589.206	27322.87
589.565	27987.03
589.925	28425.89
590.284	28850.51
590.643	29337.96
591.003	29875.34
591.362	30401.88
591.721	30727.75
592.08	31273.95
592.44	31837.33
592.799	32157.77
593.158	32690.86
593.517	33242.94
593.876	33545.53
594.235	33990.26
594.593	34649.23
594.952	35147.52
595.311	35498.93
595.67	35989.76
596.029	36672.68
596.387	37227.69
596.746	37654.57
597.104	37844.63
597.463	38337.27
597.822	38944.48
598.18	39259.5
598.538	39730.9
598.897	40320.27
599.255	40355.75
599.613	41319.56
599.972	41619.44
600.33	41972.2
600.688	42327.9
601.046	42936.24
601.404	43426.63
601.762	43711.59
602.12	44236.1
602.478	44578.91
602.836	44983.42
603.194	45091.67
603.552	45606
603.91	45779.78
604.268	46337.28
604.625	46568.46
604.983	46984.05
605.341	47107.43
605.698	47665.16
606.056	47946.06
606.413	48096.11
606.771	48392.82
607.128	48755.98
607.485	48894.51
607.843	49089.08
608.2	49567.71
608.557	49942.16
608.914	49926.12
609.272	50298.31
609.629	50554.8
609.986	50784.17
610.343	50865.3
610.7	51192.75
611.057	51232.97
611.414	51421.22
611.771	51632.06
612.127	51814.2
612.484	52019.17
612.841	52178.71
613.198	52119.28
613.554	52349.1
613.911	52644.69
614.267	52657.34
614.624	52720.85
614.98	52873.16
615.337	53198.8
615.693	53169.87
616.05	53218.01
616.406	53502.29
616.762	53552.46
617.118	53548.62
617.475	53715.85
617.831	53794.94
618.187	53930.53
618.543	53977.08
618.899	54174.82
619.255	54215.5
619.611	54249.84
619.967	54303.63
620.323	54492.55
620.678	54502.27
621.034	54409.84
621.39	54460.01
621.746	54557.18
622.101	54865.2
622.457	54661.81
622.812	54757.18
623.168	54798.98
623.523	54884.18
623.879	54985.19
624.234	54863.39
624.589	55067.22
624.945	55086.66
625.3	55098.41
625.655	55145.41
626.01	55213.44
626.365	55169.14
626.72	55208.24
627.075	55160.78
627.43	55229.93
627.785	55180.44
628.14	55265.41
628.495	55329.36
628.85	55370.72
629.205	55278.52
629.559	55478.51
629.914	55364.17
630.269	55311.74
630.623	55347.89
630.978	55305.86
631.332	55419.08
631.687	55453.65
632.041	55396.71
632.396	55495.46
632.75	55424.28
633.104	55437.61
633.459	55310.16
633.813	55340.66
634.167	55365.52
634.521	55355.35
634.875	55380.44
635.229	55378.63
635.583	55252.08
635.937	55252.53
636.291	55232.87
636.645	55303.38
636.999	55228.35
637.352	55322.81
637.706	55166.2
638.06	55304.05
638.413	55222.02
638.767	55140.67
639.121	55198.75
639.474	55042.14
639.828	55133.44
640.181	55208.92
640.534	55166.88
640.888	55104.74
641.241	55048.47
641.594	55031.75
641.947	55087.56
642.301	55036.26
642.654	55121.23
643.007	55102.7
643.36	55019.32
643.713	54989.71
644.066	55076.26
644.419	54853.9
644.771	54749.49
645.124	54465.43
645.477	54412.33
645.83	54319.22
646.182	54210.07
646.535	54178.66
646.888	54175.72
647.24	54130.07
647.593	54255.72
647.945	54174.59
648.298	54144.54
648.65	54000.59
649.002	54061.38
649.355	54096.63
649.707	54082.62
650.059	54191.99
650.411	54540.01
650.763	54481.03
651.115	54828.13
651.467	54723.05
651.819	54742.71
652.171	54648.93
652.523	54681.25
652.875	54618.87
653.227	54588.37
653.578	54747.91
653.93	54626.78
654.282	54514.24
654.633	54515.83
654.985	54597.41
655.337	54567.8
655.688	54560.57
656.039	54669.27
656.391	54457.52
656.742	54549.72
657.094	54544.53
657.445	54625.65
657.796	54619.1
658.147	54520.12
658.498	54567.8
658.849	54479.67
659.2	54491.65
659.551	54425.66
659.902	54518.54
660.253	54543.4
660.604	54526
660.955	54434.7
661.306	54559.67
661.656	54392.89
662.007	54543.17
662.358	54476.05
662.708	54469.95
663.059	54443.06
663.409	54290.52
663.76	54435.15
664.11	54482.61
664.461	54451.87
664.811	54452.78
665.161	54469.95
665.511	54353.12
665.862	54421.59
666.212	54566.67
666.562	54484.64
666.912	54432.89
667.262	54303.85
667.612	54329.39
667.962	54355.83
668.312	54305.89
668.662	54447.13
669.011	54394.02
669.361	54292.1
669.711	54247.13
670.06	54206.91
670.41	54193.12
670.76	54150.19
671.109	54299.79
671.459	54132.33
671.808	54163.75
672.157	54252.1
672.507	53979.57
672.856	54019.34
673.205	54012.34
673.554	54122.84
673.904	54014.82
674.253	54164.42
674.602	53982.28
674.951	53554.95
675.3	53432.92
675.649	54006.01
675.998	53941.38
676.346	53874.04
676.695	53989.29
677.044	53744.77
677.393	53823.87
677.741	53860.7
678.09	53788.39
678.438	53788.61
678.787	53843.3
679.135	53734.83
679.484	53571.44
679.832	53625.91
680.181	53524.44
680.529	53608.28
680.877	53556.76
681.225	53525.34
681.573	53694.83
681.922	53483.09
682.27	53286.25
682.618	53502.52
682.966	53266.59
683.314	53344.78
683.661	53236.09
684.009	53131.23
684.357	53028.63
684.705	53005.13
685.053	52982.53
685.4	52940.73
685.748	52816.44
686.095	52813.05
686.443	52731.47
686.79	52690.34
687.138	52814.18
687.485	52757.91
687.832	52627.06
688.18	52555.2
688.527	52360.63
688.874	52388.65
689.221	52269.56
689.568	52291.03
689.915	52185.72
690.262	52182.33
690.609	52048.77
690.956	51988.89
691.303	52008.32
691.65	51837.48
691.997	51799.06
692.344	51587.77
692.69	51554.77
693.037	51613.3
693.383	51414.44
693.73	51434.55
694.077	51270.49
694.423	51267.78
694.769	51098.97
695.116	51003.6
695.462	50962.25
695.808	50859.2
696.155	50841.57
696.501	50626.21
696.847	50706.89
697.193	50455.14
697.539	50498.98
697.885	50277.07
698.231	50133.34
698.577	50186.45
698.923	50098.54
699.269	49919.79
699.614	49729.29
699.96	49776.52
700.306	49695.16
700.651	49593.7
700.997	49348.96
701.342	49329.3
701.688	49259.47
702.033	49182.63
702.379	49174.5
702.724	49022.19
703.069	49148.96
703.415	48672.82
703.76	48710.33
704.105	48703.1
704.45	48562.31
704.795	48288.42
705.14	48196.44
705.485	48176.78
705.83	48046.62
706.175	48062.21
706.52	47922.78
706.865	47838.04
707.209	47742.67
707.554	47564.6
707.899	47787.19
708.243	47365.96
708.588	47391.72
708.932	47084.61
709.277	47131.16
709.621	47044.61
709.966	46833.77
710.31	46909.92
710.654	46669.71
710.998	46687.11
711.342	46677.16
711.687	46629.48
712.031	46398.53
712.375	46258.42
712.719	46418.19
713.063	46330.05
713.407	46419.99
713.75	46100
714.094	46207.57
714.438	45915.37
714.782	45897.52
715.125	45731.42
715.469	45847.13
715.812	45728.26
716.156	45393.35
716.499	45453.47
716.843	45563.29
717.186	45267.48
717.53	45497.98
717.873	45340.02
718.216	45217.99
718.559	45101.38
718.902	44839.47
719.246	45083.98
719.589	45015.96
719.932	44703.2
720.275	44847.83
720.617	44836.98
720.96	44617.78
721.303	44652.36
721.646	44582.3
721.989	44336.66
722.331	44484.23
722.674	44481.29
723.016	44321.52
723.359	44321.74
723.701	44218.02
724.044	44035.42
724.386	43890.34
724.729	44105.25
725.071	43914.07
725.413	43954.97
725.755	43951.13
726.097	43740.06
726.439	43514.53
726.782	43507.3
727.124	43682.89
727.465	43591.82
727.807	43541.2
728.149	43524.7
728.491	43332.62
728.833	43434.08
729.175	43327.42
729.516	43290.13
729.858	43172.62
730.199	43320.19
730.541	43085.62
730.882	43076.13
731.224	43148.44
731.565	42865.29
731.906	43045.39
732.248	42978.5
732.589	42858.28
732.93	42661
733.271	42844.04
733.612	42727.89
733.953	42751.16
734.294	42533.54
734.635	42505.29
734.976	42537.61
735.317	42426.43
735.658	42425.07
735.999	42445.18
736.339	42299.42
736.68	42420.33
737.021	42220.78
737.361	41976.04
737.702	42357.28
738.042	42250.84
738.383	42052.88
738.723	42111.41
739.063	42096.27
739.404	42010.17
739.744	41868.25
740.084	41783.51
740.424	41917.74
740.764	41736.5
741.104	41857.18
741.444	41634.81
741.784	41682.04
742.124	41807.01
742.464	41719.78
742.804	41555.04
743.143	41404.31
743.483	41476.62
743.823	41274.82
744.162	41341.94
744.502	41458.54
744.841	41120.02
745.181	41378.09
745.52	41167.02
745.86	41239.57
746.199	41052.9
746.538	40943.53
746.877	41113.69
747.216	41040.7
747.556	40938.56
747.895	41028.27
748.234	40816.3
748.573	40693.59
748.911	40742.4
749.25	40756.64
749.589	40497.44
749.928	40529.08
750.267	40570.2
750.605	40510.54
750.944	40406.14
751.283	40299.03
751.621	40352.81
751.96	40130.89
752.298	40195.75
752.636	40145.81
752.975	39945.14
753.313	39878.02
753.651	39951.24
753.989	39796.67
754.327	39656.1
754.666	39475.54
755.004	39514.86
755.342	39699.72
755.679	39454.53
756.017	39398.26
756.355	39466.28
756.693	39279.39
757.031	39284.36
757.368	39123.01
757.706	38961.43
758.044	38853.64
758.381	38876.69
758.719	38727.99
759.056	38844.6
759.394	38531.39
759.731	38387.89
760.068	38416.14
760.405	38281.45
760.743	38175.24
761.08	38280.77
761.417	37920.56
761.754	38021.57
762.091	37908.35
762.428	37751.97
762.765	37471.75
763.102	37609.6
763.438	37472.43
763.775	37304.08
764.112	37300.91
764.449	37265.88
764.785	37123.74
765.122	36904.54
765.458	36762.85
765.795	36872.67
766.131	36780.7
766.467	36493.02
766.804	36442.86
767.14	36285.8
767.476	36252.58
767.812	36185.69
768.148	35998.8
768.485	35881.29
768.821	35711.35
769.157	35601.3
769.492	35541.64
769.828	35379.38
770.164	35083.12
770.5	35124.92
770.836	35221.87
771.171	34841.54
771.507	34919.28
771.842	34620.53
772.178	34555.45
772.513	34493.98
772.849	34333.53
773.184	34298.05
773.519	34330.82
773.855	34028.46
774.19	33967.89
774.525	33920.89
774.86	33839.53
775.195	33702.59
775.53	33515.47
775.865	33446.1
776.2	33071.87
776.535	32955.26
776.87	33008.14
777.205	32846.79
777.539	32636.18
777.874	32774.7
778.209	32496.52
778.543	32422.4
778.878	32211.1
779.212	32327.48
779.547	32054.72
779.881	32113.03
780.215	31845.01
780.55	31850.21
780.884	31667.39
781.218	31526.37
781.552	31571.35
781.886	31380.84
782.22	31242.09
782.554	31137.68
782.888	30828.09
783.222	30718.94
783.556	30601.43
783.889	30547.64
784.223	30442.11
784.557	30448.44
784.89	30384.26
785.224	30319.4
785.557	30096.81
785.891	30025.4
786.224	29879.86
786.558	29925.51
786.891	29716.93
787.224	29523.72
787.557	29435.81
787.891	29440.33
788.224	29345.64
788.557	29387.22
788.89	29266.55
789.223	29174.8
789.556	28935.71
789.888	28914.69
790.221	28814.13
790.554	28604.19
790.887	28531.42
791.219	28501.14
791.552	28299.57
791.884	28167.59
792.217	28128.72
792.549	28116.97
792.882	27893.02
793.214	27799.47
793.546	27823.19
793.879	27726.7
794.211	27553.37
794.543	27677.89
794.875	27480.61
795.207	27493.03
795.539	27271.57
795.871	27269.99
796.203	27072.48
796.535	26931.24
796.867	26945.7
797.198	26823
797.53	26866.61
797.862	26650.8
798.193	26623
798.525	26491.7
798.856	26483.34
799.188	26167.42
799.519	26099.17
799.85	26055.33
800.182	26016.69
800.513	26110.7
800.844	25639.98
801.175	25873.64
801.506	25784.83
801.837	25671.84
802.168	25672.74
802.499	25610.82
802.83	25376.93
803.161	25312.3
803.491	25402.92
803.822	25366.99
804.153	25173.77
804.483	24948.47
804.814	24935.81
805.145	24851.07
805.475	24952.76
805.805	24723.16
806.136	24818.98
806.466	24718.42
806.796	24698.31
807.126	24480.23
807.457	24418.09
807.787	24383.74
808.117	24400.69
808.447	24239.56
808.777	24344.64
809.107	24213.8
809.436	24169.05
809.766	24086.57
810.096	23997.31
810.426	23876.18
810.755	23818.55
811.085	23808.61
811.414	23801.15
811.744	23623.08
812.073	23524.32
812.403	23494.95
812.732	23327.49
813.061	23406.14
813.39	23253.6
813.719	23155.75
814.049	23325.46
814.378	23162.53
814.707	23091.57
815.036	23058.8
815.365	22912.82
815.693	22817.45
816.022	22807.73
816.351	22676.66
816.68	22596.89
817.008	22762.76
817.337	22421.53
817.665	22483.45
817.994	22374.98
818.322	22427.63
818.651	22294.53
818.979	22214.75
819.307	22306.73
819.636	22166.85
819.964	22040.97
820.292	22175.89
820.62	22120.07
820.948	22044.59
821.276	22113.06
821.604	22086.4
821.932	22012.5
822.259	22071.71
822.587	21956.68
822.915	22032.61
823.243	22121.65
823.57	22000.52
823.898	22106.96
824.225	21900.64
824.553	21908.77
824.88	21954.65
825.207	22033.29
825.535	21951.26
825.862	21968.21
826.189	21796.23
826.516	21911.49
826.843	22051.14
827.17	21945.84
827.497	21953.97
827.824	22070.13
828.151	21966.85
828.478	21958.26
828.805	22027.19
829.131	21928.89
829.458	21828.32
829.785	21730.93
830.111	21821.09
830.438	21954.87
830.764	21799.17
831.09	21923.69
831.417	21819.51
831.743	21882.33
832.069	21886.4
832.395	21731.15
832.722	21717.37
833.048	21697.48
833.374	21738.84
833.7	21782.45
834.026	21721.21
834.351	21740.42
834.677	21638.72
835.003	21687.99
835.329	21640.31
835.654	21556.69
835.98	21478.28
836.306	21650.48
836.631	21489.8
836.956	21492.97
837.282	21529.12
837.607	21454.77
837.932	21323.7
838.258	21272.63
838.583	21289.58
838.908	21183.6
839.233	21254.33
839.558	21202.8
839.883	21096.82
840.208	21114.44
840.533	21115.35
840.858	21105.41
841.182	20992.64
841.507	20923.49
841.832	20897.05
842.156	20877.39
842.481	20881
842.805	20820.44
843.13	20681.01
843.454	20747.67
843.778	20590.16
844.103	20581.8
844.427	20571.41
844.751	20586.78
845.075	20375.26
845.399	20517.17
845.723	20242.38
846.047	20334.35
846.371	20165.54
846.695	20147.69
847.019	20040.12
847.343	20055.72
847.666	19850.07
847.99	19760.81
848.313	19722.62
848.637	19618.21
848.96	19603.07
849.284	19689.4
849.607	19441.27
849.931	19405.79
850.254	19173.03
850.577	19075.18
850.9	19045.12
851.223	18992.69
851.546	18865.46
851.869	18754.96
852.192	18816.2
852.515	18636.32
852.838	18631.8
853.161	18592.25
853.483	18573.95
853.806	18525.36
854.129	18295.99
854.451	18300.51
854.774	18210.79
855.096	18268.42
855.419	18135.09
855.741	18177.12
856.063	17935.77
856.385	17942.78
856.708	17937.35
857.03	17871.82
857.352	17806.28
857.674	17640.19
857.996	17727.87
858.318	17594.99
858.64	17645.16
858.961	17539.4
859.283	17421.21
859.605	17348.22
859.926	17451.94
860.248	17344.83
860.57	17318.39
860.891	17423.02
861.212	17218.73
861.534	17126.3
861.855	17190.03
862.176	17207.65
862.498	17161.55
862.819	17131.95
863.14	16959.07
863.461	16974.67
863.782	16933.54
864.103	16961.56
864.424	16983.93
864.745	16943.93
865.065	16902.8
865.386	16747.78
865.707	16680.66
866.027	16748.91
866.348	16669.14
866.668	16616.94
866.989	16616.71
867.309	16574.45
867.63	16505.75
867.95	16663.49
868.27	16506.2
868.59	16527.9
868.91	16351.86
869.23	16335.59
869.55	16337.17
869.87	16328.81
870.19	16358.86
870.51	16318.41
870.83	16366.55
871.15	16249.26
871.469	16227.57
871.789	16280.67
872.109	16160.45
872.428	16098.31
872.748	16129.04
873.067	16125.42
873.386	16197.96
873.706	16160.45
874.025	16014.24
874.344	15951.87
874.663	16009.95
874.982	15908.93
875.301	15857.63
875.62	15830.97
875.939	15774.25
876.258	15870.51
876.577	15821.93
876.896	15755.04
877.214	15752.1
877.533	15792.78
877.852	15727.69
878.17	15668.49
878.489	15724.76
878.807	15688.6
879.125	15615.15
879.444	15553.46
879.762	15556.85
880.08	15490.86
880.398	15389.62
880.716	15545.1
881.034	15374.03
881.352	15478.21
881.67	15421.94
881.988	15408.38
882.306	15338.55
882.624	15202.28
882.941	15146.69
883.259	15041.16
883.577	15087.48
883.894	15074.6
884.212	15004.32
884.529	15088.16
884.846	14993.7
885.164	15002.06
885.481	14950.31
885.798	14979.24
886.115	14761.62
886.432	14797.77
886.75	14727.95
887.067	14793.26
887.383	14687.27
887.7	14706.03
888.017	14645.24
888.334	14707.38
888.651	14596.42
888.967	14507.16
889.284	14483.21
889.6	14498.12
889.917	14379.71
890.233	14432.59
890.55	14322.31
890.866	14325.7
891.182	14279.6
891.498	14198.24
891.815	14146.49
892.131	14130.22
892.447	14129.77
892.763	13979.72
893.079	13998.25
893.395	13909.44
893.71	13944.46
894.026	13900.17
894.342	13883.67
894.657	13718.71
894.973	13758.48
895.289	13771.59
895.604	13758.93
895.92	13679.39
896.235	13568.43
896.55	13623.34
896.865	13538.6
897.181	13493.4
897.496	13418.83
897.811	13401.88
898.126	13278.94
898.441	13301.54
898.756	13188.55
899.071	13216.12
899.386	13200.75
899.7	13020.65
900.015	12973.19
900.33	12850.03
900.644	12860.2
900.959	12898.62
901.273	12786.08
901.588	12808
901.902	12660.2
902.216	12673.08
902.531	12730.94
902.845	12636.48
903.159	12521
903.473	12434.9
903.787	12385.86
904.101	12321.46
904.415	12379.53
904.729	12328.46
905.042	12208.69
905.356	12223.15
905.67	12160.1
905.984	12165.53
906.297	12147
906.611	12099.31
906.924	11984.97
907.237	11954.46
907.551	11867.23
907.864	11818.42
908.177	11741.81
908.491	11801.02
908.804	11706.1
909.117	11619.55
909.43	11523.51
909.743	11515.83
910.056	11534.81
910.368	11487.58
910.681	11467.47
910.994	11374.36
911.307	11304.76
911.619	11276.96
911.932	11196.29
912.244	11208.26
912.557	11115.39
912.869	11027.25
913.181	11027.25
913.494	10976.63
913.806	10923.3
914.118	10872.45
914.43	10834.26
914.742	10814.38
915.054	10783.64
915.366	10674.27
915.678	10636.75
915.99	10619.58
916.302	10517.66
916.613	10503.2
916.925	10483.99
917.236	10492.13
917.548	10421.84
917.859	10448.06
918.171	10304.11
918.482	10288.74
918.794	10277.22
919.105	10234.05
919.416	10139.59
919.727	10054.4
920.038	10114.73
920.349	9984.34
920.66	9956.77
920.971	9955.64
921.282	9898.02
921.593	9871.8
921.903	9834.97
922.214	9825.25
922.525	9699.6
922.835	9649.44
923.146	9655.09
923.456	9537.57
923.767	9576.67
924.077	9509.1
924.387	9498.03
924.697	9444.92
925.008	9361.53
925.318	9355.43
925.628	9412.61
925.938	9210.58
926.248	9156.79
926.558	9150.47
926.867	9173.97
927.177	9163.8
927.487	9078.6
927.796	9017.14
928.106	8970.13
928.416	8931.26
928.725	8933.07
929.034	8853.98
929.344	8872.05
929.653	8791.83
929.962	8731.72
930.271	8748.89
930.581	8620.31
930.89	8650.59
931.199	8625.96
931.508	8556.81
931.817	8565.4
932.125	8465.96
932.434	8461.9
932.743	8458.96
933.051	8332.18
933.36	8389.36
933.669	8329.24
933.977	8266.65
934.286	8209.93
934.594	8236.59
934.902	8122.47
935.21	8119.08
935.519	8133.09
935.827	8045.86
936.135	8022.81
936.443	7935.36
936.751	7952.98
937.059	7897.39
937.367	7887
937.674	7852.19
937.982	7811.74
938.29	7792.99
938.597	7782.59
938.905	7646.32
939.213	7658.08
939.52	7613.56
939.827	7590.73
940.135	7574.24
940.442	7508.93
940.749	7508.02
941.056	7550.51
941.363	7480
941.67	7404.07
941.977	7375.6
942.284	7230.97
942.591	7200.01
942.898	7215.15
943.205	7247.01
943.511	7213.57
943.818	7142.16
944.125	7105.77
944.431	7136.96
944.738	7069.84
945.044	7087.24
945.35	7066.9
945.657	6945.33
945.963	6985.78
946.269	6887.93
946.575	6894.25
946.881	6859.68
947.187	6867.36
947.493	6796.63
947.799	6762.51
948.105	6761.83
948.41	6717.99
948.716	6718.89
949.022	6609.06
949.327	6647.25
949.633	6557.99
949.938	6588.05
950.244	6595.96
950.549	6489.52
950.854	6499.91
951.16	6448.84
951.465	6423.31
951.77	6402.97
952.075	6383.53
952.38	6340.37
952.685	6296.08
952.99	6244.33
953.294	6280.03
953.599	6207.72
953.904	6151.9
954.209	6168.4
954.513	6133.14
954.818	6112.13
955.122	6092.47
955.426	6021.28
955.731	6031
956.035	5989.64
956.339	5999.81
956.643	6000.94
956.948	5967.05
957.252	5955.3
957.556	5939.7
957.86	5841.85
958.163	5836.88
958.467	5798.92
958.771	5741.06
959.075	5708.07
959.378	5717.56
959.682	5706.49
959.985	5669.2
960.289	5665.13
960.592	5653.38
960.896	5588.53
961.199	5549.66
961.502	5503.56
961.805	5545.14
962.108	5460.39
962.411	5497
962.714	5445.03
963.017	5416.55
963.32	5397.57
963.623	5384.69
963.926	5344.69
964.228	5326.16
964.531	5293.39
964.833	5316.89
965.136	5273.73
965.438	5222.89
965.741	5232.83
966.043	5166.39
966.345	5121.87
966.648	5124.81
966.95	5138.82
967.252	5106.96
967.554	5059.5
967.856	5069.44
968.158	5023.34
968.46	4964.81
968.761	4954.19
969.063	4995.32
969.365	4974.53
969.666	4905.61
969.968	4849.56
970.269	4861.09
970.571	4851.37
970.872	4803.91
971.174	4725.27
971.475	4795.55
971.776	4764.59
972.077	4692.28
972.378	4715.78
972.679	4730.02
972.98	4690.24
973.281	4669.23
973.582	4660.19
973.883	4604.14
974.183	4546.52
974.484	4578.16
974.785	4544.03
975.085	4526.18
975.386	4563.47
975.686	4537.25
975.986	4464.71
976.287	4480.98
976.587	4421.78
976.887	4401.66
977.187	4419.74
977.487	4377.71
977.787	4306.07
978.087	4342.23
978.387	4274.21
978.687	4299.07
978.987	4259.07
979.286	4228.79
979.586	4239.18
979.885	4222.69
980.185	4167.77
980.484	4171.39
980.784	4142.91
981.083	4149.24
981.382	4120.54
981.682	4084.84
981.981	4087.32
982.28	4074.44
982.579	4024.27
982.878	4007.32
983.177	4024.5
983.475	3998.74
983.774	3926.42
984.073	3917.83
984.372	3928.23
984.67	3916.93
984.969	3919.42
985.267	3911.96
985.566	3916.25
985.864	3892.07
986.162	3811.62
986.461	3810.27
986.759	3766.65
987.057	3743.6
987.355	3726.2
987.653	3750.83
987.951	3700.44
988.249	3688.24
988.547	3683.49
988.844	3645.98
989.142	3653.66
989.44	3641.01
989.737	3603.27
990.035	3568.92
990.332	3572.31
990.63	3572.31
990.927	3542.48
991.224	3508.58
991.521	3545.42
991.819	3493.21
992.116	3475.36
992.413	3487.11
992.71	3433.1
993.006	3411.63
993.303	3395.81
993.6	3412.09
993.897	3401.01
994.193	3332.77
994.49	3356.95
994.787	3316.04
995.083	3302.03
995.379	3299.09
995.676	3248.93
995.972	3294.35
996.268	3210.96
996.565	3227.68
996.861	3232.88
997.157	3179.32
997.453	3180.23
997.749	3187.68
998.044	3162.15
998.34	3110.85
998.636	3102.49
998.932	3084.18
999.227	3054.81
999.523	3043.06
999.818	3057.97
1000.114	3014.36
1000.409	3011.19
1000.704	2965.09
1001	2968.48
1001.295	2968.03
1001.59	2939.1
1001.885	2908.37
1002.18	2917.64
1002.475	2881.7
1002.77	2837.41
1003.065	2835.6
1003.359	2838.77
1003.654	2878.54
1003.949	2836.06
1004.243	2810.29
1004.538	2810.29
1004.832	2807.81
1005.127	2785.21
1005.421	2773.01
1005.715	2770.97
1006.009	2735.04
1006.304	2659.34
1006.598	2655.95
1006.892	2666.34
1007.186	2653.24
1007.48	2644.2
1007.773	2595.84
1008.067	2585.44
1008.361	2597.87
1008.655	2580.02
1008.948	2529.17
1009.242	2531.43
1009.535	2523.52
1009.829	2483.07
1010.122	2475.39
1010.415	2490.75
1010.708	2484.88
1011.001	2422.51
1011.295	2414.15
1011.588	2407.82
1011.881	2416.41
1012.173	2389.29
1012.466	2367.37
1012.759	2360.36
1013.052	2350.87
1013.344	2306.35
1013.637	2307.03
1013.93	2299.12
1014.222	2287.82
1014.514	2290.98
1014.807	2240.59
1015.099	2241.72
1015.391	2237.88
1015.683	2247.14
1015.976	2215.51
1016.268	2187.94
1016.56	2186.58
1016.851	2166.47
1017.143	2147.71
1017.435	2099.35
1017.727	2093.7
1018.018	2101.84
1018.31	2090.54
1018.602	2067.26
1018.893	2055.28
1019.185	2038.79
1019.476	2036.53
1019.767	1989.52
1020.058	2017.55
1020.35	1999.69
1020.641	1979.58
1020.932	1959.47
1021.223	1941.39
1021.514	1923.54
1021.804	1915.63
1022.095	1908.4
1022.386	1941.16
1022.677	1874.5
1022.967	1876.98
1023.258	1851
1023.548	1853.48
1023.839	1823.65
1024.129	1807.83
1024.419	1802.18
1024.709	1768.74
1025	1775.52
1025.29	1750.43
1025.58	1738.91
1025.87	1722.86
1026.16	1724.45
1026.449	1727.84
1026.739	1705.01
1027.029	1717.89
1027.319	1689.19
1027.608	1686.26
1027.898	1641.51
1028.187	1615.3
1028.477	1645.13
1028.766	1639.25
1029.055	1599.93
1029.344	1615.07
1029.634	1597.9
1029.923	1566.26
1030.212	1569.65
1030.501	1587.05
1030.79	1532.36
1031.078	1534.17
1031.367	1501.18
1031.656	1505.69
1031.945	1511.34
1032.233	1497.11
1032.522	1493.94
1032.81	1483.1
1033.099	1469.09
1033.387	1446.04
1033.675	1440.61
1033.963	1440.16
1034.251	1421.4
1034.54	1406.26
1034.828	1368.98
1035.116	1389.31
1035.403	1401.52
1035.691	1375.08
1035.979	1334.85
1036.267	1335.3
1036.554	1354.74
1036.842	1353.16
1037.129	1322.87
1037.417	1318.58
1037.704	1322.42
1037.992	1307.96
1038.279	1295.08
1038.566	1284.46
1038.853	1284.46
1039.14	1284.46
