Data from plate_porcelain_FLMS001491_050.txt Node
Date: Tue Feb 07 11:19:23 GMT 2017
User: dcchb
Spectrometer: FLMS00149
Trigger mode: 0
Integration Time (sec): 2.000000E-2
Scans to average: 10
Electric dark correction enabled: true
Nonlinearity correction enabled: false
Boxcar width: 0
XAxis mode: Wavelengths
Number of Pixels in Spectrum: 2048
>>>>>Begin Spectral Data<<<<<
341.393	-14.05
341.776	-14.05
342.16	-14.05
342.543	-34.62
342.927	-68.97
343.31	-76.42
343.693	-73.71
344.077	-52.47
344.46	-45.92
344.843	-60.38
345.226	-43.43
345.61	-34.17
345.993	-28.52
346.376	-7.27
346.759	16
347.142	36.11
347.525	49.9
347.908	57.36
348.291	68.43
348.674	67.98
349.057	126.51
349.44	120.41
349.823	115.66
350.206	165.15
350.588	239.05
350.971	252.83
351.354	260.06
351.737	263.45
352.119	292.15
352.502	316.11
352.884	308.42
353.267	336.45
353.65	339.84
354.032	346.16
354.414	349.1
354.797	341.64
355.179	356.56
355.562	388.65
355.944	365.37
356.326	356.33
356.709	377.12
357.091	396.33
357.473	412.15
357.855	395.88
358.238	373.51
358.62	394.3
359.002	395.65
359.384	403.34
359.766	401.3
360.148	410.34
360.53	395.43
360.912	393.17
361.294	405.6
361.676	389.1
362.057	393.39
362.439	392.04
362.821	387.29
363.203	380.51
363.584	391.36
363.966	403.79
364.348	414.18
364.729	379.83
365.111	401.08
365.493	379.83
365.874	387.97
366.256	373.51
366.637	404.24
367.019	410.12
367.4	402.88
367.781	392.26
368.163	382.55
368.544	404.69
368.925	411.92
369.306	424.35
369.688	415.09
370.069	412.15
370.45	417.35
370.831	425.71
371.212	428.87
371.593	403.34
371.974	421.87
372.355	431.81
372.736	408.31
373.117	435.43
373.498	421.64
373.879	442.88
374.26	425.71
374.641	408.53
375.021	444.69
375.402	408.08
375.783	424.81
376.163	471.58
376.544	457.35
376.925	475.88
377.305	455.31
377.686	470.68
378.066	466.84
378.447	462.54
378.827	468.87
379.208	493.73
379.588	489.89
379.968	486.72
380.349	509.55
380.729	499.15
381.109	490.34
381.489	509.77
381.87	521.3
382.25	515.42
382.63	517.68
383.01	532.37
383.39	519.72
383.77	529.21
384.15	505.71
384.53	542.99
384.91	556.78
385.29	554.52
385.67	555.42
386.049	560.17
386.429	582.09
386.809	587.06
387.189	577.57
387.568	595.87
387.948	569.66
388.328	622.54
388.707	607.85
389.087	603.11
389.466	610.11
389.846	645.14
390.225	624.12
390.605	626.16
390.984	656.44
391.363	655.53
391.743	654.18
392.122	678.58
392.501	694.63
392.881	684.91
393.26	695.08
393.639	701.41
394.018	700.28
394.397	713.39
394.776	705.48
395.155	721.29
395.534	724.23
395.913	748.19
396.292	746.38
396.671	733.27
397.05	742.31
397.429	791.8
397.808	796.09
398.186	793.38
398.565	794.74
398.944	807.39
399.323	823.89
399.701	834.06
400.08	841.97
400.458	851.46
400.837	847.62
401.215	853.72
401.594	874.74
401.972	855.98
402.351	874.96
402.729	908.18
403.107	892.59
403.486	916.77
403.864	915.64
404.242	924.45
404.62	934.85
404.999	973.49
405.377	954.96
405.755	969.65
406.133	992.02
406.511	1001.97
406.889	1049.65
407.267	1024.56
407.645	1046.94
408.023	1081.51
408.401	1055.52
408.779	1087.39
409.156	1103.21
409.534	1114.96
409.912	1112.47
410.29	1157.22
410.667	1161.06
411.045	1170.1
411.422	1196.31
411.8	1217.33
412.178	1231.79
412.555	1251.22
412.933	1243.31
413.31	1282.18
413.687	1308.62
414.065	1293.93
414.442	1328.28
414.819	1340.94
415.197	1352.69
415.574	1383.42
415.951	1399.92
416.328	1389.98
416.705	1413.48
417.082	1439.69
417.46	1457.09
417.837	1460.94
418.214	1476.75
418.591	1503.87
418.967	1523.99
419.344	1516.98
419.721	1578
420.098	1565.79
420.475	1556.3
420.852	1599.24
421.228	1634.49
421.605	1624.1
421.982	1653.25
422.358	1688.95
422.735	1706.13
423.111	1688.27
423.488	1735.96
423.864	1752.68
424.241	1791.77
424.617	1784.54
424.994	1802.62
425.37	1807.82
425.746	1839.68
426.123	1867.03
426.499	1906.35
426.875	1916.52
427.251	1924.65
427.627	1982.28
428.003	2027.93
428.379	2043.52
428.756	2035.61
429.132	2095.27
429.507	2113.8
429.883	2128.72
430.259	2182.73
430.635	2167.81
431.011	2226.57
431.387	2278.54
431.763	2297.3
432.138	2337.98
432.514	2368.26
432.89	2388.82
433.265	2445.32
433.641	2481.93
434.016	2448.71
434.392	2524.86
434.767	2577.07
435.143	2563.05
435.518	2584.07
435.894	2658.42
436.269	2699.32
436.644	2702.26
437.02	2720.79
437.395	2749.72
437.77	2790.62
438.145	2819.77
438.52	2870.62
438.895	2875.59
439.271	2925.3
439.646	2958.52
440.021	2981.8
440.395	3015.7
440.77	3026.09
441.145	3036.04
441.52	3087.56
441.895	3104.73
442.27	3121.46
442.645	3143.38
443.019	3193.77
443.394	3200.78
443.769	3222.02
444.143	3193.09
444.518	3321.23
444.892	3281.45
445.267	3294.79
445.641	3311.28
446.016	3395.35
446.39	3362.13
446.764	3433.31
447.139	3445.74
447.513	3459.53
447.887	3500.2
448.262	3547.89
448.636	3509.47
449.01	3568.45
449.384	3592.18
449.758	3669.01
450.132	3685.28
450.506	3706.07
450.88	3736.58
451.254	3767.99
451.628	3797.15
452.002	3872.85
452.376	3913.75
452.75	3914.66
453.123	3991.49
453.497	4024.71
453.871	4092.96
454.244	4137.7
454.618	4183.8
454.992	4276.46
455.365	4239.17
455.739	4343.57
456.112	4422.44
456.486	4474.42
456.859	4451.14
457.232	4563
457.606	4630.34
457.979	4633.96
458.352	4706.95
458.725	4851.36
459.099	4815.88
459.472	4953.5
459.845	4983.56
460.218	5046.83
460.591	5125.02
460.964	5120.27
461.337	5246.15
461.71	5348.74
462.083	5387.61
462.456	5412.47
462.829	5434.39
463.201	5555.97
463.574	5520.49
463.947	5648.85
464.32	5798.68
464.692	5839.58
465.065	5893.59
465.438	5994.83
465.81	6047.26
466.183	6143.3
466.555	6240.47
466.928	6309.4
467.3	6279.34
467.672	6426.23
468.045	6616.05
468.417	6610.86
468.789	6691.99
469.161	6757.97
469.534	6866.22
469.906	6984.63
470.278	7097.4
470.65	7157.28
471.022	7294
471.394	7409.25
471.766	7473.66
472.138	7597.27
472.51	7766.99
472.882	7896.25
473.253	8036.13
473.625	8120.42
473.997	8300.53
474.369	8338.5
474.74	8381.43
475.112	8623.91
475.484	8783
475.855	8905.94
476.227	8975.77
476.598	9297.57
476.97	9337.57
477.341	9553.15
477.713	9694.62
478.084	9758.57
478.455	10065.68
478.827	10076.08
479.198	10386.35
479.569	10425.45
479.94	10732.78
480.311	10852.55
480.682	11104.98
481.053	11337.96
481.424	11500.67
481.795	11654.79
482.166	11792.87
482.537	12004.61
482.908	12260.65
483.279	12356.02
483.65	12602.34
484.021	12806.17
484.391	12999.16
484.762	13114.87
485.133	13248.42
485.503	13413.62
485.874	13743.1
486.244	13883.66
486.615	14216.98
486.985	14287.04
487.356	14616.07
487.726	14707.37
488.097	15052.67
488.467	15072.33
488.837	15389.61
489.207	15676.83
489.578	15780.79
489.948	15947.33
490.318	16396.59
490.688	16333.99
491.058	16519.98
491.428	16776.01
491.798	16998.61
492.168	17430.91
492.538	17418.71
492.908	17613.51
493.278	17827.51
493.648	17930.33
494.017	18248.07
494.387	18289.42
494.757	18505.46
495.126	18713.82
495.496	18779.8
495.866	18923.75
496.235	19128.95
496.605	19330.3
496.974	19454.59
497.344	19704.3
497.713	19802.15
498.082	19907.68
498.452	20119.88
498.821	20243.04
499.19	20360.1
499.559	20508.57
499.928	20677.15
500.298	20851.61
500.667	21092.28
501.036	21052.29
501.405	21210.47
501.774	21246.86
502.143	21545.61
502.512	21686.62
502.88	21883
503.249	21978.36
503.618	22155.76
503.987	22258.58
504.356	22400.95
504.724	22539.03
505.093	22602.98
505.462	22763.65
505.83	23006.81
506.199	23194.6
506.567	23435.05
506.936	23463.07
507.304	23839.78
507.672	23950.97
508.041	24037.52
508.409	24173.11
508.777	24439.77
509.145	24670.04
509.514	24617.62
509.882	24747.78
510.25	24946.42
510.618	25082.91
510.986	25145.29
511.354	25623.46
511.722	25777.81
512.09	25921.99
512.458	25956.34
512.826	26217.57
513.193	26403.33
513.561	26502.99
513.929	26753.15
514.297	27008.51
514.664	27119.47
515.032	27376.64
515.4	27532.12
515.767	27705.67
516.135	27846.01
516.502	27795.16
516.869	28281.02
517.237	28406.22
517.604	28402.6
517.972	28778.64
518.339	28937.28
518.706	29071.06
519.073	29263.14
519.44	29514.66
519.808	29810.47
520.175	29855.22
520.542	30333.85
520.909	30438.03
521.276	30621.98
521.643	30742.88
522.009	31045.02
522.376	31295.86
522.743	31431.9
523.11	31830.31
523.477	32172.45
523.843	32241.82
524.21	32553.45
524.577	32869.6
524.943	33033.67
525.31	33234.11
525.676	33437.27
526.043	33616.25
526.409	33902.34
526.776	34293.29
527.142	34418.94
527.508	34669.55
527.874	34989.32
528.241	35081.97
528.607	35133.72
528.973	35464.11
529.339	35647.16
529.705	35906.36
530.071	36314.48
530.437	36502.95
530.803	36654.14
531.169	36918.08
531.535	36803.28
531.901	37126.21
532.267	37288.47
532.632	37475.81
532.998	37749.93
533.364	37914.89
533.73	38092.52
534.095	38360.08
534.461	38536.57
534.826	38756.45
535.192	38930.01
535.557	39160.74
535.923	39111.25
536.288	39334.97
536.653	39507.17
537.019	39361.86
537.384	39677.33
537.749	39763.66
538.114	40095.85
538.479	40060.6
538.845	40306.02
539.21	40133.37
539.575	40526.12
539.94	40726.8
540.305	40869.17
540.67	41009.05
541.034	41130.63
541.399	41282.49
541.764	41358.64
542.129	41483.61
542.494	41588.24
542.858	41810.38
543.223	41819.42
543.587	42053.09
543.952	42062.13
544.316	42370.82
544.681	42400.88
545.045	42648.55
545.41	42728.1
545.774	42827.53
546.138	42957.02
546.503	43109.33
546.867	43161.76
547.231	43399.95
547.595	43652.6
547.959	43675.65
548.324	43869.54
548.688	43774.4
549.052	44098.01
549.416	44091.23
549.779	44258.45
550.143	44369.86
550.507	44742.51
550.871	44831.55
551.235	44839.46
551.599	45191.76
551.962	45054.59
552.326	45355.6
552.689	45603.96
553.053	45433.57
553.417	45637.4
553.78	46096.82
554.143	45967.34
554.507	46200.55
554.87	46359.19
555.234	46753.53
555.597	46471.5
555.96	46770.25
556.323	47031.04
556.686	47189.9
557.05	47358.03
557.413	47389.67
557.776	47467.18
558.139	47806.84
558.502	48023.1
558.865	48021.75
559.228	48300.61
559.59	48368.4
559.953	48489.76
560.316	48936.07
560.679	48866.47
561.041	49111.21
561.404	49258.1
561.767	49461.03
562.129	49498.77
562.492	49817.86
562.854	49849.27
563.217	49887.23
563.579	50110.96
563.941	50299.43
564.304	50513.88
564.666	50694.44
565.028	50765.85
565.39	50808.34
565.753	51034.32
566.115	51101.89
566.477	51354.31
566.839	51449.9
567.201	51626.4
567.563	51719.28
567.925	51883.57
568.287	51840.4
568.648	51945.71
569.01	52136.89
569.372	52315.19
569.734	52224.8
570.095	52553.38
570.457	52643.32
570.819	52686.48
571.18	52739.14
571.542	52981.39
571.903	52912.92
572.265	53092.57
572.626	53063.42
572.987	53189.97
573.349	53354.71
573.71	53484.65
574.071	53497.53
574.432	53566.46
574.794	53840.12
575.155	53775.94
575.516	53736.17
575.877	53836.96
576.238	53886.68
576.599	54083.96
576.96	54035.37
577.32	54066.11
577.681	54142.94
578.042	54334.57
578.403	54230.4
578.763	54303.39
579.124	54401.69
579.485	54446.89
579.845	54525.08
580.206	54522.37
580.566	54504.51
580.927	54589.71
581.287	54715.81
581.648	54518.3
582.008	54667.67
582.368	54675.36
582.728	54712.42
583.089	54711.29
583.449	54687.56
583.809	54767.78
584.169	54845.52
584.529	54785.18
584.889	54973.88
585.249	54776.82
585.609	54648.69
585.969	54828.35
586.329	54808.23
586.688	54849.14
587.048	54817.27
587.408	54758.74
587.768	54782.02
588.127	54823.83
588.487	54753.09
588.846	54921.45
589.206	54826.09
589.565	54828.12
589.925	55005.29
590.284	54892.3
590.643	54955.12
591.003	54952.86
591.362	55062.01
591.721	54924.39
592.08	54957.61
592.44	55038.51
592.799	55133.42
593.158	54978.85
593.517	55026.31
593.876	55064.72
594.235	55066.31
594.593	55068.11
594.952	55151.28
595.311	55107.44
595.67	55113.31
596.029	55276.47
596.387	55214.1
596.746	55324.83
597.104	55156.47
597.463	55141.56
597.822	55271.05
598.18	55191.05
598.538	55169.58
598.897	55289.8
599.255	55203.25
599.613	55487.31
599.972	55330.71
600.33	55473.3
600.688	55325.73
601.046	55477.37
601.404	55622.9
601.762	55478.27
602.12	55587.87
602.478	55625.39
602.836	55669.68
603.194	55499.52
603.552	55522.57
603.91	55475.11
604.268	55635.1
604.625	55588.1
604.983	55836
605.341	55530.02
605.698	55694.31
606.056	55782.67
606.413	55690.7
606.771	55870.35
607.128	55871.03
607.485	55744.93
607.843	55896.12
608.2	55964.36
608.557	56106.28
608.914	55878.49
609.272	56078.48
609.629	56104.92
609.986	56094.98
610.343	56095.43
610.7	56241.87
611.057	56220.63
611.414	56251.36
611.771	56227.41
612.127	56309.44
612.484	56317.12
612.841	56373.84
613.198	56376.55
613.554	56355.09
613.911	56488.87
614.267	56462.88
614.624	56395.99
614.98	56519.83
615.337	56677.34
615.693	56546.72
616.05	56586.72
616.406	56693.38
616.762	56604.57
617.118	56599.37
617.475	56652.48
617.831	56648.86
618.187	56686.15
618.543	56722.53
618.899	56890.67
619.255	56808.86
619.611	56780.39
619.967	56916.65
620.323	56946.03
620.678	56835.07
621.034	56798.69
621.39	56786.26
621.746	56765.24
622.101	57022.64
622.457	56798.24
622.812	56841.63
623.168	56986.71
623.523	56910.78
623.879	56980.61
624.234	56825.36
624.589	56893.83
624.945	56920.04
625.3	56972.24
625.655	56880.27
626.01	56953.04
626.365	56925.47
626.72	56916.88
627.075	56844.79
627.43	56888.41
627.785	56795.53
628.14	56796.88
628.495	56896.09
628.85	56817.9
629.205	56747.17
629.559	56864.68
629.914	56711.46
630.269	56822.19
630.623	56705.36
630.978	56593.05
631.332	56738.8
631.687	56781.06
632.041	56629.43
632.396	56671.24
632.75	56600.5
633.104	56643.44
633.459	56480.28
633.813	56446.38
634.167	56528.87
634.521	56474.86
634.875	56515.31
635.229	56414.75
635.583	56354.86
635.937	56328.87
636.291	56247.97
636.645	56324.13
636.999	56224.47
637.352	56311.02
637.706	56078.71
638.06	56223.11
638.413	56137.92
638.767	56160.29
639.121	56097.69
639.474	55945.38
639.828	56045.72
640.181	55920.97
640.534	56013.63
640.888	55881.43
641.241	55762.33
641.594	55835.33
641.947	55913.29
642.301	55787.87
642.654	55845.95
643.007	55740.19
643.36	55744.25
643.713	55734.76
644.066	55785.16
644.419	55591.72
644.771	55388.33
645.124	55206.42
645.477	55045.74
645.83	54899.31
646.182	54695.92
646.535	54701.12
646.888	54782.47
647.24	54482.14
647.593	54631.97
647.945	54690.95
648.298	54500.67
648.65	54432.2
649.002	54351.52
649.355	54476.04
649.707	54348.59
650.059	54573.21
650.411	54869.25
650.763	54889.81
651.115	55144.04
651.467	55022.69
651.819	54978.63
652.171	54954.67
652.523	54909.02
652.875	54858.4
653.227	54710.38
653.578	54900.21
653.93	54851.62
654.282	54643.72
654.633	54589.03
654.985	54689.14
655.337	54732.53
655.688	54745.41
656.039	54780.89
656.391	54459.99
656.742	54560.78
657.094	54564.62
657.445	54748.35
657.796	54669.93
658.147	54516.49
658.498	54459.32
658.849	54614.11
659.2	54512.65
659.551	54366.66
659.902	54530.5
660.253	54412.31
660.604	54430.16
660.955	54265.88
661.306	54400.56
661.656	54410.73
662.007	54300.22
662.358	54320.11
662.708	54327.79
663.059	54172.77
663.409	54073.56
663.76	54269.27
664.11	54265.65
664.461	54189.49
664.811	54206.67
665.161	54276.95
665.511	54169.61
665.862	54211.64
666.212	54297.51
666.562	54267.23
666.912	54235.14
667.262	54282.82
667.612	54210.51
667.962	54201.47
668.312	54148.82
668.662	54221.58
669.011	54071.3
669.361	54069.95
669.711	54140.45
670.06	54009.38
670.41	53961.25
670.76	53961.48
671.109	54045.77
671.459	53960.35
671.808	53891.65
672.157	54047.12
672.507	53834.7
672.856	53886.9
673.205	53945.66
673.554	53909.5
673.904	53715.38
674.253	53949.73
674.602	53824.98
674.951	53392.68
675.3	53364.2
675.649	53753.8
675.998	53710.41
676.346	53586.57
676.695	53702.5
677.044	53544.99
677.393	53632.22
677.741	53712.44
678.09	53620.92
678.438	53509.51
678.787	53607.36
679.135	53569.62
679.484	53323.98
679.832	53439.91
680.181	53292.12
680.529	53371.89
680.877	53239.91
681.225	53292.79
681.573	53400.36
681.922	53188.16
682.27	53135.74
682.618	53128.96
682.966	52994.95
683.314	53053.7
683.661	52907.04
684.009	52803.99
684.357	52761.28
684.705	52709.08
685.053	52692.36
685.4	52753.37
685.748	52577.11
686.095	52477.9
686.443	52298.47
686.79	52336.43
687.138	52390.22
687.485	52362.65
687.832	52289.66
688.18	52256.21
688.527	52185.03
688.874	52043.11
689.221	51952.94
689.568	51865.03
689.915	51716.34
690.262	51799.5
690.609	51706.85
690.956	51621.43
691.303	51575.55
691.65	51422.56
691.997	51243.81
692.344	51143.92
692.69	51146.18
693.037	51234.54
693.383	50943.7
693.73	51009.46
694.077	50866.64
694.423	50792.52
694.769	50663.48
695.116	50658.06
695.462	50615.8
695.808	50458.07
696.155	50541.45
696.501	50204.97
696.847	50236.83
697.193	49877.52
697.539	50159.09
697.885	49883.17
698.231	49873.9
698.577	49764.07
698.923	49569.05
699.269	49485.21
699.614	49268.94
699.96	49211.32
700.306	49159.12
700.651	49296.06
700.997	49016.97
701.342	48972.91
701.688	48777.43
702.033	48722.97
702.379	48670.99
702.724	48495.18
703.069	48709.64
703.415	48226.71
703.76	48269.87
704.105	48270.78
704.45	48066.72
704.795	47869.89
705.14	47739.95
705.485	47697.01
705.83	47627.18
706.175	47633.51
706.52	47609.1
706.865	47416.56
707.209	47199.85
707.554	47253.63
707.899	47359.84
708.243	47077.59
708.588	46873.3
708.932	46806.41
709.277	46790.82
709.621	46720.76
709.966	46486.87
710.31	46541.33
710.654	46224.05
710.998	46259.08
711.342	46387.21
711.687	46305.63
712.031	45908.36
712.375	45860.45
712.719	45953.33
713.063	45662.94
713.407	45815.7
713.75	45628.36
714.094	45678.53
714.438	45431.53
714.782	45465.65
715.125	45208.94
715.469	45376.62
715.812	45063.41
716.156	44985.22
716.499	44658.44
716.843	44898.44
717.186	44563.08
717.53	44791.1
717.873	44930.75
718.216	44743.64
718.559	44594.49
718.902	44275.4
719.246	44488.96
719.589	44229.76
719.932	44252.13
720.275	44150.89
720.617	44029.53
720.96	43933.72
721.303	43891.23
721.646	43853.95
721.989	43650.34
722.331	43659.37
722.674	43668.87
723.016	43725.59
723.359	43571.24
723.701	43558.13
724.044	43345.26
724.386	43173.06
724.729	43188.88
725.071	43032.27
725.413	42953.63
725.755	43018.71
726.097	42890.58
726.439	42726.52
726.782	42625.5
727.124	42757.7
727.465	42637.71
727.807	42500.08
728.149	42393.87
728.491	42406.75
728.833	42376.92
729.175	42449.69
729.516	42219.86
729.858	42065.29
730.199	42249.02
730.541	41988.68
730.882	42045.86
731.224	42261.9
731.565	41762.25
731.906	41676.6
732.248	41887.22
732.589	41527.23
732.93	41613.55
733.271	41444.97
733.612	41662.36
733.953	41523.16
734.294	41253.56
734.635	41260.34
734.976	41373.11
735.317	41217.18
735.658	41092.66
735.999	41004.08
736.339	41011.08
736.68	41141.25
737.021	40899
737.361	40614.71
737.702	40940.8
738.042	40699.68
738.383	40731.09
738.723	40756.63
739.063	40496.97
739.404	40689.06
739.744	40442.28
740.084	40265.11
740.424	40332.23
740.764	40336.75
741.104	40430.98
741.444	40047.72
741.784	40008.62
742.124	40002.3
742.464	39839.36
742.804	39983.77
743.143	39858.34
743.483	39906.93
743.823	39651.34
744.162	39640.27
744.502	39708.52
744.841	39442.08
745.181	39624.9
745.52	39419.03
745.86	39381.3
746.199	39378.13
746.538	39194.18
746.877	39350.79
747.216	39209.55
747.556	38979.72
747.895	39054.98
748.234	38776.57
748.573	38626.74
748.911	38564.59
749.25	38681.43
749.589	38496.35
749.928	38521.43
750.267	38473.07
750.605	38341.32
750.944	38371.15
751.283	38248.67
751.621	38337.25
751.96	38041.9
752.298	38041.9
752.636	38004.83
752.975	37800.77
753.313	37698.18
753.651	37765.29
753.989	37530.95
754.327	37451.85
754.666	37381.57
755.004	37480.78
755.342	37446.43
755.679	37382.48
756.017	37137.96
756.355	37189.04
756.693	37063.62
757.031	37008.48
757.368	36853
757.706	36792.66
758.044	36743.4
758.381	36607.13
758.719	36481.48
759.056	36372.79
759.394	36305.22
759.731	36062.96
760.068	36034.04
760.405	35808.51
760.743	35854.61
761.08	35742.75
761.417	35666.82
761.754	35617.1
762.091	35572.81
762.428	35315.64
762.765	35209.88
763.102	35413.26
763.438	35060.96
763.775	34876.55
764.112	34893.28
764.449	34800.62
764.785	34615.32
765.122	34401.09
765.458	34320.19
765.795	34303.24
766.131	34369
766.467	33985.05
766.804	33924.04
767.14	33707.55
767.476	33762.91
767.812	33679.52
768.148	33558.4
768.485	33301.91
768.821	33297.84
769.157	33338.52
769.492	33146.66
769.828	33012.87
770.164	32680.68
770.5	32758.87
770.836	32703.05
771.171	32397.98
771.507	32429.16
771.842	32083.18
772.178	32139.68
772.513	32135.61
772.849	32169.51
773.184	31957.31
773.519	31942.62
773.855	31847.93
774.19	31547.6
774.525	31430.32
774.86	31429.41
775.195	31338.79
775.53	31193.26
775.865	31014.28
776.2	30802.99
776.535	30743.33
776.87	30727.96
777.205	30593.28
777.539	30512.38
777.874	30362.55
778.209	30125.49
778.543	29997.59
778.878	29844.82
779.212	30018.38
779.547	29798.72
779.881	29718.27
780.215	29497.49
780.55	29568.22
780.884	29386.76
781.218	29313.76
781.552	29313.76
781.886	29136.59
782.22	29077.16
782.554	28819.09
782.888	28582.93
783.222	28461.36
783.556	28529.15
783.889	28535.48
784.223	28248.48
784.557	28162.38
784.89	28154.25
785.224	28186.11
785.557	27873.58
785.891	27795.38
786.224	27748.61
786.558	27650.3
786.891	27359.24
787.224	27361.5
787.557	27300.71
787.891	27151.33
788.224	27189.07
788.557	27211.22
788.89	27046.03
789.223	26931
789.556	26770.55
789.888	26692.36
790.221	26617.56
790.554	26460.5
790.887	26394.52
791.219	26175.54
791.552	26249.21
791.884	26063.23
792.217	26068.65
792.549	25827.08
792.882	25936
793.214	25724.48
793.546	25686.51
793.879	25506.18
794.211	25333.53
794.543	25369.91
794.875	25329.24
795.207	25311.38
795.539	25147.09
795.871	25032.52
796.203	24890.15
796.535	24777.61
796.867	24700.78
797.198	24675.69
797.53	24782.36
797.862	24447.22
798.193	24501.91
798.525	24316.61
798.856	24274.8
799.188	24070.29
799.519	24067.8
799.85	23923.4
800.182	24098.53
800.513	24077.74
800.844	23771.99
801.175	23886.34
801.506	23723.18
801.837	23641.6
802.168	23644.31
802.499	23534.71
802.83	23347.59
803.161	23370.42
803.491	23334.94
803.822	23299.01
804.153	23143.3
804.483	23006.58
804.814	22930.2
805.145	22865.8
805.475	22874.61
805.805	22733.15
806.136	22763.43
806.466	22789.87
806.796	22734.95
807.126	22513.94
807.457	22546.48
807.787	22538.57
808.117	22302.2
808.447	22282.08
808.777	22232.82
809.107	22145.14
809.436	22096.33
809.766	22047.29
810.096	22080.51
810.426	21996.67
810.755	22018.81
811.085	21826.95
811.414	21848.2
811.744	21650.69
812.073	21573.63
812.403	21560.07
812.732	21391.94
813.061	21419.06
813.39	21291.38
813.719	21284.6
814.049	21390.58
814.378	21339.06
814.707	21053.64
815.036	21057.26
815.365	20983.13
815.693	20798.96
816.022	20860.65
816.351	20782.91
816.68	20718.06
817.008	20711.96
817.337	20560.77
817.665	20505.41
817.994	20631.73
818.322	20482.13
818.651	20461.11
818.979	20352.19
819.307	20431.74
819.636	20374.79
819.964	20169.6
820.292	20247.11
820.62	20210.27
820.948	20146.55
821.276	20250.72
821.604	20044.85
821.932	20227.22
822.259	20068.36
822.587	20160.11
822.915	20095.93
823.243	20124.17
823.57	20132.31
823.898	20123.27
824.225	19961.01
824.553	20044.85
824.88	20015.93
825.207	20132.08
825.535	19998.53
825.862	20169.37
826.189	20122.59
826.516	20093.21
826.843	20122.37
827.17	20154.91
827.497	20056.61
827.824	20063.16
828.151	20126.89
828.478	20016.61
828.805	20087.11
829.131	20002.37
829.458	19984.74
829.785	19855.25
830.111	19958.98
830.438	20068.81
830.764	20076.94
831.09	20033.1
831.417	19874.69
831.743	20019.54
832.069	19987.91
832.395	19827.01
832.722	19984.74
833.048	19802.6
833.374	19847.12
833.7	19805.31
834.026	19723.73
834.351	19834.24
834.677	19800.11
835.003	19848.48
835.329	19769.83
835.654	19780.45
835.98	19565.09
836.306	19666.56
836.631	19546.79
836.956	19613
837.282	19716.05
837.607	19531.2
837.932	19502.95
838.258	19554.25
838.583	19361.93
838.908	19365.78
839.233	19389.73
839.558	19240.36
839.883	19207.14
840.208	19179.11
840.533	19314.03
840.858	19196.74
841.182	19206.01
841.507	19228.6
841.832	19135.95
842.156	19028.16
842.481	19039.23
842.805	18976.41
843.13	18785
843.454	18819.12
843.778	18817.54
844.103	18707.26
844.427	18680.37
844.751	18772.12
845.075	18721.05
845.399	18593.37
845.723	18521.28
846.047	18472.01
846.371	18311.34
846.695	18373.71
847.019	18120.16
847.343	18048.3
847.666	18001.29
847.99	18025.7
848.313	18024.57
848.637	17733.73
848.96	17726.27
849.284	17731.24
849.607	17570.57
849.931	17505.03
850.254	17422.78
850.577	17331.03
850.9	17331.71
851.223	17162.9
851.546	17058.94
851.869	16983.24
852.192	17125.61
852.515	16885.16
852.838	16892.17
853.161	16858.72
853.483	16739.4
853.806	16781.21
854.129	16707.99
854.451	16655.34
854.774	16593.42
855.096	16448.79
855.419	16439.53
855.741	16509.35
856.063	16368.57
856.385	16310.04
856.708	16202.02
857.03	16128.57
857.352	16167.89
857.674	16023.04
857.996	16014.23
858.318	15833.21
858.64	15927.67
858.961	15836.38
859.283	15858.75
859.605	15751.18
859.926	15781.46
860.248	15674.35
860.57	15626.44
860.891	15689.26
861.212	15559.1
861.534	15557.06
861.855	15525.65
862.176	15583.05
862.498	15465.09
862.819	15490.17
863.14	15365.2
863.461	15395.49
863.782	15420.12
864.103	15401.59
864.424	15300.57
864.745	15261.93
865.065	15280.01
865.386	15108.03
865.707	15172.89
866.027	15174.47
866.348	15149.16
866.668	15113.01
866.989	15115.72
867.309	14888.61
867.63	15004.31
867.95	14984.42
868.27	14902.62
868.59	14906.46
868.91	14887.7
869.23	14944.2
869.55	14786.24
869.87	14956.63
870.19	14801.83
870.51	14865.56
870.83	14808.16
871.15	14675.5
871.469	14638.22
871.789	14662.62
872.109	14568.61
872.428	14509.41
872.748	14601.16
873.067	14543.08
873.386	14533.36
873.706	14556.19
874.025	14576.3
874.344	14451.33
874.663	14445.45
874.982	14401.16
875.301	14390.99
875.62	14359.58
875.939	14297.89
876.258	14299.69
876.577	14279.36
876.896	14295.4
877.214	14225.57
877.533	14270.54
877.852	14256.53
878.17	14229.87
878.489	14191.22
878.807	14168.62
879.125	14102.41
879.444	14040.72
879.762	14066.03
880.08	14035.52
880.398	13989.65
880.716	14068.51
881.034	13968.63
881.352	13930.21
881.67	13970.66
881.988	13892.25
882.306	13893.15
882.624	13794.85
882.941	13716.43
883.259	13692.7
883.577	13648.64
883.894	13634.63
884.212	13609.09
884.529	13630.11
884.846	13530.9
885.164	13482.77
885.481	13498.13
885.798	13523.9
886.115	13343.79
886.432	13306.73
886.75	13335.2
887.067	13329.32
887.383	13360.06
887.7	13287.97
888.017	13232.15
888.334	13212.94
888.651	13177.24
888.967	13176.11
889.284	13109.67
889.6	13106.05
889.917	12980.86
890.233	12995.1
890.55	12966.17
890.866	12918.04
891.182	12827.19
891.498	12790.58
891.815	12724.82
892.131	12647.08
892.447	12667.2
892.763	12671.94
893.079	12647.53
893.395	12571.15
893.71	12554.43
894.026	12532.51
894.342	12504.94
894.657	12393.53
894.973	12369.8
895.289	12353.31
895.604	12306.98
895.92	12153.76
896.235	12142.24
896.55	12212.74
896.865	12179.52
897.181	12127.77
897.496	12108.34
897.811	12067.44
898.126	12064.5
898.441	11990.83
898.756	11935.69
899.071	11906.31
899.386	11860.44
899.7	11840.55
900.015	11761.46
900.33	11663.61
900.644	11561.24
900.959	11596.26
901.273	11611.63
901.588	11551.29
901.902	11524.63
902.216	11478.3
902.531	11348.13
902.845	11332.54
903.159	11265.2
903.473	11204.86
903.787	11198.76
904.101	11101.13
904.415	11117.41
904.729	11035.15
905.042	10981.36
905.356	11045.99
905.67	10943.62
905.984	10975.04
906.297	10953.57
906.611	10913.34
906.924	10794.02
907.237	10794.02
907.551	10729.62
907.864	10603.75
908.177	10672.22
908.491	10720.13
908.804	10590.19
909.117	10486.01
909.43	10427.48
909.743	10441.27
910.056	10369.18
910.368	10345
910.681	10295.28
910.994	10286.24
911.307	10283.76
911.619	10123.99
911.932	10205.34
912.244	10140.26
912.557	10035.63
912.869	10028.62
913.181	10042.41
913.494	9978.45
913.806	9886.03
914.118	9909.75
914.43	9849.42
914.742	9855.97
915.054	9718.8
915.366	9686.93
915.678	9738.91
915.99	9616.43
916.302	9538.92
916.613	9501.4
916.925	9453.95
917.236	9453.49
917.548	9416.21
917.859	9363.1
918.171	9328.3
918.482	9292.37
918.794	9272.48
919.105	9237.91
919.416	9136.67
919.727	9128.31
920.038	9115.88
920.349	8903.9
920.66	8968.54
920.971	8919.27
921.282	8975.31
921.593	8857.8
921.903	8837.92
922.214	8741.65
922.525	8828.65
922.835	8712.27
923.146	8696
923.456	8620.07
923.767	8552.28
924.077	8598.6
924.387	8490.36
924.697	8514.54
925.008	8434.54
925.318	8449.45
925.628	8413.52
925.938	8321.09
926.248	8272.96
926.558	8237.93
926.867	8226.18
927.177	8183.7
927.487	8198.84
927.796	8149.8
928.106	8105.96
928.416	8068.9
928.725	8055.34
929.034	8067.09
929.344	7976.02
929.653	7940.54
929.962	7870.03
930.271	7814.67
930.581	7784.61
930.89	7812.41
931.199	7779.19
931.508	7698.96
931.817	7693.77
932.125	7681.79
932.434	7685.86
932.743	7554.11
933.051	7524.51
933.36	7501
933.669	7455.13
933.977	7438.63
934.286	7417.84
934.594	7380.55
934.902	7300.1
935.21	7224.85
935.519	7274.34
935.827	7263.5
936.135	7223.04
936.443	7225.98
936.751	7149.6
937.059	7084.97
937.367	7081.81
937.674	7074.35
937.982	7047.23
938.29	7025.54
938.597	7057.17
938.905	6885.88
939.213	6939.44
939.52	6872.55
939.827	6915.93
940.135	6878.42
940.442	6776.28
940.749	6747.35
941.056	6737.86
941.363	6643.4
941.67	6701.93
941.977	6630.29
942.284	6608.15
942.591	6614.92
942.898	6561.14
943.205	6518.2
943.511	6515.49
943.818	6451.09
944.125	6377.64
944.431	6381.03
944.738	6344.42
945.044	6362.95
945.35	6328.38
945.657	6298.1
945.963	6245.44
946.269	6193.92
946.575	6219.23
946.881	6228.49
947.187	6221.26
947.493	6128.61
947.799	6076.18
948.105	6031.44
948.41	6009.07
948.716	6006.13
949.022	5994.38
949.327	5992.79
949.633	5878.67
949.938	5917.54
950.244	5835.28
950.549	5842.29
950.854	5776.98
951.16	5846.81
951.465	5753.93
951.77	5778.56
952.075	5746.93
952.38	5697.21
952.685	5632.35
952.99	5607.27
953.294	5654.72
953.599	5592.8
953.904	5571.56
954.209	5536.31
954.513	5547.38
954.818	5462.41
955.122	5453.15
955.426	5443.88
955.731	5441.62
956.035	5396.88
956.339	5381.06
956.643	5395.97
956.948	5316.65
957.252	5261.06
957.556	5252.7
957.86	5305.35
958.163	5311.23
958.467	5251.12
958.771	5209.76
959.075	5154.85
959.378	5125.47
959.682	5155.98
959.985	5094.51
960.289	5082.08
960.592	5063.78
960.896	5074.17
961.199	5035.08
961.502	4987.17
961.805	4988.3
962.108	4953.05
962.411	4935.87
962.714	4898.59
963.017	4871.69
963.32	4919.15
963.623	4880.06
963.926	4827.63
964.228	4793.5
964.531	4825.14
964.833	4824.24
965.136	4731.81
965.438	4748.99
965.741	4692.72
966.043	4720.74
966.345	4685.94
966.648	4621.98
966.95	4641.64
967.252	4566.62
967.554	4594.19
967.856	4594.64
968.158	4532.49
968.46	4522.78
968.761	4528.43
969.063	4479.16
969.365	4457.02
969.666	4436
969.968	4429.67
970.269	4393.06
970.571	4360.75
970.872	4307.64
971.174	4350.35
971.475	4283.46
971.776	4280.75
972.077	4258.6
972.378	4217.25
972.679	4245.95
972.98	4174.99
973.281	4180.41
973.582	4189.23
973.883	4182.45
974.183	4143.8
974.484	4166.18
974.785	4092.73
975.085	4082.56
975.386	4116.23
975.686	4047.76
975.986	4033.07
976.287	3998.72
976.587	3980.19
976.887	3982
977.187	3969.34
977.487	3963.7
977.787	3947.65
978.087	3927.54
978.387	3871.27
978.687	3910.82
978.987	3855.9
979.286	3844.38
979.586	3805.06
979.885	3813.42
980.185	3772.74
980.484	3772.74
980.784	3718.73
981.083	3700.65
981.382	3690.48
981.682	3681.89
981.981	3699.07
982.28	3670.6
982.579	3659.3
982.878	3666.3
983.177	3632.18
983.475	3568.68
983.774	3562.8
984.073	3572.52
984.372	3532.52
984.67	3499.75
984.969	3558.06
985.267	3488.45
985.566	3483.93
985.864	3454.56
986.162	3442.13
986.461	3439.42
986.759	3450.04
987.057	3398.51
987.355	3383.15
987.653	3382.69
987.951	3368.91
988.249	3350.15
988.547	3315.8
988.844	3317.84
989.142	3365.29
989.44	3272.41
989.737	3278.06
990.035	3233.54
990.332	3239.65
990.63	3197.61
990.927	3185.86
991.224	3208.69
991.521	3170.5
991.819	3152.19
992.116	3130.27
992.413	3151.51
992.71	3113.77
993.006	3106.09
993.303	3065.64
993.6	3058.63
993.897	3049.59
994.193	3009.6
994.49	3003.49
994.787	3001.91
995.083	2987.9
995.379	2984.74
995.676	2944.74
995.972	2942.71
996.268	2909.26
996.565	2923.04
996.861	2893.21
997.157	2891.18
997.453	2867.45
997.749	2864.74
998.044	2814.8
998.34	2817.74
998.636	2790.17
998.932	2751.52
999.227	2788.58
999.523	2739.09
999.818	2718.53
1000.114	2739.32
1000.409	2701.81
1000.704	2712.2
1001	2657.51
1001.295	2692.99
1001.59	2649.38
1001.885	2644.63
1002.18	2616.61
1002.475	2605.99
1002.77	2604.18
1003.065	2585.2
1003.359	2572.32
1003.654	2568.48
1003.949	2551.3
1004.243	2503.85
1004.538	2497.07
1004.832	2485.77
1005.127	2503.39
1005.421	2455.49
1005.715	2478.76
1006.009	2466.79
1006.304	2459.1
1006.598	2468.14
1006.892	2406.45
1007.186	2380.46
1007.48	2412.1
1007.773	2364.42
1008.067	2346.11
1008.361	2328.71
1008.655	2293.23
1008.948	2291.87
1009.242	2291.65
1009.535	2282.61
1009.829	2258.2
1010.122	2218.66
1010.415	2235.38
1010.708	2220.69
1011.001	2217.3
1011.295	2224.08
1011.588	2172.56
1011.881	2159
1012.173	2109.51
1012.466	2144.08
1012.759	2151.31
1013.052	2115.83
1013.344	2086
1013.637	2107.92
1013.93	2085.78
1014.222	2079.9
1014.514	2078.55
1014.807	2023.18
1015.099	2028.6
1015.391	2013.92
1015.683	2003.97
1015.976	2003.29
1016.268	1977.98
1016.56	1984.76
1016.851	1939.12
1017.143	1943.86
1017.435	1910.42
1017.727	1916.29
1018.018	1898.44
1018.31	1908.61
1018.602	1862.28
1018.893	1856.18
1019.185	1881.04
1019.476	1838.1
1019.767	1826.12
1020.058	1784.32
1020.35	1792.23
1020.641	1838.78
1020.932	1798.78
1021.223	1786.8
1021.514	1735.28
1021.804	1738.67
1022.095	1736.64
1022.386	1752.23
1022.677	1705
1022.967	1694.6
1023.258	1707.48
1023.548	1668.84
1023.839	1690.08
1024.129	1641.72
1024.419	1647.15
1024.709	1612.12
1025	1631.33
1025.29	1615.06
1025.58	1592.68
1025.87	1592.91
1026.16	1568.05
1026.449	1569.18
1026.739	1564.44
1027.029	1538
1027.319	1528.96
1027.608	1523.08
1027.898	1506.81
1028.187	1517.66
1028.477	1507.26
1028.766	1461.84
1029.055	1474.04
1029.344	1472.46
1029.634	1430.88
1029.923	1419.13
1030.212	1434.04
1030.501	1446.02
1030.79	1399.24
1031.078	1413.03
1031.367	1370.77
1031.656	1378
1031.945	1366.25
1032.233	1356.31
1032.522	1349.07
1032.81	1325.12
1033.099	1343.65
1033.387	1339.81
1033.675	1307.04
1033.963	1305.01
1034.251	1287.61
1034.54	1296.19
1034.828	1251.9
1035.116	1243.09
1035.403	1258.91
1035.691	1240.6
1035.979	1247.16
1036.267	1244.44
1036.554	1207.16
1036.842	1248.06
1037.129	1203.54
1037.417	1183.88
1037.704	1182.98
1037.992	1168.29
1038.279	1170.77
1038.566	1170.1
1038.853	1170.1
1039.14	1170.1
