Data from plate_ceramic_FLMS001491_001.txt Node
Date: Tue Feb 07 11:16:13 GMT 2017
User: dcchb
Spectrometer: FLMS00149
Trigger mode: 0
Integration Time (sec): 2.000000E-2
Scans to average: 10
Electric dark correction enabled: true
Nonlinearity correction enabled: false
Boxcar width: 0
XAxis mode: Wavelengths
Number of Pixels in Spectrum: 2048
>>>>>Begin Spectral Data<<<<<
341.393	-31.37
341.776	-31.37
342.16	-31.37
342.543	-65.04
342.927	-96
343.31	-84.93
343.693	-73.18
344.077	-59.17
344.46	-72.05
344.843	-54.87
345.226	-34.53
345.61	-39.73
345.993	-15.78
346.376	-1.77
346.759	7.05
347.142	40.95
347.525	58.57
347.908	52.24
348.291	69.65
348.674	96.76
349.057	110.77
349.44	123.2
349.823	148.97
350.206	169.53
350.588	188.06
350.971	213.37
351.354	238
351.737	247.72
352.119	252.92
352.502	274.84
352.884	279.36
353.267	287.04
353.65	329.53
354.032	310.09
354.414	309.19
354.797	354.84
355.179	323.2
355.562	336.76
355.944	338.56
356.326	357.32
356.709	363.42
357.091	352.12
357.473	353.93
357.855	353.03
358.238	355.74
358.62	339.24
359.002	347.15
359.384	358.9
359.766	370.2
360.148	351.9
360.53	360.26
360.912	349.41
361.294	352.35
361.676	357.1
362.057	359.13
362.439	357.32
362.821	351.45
363.203	327.94
363.584	372.24
363.966	356.87
364.348	350.09
364.729	335.85
365.111	333.37
365.493	320.26
365.874	341.73
366.256	326.59
366.637	359.13
367.019	352.12
367.4	338.34
367.781	332.01
368.163	362.97
368.544	362.97
368.925	351.9
369.306	365
369.688	363.65
370.069	341.95
370.45	347.15
370.831	363.2
371.212	361.61
371.593	366.36
371.974	369.98
372.355	391.67
372.736	349.19
373.117	339.02
373.498	349.19
373.879	369.98
374.26	383.99
374.641	360.03
375.021	370.88
375.402	385.79
375.783	393.93
376.163	372.69
376.544	399.35
376.925	379.24
377.305	379.92
377.686	394.61
378.066	381.95
378.447	408.39
378.827	412.69
379.208	402.52
379.588	394.61
379.968	404.55
380.349	392.57
380.729	425.79
381.109	440.03
381.489	421.73
381.87	418.79
382.25	420.6
382.63	412.69
383.01	442.29
383.39	443.65
383.77	443.19
384.15	443.19
384.53	441.84
384.91	462.63
385.29	475.06
385.67	479.35
386.049	481.39
386.429	479.8
386.809	466.24
387.189	491.55
387.568	497.2
387.948	470.09
388.328	476.19
388.707	487.94
389.087	499.69
389.466	506.7
389.846	530.65
390.225	523.87
390.605	514.15
390.984	504.66
391.363	502.4
391.743	535.85
392.122	531.55
392.501	560.25
392.881	566.13
393.26	542.18
393.639	555.06
394.018	568.84
394.397	560.48
394.776	604.32
395.155	558.9
395.534	577.65
395.913	577.2
396.292	578.56
396.671	578.33
397.05	601.16
397.429	579.46
397.808	610.2
398.186	610.2
398.565	612.91
398.944	629.63
399.323	643.19
399.701	639.57
400.08	641.16
400.458	669.4
400.837	661.49
401.215	679.12
401.594	662.17
401.972	685.22
402.351	673.25
402.729	676.18
403.107	685.45
403.486	700.81
403.864	718.89
404.242	707.14
404.62	741.27
404.999	733.13
405.377	745.11
405.755	736.97
406.133	790.53
406.511	765.45
406.889	746.92
407.267	767.25
407.645	812.9
408.023	802.06
408.401	821.26
408.779	837.31
409.156	814.03
409.534	828.27
409.912	868.49
410.29	872.79
410.667	855.84
411.045	905.56
411.422	909.85
411.8	905.56
412.178	941.03
412.555	914.59
412.933	956.85
413.31	958.21
413.687	966.57
414.065	978.1
414.442	989.17
414.819	1003.18
415.197	1015.83
415.574	1011.99
415.951	1040.24
416.328	1062.39
416.705	1036.4
417.082	1058.77
417.46	1084.31
417.837	1085.21
418.214	1105.32
418.591	1111.2
418.967	1123.4
419.344	1136.51
419.721	1156.85
420.098	1146.9
420.475	1148.94
420.852	1176.51
421.228	1174.7
421.605	1205.66
421.982	1231.42
422.358	1253.57
422.735	1264.19
423.111	1281.14
423.488	1293.57
423.864	1289.05
424.241	1303.28
424.617	1315.94
424.994	1318.2
425.37	1341.25
425.746	1363.17
426.123	1370.63
426.499	1369.72
426.875	1380.8
427.251	1430.51
427.627	1471.42
428.003	1470.51
428.379	1466.9
428.756	1472.55
429.132	1526.33
429.507	1543.5
429.883	1580.11
430.259	1568.36
430.635	1617.17
431.011	1614.92
431.387	1646.78
431.763	1710.28
432.138	1673.9
432.514	1689.26
432.89	1708.02
433.265	1758.19
433.641	1771.07
434.016	1822.37
434.392	1821.69
434.767	1866.89
435.143	1870.05
435.518	1891.97
435.894	1932.42
436.269	1913.21
436.644	1946.66
437.02	1957.96
437.395	2011.29
437.77	1990.5
438.145	2036.37
438.52	2082.47
438.895	2091.96
439.271	2092.42
439.646	2124.28
440.021	2159.76
440.395	2168.12
440.77	2168.35
441.145	2160.66
441.52	2237.72
441.895	2260.1
442.27	2271.4
442.645	2299.19
443.019	2293.09
443.394	2259.87
443.769	2315.46
444.143	2274.11
444.518	2367.44
444.892	2339.64
445.267	2383.71
445.641	2390.26
446.016	2421.9
446.39	2418.96
446.764	2418.96
447.139	2450.6
447.513	2472.52
447.887	2495.34
448.262	2525.85
448.636	2565.85
449.01	2568.11
449.384	2593.19
449.758	2618.05
450.132	2665.06
450.506	2668.67
450.88	2709.8
451.254	2709.8
451.628	2710.03
452.002	2762.23
452.376	2753.19
452.75	2781.66
453.123	2843.36
453.497	2939.17
453.871	2892.62
454.244	2982.34
454.618	2978.27
454.992	3041.77
455.365	3039.06
455.739	3079.74
456.112	3132.39
456.486	3170.58
456.859	3192.73
457.232	3234.99
457.606	3248.09
457.979	3291.71
458.352	3367.64
458.725	3385.49
459.099	3443.34
459.472	3516.11
459.845	3527.63
460.218	3591.59
460.591	3582.55
460.964	3669.1
461.337	3682.66
461.71	3828.64
462.083	3840.85
462.456	3846.27
462.829	3888.75
463.201	3968.98
463.574	3921.75
463.947	4037.45
464.32	4093.95
464.692	4124.91
465.065	4164.23
465.438	4251.46
465.81	4316.77
466.183	4305.24
466.555	4417.55
466.928	4425.46
467.3	4461.85
467.672	4548.62
468.045	4689.18
468.417	4717.88
468.789	4759.92
469.161	4789.75
469.534	4822.51
469.906	4986.13
470.278	4997.2
470.65	5079.91
471.022	5178.89
471.394	5268.15
471.766	5330.3
472.138	5352.44
472.51	5490.97
472.882	5580.46
473.253	5646.45
473.625	5705.66
473.997	5840.79
474.369	5931.41
474.74	5992.65
475.112	6059.09
475.484	6137.73
475.855	6242.36
476.227	6342.02
476.598	6506.54
476.97	6521.9
477.341	6652.97
477.713	6836.47
478.084	6865.4
478.455	7049.12
478.827	7122.11
479.198	7316.91
479.569	7353.97
479.94	7531.37
480.311	7651.59
480.682	7820.63
481.053	8020.62
481.424	8084.35
481.795	8203.89
482.166	8333.16
482.537	8410.67
482.908	8666.71
483.279	8706.93
483.65	8846.36
484.021	9102.63
484.391	9139.01
484.762	9176.07
485.133	9316.41
485.503	9501.04
485.874	9656.51
486.244	9802.5
486.615	9952.32
486.985	10123.84
487.356	10321.35
487.726	10358.64
488.097	10594.57
488.467	10608.13
488.837	10848.12
489.207	11004.95
489.578	11153.2
489.948	11196.36
490.318	11406.3
490.688	11410.14
491.058	11643.35
491.428	11816.45
491.798	11836.79
492.168	12122.21
492.538	12230.46
492.908	12387.51
493.278	12604.23
493.648	12585.7
494.017	12728.52
494.387	12942.53
494.757	12949.31
495.126	13188.17
495.496	13197.21
495.866	13331.44
496.235	13474.04
496.605	13602.85
496.974	13650.53
497.344	13821.37
497.713	13902.73
498.082	13991.54
498.452	14220.46
498.821	14277.63
499.19	14314.47
499.559	14512.2
499.928	14585.2
500.298	14591.3
500.667	14878.97
501.036	14803.72
501.405	15037.39
501.774	14968.01
502.143	15211.39
502.512	15202.81
502.88	15340.2
503.249	15396.93
503.618	15643.02
503.987	15611.84
504.356	15764.15
504.724	15892.05
505.093	15998.49
505.462	16068.32
505.83	16141.99
506.199	16303.79
506.567	16496.11
506.936	16538.82
507.304	16685.71
507.672	16832.59
508.041	16870.56
508.409	17108.29
508.777	17225.8
509.145	17341.96
509.514	17361.62
509.882	17591.67
510.25	17594.38
510.618	17663.08
510.986	17862.17
511.354	18019
511.722	18182.39
512.09	18316.17
512.458	18310.97
512.826	18528.14
513.193	18604.3
513.561	18595.94
513.929	18952.54
514.297	19128.13
514.664	19180.55
515.032	19345.3
515.4	19586.65
515.767	19551.17
516.135	19663.93
516.502	19613.31
516.869	20024.15
517.237	20046.29
517.604	20035.67
517.972	20282.45
518.339	20552.72
518.706	20580.52
519.073	20689.22
519.44	20813.96
519.808	21088.98
520.175	21124.46
520.542	21398.58
520.909	21538.69
521.276	21540.72
521.643	21792.01
522.009	21973.93
522.376	22176.41
522.743	22254.82
523.11	22597.64
523.477	22780.01
523.843	22936.61
524.21	23143.16
524.577	23295.02
524.943	23362.59
525.31	23512.42
525.676	23725.52
526.043	23839.87
526.409	24008.9
526.776	24327.54
527.142	24381.55
527.508	24564.59
527.874	24794.19
528.241	24957.8
528.607	25035.32
528.973	25312.15
529.339	25257.91
529.705	25603.44
530.071	25767.27
530.437	25957.33
530.803	26104.89
531.169	26207.94
531.535	26209.52
531.901	26297.2
532.267	26482.74
532.632	26615.84
532.998	26663.3
533.364	27075.71
533.73	27085.43
534.095	27435.03
534.461	27371.07
534.826	27538.53
535.192	27611.97
535.557	27927.44
535.923	27902.59
536.288	27984.62
536.653	28160.21
537.019	28189.36
537.384	28297.38
537.749	28368.79
538.114	28539.18
538.479	28595.45
538.845	28815.1
539.21	28718.61
539.575	28917.93
539.94	29068.2
540.305	29284.92
540.67	29119.95
541.034	29353.17
541.399	29555.65
541.764	29604.01
542.129	29637.23
542.494	29802.2
542.858	29827.05
543.223	29940.5
543.587	30029.76
543.952	30199.93
544.316	30305.23
544.681	30279.25
545.045	30457.09
545.41	30665.22
545.774	30740.03
546.138	30727.6
546.503	30957.87
546.867	30992.67
547.231	31374.81
547.595	31210.52
547.959	31388.37
548.324	31476.95
548.688	31398.76
549.052	31623.17
549.416	31870.62
549.779	31810.96
550.143	31933.21
550.507	32164.62
550.871	32164.17
551.235	32340.21
551.599	32582.69
551.962	32491.17
552.326	32736.13
552.689	32812.06
553.053	32848.22
553.417	32980.42
553.78	33379.5
554.143	33342.44
554.507	33412.5
554.87	33593.96
555.234	33889.55
555.597	33637.8
555.96	33872.15
556.323	34216.32
556.686	34220.61
557.05	34415.86
557.413	34600.04
557.776	34638.91
558.139	34943.08
558.502	34897.66
558.865	34951.44
559.228	35349.17
559.59	35349.4
559.953	35529.96
560.316	35780.57
560.679	35920.91
561.041	35993.45
561.404	36315.47
561.767	36375.13
562.129	36294.68
562.492	36831.39
562.854	36880.88
563.217	37019.18
563.579	37039.52
563.941	37460.75
564.304	37487.64
564.666	37704.81
565.028	37700.97
565.39	38002.88
565.753	38125.59
566.115	38274.29
566.477	38206.95
566.839	38366.04
567.201	38664.34
567.563	38805.8
567.925	39079.92
568.287	39013.71
568.648	39006.93
569.01	39391.1
569.372	39545.67
569.734	39513.35
570.095	39844.87
570.457	39905.89
570.819	40094.13
571.18	40228.82
571.542	40418.87
571.903	40479.2
572.265	40548.13
572.626	40553.78
572.987	40684.17
573.349	40772.98
573.71	40923.94
574.071	40923.71
574.432	41076.93
574.794	41413.42
575.155	41448.22
575.516	41424.72
575.877	41626.97
576.238	41669.68
576.599	41739.74
576.96	41809.11
577.32	41979.28
577.681	42010.24
578.042	42015.89
578.403	42156.45
578.763	42276.22
579.124	42250.23
579.485	42509.43
579.845	42486.83
580.206	42581.97
580.566	42565.7
580.927	42619.94
581.287	42801.63
581.648	42642.31
582.008	42828.97
582.368	42704.91
582.728	42737.22
583.089	42584.23
583.449	42796.66
583.809	42816.09
584.169	42886.82
584.529	42763.89
584.889	43184.22
585.249	42772.03
585.609	42795.75
585.969	43017.22
586.329	42858.8
586.688	43019.02
587.048	43114.39
587.408	42913.94
587.768	43002.08
588.127	42998.01
588.487	42919.14
588.846	43249.98
589.206	43143.99
589.565	43045.69
589.925	43132.92
590.284	43122.3
590.643	43243.43
591.003	43387.83
591.362	43436.87
591.721	43245.91
592.08	43274.84
592.44	43413.14
592.799	43438.9
593.158	43457.66
593.517	43389.18
593.876	43459.69
594.235	43402.52
594.593	43248.4
594.952	43599.12
595.311	43418.34
595.67	43635.51
596.029	43619.23
596.387	43535.62
596.746	43675.73
597.104	43578.78
597.463	43619.91
597.822	43792.11
598.18	43712.11
598.538	43535.17
598.897	43850.41
599.255	43666.92
599.613	44264.19
599.972	43797.08
600.33	44050.41
600.688	43852.67
601.046	44075.27
601.404	44098.54
601.762	43961.15
602.12	44087.24
602.478	44061.71
602.836	44309.39
603.194	43910.98
603.552	44181.48
603.91	44088.37
604.268	44405.2
604.625	44241.82
604.983	44374.47
605.341	44346.45
605.698	44473.45
606.056	44476.84
606.413	44421.93
606.771	44569.04
607.128	44696.04
607.485	44531.07
607.843	44440.68
608.2	44689.94
608.557	44853.1
608.914	44803.38
609.272	44967
609.629	44942.36
609.986	45111.62
610.343	44864.85
610.7	45285.63
611.057	45137.16
611.414	45088.8
611.771	45211.28
612.127	45362.47
612.484	45509.35
612.841	45443.59
613.198	45198.63
613.554	45228.23
613.911	45500.77
614.267	45475.68
614.624	45456.02
614.98	45621.22
615.337	45788.22
615.693	45736.01
616.05	45549.58
616.406	45910.7
616.762	45739.4
617.118	45776.24
617.475	45859.63
617.831	46005.39
618.187	45978.72
618.543	46039.51
618.899	46143.91
619.255	46062.11
619.611	46029.57
619.967	46099.17
620.323	46241.99
620.678	46093.97
621.034	45941.43
621.39	46115.67
621.746	46143.91
622.101	46470.91
622.457	46177.59
622.812	46147.98
623.168	46336
623.523	46238.37
623.879	46453.96
624.234	46232.27
624.589	46321.08
624.945	46233.4
625.3	46362.89
625.655	46214.87
626.01	46353.85
626.365	46360.18
626.72	46236.57
627.075	46353.63
627.43	46190.69
627.785	46129.22
628.14	46131.48
628.495	46180.52
628.85	46125.16
629.205	45876.8
629.559	46222.56
629.914	46035.44
630.269	46058.27
630.623	46013.52
630.978	45955.9
631.332	45924.71
631.687	46098.94
632.041	45830.7
632.396	45932.62
632.75	45712.51
633.104	45679.07
633.459	45552.97
633.813	45568.56
634.167	45548.9
634.521	45595.91
634.875	45507.55
635.229	45465.29
635.583	45368.34
635.937	45356.59
636.291	45297.38
636.645	45301.22
636.999	45249.02
637.352	45373.54
637.706	45061.91
638.06	45401.33
638.413	45062.81
638.767	45030.5
639.121	44972.42
639.474	44782.37
639.828	44884.06
640.181	44787.57
640.534	44851.07
640.888	44826.89
641.241	44634.57
641.594	44500.57
641.947	44799.54
642.301	44706.44
642.654	44654.01
643.007	44663.95
643.36	44487.91
643.713	44371.08
644.066	44540.79
644.419	44285.43
644.771	44055.16
645.124	43798.21
645.477	43648.16
645.83	43158.91
646.182	43185.35
646.535	42883.89
646.888	43069.42
647.24	42944
647.593	43091.11
647.945	42987.61
648.298	42835.75
648.65	42649.77
649.002	42615.42
649.355	42763.21
649.707	42822.42
650.059	43081.62
650.411	43355.29
650.763	43265.57
651.115	43731.32
651.467	43593.25
651.819	43428.5
652.171	43344.67
652.523	43430.09
652.875	43299.02
653.227	43226.7
653.578	43509.63
653.93	43398
654.282	43097.89
654.633	43048.18
654.985	43060.83
655.337	43079.59
655.688	43061.73
656.039	43194.39
656.391	42786.26
656.742	42887.05
657.094	42931.34
657.445	43019.7
657.796	43014.96
658.147	42918.46
658.498	42844.57
658.849	42854.06
659.2	42822.87
659.551	42750.1
659.902	42828.29
660.253	42786.94
660.604	42697.68
660.955	42479.15
661.306	42651.8
661.656	42574.97
662.007	42537.45
662.358	42476.44
662.708	42492.71
663.059	42643.44
663.409	42244.13
663.76	42564.8
664.11	42430.79
664.461	42403
664.811	42431.24
665.161	42501.98
665.511	42420.4
665.862	42488.42
666.212	42542.65
666.562	42494.07
666.912	42396.22
667.262	42465.59
667.612	42247.75
667.962	42411.13
668.312	42328.19
668.662	42502.43
669.011	42247.75
669.361	42350.57
669.711	42308.31
670.06	42222.44
670.41	42153.74
670.76	42114.64
671.109	42160.52
671.459	42121.87
671.808	42108.77
672.157	42084.81
672.507	41927.98
672.856	41841.65
673.205	41955.55
673.554	41873.29
673.904	41817.93
674.253	42000.97
674.602	41866.29
674.951	41410.48
675.3	41125.06
675.649	41891.14
675.998	41665.61
676.346	41615.22
676.695	41871.48
677.044	41564.15
677.393	41668.55
677.741	41800.3
678.09	41462.91
678.438	41573.64
678.787	41619.06
679.135	41478.73
679.484	41276.02
679.832	41518.95
680.181	41280.09
680.529	41341.55
680.877	41184.72
681.225	41064.5
681.573	41370.71
681.922	41082.35
682.27	40954.45
682.618	41066.08
682.966	40906.76
683.314	40916.25
683.661	40695.92
684.009	40344.74
684.357	40527.34
684.705	40432.43
685.053	40644.62
685.4	40669.71
685.748	40269.04
686.095	40264.07
686.443	40187.23
686.79	39988.82
687.138	40066.33
687.485	39898.2
687.832	39926.22
688.18	40062.04
688.527	39709.28
688.874	39657.53
689.221	39580.02
689.568	39502.28
689.915	39386.58
690.262	39415.28
690.609	39330.08
690.956	39129.41
691.303	39098.9
691.65	38937.78
691.997	38954.5
692.344	38671.79
692.69	38658.46
693.037	38866.59
693.383	38595.64
693.73	38577.33
694.077	38325.36
694.423	38448.07
694.769	38301.86
695.116	38148.64
695.462	38204.24
695.808	38094.41
696.155	38015.09
696.501	37687.19
696.847	37611.26
697.193	37422.11
697.539	37659.62
697.885	37331.94
698.231	37353.41
698.577	37297.82
698.923	37107.54
699.269	36881.56
699.614	36734.22
699.96	36796.59
700.306	36848.11
700.651	36646.76
700.997	36588.91
701.342	36508.91
701.688	36416.26
702.033	36178.07
702.379	36190.28
702.724	36015.59
703.069	36100.34
703.415	35703.28
703.76	35788.48
704.105	35636.85
704.45	35523.4
704.795	35411.31
705.14	35144.2
705.485	35291.09
705.83	35112.57
706.175	35226.69
706.52	35179.68
706.865	35028.5
707.209	35017.65
707.554	34910.99
707.899	34852.23
708.243	34762.07
708.588	34675.29
708.932	34480.04
709.277	34449.98
709.621	34487.5
709.966	34241.18
710.31	34362.98
710.654	34085.25
710.998	34076.89
711.342	34065.14
711.687	33966.61
712.031	33764.35
712.375	33646.62
712.719	33697.01
713.063	33691.13
713.407	33780.17
713.75	33440.97
714.094	33553.06
714.438	33436.23
714.782	33386.74
715.125	33142.22
715.469	33267.64
715.812	33118.72
716.156	33018.38
716.499	32833.53
716.843	32991.72
717.186	32791.04
717.53	32848.44
717.873	32882.79
718.216	32795.79
718.559	32730.03
718.902	32553.08
719.246	32449.81
719.589	32436.7
719.932	32347.44
720.275	32508.57
720.617	32297.72
720.96	32365.29
721.303	32207.56
721.646	32084.62
721.989	32041.91
722.331	32042.82
722.674	31749.04
723.016	31970.95
723.359	31876.04
723.701	31771.64
724.044	31634.46
724.386	31421.82
724.729	31702.49
725.071	31527.12
725.413	31548.82
725.755	31393.57
726.097	31276.28
726.439	31253.01
726.782	31138.21
727.124	31277.19
727.465	31092.78
727.807	30942.73
728.149	30879.23
728.491	30958.32
728.833	31138.88
729.175	30851.21
729.516	30799.68
729.858	30836.75
730.199	30771.66
730.541	30846.01
730.882	30654.83
731.224	30591.55
731.565	30612.12
731.906	30428.85
732.248	30495.74
732.589	30331.45
732.93	30373.71
733.271	30242.86
733.612	30263.88
733.953	30427.72
734.294	30234.5
734.635	30135.07
734.976	30127.61
735.317	29926.94
735.658	30016.88
735.999	30011.46
736.339	29884.23
736.68	30027.05
737.021	29860.27
737.361	29640.39
737.702	29857.56
738.042	29698.24
738.383	29689.66
738.723	29642.2
739.063	29572.15
739.404	29558.36
739.744	29547.06
740.084	29420.51
740.424	29459.38
740.764	29422.09
741.104	29404.92
741.444	29151.82
741.784	29226.84
742.124	29220.29
742.464	29077.02
742.804	29057.36
743.143	28901.43
743.483	29010.58
743.823	28788.89
744.162	28820.53
744.502	28748.66
744.841	28686.29
745.181	28763.35
745.52	28683.13
745.86	28641.78
746.199	28450.82
746.538	28515.68
746.877	28564.72
747.216	28433.19
747.556	28354.1
747.895	28449.69
748.234	28265.06
748.573	28215.35
748.911	28197.72
749.25	28269.36
749.589	28071.17
749.928	28123.14
750.267	28037.5
750.605	27952.75
750.944	27937.61
751.283	27808.8
751.621	27868.91
751.96	27693.78
752.298	27611.29
752.636	27654.46
752.975	27422.37
753.313	27441.13
753.651	27561.35
753.989	27375.59
754.327	27344.41
754.666	27192.77
755.004	27187.12
755.342	27171.76
755.679	27103.28
756.017	26940.12
756.355	27150.51
756.693	26876.17
757.031	26984.42
757.368	26710.98
757.706	26736.74
758.044	26638.66
758.381	26665.56
758.719	26743.97
759.056	26634.82
759.394	26451.32
759.731	26174.95
760.068	26299.01
760.405	26113.71
760.743	26079.36
761.08	26113.03
761.417	25906.71
761.754	25824.67
762.091	25861.51
762.428	25704.45
762.765	25542.65
763.102	25658.8
763.438	25404.57
763.775	25370.9
764.112	25173.17
764.449	25301.3
764.785	25068.31
765.122	24946.28
765.458	24971.82
765.795	24887.07
766.131	24910.35
766.467	24785.83
766.804	24614.31
767.14	24546.06
767.476	24498.61
767.812	24499.06
768.148	24417.93
768.485	24264.26
768.821	24106.75
769.157	24034.21
769.492	24055.46
769.828	24091.61
770.164	23919.19
770.5	23778.85
770.836	23742.24
771.171	23605.52
771.507	23529.82
771.842	23415.02
772.178	23384.29
772.513	23283.27
772.849	23261.58
773.184	23084.41
773.519	23056.16
773.855	23018.19
774.19	22893.9
774.525	22835.83
774.86	22874.47
775.195	22720.57
775.53	22586.12
775.865	22505.21
776.2	22343.64
776.535	22219.8
776.87	22135.73
777.205	22180.25
777.539	22015.73
777.874	22126.69
778.209	21806.25
778.543	21855.96
778.878	21726.25
779.212	21662.98
779.547	21461.17
779.881	21575.97
780.215	21383.43
780.55	21560.61
780.884	21418.69
781.218	21301.18
781.552	21252.82
781.886	21137.57
782.22	21059.6
782.554	20984.8
782.888	20664.81
783.222	20740.51
783.556	20655.54
783.889	20460.97
784.223	20447.87
784.557	20379.62
784.89	20363.35
785.224	20279.51
785.557	20201.09
785.891	20125.61
786.224	19999.74
786.558	20028.22
786.891	19897.37
787.224	19725.63
787.557	19731.95
787.891	19748
788.224	19717.72
788.557	19543.26
788.89	19575.35
789.223	19535.12
789.556	19345.52
789.888	19308.69
790.221	19262.59
790.554	19100.33
790.887	19199.99
791.219	18994.12
791.552	19021.92
791.884	18905.31
792.217	18882.48
792.549	18777.4
792.882	18637.52
793.214	18609.04
793.546	18615.37
793.879	18518.43
794.211	18327.92
794.543	18436.17
794.875	18304.65
795.207	18304.65
795.539	18164.99
795.871	18224.65
796.203	18077.53
796.535	17983.07
796.867	18014.03
797.198	17913.47
797.53	17872.79
797.862	17741.04
798.193	17781.72
798.525	17702.4
798.856	17647.49
799.188	17413.14
799.519	17482.29
799.85	17313.26
800.182	17317.55
800.513	17293.82
800.844	17094.28
801.175	17286.82
801.506	17207.5
801.837	17178.35
802.168	17204.34
802.499	17040.05
802.83	16868.53
803.161	16882.54
803.491	16865.14
803.822	16856.55
804.153	16696.78
804.483	16600.96
804.814	16634.86
805.145	16675.99
805.475	16589.44
805.805	16425.6
806.136	16499.27
806.466	16466.5
806.796	16445.94
807.126	16287.98
807.457	16250.91
807.787	16258.82
808.117	16044.37
808.447	15993.07
808.777	16115.1
809.107	15993.52
809.436	15925.5
809.766	16010.92
810.096	15870.36
810.426	15905.39
810.755	15854.31
811.085	15730.25
811.414	15759.4
811.744	15615.45
812.073	15580.2
812.403	15598.05
812.732	15362.8
813.061	15451.61
813.39	15336.36
813.719	15413.2
814.049	15413.65
814.378	15332.97
814.707	15251.84
815.036	15165.52
815.365	15201.22
815.693	15097.5
816.022	15011.85
816.351	14980.89
816.68	15018.86
817.008	15021.12
817.337	14849.37
817.665	14874.23
817.994	14827.68
818.322	14882.14
818.651	14720.79
818.979	14715.59
819.307	14677.4
819.636	14679.2
819.964	14554.91
820.292	14650.05
820.62	14605.99
820.948	14557.85
821.276	14677.85
821.604	14505.42
821.932	14592.88
822.259	14588.36
822.587	14556.95
822.915	14509.94
823.243	14540.9
823.57	14507.68
823.898	14531.86
824.225	14491.41
824.553	14497.51
824.88	14514.24
825.207	14447.8
825.535	14387.91
825.862	14493.22
826.189	14481.7
826.516	14502.03
826.843	14564.86
827.17	14437.63
827.497	14594.46
827.824	14563.5
828.151	14508.59
828.478	14498.19
828.805	14481.92
829.131	14430.4
829.458	14475.82
829.785	14388.14
830.111	14366.22
830.438	14420.23
830.764	14380.46
831.09	14407.8
831.417	14350.4
831.743	14337.29
832.069	14438.31
832.395	14265.88
832.722	14403.28
833.048	14311.98
833.374	14352.43
833.7	14341.81
834.026	14334.58
834.351	14271.31
834.677	14354.02
835.003	14268.82
835.329	14303.62
835.654	14225.43
835.98	14211.19
836.306	14259.33
836.631	14204.87
836.956	14212.1
837.282	14227.24
837.607	13987.25
837.932	14061.82
838.258	13984.08
838.583	14009.62
838.908	13871.32
839.233	13977.53
839.558	13898.21
839.883	13887.36
840.208	13861.37
840.533	13886.23
840.858	13811.88
841.182	13917.64
841.507	13850.98
841.832	13791.09
842.156	13728.49
842.481	13742.96
842.805	13690.08
843.13	13632.23
843.454	13525.79
843.778	13544.09
844.103	13583.19
844.427	13541.61
844.751	13544.09
845.075	13455.51
845.399	13439.91
845.723	13385.45
846.047	13394.49
846.371	13258
846.695	13229.53
847.019	13079.47
847.343	13006.48
847.666	12877.9
847.99	12813.49
848.313	12893.26
848.637	12881.29
848.96	12794.96
849.284	12734.62
849.607	12698.69
849.931	12603.1
850.254	12591.12
850.577	12533.95
850.9	12455.99
851.223	12443.11
851.546	12305.48
851.869	12322.2
852.192	12341.86
852.515	12209.21
852.838	12170.8
853.161	12169.44
853.483	12165.15
853.806	12023.46
854.129	12084.92
854.451	12023.68
854.774	11996.34
855.096	11997.02
855.419	11833.4
855.741	11882.22
856.063	11747.76
856.385	11728.77
856.708	11745.04
857.03	11701.88
857.352	11681.54
857.674	11604.26
857.996	11548.67
858.318	11494.88
858.64	11506.18
858.961	11463.47
859.283	11456.69
859.605	11265.51
859.926	11401.1
860.248	11345.73
860.57	11279.29
860.891	11317.94
861.212	11201.78
861.534	11253.76
861.855	11209.47
862.176	11254.89
862.498	11189.13
862.819	11212.85
863.14	11080.43
863.461	11116.59
863.782	11086.76
864.103	11077.27
864.424	11018.51
864.745	11052.41
865.065	10952.75
865.386	10948.68
865.707	10942.35
866.027	11038.85
866.348	10970.15
866.668	10950.26
866.989	10983.48
867.309	10856.25
867.63	10847.21
867.95	10785.97
868.27	10711.17
868.59	10771.74
868.91	10705.07
869.23	10689.93
869.55	10751.62
869.87	10688.12
870.19	10734.45
870.51	10662.36
870.83	10643.15
871.15	10597.05
871.469	10560.44
871.789	10534.23
872.109	10531.74
872.428	10439.54
872.748	10502.82
873.067	10488.81
873.386	10510.95
873.706	10472.08
874.025	10486.09
874.344	10424.4
874.663	10422.59
874.982	10350.28
875.301	10413.55
875.62	10395.48
875.939	10318.64
876.258	10323.16
876.577	10335.59
876.896	10232.99
877.214	10254.24
877.533	10244.74
877.852	10183.28
878.17	10181.7
878.489	10233.45
878.807	10197.51
879.125	10201.36
879.444	10173.79
879.762	10131.3
880.08	10140.11
880.398	10093.56
880.716	10169.04
881.034	10058.76
881.352	10008.82
881.67	10050.4
881.988	10041.81
882.306	9990.51
882.624	9938.09
882.941	9910.06
883.259	9821.03
883.577	9895.38
883.894	9767.92
884.212	9810.86
884.529	9773.57
884.846	9739.22
885.164	9763.4
885.481	9736.96
885.798	9737.64
886.115	9641.82
886.432	9625.78
886.75	9615.61
887.067	9585.33
887.383	9599.34
887.7	9683.4
888.017	9613.12
888.334	9589.85
888.651	9558.21
888.967	9481.83
889.284	9468.72
889.6	9454.26
889.917	9392.34
890.233	9395.28
890.55	9361.15
890.866	9328.61
891.182	9253.13
891.498	9301.04
891.815	9254.94
892.131	9220.82
892.447	9096.98
892.763	9136.53
893.079	9142.63
893.395	9073.02
893.71	9075.74
894.026	9026.92
894.342	9063.76
894.657	8991.67
894.973	8970.2
895.289	8947.83
895.604	8937.43
895.92	8862.18
896.235	8856.98
896.55	8813.6
896.865	8813.14
897.181	8738.8
897.496	8723.65
897.811	8704.22
898.126	8625.35
898.441	8613.38
898.756	8672.58
899.071	8522.76
899.386	8594.17
899.7	8522.53
900.015	8491.34
900.33	8418.13
900.644	8412.02
900.959	8468.75
901.273	8421.52
901.588	8401.4
901.902	8304.91
902.216	8227.17
902.531	8213.84
902.845	8254.97
903.159	8132.94
903.473	8119.38
903.787	8066.27
904.101	7997.57
904.415	8007.74
904.729	7979.27
905.042	7980.62
905.356	7919.16
905.67	7946.73
905.984	7989.21
906.297	7933.85
906.611	7877.12
906.924	7889.55
907.237	7834.86
907.551	7806.39
907.864	7718.03
908.177	7763
908.491	7687.98
908.804	7666.73
909.117	7672.83
909.43	7563.01
909.743	7532.05
910.056	7500.41
910.368	7452.73
910.681	7423.58
910.994	7429
911.307	7328.44
911.619	7287.53
911.932	7357.59
912.244	7276.91
912.557	7231.26
912.869	7168.89
913.181	7203.02
913.494	7160.76
913.806	7179.06
914.118	7137.26
914.43	7082.34
914.742	7086.86
915.054	7019.29
915.366	7062.68
915.678	7001.89
915.99	6953.53
916.302	6932.74
916.613	6950.59
916.925	6846.42
917.236	6885.96
917.548	6817.72
917.859	6825.85
918.171	6784.72
918.482	6701.11
918.794	6685.74
919.105	6725.06
919.416	6626.31
919.727	6659.75
920.038	6592.86
920.349	6575.46
920.66	6541.79
920.971	6526.42
921.282	6517.39
921.593	6393.77
921.903	6371.17
922.214	6370.04
922.525	6354.9
922.835	6226.77
923.146	6240.33
923.456	6256.6
923.767	6260.89
924.077	6163.95
924.387	6246.43
924.697	6171.63
925.008	6228.81
925.318	6081.92
925.628	6114.91
925.938	6095.02
926.248	5982.26
926.558	6043.73
926.867	6008.47
927.177	5989.94
927.487	5889.38
927.796	5873.11
928.106	5866.55
928.416	5846.22
928.725	5827.69
929.034	5770.06
929.344	5805.77
929.653	5726.45
929.962	5708.59
930.271	5681.7
930.581	5684.41
930.89	5626.79
931.199	5612.1
931.508	5630.18
931.817	5586.34
932.125	5601.48
932.434	5541.59
932.743	5514.7
933.051	5522.16
933.36	5462.5
933.669	5403.29
933.977	5437.87
934.286	5407.81
934.594	5437.64
934.902	5342.05
935.21	5316.51
935.519	5344.99
935.827	5297.08
936.135	5275.84
936.443	5207.36
936.751	5197.42
937.059	5214.37
937.367	5154.03
937.674	5187.48
937.982	5182.05
938.29	5070.87
938.597	5112.68
938.905	5034.49
939.213	5000.36
939.52	5021.83
939.827	5048.95
940.135	4995.39
940.442	4988.39
940.749	4941.38
941.056	4920.36
941.363	4892.34
941.67	4858.9
941.977	4882.4
942.284	4791.1
942.591	4807.6
942.898	4777.09
943.205	4710.88
943.511	4728.51
943.818	4702.97
944.125	4650.99
944.431	4650.09
944.738	4671.11
945.044	4662.74
945.35	4620.49
945.657	4604.67
945.963	4567.38
946.269	4536.65
946.575	4555.63
946.881	4523.09
947.187	4529.41
947.493	4471.56
947.799	4465.69
948.105	4412.58
948.41	4428.4
948.716	4380.27
949.022	4404.22
949.327	4384.11
949.633	4325.58
949.938	4347.05
950.244	4346.37
950.549	4313.38
950.854	4238.57
951.16	4274.28
951.465	4242.64
951.77	4213.04
952.075	4189.31
952.38	4213.49
952.685	4160.61
952.99	4139.14
953.294	4128.3
953.599	4114.51
953.904	4069.31
954.209	4064.79
954.513	4066.6
954.818	4047.39
955.122	4026.15
955.426	4016.89
955.731	3971.92
956.035	4005.13
956.339	3971.69
956.643	3958.36
956.948	3926.27
957.252	3883.56
957.556	3890.79
957.86	3875.19
958.163	3870.68
958.467	3845.36
958.771	3816.67
959.075	3791.58
959.378	3793.16
959.682	3781.41
959.985	3753.62
960.289	3757.91
960.592	3697.12
960.896	3703
961.199	3642.66
961.502	3662.32
961.805	3648.76
962.108	3608.76
962.411	3648.99
962.714	3586.84
963.017	3568.08
963.32	3575.32
963.623	3591.81
963.926	3519.27
964.228	3557.46
964.531	3544.58
964.833	3538.93
965.136	3489.67
965.438	3467.97
965.741	3476.34
966.043	3425.94
966.345	3430.69
966.648	3422.1
966.95	3396.79
967.252	3395.66
967.554	3335.32
967.856	3349.78
968.158	3337.13
968.46	3353.4
968.761	3336.68
969.063	3296.68
969.365	3310.01
969.666	3271.59
969.968	3261.65
970.269	3243.57
970.571	3261.65
970.872	3253.29
971.174	3187.3
971.475	3181.88
971.776	3212.39
972.077	3174.65
972.378	3151.6
972.679	3138.26
972.98	3137.14
973.281	3117.47
973.582	3080.64
973.883	3094.2
974.183	3072.73
974.484	3034.76
974.785	2983.01
975.085	3028.89
975.386	3013.52
975.686	2961.77
975.986	2962.9
976.287	2980.98
976.587	2949.12
976.887	2921.32
977.187	2932.62
977.487	2929.23
977.787	2844.26
978.087	2906.63
978.387	2861.44
978.687	2861.66
978.987	2833.19
979.286	2815.11
979.586	2777.14
979.885	2832.06
980.185	2811.27
980.484	2814.66
980.784	2779.86
981.083	2757.48
981.382	2740.54
981.682	2730.14
981.981	2755
982.28	2704.83
982.579	2634.32
982.878	2736.92
983.177	2696.24
983.475	2689.92
983.774	2647.43
984.073	2677.26
984.372	2628.22
984.67	2621.89
984.969	2596.81
985.267	2621.44
985.566	2573.08
985.864	2573.53
986.162	2548.9
986.461	2571.27
986.759	2526.98
987.057	2508.23
987.355	2518.85
987.653	2500.99
987.951	2490.6
988.249	2472.97
988.547	2478.17
988.844	2460.77
989.142	2444.95
989.44	2420.54
989.737	2403.37
990.035	2416.93
990.332	2414.22
990.63	2373.09
990.927	2395.46
991.224	2368.79
991.521	2348.23
991.819	2358.62
992.116	2325.18
992.413	2344.84
992.71	2292.86
993.006	2305.29
993.303	2298.96
993.6	2316.14
993.897	2294.45
994.193	2273.88
994.49	2275.01
994.787	2263.49
995.083	2210.61
995.379	2225.29
995.676	2204.96
995.972	2178.52
996.268	2199.98
996.565	2180.55
996.861	2150.72
997.157	2151.62
997.453	2152.75
997.749	2145.52
998.044	2093.32
998.34	2140.1
998.636	2094.9
998.932	2073.21
999.227	2103.49
999.523	2091.06
999.818	2059.65
1000.114	2063.72
1000.409	2037.28
1000.704	2020.78
1001	2039.08
1001.295	1999.09
1001.59	1999.76
1001.885	2008.35
1002.18	1966.09
1002.475	1978.07
1002.77	1955.02
1003.065	1922.48
1003.359	1944.85
1003.654	1944.62
1003.949	1907.79
1004.243	1920.9
1004.538	1891.74
1004.832	1869.6
1005.127	1845.19
1005.421	1859.43
1005.715	1892.2
1006.009	1859.43
1006.304	1862.37
1006.598	1824.4
1006.892	1805.42
1007.186	1804.51
1007.48	1814.68
1007.773	1788.92
1008.067	1787.11
1008.361	1763.39
1008.655	1742.14
1008.948	1739.43
1009.242	1733.56
1009.535	1751.41
1009.829	1705.76
1010.122	1686.1
1010.415	1679.09
1010.708	1675.7
1011.001	1675.25
1011.295	1689.04
1011.588	1649.26
1011.881	1647.91
1012.173	1645.42
1012.466	1620.79
1012.759	1599.55
1013.052	1619.66
1013.344	1628.02
1013.637	1604.75
1013.93	1595.93
1014.222	1570.17
1014.514	1567.91
1014.807	1592.32
1015.099	1531.3
1015.391	1545.31
1015.683	1513
1015.976	1528.59
1016.268	1509.16
1016.56	1481.81
1016.851	1515.26
1017.143	1481.59
1017.435	1465.09
1017.727	1470.51
1018.018	1444.98
1018.31	1444.98
1018.602	1431.87
1018.893	1391.42
1019.185	1420.8
1019.476	1400.91
1019.767	1427.12
1020.058	1379.89
1020.35	1375.83
1020.641	1391.42
1020.932	1375.37
1021.223	1360.68
1021.514	1315.94
1021.804	1334.92
1022.095	1326.56
1022.386	1325.43
1022.677	1327.69
1022.967	1326.79
1023.258	1295.83
1023.548	1293.34
1023.839	1289.73
1024.129	1259.44
1024.419	1263.06
1024.709	1242.04
1025	1268.71
1025.29	1209.05
1025.58	1268.26
1025.87	1230.74
1026.16	1206.11
1026.449	1218.54
1026.739	1204.98
1027.029	1180.8
1027.319	1180.8
1027.608	1176.51
1027.898	1178.99
1028.187	1171.09
1028.477	1153.46
1028.766	1144.65
1029.055	1145.1
1029.344	1124.08
1029.634	1129.5
1029.923	1099.45
1030.212	1097.64
1030.501	1112.33
1030.79	1094.48
1031.078	1094.25
1031.367	1103.29
1031.656	1074.36
1031.945	1076.4
1032.233	1075.04
1032.522	1079.79
1032.81	1055.16
1033.099	1052.9
1033.387	1008.6
1033.675	1023.74
1033.963	1032.11
1034.251	1021.26
1034.54	1031.88
1034.828	993.69
1035.116	999.56
1035.403	994.37
1035.691	955.27
1035.979	967.25
1036.267	977.87
1036.554	965.44
1036.842	950.75
1037.129	956.18
1037.417	958.66
1037.704	934.93
1037.992	935.16
1038.279	921.6
1038.566	926.12
1038.853	926.12
1039.14	926.12
