Data from plate_porcelain_FLMS001491_009.txt Node
Date: Tue Feb 07 11:18:39 GMT 2017
User: dcchb
Spectrometer: FLMS00149
Trigger mode: 0
Integration Time (sec): 2.000000E-2
Scans to average: 10
Electric dark correction enabled: true
Nonlinearity correction enabled: false
Boxcar width: 0
XAxis mode: Wavelengths
Number of Pixels in Spectrum: 2048
>>>>>Begin Spectral Data<<<<<
341.393	-4.49
341.776	-4.49
342.16	-4.49
342.543	-66.41
342.927	-72.74
343.31	-55.56
343.693	-70.25
344.077	-69.8
344.46	-44.94
344.843	-46.3
345.226	-29.12
345.61	-46.3
345.993	-5.4
346.376	1.61
346.759	17.43
347.142	18.33
347.525	20.14
347.908	61.5
348.291	55.39
348.674	79.12
349.057	114.15
349.44	120.48
349.823	138.78
350.206	171.55
350.588	203.19
350.971	230.3
351.354	253.81
351.737	261.72
352.119	290.64
352.502	315.5
352.884	314.14
353.267	306.69
353.65	320.7
354.032	320.7
354.414	336.74
354.797	343.75
355.179	367.7
355.562	367.93
355.944	380.81
356.326	390.98
356.709	386.68
357.091	365.67
357.473	381.94
357.855	397.53
358.238	384.88
358.62	393.01
359.002	404.31
359.384	405.89
359.766	420.58
360.148	393.24
360.53	367.93
360.912	378.78
361.294	378.55
361.676	407.25
362.057	355.73
362.439	395.05
362.821	401.83
363.203	394.37
363.584	373.13
363.966	404.76
364.348	405.67
364.729	394.14
365.111	386.46
365.493	403.18
365.874	404.31
366.256	385.33
366.637	392.79
367.019	388.72
367.4	396.18
367.781	386.01
368.163	414.71
368.544	401.83
368.925	414.25
369.306	387.81
369.688	402.73
370.069	403.86
370.45	421.49
370.831	434.37
371.212	427.81
371.593	409.06
371.974	415.38
372.355	426.23
372.736	424.2
373.117	433.01
373.498	434.82
373.879	419.9
374.26	413.12
374.641	409.51
375.021	429.62
375.402	467.36
375.783	458.55
376.163	496.96
376.544	466
376.925	444.76
377.305	440.69
377.686	450.19
378.066	478.43
378.447	476.17
378.827	475.04
379.208	500.13
379.588	483.86
379.968	479.11
380.349	482.05
380.729	489.51
381.109	499.9
381.489	515.04
381.87	511.88
382.25	513.91
382.63	514.59
383.01	515.95
383.39	522.05
383.77	520.01
384.15	545.1
384.53	550.75
384.91	550.3
385.29	564.53
385.67	546.45
386.049	585.55
386.429	577.19
386.809	587.58
387.189	583.29
387.568	605.89
387.948	596.4
388.328	595.94
388.707	618.54
389.087	605.66
389.466	621.71
389.846	626.23
390.225	639.11
390.605	647.02
390.984	637.53
391.363	662.84
391.743	691.31
392.122	662.38
392.501	691.54
392.881	701.93
393.26	698.99
393.639	707.13
394.018	698.31
394.397	728.82
394.776	714.36
395.155	725.66
395.534	742.83
395.913	743.96
396.292	762.49
396.671	753.23
397.05	788.48
397.429	801.36
397.808	768.14
398.186	774.92
398.565	788.48
398.944	797.07
399.323	806.11
399.701	818.09
400.08	807.01
400.458	843.62
400.837	861.47
401.215	855.6
401.594	878.42
401.972	865.99
402.351	883.85
402.729	877.52
403.107	901.47
403.486	905.32
403.864	920.91
404.242	938.76
404.62	952.77
404.999	955.26
405.377	946.44
405.755	982.38
406.133	1008.14
406.511	1021.7
406.889	1033.67
407.267	1013.56
407.645	1051.98
408.023	1059.89
408.401	1084.07
408.779	1062.83
409.156	1114.8
409.534	1113.67
409.912	1149.15
410.29	1163.16
410.667	1152.09
411.045	1200.22
411.422	1226.66
411.8	1212.65
412.178	1240.45
412.555	1261.46
412.933	1260.79
413.31	1310.5
413.687	1293.33
414.065	1322.03
414.442	1321.35
414.819	1351.41
415.197	1374
415.574	1391.4
415.951	1405.42
416.328	1413.1
416.705	1428.01
417.082	1453.78
417.46	1434.57
417.837	1453.1
418.214	1491.29
418.591	1515.24
418.967	1533.77
419.344	1539.2
419.721	1543.04
420.098	1556.37
420.475	1608.35
420.852	1592.53
421.228	1619.87
421.605	1649.02
421.982	1655.58
422.358	1676.37
422.735	1711.4
423.111	1690.38
423.488	1723.6
423.864	1781.9
424.241	1771.73
424.617	1826.87
424.994	1802.69
425.37	1850.15
425.746	1902.8
426.123	1875.23
426.499	1882.24
426.875	1913.2
427.251	1932.63
427.627	1993.42
428.003	1992.74
428.379	2033.2
428.756	2059.86
429.132	2066.87
429.507	2124.72
429.883	2133.98
430.259	2194.32
430.635	2169.69
431.011	2215.34
431.387	2304.83
431.763	2311.38
432.138	2343.24
432.514	2392.51
432.89	2384.6
433.265	2434.54
433.641	2449.23
434.016	2497.36
434.392	2512.5
434.767	2571.94
435.143	2545.72
435.518	2589.11
435.894	2625.27
436.269	2682.22
436.644	2702.78
437.02	2754.98
437.395	2763.57
437.77	2759.73
438.145	2869.33
438.52	2869.33
438.895	2893.51
439.271	2929.44
439.646	3002.89
440.021	2995.2
440.395	2996.33
440.77	2994.07
441.145	3030.68
441.52	3079.04
441.895	3100.51
442.27	3156.56
442.645	3171.02
443.019	3202.66
443.394	3203.79
443.769	3197.23
444.143	3220.06
444.518	3274.74
444.892	3245.14
445.267	3318.59
445.641	3360.17
446.016	3371.47
446.39	3409.88
446.764	3400.39
447.139	3413.5
447.513	3482.2
447.887	3486.04
448.262	3506.6
448.636	3568.52
449.01	3596.77
449.384	3646.49
449.758	3646.26
450.132	3716.09
450.506	3702.08
450.88	3767.61
451.254	3760.16
451.628	3832.24
452.002	3874.05
452.376	3891
452.75	3955.4
453.123	4009.64
453.497	4034.05
453.871	4078.34
454.244	4164.89
454.618	4225.68
454.992	4302.06
455.365	4260.48
455.739	4425
456.112	4397.2
456.486	4472.9
456.859	4540.7
457.232	4603.52
457.606	4573.47
457.979	4628.38
458.352	4794.25
458.725	4807.81
459.099	4853.23
459.472	4931.42
459.845	5015.26
460.218	5068.82
460.591	5089.16
460.964	5129.38
461.337	5246.67
461.71	5321.02
462.083	5454.57
462.456	5479.66
462.829	5403.95
463.201	5553.1
463.574	5548.36
463.947	5671.07
464.32	5818.63
464.692	5841.91
465.065	5897.5
465.438	5923.49
465.81	6064.05
466.183	6145.18
466.555	6228.34
466.928	6346.98
467.3	6323.93
467.672	6413.87
468.045	6648.67
468.417	6607.99
468.789	6717.82
469.161	6744.71
469.534	6921.43
469.906	7027.87
470.278	7086.85
470.65	7177.24
471.022	7318.71
471.394	7436.44
471.766	7550.34
472.138	7612.26
472.51	7856.54
472.882	7871.01
473.253	7956.2
473.625	8170.43
473.997	8371.33
474.369	8447.04
474.74	8469.41
475.112	8655.85
475.484	8817.88
475.855	8957.08
476.227	9009.51
476.598	9334.02
476.97	9382.83
477.341	9559.55
477.713	9730.85
478.084	9772.65
478.455	10058.75
478.827	10124.73
479.198	10427.78
479.569	10465.74
479.94	10742.34
480.311	10921.77
480.682	11204.25
481.053	11390.01
481.424	11439.5
481.795	11655.77
482.166	11815.54
482.537	11984.12
482.908	12200.84
483.279	12382.98
483.65	12538.91
484.021	12818.45
484.391	13042.4
484.762	13086.01
485.133	13250.98
485.503	13509.96
485.874	13783.85
486.244	13922.37
486.615	14276.26
486.985	14326.43
487.356	14622.92
487.726	14739.08
488.097	15140.87
488.467	15128.44
488.837	15457.02
489.207	15608.88
489.578	15859.5
489.948	16034.63
490.318	16245.02
490.688	16342.88
491.058	16653.83
491.428	16828.51
491.798	17090.65
492.168	17349.18
492.538	17383.3
492.908	17581.49
493.278	17879.11
493.648	17888.82
494.017	18242.03
494.387	18445.19
494.757	18527
495.126	18828.46
495.496	18798.4
495.866	18915.46
496.235	19168.11
496.605	19425.05
496.974	19515
497.344	19611.72
497.713	19760.86
498.082	19949.56
498.452	20126.96
498.821	20364.69
499.19	20352.71
499.559	20591.8
499.928	20776.43
500.298	20866.82
500.667	21150.21
501.036	21161.73
501.405	21301.62
501.774	21442.18
502.143	21678.55
502.512	21759.91
502.88	21962.16
503.249	21977.76
503.618	22103.4
503.987	22229.95
504.356	22477.63
504.724	22528.7
505.093	22708.58
505.462	22850.05
505.83	23078.52
506.199	23193.09
506.567	23492.52
506.936	23588.79
507.304	23844.6
507.672	23938.38
508.041	24059.73
508.409	24251.14
508.777	24442.78
509.145	24613.62
509.514	24654.07
509.882	24867.4
510.25	25032.14
510.618	25062.19
510.986	25263.54
511.354	25508.28
511.722	25746.02
512.09	25976.29
512.458	26001.38
512.826	26231.43
513.193	26408.15
513.561	26581.25
513.929	26814.24
514.297	27070.73
514.664	27216.49
515.032	27467.55
515.4	27602.01
515.767	27843.36
516.135	27915
516.502	27865.06
516.869	28449.68
517.237	28443.12
517.604	28471.6
517.972	28884.69
518.339	29087.4
518.706	29208.98
519.073	29399.93
519.44	29507.95
519.808	29842.18
520.175	29980.48
520.542	30386.8
520.909	30551.77
521.276	30530.3
521.643	30837.41
522.009	31116.05
522.376	31353.55
522.743	31641.68
523.11	31772.75
523.477	32169.13
523.843	32416.13
524.21	32723.01
524.577	32905.15
524.943	33049.55
525.31	33237.12
525.676	33618.35
526.043	33855.41
526.409	34050.66
526.776	34408.62
527.142	34523.19
527.508	34886.79
527.874	35117.97
528.241	35206.33
528.607	35276.84
528.973	35677.51
529.339	35625.31
529.705	36000.66
530.071	36234.56
530.437	36569.46
530.803	36840.64
531.169	36984.59
531.535	37091.48
531.901	37111.82
532.267	37345.94
532.632	37643.78
532.998	37724.69
533.364	38135.07
533.73	38113.15
534.095	38530.77
534.461	38546.59
534.826	38745.22
535.192	38978.44
535.557	39344.3
535.923	39351.76
536.288	39465.21
536.653	39672.43
537.019	39540.01
537.384	39857.74
537.749	40004.85
538.114	40140.89
538.479	40189.48
538.845	40446.87
539.21	40498.85
539.575	40530.71
539.94	40758.05
540.305	40987.43
540.67	41089.34
541.034	41160.75
541.399	41406.17
541.764	41481.42
542.129	41481.88
542.494	41685.26
542.858	41843.45
543.223	42077.11
543.587	42237.34
543.952	42294.28
544.316	42351.68
544.681	42539.25
545.045	42715.29
545.41	42892.46
545.774	42989.63
546.138	42943.08
546.503	43118.67
546.867	43210.42
547.231	43582.84
547.595	43576.51
547.959	43834.36
548.324	43915.48
548.688	43936.27
549.052	44023.5
549.416	44250.62
549.779	44329.26
550.143	44361.8
550.507	44722.47
550.871	44808.12
551.235	44846.98
551.599	45295.11
551.962	45289.68
552.326	45416.69
552.689	45736.9
553.053	45495.33
553.417	45752.95
553.78	46196.78
554.143	46058.25
554.507	46266.38
554.87	46476.55
555.234	46921.73
555.597	46685.58
555.96	46826.82
556.323	47008.74
556.686	47081.95
557.05	47422.96
557.413	47512
557.776	47768.72
558.139	47913.8
558.502	47968.71
558.865	48042.61
559.228	48260.91
559.59	48489.37
559.953	48676.26
560.316	48985.86
560.679	48983.6
561.041	49196.25
561.404	49377.04
561.767	49668.78
562.129	49486.18
562.492	49945.61
562.854	49930.24
563.217	49977.47
563.579	50140.63
563.941	50384.47
564.304	50474.63
564.666	50770.9
565.028	50858.13
565.39	50949.65
565.753	51105.13
566.115	51230.09
566.477	51353.71
566.839	51433.48
567.201	51695.62
567.563	51763.86
567.925	51973.12
568.287	51970.87
568.648	52043.41
569.01	52201.14
569.372	52389.61
569.734	52336.51
570.095	52527.91
570.457	52744.63
570.819	52780.11
571.18	52853.1
571.542	53113.66
571.903	53094.9
572.265	53117.5
572.626	53269.14
572.987	53284.73
573.349	53484.95
573.71	53497.38
574.071	53549.13
574.432	53688.33
574.794	53834.09
575.155	53887.2
575.516	53839.06
575.877	53960.87
576.238	53973.52
576.599	54119.28
576.96	54132.84
577.32	54182.56
577.681	54269.34
578.042	54356.79
578.403	54380.97
578.763	54512.95
579.124	54473.17
579.485	54532.38
579.845	54630.46
580.206	54586.84
580.566	54607.63
580.927	54667.29
581.287	54771.24
581.648	54588.65
582.008	54771.24
582.368	54679.95
582.728	54766.27
583.089	54674.97
583.449	54765.14
583.809	54882.65
584.169	54922.65
584.529	54775.31
584.889	54987.96
585.249	54800.4
585.609	54774.86
585.969	54882.2
586.329	54827.74
586.688	54855.31
587.048	54959.04
587.408	54848.53
587.768	54861.18
588.127	54920.17
588.487	54800.85
588.846	55028.19
589.206	54846.27
589.565	54899.15
589.925	55069.09
590.284	54898.25
590.643	54938.02
591.003	54998.58
591.362	55129.43
591.721	55072.03
592.08	55025.7
592.44	55116.32
592.799	55113.83
593.158	55119.48
593.517	55140.95
593.876	55115.64
594.235	55102.31
594.593	55193.38
594.952	55222.31
595.311	55104.79
595.67	55114.29
596.029	55292.36
596.387	55320.16
596.746	55267.73
597.104	55124
597.463	55294.39
597.822	55410.55
598.18	55281.51
598.538	55267.5
598.897	55408.51
599.255	55234.28
599.613	55654.61
599.972	55378.69
600.33	55484.9
600.688	55406.93
601.046	55543.43
601.404	55537.55
601.762	55504.78
602.12	55637.66
602.478	55684.21
602.836	55692.8
603.194	55587.72
603.552	55634.5
603.91	55559.47
604.268	55717.43
604.625	55689.41
604.983	55771.22
605.341	55734.83
605.698	55796.75
606.056	55864.77
606.413	55801.95
606.771	55864.32
607.128	55917.2
607.485	55835.4
607.843	55861.38
608.2	56061.83
608.557	56060.25
608.914	56021.61
609.272	56144.09
609.629	56153.13
609.986	56137.76
610.343	56088.95
610.7	56284.88
611.057	56222.28
611.414	56299.79
611.771	56258.66
612.127	56394.25
612.484	56396.29
612.841	56441.03
613.198	56296.4
613.554	56375.04
613.911	56572.78
614.267	56502.5
614.624	56467.7
614.98	56556.06
615.337	56680.35
615.693	56650.29
616.05	56633.34
616.406	56707.69
616.762	56640.8
617.118	56653.68
617.475	56675.6
617.831	56721.47
618.187	56705.66
618.543	56836.5
618.899	56885.09
619.255	56892.54
619.611	56795.6
619.967	56944.52
620.323	56937.29
620.678	56882.15
621.034	56847.35
621.39	56834.47
621.746	56772.77
622.101	57140.9
622.457	56848.03
622.812	56916.72
623.168	57015.48
623.523	56934.35
623.879	57047.34
624.234	56887.12
624.589	57031.07
624.945	56937.51
625.3	56971.86
625.655	56938.64
626.01	56982.71
626.365	57009.38
626.72	56981.81
627.075	56972.54
627.43	56946.78
627.785	56817.97
628.14	56939.77
628.495	56879.44
628.85	56923.5
629.205	56716.73
629.559	56899.55
629.914	56756.95
630.269	56813.22
630.623	56737.97
630.978	56676.05
631.332	56787.46
631.687	56821.81
632.041	56745.88
632.396	56773.9
632.75	56659.56
633.104	56660.69
633.459	56585.21
633.813	56545.66
634.167	56542.5
634.521	56489.84
634.875	56559.45
635.229	56475.83
635.583	56360.13
635.937	56373.24
636.291	56327.36
636.645	56360.58
636.999	56211.43
637.352	56386.79
637.706	56110.64
638.06	56283.75
638.413	56220.92
638.767	56128.95
639.121	56193.58
639.474	56027.03
639.828	55994.49
640.181	56053.02
640.534	56006.47
640.888	55904.1
641.241	55734.16
641.594	55807.6
641.947	55945.68
642.301	55820.26
642.654	55829.07
643.007	55820.93
643.36	55757.43
643.713	55715.85
644.066	55928.95
644.419	55646.7
644.771	55476.76
645.124	55181.4
645.477	55166.26
645.83	54923.1
646.182	54773.96
646.535	54764.24
646.888	54859.6
647.24	54613.96
647.593	54820.28
647.945	54687.63
648.298	54539.16
648.65	54506.84
649.002	54365.6
649.355	54529.89
649.707	54443.57
650.059	54611.47
650.411	54975.76
650.763	54866.16
651.115	55161.74
651.467	55026.38
651.819	55029.32
652.171	54964.23
652.523	54944.8
652.875	54879.72
653.227	54691.25
653.578	54807.4
653.93	54774.63
654.282	54714.97
654.633	54592.49
654.985	54685.82
655.337	54704.8
655.688	54787.29
656.039	54839.72
656.391	54537.35
656.742	54664.35
657.094	54700.51
657.445	54772.6
657.796	54642.43
658.147	54641.3
658.498	54559.72
658.849	54611.47
659.2	54579.61
659.551	54463
659.902	54535.32
660.253	54552.72
660.604	54502.78
660.955	54309.79
661.306	54438.14
661.656	54463.23
662.007	54324.93
662.358	54294.65
662.708	54307.3
663.059	54321.76
663.409	54140.75
663.76	54317.24
664.11	54305.94
664.461	54265.95
664.811	54335.1
665.161	54328.54
665.511	54175.33
665.862	54257.36
666.212	54314.31
666.562	54298.26
666.912	54211.48
667.262	54235.66
667.612	54115.67
667.962	54178.49
668.312	54176
668.662	54293.06
669.011	54103.01
669.361	54062.34
669.711	54035.22
670.06	54060.08
670.41	54012.39
670.76	53884.04
671.109	54097.14
671.459	53965.84
671.808	54020.08
672.157	54003.35
672.507	53813.3
672.856	53889.91
673.205	53919.06
673.554	53936.46
673.904	53801.55
674.253	53976.69
674.602	53826.86
674.951	53394.1
675.3	53384.61
675.649	53769.24
675.998	53747.99
676.346	53739.63
676.695	53859.18
677.044	53535.34
677.393	53675.45
677.741	53806.75
678.09	53688.11
678.438	53502.35
678.787	53555.46
679.135	53657.6
679.484	53489.47
679.832	53529.02
680.181	53321.56
680.529	53391.84
680.877	53341.45
681.225	53182.81
681.573	53451.28
681.922	53183.26
682.27	53139.87
682.618	53151.17
682.966	53081.8
683.314	53042.7
683.661	53037.05
684.009	52734.91
684.357	52782.14
684.705	52717.29
685.053	52783.5
685.4	52780.79
685.748	52548.48
686.095	52489.72
686.443	52392.1
686.79	52315.94
687.138	52379.22
687.485	52358.43
687.832	52277.07
688.18	52252.44
688.527	52068.94
688.874	52054.93
689.221	51910.98
689.568	51833.47
689.915	51845.67
690.262	51775.16
690.609	51627.15
690.956	51668.05
691.303	51487.49
691.65	51471.67
691.997	51223.09
692.344	51147.61
692.69	51203.2
693.037	51179.47
693.383	50899.03
693.73	51079.59
694.077	50760.95
694.423	50819.93
694.769	50660.84
695.116	50584.46
695.462	50556.21
695.808	50513.5
696.155	50468.76
696.501	50278.03
696.847	50309.21
697.193	49973.18
697.539	50189.67
697.885	49899.73
698.231	49865.84
698.577	49883.69
698.923	49765.95
699.269	49541.1
699.614	49285.51
699.96	49346.75
700.306	49220.65
700.651	49157.61
700.997	49075.12
701.342	48881.45
701.688	48869.03
702.033	48673.78
702.379	48701.57
702.724	48614.34
703.069	48589.94
703.415	48250.28
703.76	48081.25
704.105	48099.1
704.45	48012.55
704.795	47836.51
705.14	47726.68
705.485	47816.4
705.83	47578.44
706.175	47760.81
706.52	47516.29
706.865	47384.55
707.209	47359.69
707.554	47129.18
707.899	47236.53
708.243	47011.9
708.588	46954.05
708.932	46692.59
709.277	46805.58
709.621	46763.77
709.966	46502.08
710.31	46684.45
710.654	46206.27
710.998	46321.52
711.342	46340.05
711.687	46140.96
712.031	45946.16
712.375	45802.67
712.719	45992.27
713.063	45817.81
713.407	45845.83
713.75	45646.29
714.094	45665.04
714.438	45511.83
714.782	45491.26
715.125	45194.32
715.469	45248.56
715.812	45100.76
716.156	44834.1
716.499	45055.11
716.843	44802.01
717.186	44682.92
717.53	44898.28
717.873	44953.2
718.216	44888.34
718.559	44492.87
718.902	44343.5
719.246	44581.45
719.589	44256.94
719.932	44173.1
720.275	44104.86
720.617	44112.99
720.96	43997.52
721.303	44078.42
721.646	43969.72
721.989	43740.57
722.331	43776.73
722.674	43630.07
723.016	43569.05
723.359	43560.69
723.701	43595.49
724.044	43283.18
724.386	43159.35
724.729	43344.88
725.071	43102.85
725.413	43097.2
725.755	43056.98
726.097	42923.42
726.439	42761.62
726.782	42725.01
727.124	42855.17
727.465	42667.61
727.807	42579.25
728.149	42389.87
728.491	42434.17
728.833	42563.88
729.175	42278.01
729.516	42158.02
729.858	42215.42
730.199	42297.67
730.541	42075.76
730.882	42200.27
731.224	42170.22
731.565	41863.33
731.906	41907.85
732.248	41946.04
732.589	41705.82
732.93	41554.64
733.271	41617.24
733.612	41609.56
733.953	41590.8
734.294	41335.89
734.635	41448.2
734.976	41367.3
735.317	41088.21
735.658	41103.58
735.999	41300.19
736.339	40975.45
736.68	41116.69
737.021	40867.43
737.361	40678.05
737.702	40886.18
738.042	40735.45
738.383	40751.95
738.723	40725.06
739.063	40574.1
739.404	40512.64
739.744	40486.87
740.084	40200.55
740.424	40353.77
740.764	40138.18
741.104	40354
741.444	40251.85
741.784	39957.4
742.124	40068.81
742.464	39849.38
742.804	39931.86
743.143	39812.31
743.483	39766.67
743.823	39632.43
744.162	39615.03
744.502	39638.76
744.841	39483.51
745.181	39601.47
745.52	39470.4
745.86	39492.78
746.199	39213.91
746.538	39245.78
746.877	39263.18
747.216	39146.8
747.556	39003.75
747.895	38986.12
748.234	38709.97
748.573	38720.82
748.911	38856.86
749.25	38792.45
749.589	38433.59
749.928	38589.3
750.267	38589.3
750.605	38399.47
750.944	38215.29
751.283	38222.3
751.621	38323.54
751.96	37937.34
752.298	38005.81
752.636	38013.27
752.975	37876.55
753.313	37585.93
753.651	37755.87
753.989	37513.39
754.327	37515.2
754.666	37342.32
755.004	37472.49
755.342	37406.28
755.679	37406.05
756.017	37061.88
756.355	37159.96
756.693	36922.9
757.031	37023.69
757.368	36766.29
757.706	36702.79
758.044	36718.61
758.381	36597.94
758.719	36495.11
759.056	36436.36
759.394	36301.67
759.731	36033.21
760.068	36166.31
760.405	35928.58
760.743	35729.03
761.08	35801.12
761.417	35557.96
761.754	35604.06
762.091	35460.56
762.428	35397.06
762.765	35084.53
763.102	35334.01
763.438	34978.54
763.775	34864.87
764.112	34788.49
764.449	34744.43
764.785	34567.03
765.122	34386.69
765.458	34349.63
765.795	34287.49
766.131	34277.55
766.467	34042.52
766.804	33947.16
767.14	33805.02
767.476	33792.59
767.812	33505.59
768.148	33638.69
768.485	33319.6
768.821	33195.31
769.157	33335.2
769.492	33120.06
769.828	33043
770.164	32716.91
770.5	32780.41
770.836	32703.58
771.171	32512.85
771.507	32430.59
771.842	32255.23
772.178	32301.33
772.513	32266.07
772.849	32196.7
773.184	32047.1
773.519	31826.08
773.855	31683.26
774.19	31605.3
774.525	31382.25
774.86	31489.14
775.195	31477.84
775.53	31237.85
775.865	30973.23
776.2	30900.46
776.535	30597.64
776.87	30682.61
777.205	30455.95
777.539	30380.47
777.874	30433.58
778.209	30129.18
778.543	30138.9
778.878	29991.78
779.212	29892.35
779.547	29776.19
779.881	29725.57
780.215	29524.68
780.55	29563.09
780.884	29448.29
781.218	29308.86
781.552	29253.95
781.886	29159.71
782.22	28983.67
782.554	28804.02
782.888	28694.42
783.222	28610.8
783.556	28445.83
783.889	28433.63
784.223	28219.17
784.557	28099.63
784.89	28152.51
785.224	27976.02
785.557	27839.52
785.891	27752.07
786.224	27829.8
786.558	27644.27
786.891	27423.04
787.224	27284.96
787.557	27305.07
787.891	27219.65
788.224	27211.06
788.557	27142.37
788.89	26946.89
789.223	27099.88
789.556	26854.46
789.888	26755.03
790.221	26628.03
790.554	26413.57
790.887	26356.85
791.219	26282.05
791.552	26230.3
791.884	26013.13
792.217	25998.21
792.549	26014.94
792.882	25814.49
793.214	25651.56
793.546	25769.75
793.879	25604.55
794.211	25399.36
794.543	25358.91
794.875	25348.06
795.207	25281.85
795.539	25232.36
795.871	25183.32
796.203	24939.49
796.535	24830.34
796.867	24754.86
797.198	24653.84
797.53	24700.17
797.862	24451.36
798.193	24523.45
798.525	24374.53
798.856	24327.52
799.188	24093.41
799.519	24040.75
799.85	23875.11
800.182	24009.34
800.513	24000.08
800.844	23842.57
801.175	23893.64
801.506	23794.88
801.837	23653.87
802.168	23630.14
802.499	23462.24
802.83	23415.23
803.161	23352.63
803.491	23358.96
803.822	23200.32
804.153	23109.7
804.483	23037.39
804.814	22863.83
805.145	22786.32
805.475	22830.16
805.805	22782.25
806.136	22692.09
806.466	22756.49
806.796	22659.77
807.126	22448.48
807.457	22439.44
807.787	22391.98
808.117	22284.41
808.447	22224.3
808.777	22200.35
809.107	22139.56
809.436	22041.71
809.766	22085.1
810.096	21900.7
810.426	21845.56
810.755	21965.55
811.085	21782.05
811.414	21710.19
811.744	21712.45
812.073	21603.98
812.403	21471.1
812.732	21369.86
813.061	21366.25
813.39	21251.45
813.719	21315.4
814.049	21486.24
814.378	21315.85
814.707	21147.95
815.036	21091.9
815.365	20891.91
815.693	20794.74
816.022	20869.31
816.351	20804.45
816.68	20661.86
817.008	20723.78
817.337	20627.28
817.665	20508.64
817.994	20554.06
818.322	20500.73
818.651	20375.99
818.979	20366.27
819.307	20412.37
819.636	20285.82
819.964	20152.04
820.292	20175.99
820.62	20255.09
820.948	20064.13
821.276	20241.76
821.604	20206.95
821.932	20182.1
822.259	20126.05
822.587	20161.98
822.915	20059.16
823.243	20126.5
823.57	19983.23
823.898	20025.49
824.225	20013.29
824.553	19927.41
824.88	20096.9
825.207	19975.55
825.535	20086.96
825.862	20093.06
826.189	20002.67
826.516	20054.64
826.843	20074.98
827.17	20157.46
827.497	20093.29
827.824	20060.74
828.151	19986.85
828.478	20054.19
828.805	20063.68
829.131	19909.79
829.458	20018.26
829.785	19858.94
830.111	20000.63
830.438	20041.31
830.764	19891.03
831.09	20013.51
831.417	19911.37
831.743	19910.01
832.069	19803.12
832.395	19724.26
832.722	19877.7
833.048	19723.35
833.374	19750.7
833.7	19701.21
834.026	19780.07
834.351	19842.22
834.677	19820.07
835.003	19779.4
835.329	19750.92
835.654	19709.79
835.98	19602.22
836.306	19619.85
836.631	19557.03
836.956	19543.7
837.282	19649
837.607	19479.52
837.932	19483.13
838.258	19412.85
838.583	19403.36
838.908	19343.02
839.233	19356.36
839.558	19272.06
839.883	19297.15
840.208	19114.1
840.533	19179.18
840.858	19241.56
841.182	19209.92
841.507	19166.08
841.832	18986.42
842.156	18970.38
842.481	19047.89
842.805	18851.74
843.13	18891.51
843.454	18814.22
843.778	18720.67
844.103	18677.96
844.427	18680.67
844.751	18722.25
845.075	18601.8
845.399	18616.49
845.723	18466.44
846.047	18464.85
846.371	18289.94
846.695	18330.39
847.019	18100.8
847.343	18103.28
847.666	17933.12
847.99	17878.65
848.313	17814.02
848.637	17770.63
848.96	17680.92
849.284	17703.29
849.607	17582.84
849.931	17550.53
850.254	17336.52
850.577	17388.72
850.9	17223.3
851.223	17277.77
851.546	17121.84
851.869	16990.77
852.192	17120.93
852.515	16944.44
852.838	16833.26
853.161	16917.32
853.483	16769.3
853.806	16711.68
854.129	16700.15
854.451	16649.31
854.774	16436.88
855.096	16469.2
855.419	16481.18
855.741	16396.43
856.063	16322.31
856.385	16256.1
856.708	16245.93
857.03	16141.07
857.352	16104.92
857.674	16029.44
857.996	15981.75
858.318	15933.85
858.64	15896.11
858.961	15892.49
859.283	15683.91
859.605	15704.02
859.926	15775.43
860.248	15657.02
860.57	15670.12
860.891	15633.74
861.212	15577.92
861.534	15604.14
861.855	15434.42
862.176	15468.77
862.498	15390.13
862.819	15366.4
863.14	15374.31
863.461	15377.93
863.782	15338.16
864.103	15312.85
864.424	15182.45
864.745	15292.96
865.065	15189.69
865.386	15176.13
865.707	15099.97
866.027	15160.31
866.348	15172.74
866.668	15108.11
866.989	15043.02
867.309	14976.81
867.63	15021.78
867.95	14939.3
868.27	14844.61
868.59	14889.81
868.91	14888.45
869.23	14853.87
869.55	14793.76
869.87	14870.6
870.19	14830.6
870.51	14755.57
870.83	14812.29
871.15	14600.1
871.469	14581.79
871.789	14581.11
872.109	14624.28
872.428	14466.31
872.748	14569.36
873.067	14568.46
873.386	14480.55
873.706	14495.24
874.025	14415.02
874.344	14423.6
874.663	14455.02
874.982	14400.1
875.301	14367.11
875.62	14372.76
875.939	14283.95
876.258	14175.93
876.577	14194.01
876.896	14247.79
877.214	14160.11
877.533	14225.64
877.852	14247.56
878.17	14157.17
878.489	14089.6
878.807	14129.83
879.125	14020.9
879.444	14019.09
879.762	14078.08
880.08	14063.84
880.398	13929.61
880.716	14013.9
881.034	13947.23
881.352	13894.58
881.67	13923.96
881.988	13932.54
882.306	13843.96
882.624	13812.32
882.941	13740.91
883.259	13700.68
883.577	13629.05
883.894	13609.84
884.212	13682.61
884.529	13516.28
884.846	13480.8
885.164	13493.91
885.481	13432.22
885.798	13427.92
886.115	13322.16
886.432	13237.42
886.75	13266.57
887.067	13346.34
887.383	13253.24
887.7	13273.58
888.017	13225.67
888.334	13248.49
888.651	13089.18
888.967	13125.56
889.284	13035.84
889.6	13001.49
889.917	13006.92
890.233	13009.18
890.55	12868.84
890.866	12927.82
891.182	12834.72
891.498	12746.81
891.815	12727.83
892.131	12704.33
892.447	12720.37
892.763	12560.38
893.079	12576.65
893.395	12551.34
893.71	12567.61
894.026	12448.06
894.342	12413.49
894.657	12418.68
894.973	12388.63
895.289	12329.2
895.604	12352.92
895.92	12220.27
896.235	12260.04
896.55	12182.98
896.865	12129.88
897.181	12080.84
897.496	12052.59
897.811	12090.33
898.126	12021.18
898.441	11991.8
898.756	11912.03
899.071	11838.81
899.386	11846.95
899.7	11693.28
900.015	11685.14
900.33	11635.65
900.644	11619.38
900.959	11640.85
901.273	11623
901.588	11504.81
901.902	11416.23
902.216	11500.29
902.531	11327.19
902.845	11386.85
903.159	11260.52
903.473	11236.57
903.787	11173.75
904.101	11107.53
904.415	11092.17
904.729	11044.71
905.042	10976.24
905.356	10948.44
905.67	10984.6
905.984	10988.21
906.297	10929.91
906.611	10822.12
906.924	10794.09
907.237	10742.34
907.551	10635.23
907.864	10651.73
908.177	10660.31
908.491	10525.4
908.804	10564.04
909.117	10448.12
909.43	10412.64
909.743	10322.24
910.056	10367.21
910.368	10300.32
910.681	10250.61
910.994	10229.36
911.307	10218.06
911.619	10075.7
911.932	10135.35
912.244	10027.11
912.557	9998.64
912.869	10020.56
913.181	9935.36
913.494	9969.94
913.806	9838.41
914.118	9877.51
914.43	9764.29
914.742	9796.61
915.054	9714.58
915.366	9628.93
915.678	9646.55
915.99	9503.06
916.302	9579.44
916.613	9545.31
916.925	9514.58
917.236	9423.06
917.548	9396.84
917.859	9427.8
918.171	9287.69
918.482	9242.95
918.794	9204.98
919.105	9168.15
919.416	9093.12
919.727	9153.46
920.038	9075.27
920.349	8966.57
920.66	8981.26
920.971	8945.56
921.282	8901.26
921.593	8863.98
921.903	8742.4
922.214	8771.78
922.525	8743.08
922.835	8698.78
923.146	8626.69
923.456	8615.62
923.767	8637.54
924.077	8546.47
924.387	8556.64
924.697	8489.07
925.008	8447.72
925.318	8402.52
925.628	8399.13
925.938	8392.58
926.248	8222.64
926.558	8232.35
926.867	8274.61
927.177	8172.69
927.487	8143.32
927.796	8101.28
928.106	8095.18
928.416	7965.92
928.725	8008.41
929.034	8021.51
929.344	7993.49
929.653	7936.54
929.962	7849.99
930.271	7801.63
930.581	7800.05
930.89	7748.53
931.199	7728.19
931.508	7756.66
931.817	7684.35
932.125	7638.92
932.434	7578.36
932.743	7540.39
933.051	7545.37
933.36	7529.1
933.669	7480.74
933.977	7431.7
934.286	7386.73
934.594	7359.38
934.902	7278.93
935.21	7287.52
935.519	7241.87
935.827	7262.89
936.135	7251.59
936.443	7209.56
936.751	7156
937.059	7071.93
937.367	7090.69
937.674	7076.9
937.982	6991.48
938.29	7032.39
938.597	6968.66
938.905	6951.26
939.213	6934.54
939.52	6896.12
939.827	6893.18
940.135	6818.15
940.442	6727.76
940.749	6716.69
941.056	6674.43
941.363	6638.95
941.67	6652.28
941.977	6615
942.284	6570.48
942.591	6586.07
942.898	6530.03
943.205	6539.07
943.511	6525.96
943.818	6482.12
944.125	6352.18
944.431	6415.9
944.738	6391.5
945.044	6315.12
945.35	6278.73
945.657	6270.37
945.963	6250.71
946.269	6211.84
946.575	6290.94
946.881	6159.87
947.187	6151.28
947.493	6087.1
947.799	6061.11
948.105	6103.82
948.41	6028.8
948.716	5985.41
949.022	5940.21
949.327	5927.56
949.633	5902.47
949.938	5895.47
950.244	5884.85
950.549	5835.58
950.854	5799.2
951.16	5796.49
951.465	5711.97
951.77	5712.19
952.075	5687.11
952.38	5720.33
952.685	5686.21
952.99	5614.57
953.294	5630.16
953.599	5547.23
953.904	5542.26
954.209	5478.98
954.513	5480.11
954.818	5456.38
955.122	5485.76
955.426	5448.02
955.731	5394.01
956.035	5353.79
956.339	5355.37
956.643	5348.81
956.948	5288.93
957.252	5322.15
957.556	5297.29
957.86	5284.41
958.163	5221.59
958.467	5254.13
958.771	5241.7
959.075	5132.1
959.378	5140.68
959.682	5131.19
959.985	5101.82
960.289	5055.26
960.592	5067.24
960.896	4988.37
961.199	4980.69
961.502	5005.77
961.805	4962.84
962.108	4965.1
962.411	4851.65
962.714	4923.97
963.017	4871.54
963.32	4854.36
963.623	4803.52
963.926	4830.18
964.228	4772.11
964.531	4760.36
964.833	4740.69
965.136	4768.72
965.438	4742.05
965.741	4662.73
966.043	4712.9
966.345	4705.89
966.648	4643.3
966.95	4570.53
967.252	4552.22
967.554	4561.94
967.856	4562.85
968.158	4516.29
968.46	4509.29
968.761	4468.16
969.063	4486.46
969.365	4434.94
969.666	4406.92
969.968	4430.87
970.269	4360.14
970.571	4356.98
970.872	4350.87
971.174	4314.94
971.475	4254.15
971.776	4275.62
972.077	4253.93
972.378	4262.97
972.679	4212.35
972.98	4185.91
973.281	4188.17
973.582	4141.61
973.883	4138
974.183	4155.63
974.484	4125.8
974.785	4131.9
975.085	4072.69
975.386	4069.07
975.686	3986.59
975.986	4011.67
976.287	3990.88
976.587	3945.01
976.887	3956.53
977.187	3947.95
977.487	3912.92
977.787	3898.46
978.087	3892.36
978.387	3873.82
978.687	3886.25
978.987	3837.22
979.286	3821.62
979.586	3825.46
979.885	3791.12
980.185	3730.55
980.484	3748.4
980.784	3686.94
981.083	3687.84
981.382	3698.46
981.682	3693.94
981.981	3656.43
982.28	3671.34
982.579	3625.92
982.878	3660.72
983.177	3606.94
983.475	3619.14
983.774	3582.08
984.073	3569.88
984.372	3525.36
984.67	3504.79
984.969	3497.79
985.267	3502.08
985.566	3469.99
985.864	3458.92
986.162	3478.35
986.461	3483.1
986.759	3386.61
987.057	3341.86
987.355	3355.42
987.653	3366.72
987.951	3396.55
988.249	3338.25
988.547	3307.96
988.844	3301.41
989.142	3257.34
989.44	3269.55
989.737	3219.83
990.035	3250.79
990.332	3164.01
990.63	3202.43
990.927	3204.46
991.224	3174.41
991.521	3146.61
991.819	3119.49
992.116	3123.79
992.413	3142.77
992.71	3111.81
993.006	3058.7
993.303	3084.47
993.6	3085.37
993.897	3036.78
994.193	3004.92
994.49	2967.86
994.787	2973.74
995.083	2992.27
995.379	2963.11
995.676	2926.73
995.972	2897.35
996.268	2893.51
996.565	2894.42
996.861	2898.48
997.157	2842.44
997.453	2863.68
997.749	2874.75
998.044	2807.64
998.34	2791.59
998.636	2809.67
998.932	2764.7
999.227	2778.49
999.523	2792.05
999.818	2737.36
1000.114	2730.35
1000.409	2702.78
1000.704	2692.16
1001	2701.2
1001.295	2650.35
1001.59	2705.72
1001.885	2638.6
1002.18	2648.77
1002.475	2594.54
1002.77	2646.51
1003.065	2561.32
1003.359	2585.72
1003.654	2521.32
1003.949	2520.41
1004.243	2522.45
1004.538	2514.99
1004.832	2492.17
1005.127	2488.78
1005.421	2465.27
1005.715	2450.81
1006.009	2433.18
1006.304	2390.93
1006.598	2417.14
1006.892	2418.04
1007.186	2351.83
1007.48	2381.89
1007.773	2370.81
1008.067	2356.8
1008.361	2309.12
1008.655	2274.77
1008.948	2311.15
1009.242	2271.61
1009.535	2278.84
1009.829	2248.1
1010.122	2246.07
1010.415	2207.88
1010.708	2222.57
1011.001	2198.61
1011.295	2184.83
1011.588	2206.52
1011.881	2168.33
1012.173	2143.7
1012.466	2123.59
1012.759	2102.57
1013.052	2090.82
1013.344	2089.92
1013.637	2088.56
1013.93	2078.84
1014.222	2042.01
1014.514	2072.97
1014.807	2062.12
1015.099	2011.27
1015.391	1995.23
1015.683	1980.77
1015.976	2005.63
1016.268	1986.42
1016.56	1958.39
1016.851	1936.02
1017.143	1957.49
1017.435	1904.38
1017.727	1930.6
1018.018	1903.26
1018.31	1912.97
1018.602	1884.5
1018.893	1841.34
1019.185	1851.28
1019.476	1849.7
1019.767	1818.74
1020.058	1787.78
1020.35	1798.4
1020.641	1783.26
1020.932	1792.52
1021.223	1770.6
1021.514	1776.48
1021.804	1712.75
1022.095	1740.32
1022.386	1712.53
1022.677	1708.01
1022.967	1678.18
1023.258	1676.14
1023.548	1650.38
1023.839	1644.73
1024.129	1668.91
1024.419	1630.95
1024.709	1629.59
1025	1600.21
1025.29	1608.8
1025.58	1567.44
1025.87	1576.26
1026.16	1592.98
1026.449	1590.04
1026.739	1549.82
1027.029	1535.36
1027.319	1495.13
1027.608	1520.44
1027.898	1494
1028.187	1472.98
1028.477	1506.66
1028.766	1471.18
1029.055	1456.71
1029.344	1467.56
1029.634	1442.7
1029.923	1427.34
1030.212	1415.36
1030.501	1401.35
1030.79	1415.81
1031.078	1398.86
1031.367	1416.71
1031.656	1377.85
1031.945	1391.18
1032.233	1355.25
1032.522	1365.19
1032.81	1338.98
1033.099	1331.07
1033.387	1341.01
1033.675	1318.19
1033.963	1310.95
1034.251	1316.6
1034.54	1274.35
1034.828	1272.76
1035.116	1256.94
1035.403	1255.36
1035.691	1247.45
1035.979	1224.18
1036.267	1236.38
1036.554	1226.66
1036.842	1194.57
1037.129	1199.09
1037.417	1192.77
1037.704	1187.57
1037.992	1188.02
1038.279	1164.97
1038.566	1169.04
1038.853	1169.04
1039.14	1169.04
