Data from plate_ceramic_FLMS001491_053.txt Node
Date: Tue Feb 07 11:16:58 GMT 2017
User: dcchb
Spectrometer: FLMS00149
Trigger mode: 0
Integration Time (sec): 2.000000E-2
Scans to average: 10
Electric dark correction enabled: true
Nonlinearity correction enabled: false
Boxcar width: 0
XAxis mode: Wavelengths
Number of Pixels in Spectrum: 2048
>>>>>Begin Spectral Data<<<<<
341.393	-13.04
341.776	-13.04
342.16	-13.04
342.543	-55.3
342.927	-42.87
343.31	-70.89
343.693	-73.6
344.077	-44.45
344.46	-60.04
344.843	-54.17
345.226	-25.01
345.61	-50.78
345.993	-29.08
346.376	-12.36
346.759	12.73
347.142	38.49
347.525	52.05
347.908	65.83
348.291	70.58
348.674	73.29
349.057	107.41
349.44	108.77
349.823	152.83
350.206	160.07
350.588	204.81
350.971	247.52
351.354	254.3
351.737	258.59
352.119	262.44
352.502	285.94
352.884	301.08
353.267	308.31
353.65	314.64
354.032	317.12
354.414	330.68
354.797	299.72
355.179	330.68
355.562	334.3
355.944	357.8
356.326	376.33
356.709	370.23
357.091	363.45
357.473	352.15
357.855	364.58
358.238	367.07
358.62	356.45
359.002	361.42
359.384	369.55
359.766	367.29
360.148	366.16
360.53	362.55
360.912	371.13
361.294	377.01
361.676	332.94
362.057	357.8
362.439	364.13
362.821	354.64
363.203	387.86
363.584	374.3
363.966	377.91
364.348	361.87
364.729	343.56
365.111	344.69
365.493	361.42
365.874	350.12
366.256	351.93
366.637	371.59
367.019	351.93
367.4	370.23
367.781	376.33
368.163	345.37
368.544	361.42
368.925	345.15
369.306	370.46
369.688	352.6
370.069	364.58
370.45	366.39
370.831	379.5
371.212	391.47
371.593	351.93
371.974	372.26
372.355	376.33
372.736	398.93
373.117	368.42
373.498	378.14
373.879	375.2
374.26	374.52
374.641	393.28
375.021	372.72
375.402	390.12
375.783	393.96
376.163	426.5
376.544	411.59
376.925	384.92
377.305	422.66
377.686	394.86
378.066	412.94
378.447	405.48
378.827	410.46
379.208	409.33
379.588	404.81
379.968	419.04
380.349	421.3
380.729	450
381.109	422.21
381.489	414.3
381.87	440.29
382.25	433.28
382.63	414.75
383.01	412.49
383.39	461.75
383.77	447.74
384.15	439.61
384.53	459.27
384.91	478.02
385.29	446.16
385.67	466.73
386.049	456.1
386.429	466.5
386.809	452.49
387.189	468.98
387.568	473.73
387.948	479.38
388.328	488.65
388.707	488.42
389.087	494.97
389.466	522.54
389.846	484.8
390.225	487.52
390.605	515.09
390.984	526.61
391.363	525.93
391.743	528.87
392.122	541.53
392.501	535.2
392.881	561.64
393.26	548.3
393.639	547.63
394.018	544.46
394.397	571.58
394.776	551.92
395.155	547.17
395.534	579.72
395.913	589.43
396.292	583.33
396.671	601.86
397.05	601.86
397.429	619.04
397.808	617.46
398.186	626.49
398.565	624.91
398.944	626.72
399.323	636.21
399.701	637.79
400.08	656.1
400.458	627.85
400.837	650.22
401.215	649.32
401.594	664.91
401.972	650.22
402.351	658.58
402.729	676.89
403.107	682.31
403.486	700.62
403.864	696.55
404.242	687.96
404.62	724.12
404.999	702.88
405.377	730.67
405.755	734.97
406.133	739.26
406.511	767.28
406.889	769.77
407.267	775.87
407.645	775.42
408.023	801.63
408.401	788.3
408.779	831.91
409.156	836.88
409.534	854.74
409.912	833.04
410.29	864.23
410.667	860.39
411.045	879.82
411.422	875.53
411.8	888.63
412.178	894.28
412.555	919.59
412.933	923.44
413.31	949.65
413.687	953.49
414.065	969.08
414.442	961.63
414.819	973.6
415.197	998.91
415.574	1014.73
415.951	1011.12
416.328	1040.72
416.705	1029.42
417.082	1026.48
417.46	1050.44
417.837	1065.35
418.214	1069.2
418.591	1087.73
418.967	1108.52
419.344	1094.51
419.721	1110.55
420.098	1131.11
420.475	1151.23
420.852	1131.57
421.228	1172.92
421.605	1151.9
421.982	1212.69
422.358	1194.16
422.735	1206.59
423.111	1235.07
423.488	1239.81
423.864	1253.15
424.241	1269.19
424.617	1295.18
424.994	1268.96
425.37	1301.28
425.746	1318.23
426.123	1331.34
426.499	1319.58
426.875	1360.71
427.251	1385.57
427.627	1393.48
428.003	1417.66
428.379	1426.02
428.756	1448.85
429.132	1475.96
429.507	1485.46
429.883	1497.21
430.259	1524.78
430.635	1547.15
431.011	1547.15
431.387	1583.08
431.763	1596.86
432.138	1620.82
432.514	1633.25
432.89	1664.43
433.265	1696.75
433.641	1741.04
434.016	1725.22
434.392	1736.07
434.767	1797.31
435.143	1790.76
435.518	1791.66
435.894	1863.3
436.269	1860.36
436.644	1868.72
437.02	1894.94
437.395	1901.04
437.77	1944.65
438.145	1953.47
438.52	1957.08
438.895	1997.98
439.271	1991.66
439.646	2073.69
440.021	2070.98
440.395	2048.83
440.77	2062.39
441.145	2110.07
441.52	2138.32
441.895	2114.14
442.27	2167.47
442.645	2133.8
443.019	2193.69
443.394	2172.67
443.769	2177.64
444.143	2195.27
444.518	2220.13
444.892	2263.29
445.267	2268.49
445.641	2303.74
446.016	2294.25
446.39	2327.92
446.764	2304.19
447.139	2334.47
447.513	2376.28
447.887	2416.73
448.262	2395.71
448.636	2425.54
449.01	2422.61
449.384	2447.24
449.758	2513.9
450.132	2511.87
450.506	2493.11
450.88	2579.89
451.254	2584.86
451.628	2595.93
452.002	2623.73
452.376	2627.57
452.75	2681.13
453.123	2681.81
453.497	2736.27
453.871	2727.23
454.244	2812.88
454.618	2830.05
454.992	2865.53
455.365	2871.86
455.739	2926.55
456.112	2963.16
456.486	3005.42
456.859	3050.84
457.232	3104.17
457.606	3113.66
457.979	3134.68
458.352	3200.21
458.725	3254.45
459.099	3241.12
459.472	3301.45
459.845	3331.73
460.218	3388.46
460.591	3384.61
460.964	3438.85
461.337	3499.87
461.71	3537.38
462.083	3590.48
462.456	3610.82
462.829	3632.74
463.201	3679.97
463.574	3715.91
463.947	3799.97
464.32	3874.77
464.692	3920.19
465.065	3963.36
465.438	3964.71
465.81	4058.95
466.183	4101.88
466.555	4197.25
466.928	4186.4
467.3	4226.63
467.672	4254.42
468.045	4364.25
468.417	4405.38
468.789	4407.64
469.161	4510.69
469.534	4587.29
469.906	4669.78
470.278	4736.44
470.65	4749.55
471.022	4803.56
471.394	4931.92
471.766	4999.49
472.138	5053.95
472.51	5147.05
472.882	5247.39
473.253	5254.4
473.625	5353.15
473.997	5512.24
474.369	5523.77
474.74	5580.71
475.112	5692.58
475.484	5779.35
475.855	5917.43
476.227	5945.9
476.598	6114.49
476.97	6110.19
477.341	6329.85
477.713	6383.86
478.084	6430.18
478.455	6600.8
478.827	6699.1
479.198	6867.23
479.569	6895.03
479.94	7052.54
480.311	7135.7
480.682	7305.19
481.053	7417.5
481.424	7574.79
481.795	7612.07
482.166	7805.06
482.537	7813.65
482.908	8103.59
483.279	8138.16
483.65	8269.46
484.021	8466.29
484.391	8607.53
484.762	8622.44
485.133	8684.81
485.503	8898.14
485.874	9068.31
486.244	9203.44
486.615	9308.07
486.985	9457.68
487.356	9609.76
487.726	9703.32
488.097	9828.06
488.467	9878.23
488.837	10115.74
489.207	10230.99
489.578	10362.51
489.948	10455.39
490.318	10673.01
490.688	10758.88
491.058	10853.8
491.428	11019.89
491.798	11131.76
492.168	11335.59
492.538	11376.72
492.908	11428.92
493.278	11681.35
493.648	11720.89
494.017	11896.03
494.387	11996.37
494.757	12092.41
495.126	12277.04
495.496	12237.04
495.866	12389.58
496.235	12542.34
496.605	12608.55
496.974	12756.57
497.344	12869.11
497.713	12961.31
498.082	13012.84
498.452	13147.75
498.821	13239.95
499.19	13366.27
499.559	13447.63
499.928	13505.25
500.298	13631.35
500.667	13824.11
501.036	13807.39
501.405	13959.93
501.774	14018.01
502.143	14118.34
502.512	14134.84
502.88	14408.28
503.249	14349.98
503.618	14512.91
503.987	14535.51
504.356	14730.53
504.724	14815.05
505.093	14754.94
505.462	14959.68
505.83	15132.1
506.199	15264.75
506.567	15431.76
506.936	15396.05
507.304	15571.64
507.672	15634.24
508.041	15787.23
508.409	15859.77
508.777	15956.26
509.145	16180.66
509.514	16161
509.882	16361.22
510.25	16338.62
510.618	16502.69
510.986	16641.21
511.354	16736.58
511.722	16922.79
512.09	17076.01
512.458	17073.52
512.826	17216.12
513.193	17309.22
513.561	17501.08
513.929	17647.29
514.297	17699.04
514.664	17890.9
515.032	18072.82
515.4	18152.81
515.767	18160.95
516.135	18427.83
516.502	18325.24
516.869	18718.9
517.237	18727.49
517.604	18795.28
517.972	19047.25
518.339	19187.59
518.706	19124.09
519.073	19309.62
519.44	19417.64
519.808	19731.76
520.175	19667.8
520.542	20016.49
520.909	20070.5
521.276	20095.36
521.643	20218.75
522.009	20477.27
522.376	20677.72
522.743	20813.31
523.11	21047.43
523.477	21097.37
523.843	21352.96
524.21	21572.61
524.577	21742.55
524.943	21882.21
525.31	21962.88
525.676	22242.65
526.043	22358.13
526.409	22399.48
526.776	22782.07
527.142	22789.3
527.508	22951.78
527.874	23074.94
528.241	23245.79
528.607	23220.7
528.973	23570.3
529.339	23742.27
529.705	23871.31
530.071	24042.38
530.437	24196.72
530.803	24348.13
531.169	24607.56
531.535	24452.54
531.901	24615.92
532.267	24731.17
532.632	24877.83
532.998	25140.2
533.364	25246.19
533.73	25378.61
534.095	25564.6
534.461	25625.61
534.826	25804.36
535.192	25875.1
535.557	26104.69
535.923	26118.71
536.288	26248.87
536.653	26426.04
537.019	26394.4
537.384	26491.8
537.749	26573.61
538.114	26830.33
538.479	26725.92
538.845	26879.82
539.21	26958.23
539.575	27091.34
539.94	27196.42
540.305	27392.57
540.67	27380.59
541.034	27428.05
541.399	27643.86
541.764	27681.15
542.129	27909.39
542.494	27916.85
542.858	27959.56
543.223	28100.12
543.587	28288.59
543.952	28235.94
544.316	28379.89
544.681	28456.27
545.045	28538.08
545.41	28632.76
545.774	28788.24
546.138	28871.4
546.503	28997.73
546.867	29079.31
547.231	29256.25
547.595	29299.41
547.959	29439.97
548.324	29460.54
548.688	29512.51
549.052	29655.56
549.416	29883.58
549.779	29823.02
550.143	29956.35
550.507	30293.06
550.871	30311.14
551.235	30321.08
551.599	30554.07
551.962	30586.16
552.326	30639.26
552.689	30790.22
553.053	30664.35
553.417	30981.18
553.78	31342.3
554.143	31251.45
554.507	31280.38
554.87	31371.9
555.234	31957.42
555.597	31590.88
555.96	31949.06
556.323	32126.68
556.686	32236.29
557.05	32400.12
557.413	32431.31
557.776	32425.43
558.139	32801.24
558.502	32822.71
558.865	32976.38
559.228	33203.27
559.59	33297.95
559.953	33272.64
560.316	33717.15
560.679	33594.89
561.041	33981.55
561.404	34123.24
561.767	34222.67
562.129	34289.34
562.492	34479.16
562.854	34678.25
563.217	34684.36
563.579	34929.32
563.941	35152.59
564.304	35311.01
564.666	35461.29
565.028	35634.39
565.39	35669.64
565.753	35896.3
566.115	36054.04
566.477	36151.44
566.839	36239.12
567.201	36460.81
567.563	36537.64
567.925	36684.53
568.287	36755.26
568.648	36876.39
569.01	37056.5
569.372	37310.5
569.734	37241.13
570.095	37505.98
570.457	37616.03
570.819	37759.08
571.18	37866.65
571.542	38013.99
571.903	38140.76
572.265	38313.87
572.626	38286.52
572.987	38407.65
573.349	38645.61
573.71	38733.29
574.071	38687.19
574.432	38884.92
574.794	39081.75
575.155	39116.33
575.516	38986.84
575.877	39212.37
576.238	39410.33
576.599	39413.5
576.96	39558.8
577.32	39484.91
577.681	39669.54
578.042	39922.41
578.403	39910.43
578.763	39876.08
579.124	39910.89
579.485	40185.45
579.845	40233.36
580.206	40128.06
580.566	40042.41
580.927	40177.32
581.287	40361.04
581.648	40254.61
582.008	40467.03
582.368	40241.5
582.728	40571.21
583.089	40324.21
583.449	40533.92
583.809	40526.46
584.169	40573.69
584.529	40501.6
584.889	40742.73
585.249	40540.47
585.609	40452.57
585.969	40646.91
586.329	40525.33
586.688	40664.31
587.048	40744.08
587.408	40610.3
587.768	40740.47
588.127	40648.72
588.487	40527.59
588.846	40842.84
589.206	40569.63
589.565	40653.24
589.925	40883.06
590.284	40744.54
590.643	41013
591.003	40910.18
591.362	40929.62
591.721	40793.12
592.08	40839.22
592.44	41039.22
592.799	41121.93
593.158	40999.44
593.517	41033.34
593.876	40990.63
594.235	40974.59
594.593	41089.84
594.952	41141.59
595.311	41078.31
595.67	41088.93
596.029	41308.81
596.387	41307.01
596.746	41488.02
597.104	41206.67
597.463	41289.38
597.822	41405.08
598.18	41283.5
598.538	41231.08
598.897	41508.58
599.255	41165.77
599.613	41796.26
599.972	41509.49
600.33	41645.76
600.688	41459.09
601.046	41756.49
601.404	41696.15
601.762	41659.77
602.12	41841.68
602.478	41864.73
602.836	41883.26
603.194	41680.1
603.552	41765.3
603.91	41636.49
604.268	41895.92
604.625	41913.54
604.983	41975.92
605.341	41811.4
605.698	42098.17
606.056	42141.34
606.413	42103.37
606.771	42264.72
607.128	42349.47
607.485	42192.63
607.843	42128.23
608.2	42305.85
608.557	42545.39
608.914	42327.77
609.272	42521.21
609.629	42623.13
609.986	42660.42
610.343	42472.63
610.7	42884.59
611.057	42794.65
611.414	42780.87
611.771	42728.44
612.127	43006.17
612.484	42953.52
612.841	43174.98
613.198	42849.11
613.554	43026.96
613.911	43156.45
614.267	43250.91
614.624	43135.89
614.98	43199.16
615.337	43381.3
615.693	43529.77
616.05	43251.59
616.406	43540.39
616.762	43405.26
617.118	43458.14
617.475	43494.97
617.831	43525.25
618.187	43548.98
618.543	43540.85
618.899	43839.37
619.255	43735.42
619.611	43671.01
619.967	43695.19
620.323	43919.82
620.678	43804.57
621.034	43590.56
621.39	43830.1
621.746	43720.95
622.101	44150.77
622.457	43614.74
622.812	43858.13
623.168	43976.99
623.523	43905.58
623.879	44229.87
624.234	43813.61
624.589	43958.01
624.945	43981.74
625.3	43936.32
625.655	44009.53
626.01	43987.16
626.365	44108.97
626.72	43926.15
627.075	43892.93
627.43	43876.88
627.785	43780.61
628.14	43729.54
628.495	43899.71
628.85	43756.43
629.205	43658.36
629.559	43928.41
629.914	43760.05
630.269	43677.34
630.623	43562.09
630.978	43442.32
631.332	43587.4
631.687	43690.9
632.041	43633.5
632.396	43488.19
632.75	43424.92
633.104	43440.06
633.459	43346.28
633.813	43268.99
634.167	43236.9
634.521	43140.41
634.875	43261.53
635.229	43062.67
635.583	42850.92
635.937	42915.33
636.291	42976.79
636.645	42978.15
636.999	42697.93
637.352	43035.55
637.706	42818.83
638.06	42802.56
638.413	42680.76
638.767	42622.23
639.121	42637.14
639.474	42351.5
639.828	42522.79
640.181	42576.8
640.534	42523.02
640.888	42430.14
641.241	42143.14
641.594	42177.49
641.947	42343.14
642.301	42179.53
642.654	42322.8
643.007	42161
643.36	42154.22
643.713	42025.18
644.066	42121.9
644.419	41899.76
644.771	41672.2
645.124	41367.57
645.477	41214.13
645.83	41125.99
646.182	40653.01
646.535	40558.1
646.888	40728.49
647.24	40776.17
647.593	40890.75
647.945	40824.08
648.298	40600.36
648.65	40450.08
649.002	40392.91
649.355	40563.3
649.707	40278.56
650.059	40641.94
650.411	40994.02
650.763	41065.66
651.115	41372.54
651.467	41105.66
651.819	41238.53
652.171	41177.29
652.523	41156.5
652.875	40999.22
653.227	40971.65
653.578	41319.44
653.93	41069.73
654.282	40812.78
654.633	40818.66
654.985	40886
655.337	40852.78
655.688	40822.73
656.039	40782.28
656.391	40507.48
656.742	40577.53
657.094	40512.45
657.445	40794.25
657.796	40650.3
658.147	40576.18
658.498	40479.68
658.849	40617.08
659.2	40415.28
659.551	40387.03
659.902	40582.05
660.253	40449.4
660.604	40512.68
660.955	40340.7
661.306	40483.3
661.656	40333.93
662.007	40373.92
662.358	40386.81
662.708	40245.11
663.059	40266.36
663.409	39933.03
663.76	40167.83
664.11	40113.37
664.461	40182.29
664.811	40136.42
665.161	40127.6
665.511	40133.7
665.862	40173.03
666.212	40306.81
666.562	40335.51
666.912	40146.36
667.262	40051.9
667.612	40106.81
667.962	40089.19
668.312	39918.57
668.662	40291.89
669.011	40123.76
669.361	40005.57
669.711	39986.14
670.06	39938.23
670.41	39823.88
670.76	39820.04
671.109	39933.48
671.459	39861.62
671.808	39815.75
672.157	39845.12
672.507	39615.53
672.856	39672.02
673.205	39653.49
673.554	39814.16
673.904	39520.16
674.253	39721.74
674.602	39743.66
674.951	39182.77
675.3	38863.68
675.649	39482.2
675.998	39437.23
676.346	39469.09
676.695	39595.19
677.044	39235.42
677.393	39409.88
677.741	39438.36
678.09	39222.99
678.438	39387.74
678.787	39248.08
679.135	39202.88
679.484	39126.5
679.832	39358.36
680.181	38984.13
680.529	39114.97
680.877	38874.53
681.225	38844.47
681.573	39114.52
681.922	38921.53
682.27	38765.6
682.618	38751.82
682.966	38614.42
683.314	38681.31
683.661	38497.14
684.009	38440.42
684.357	38350.25
684.705	38340.98
685.053	38328.1
685.4	38343.02
685.748	38042.23
686.095	38118.84
686.443	37908.68
686.79	37687.89
687.138	37820.55
687.485	37925.85
687.832	37722.92
688.18	37835.23
688.527	37545.52
688.874	37535.81
689.221	37357.28
689.568	37152.99
689.915	37235.93
690.262	37208.36
690.609	37192.99
690.956	37003.62
691.303	36895.15
691.65	36762.95
691.997	36719.33
692.344	36621.25
692.69	36621.25
693.037	36646.34
693.383	36437.53
693.73	36392.79
694.077	36197.99
694.423	36316.86
694.769	36233.24
695.116	36174.94
695.462	36085.68
695.808	35921.16
696.155	35865.12
696.501	35590.1
696.847	35551
697.193	35410.89
697.539	35593.49
697.885	35253.61
698.231	35166.38
698.577	35284.11
698.923	35119.6
699.269	34834.18
699.614	34615.21
699.96	34714.64
700.306	34709.89
700.651	34561.65
700.997	34536.79
701.342	34431.03
701.688	34339.96
702.033	34179.51
702.379	34189.45
702.724	34057.93
703.069	34178.83
703.415	33838.05
703.76	33745.4
704.105	33813.64
704.45	33637.15
704.795	33411.17
705.14	33321.91
705.485	33350.61
705.83	33160.78
706.175	33241.91
706.52	33061.57
706.865	33028.81
707.209	32955.14
707.554	32842.14
707.899	33002.14
708.243	32870.39
708.588	32724.41
708.932	32455.26
709.277	32535.49
709.621	32537.75
709.966	32337.98
710.31	32316.51
710.654	32238.09
710.998	32206
711.342	32163.97
711.687	32015.05
712.031	31872
712.375	31768.5
712.719	31914.71
713.063	31817.09
713.407	31864.54
713.75	31624.1
714.094	31659.13
714.438	31523.76
714.782	31605.79
715.125	31548.39
715.469	31427.94
715.812	31359.92
716.156	31021.4
716.499	31037.9
716.843	31034.73
717.186	30853.95
717.53	31016.43
717.873	31048.07
718.216	31054.62
718.559	30817.34
718.902	30747.96
719.246	30764.23
719.589	30764.46
719.932	30537.57
720.275	30483.34
720.617	30441.98
720.96	30498.93
721.303	30408.31
721.646	30461.87
721.989	30223.46
722.331	30238.6
722.674	30175.55
723.016	30207.19
723.359	30034.99
723.701	30092.39
724.044	29886.74
724.386	29922.67
724.729	29902.79
725.071	29720.65
725.413	29744.6
725.755	29738.5
726.097	29580.54
726.439	29392.29
726.782	29388.45
727.124	29544.6
727.465	29359.52
727.807	29358.17
728.149	29351.84
728.491	29340.54
728.833	29328.56
729.175	29136.03
729.516	29015.58
729.858	29064.84
730.199	29062.58
730.541	29019.42
730.882	28974
731.224	29114.79
731.565	28849.93
731.906	28856.49
732.248	28859.65
732.589	28787.34
732.93	28573.78
733.271	28591.18
733.612	28631.63
733.953	28681.12
734.294	28495.82
734.635	28493.56
734.976	28480.9
735.317	28407.01
735.658	28279.33
735.999	28409.72
736.339	28170.86
736.68	28342.6
737.021	28136.28
737.361	28000.01
737.702	28207.46
738.042	27943.06
738.383	28075.72
738.723	28066
739.063	28000.69
739.404	27937.42
739.744	27840.92
740.084	27700.36
740.424	27788.49
740.764	27746.69
741.104	27751.43
741.444	27572.9
741.784	27598.89
742.124	27658.78
742.464	27551.44
742.804	27581.94
743.143	27406.36
743.483	27390.31
743.823	27361.39
744.162	27116.65
744.502	27234.16
744.841	27122.97
745.181	27298.79
745.52	27157.1
745.86	27151.22
746.199	26991
746.538	26819.93
746.877	26969.76
747.216	26989.64
747.556	26897.67
747.895	26814.96
748.234	26677.11
748.573	26539.94
748.911	26683.21
749.25	26632.14
749.589	26454.97
749.928	26567.73
750.267	26558.24
750.605	26428.08
750.944	26425.82
751.283	26255.65
751.621	26274.18
751.96	26092.27
752.298	26061.53
752.636	26182.43
752.975	25926.85
753.313	26038.03
753.651	26118.71
753.989	25832.61
754.327	25888.43
754.666	25666.74
755.004	25796.91
755.342	25698.15
755.679	25671.94
756.017	25458.61
756.355	25533.18
756.693	25312.63
757.031	25474.2
757.368	25284.6
757.706	25276.92
758.044	25183.82
758.381	25217.03
758.719	25200.99
759.056	25082.12
759.394	25075.12
759.731	24817.27
760.068	24822.02
760.405	24703.6
760.743	24568.01
761.08	24717.16
761.417	24508.58
761.754	24416.15
762.091	24430.61
762.428	24412.54
762.765	24119.21
763.102	24222.03
763.438	24075.14
763.775	23952.89
764.112	23960.57
764.449	23912.89
764.785	23801.03
765.122	23635.16
765.458	23595.61
765.795	23462.28
766.131	23481.49
766.467	23416.86
766.804	23211.66
767.14	23265
767.476	23234.04
767.812	23089.18
768.148	23178.9
768.485	22930.09
768.821	22900.49
769.157	22822.07
769.492	22800.83
769.828	22741.85
770.164	22469.54
770.5	22489.2
770.836	22544.34
771.171	22290.56
771.507	22353.16
771.842	22079.04
772.178	22187.96
772.513	22080.85
772.849	22006.72
773.184	21806.28
773.519	21798.37
773.855	21676.56
774.19	21677.01
774.525	21640.18
774.86	21545.49
775.195	21543.91
775.53	21301.88
775.865	21243.13
776.2	21123.36
776.535	20992.29
776.87	20964.04
777.205	20917.49
777.539	20804.5
777.874	20837.71
778.209	20613.31
778.543	20653.99
778.878	20497.16
779.212	20454.45
779.547	20412.19
779.881	20423.71
780.215	20156.83
780.55	20185.98
780.884	20101.24
781.218	20121.8
781.552	20009.94
781.886	19953.44
782.22	19881.13
782.554	19842.94
782.888	19710.51
783.222	19595.04
783.556	19448.37
783.889	19477.07
784.223	19315.95
784.557	19273.46
784.89	19252.22
785.224	19186.68
785.557	19107.82
785.891	19004.77
786.224	19011.77
786.558	18948.95
786.891	18761.61
787.224	18800.71
787.557	18821.5
787.891	18605.01
788.224	18612.69
788.557	18642.52
788.89	18570.66
789.223	18537.44
789.556	18267.39
789.888	18327.05
790.221	18139.03
790.554	18111.68
790.887	18108.07
791.219	18005.7
791.552	17905.36
791.884	17826.49
792.217	17705.59
792.549	17760.51
792.882	17532.04
793.214	17603
793.546	17725.25
793.879	17425.38
794.211	17399.84
794.543	17487.52
794.875	17373.17
795.207	17427.18
795.539	17301.76
795.871	17293.18
796.203	17188.77
796.535	17000.08
796.867	17000.3
797.198	16925.73
797.53	16855.45
797.862	16741.55
798.193	16910.13
798.525	16592.18
798.856	16679.18
799.188	16455.68
799.519	16537.94
799.85	16356.93
800.182	16416.59
800.513	16437.15
800.844	16323.26
801.175	16345.4
801.506	16352.86
801.837	16120.78
802.168	16144.5
802.499	16076.71
802.83	16010.05
803.161	15900.67
803.491	16081.23
803.822	15987.22
804.153	15926.43
804.483	15781.35
804.814	15674.23
805.145	15660
805.475	15664.52
805.805	15616.16
806.136	15677.4
806.466	15679.43
806.796	15568.93
807.126	15386.33
807.457	15366.67
807.787	15440.57
808.117	15264.08
808.447	15264.08
808.777	15202.16
809.107	15129.16
809.436	15103.63
809.766	15136.4
810.096	15084.42
810.426	15039.45
810.755	14970.98
811.085	14935.5
811.414	14894.14
811.744	14742.96
812.073	14749.74
812.403	14745.22
812.732	14579.35
813.061	14736.63
813.39	14516.53
813.719	14539.8
814.049	14684.2
814.378	14570.08
814.707	14464.78
815.036	14446.24
815.365	14409.86
815.693	14277.21
816.022	14263.88
816.351	14266.14
816.68	14190.43
817.008	14186.59
817.337	14109.98
817.665	14090.1
817.994	14083.77
818.322	14065.92
818.651	13999.02
818.979	13946.6
819.307	13984.79
819.636	13908.18
819.964	13822.08
820.292	13863.21
820.62	13844.68
820.948	13778.92
821.276	13846.94
821.604	13840.38
821.932	13848.29
822.259	13874.28
822.587	13849.88
822.915	13758.35
823.243	13799.26
823.57	13777.79
823.898	13744.79
824.225	13716.77
824.553	13694.85
824.88	13686.49
825.207	13748.64
825.535	13667.73
825.862	13733.27
826.189	13698.02
826.516	13774.85
826.843	13746.6
827.17	13779.82
827.497	13779.14
827.824	13774.85
828.151	13813.72
828.478	13689.65
828.805	13764
829.131	13655.98
829.458	13541.64
829.785	13658.47
830.111	13677.45
830.438	13659.82
830.764	13708.86
831.09	13683.33
831.417	13596.78
831.743	13628.86
832.069	13554.97
832.395	13601.29
832.722	13620.5
833.048	13534.4
833.374	13600.16
833.7	13613.27
834.026	13542.09
834.351	13517.46
834.677	13558.36
835.003	13513.16
835.329	13474.97
835.654	13404.01
835.98	13399.49
836.306	13440.62
836.631	13414.18
836.956	13517.68
837.282	13431.36
837.607	13298.93
837.932	13212.6
838.258	13333.96
838.583	13274.07
838.908	13239.5
839.233	13275.65
839.558	13168.54
839.883	13032.72
840.208	13096.45
840.533	13120.4
840.858	13150.91
841.182	13039.28
841.507	13120.63
841.832	13046.73
842.156	13041.99
842.481	12956.11
842.805	12952.27
843.13	12926.51
843.454	12877.47
843.778	12872.73
844.103	12813.07
844.427	12816.68
844.751	12854.42
845.075	12750.92
845.399	12752.96
845.723	12678.61
846.047	12672.05
846.371	12547.09
846.695	12562.23
847.019	12431.61
847.343	12404.94
847.666	12287.43
847.99	12222.35
848.313	12303.7
848.637	12153.65
848.96	12222.8
849.284	12161.56
849.607	12052.18
849.931	12060.77
850.254	11891.51
850.577	11834.34
850.9	11743.04
851.223	11746.65
851.546	11663.27
851.869	11655.13
852.192	11663.27
852.515	11505.76
852.838	11568.13
853.161	11533.55
853.483	11429.6
853.806	11447.68
854.129	11388.25
854.451	11370.39
854.774	11273.45
855.096	11342.6
855.419	11210.62
855.741	11255.82
856.063	11144.18
856.385	11220.34
856.708	11110.51
857.03	11074.36
857.352	11053.57
857.674	11009.05
857.996	10923.17
858.318	10868.71
858.64	10890.86
858.961	10895.38
859.283	10814.02
859.605	10797.75
859.926	10754.82
860.248	10741.94
860.57	10751.65
860.891	10762.95
861.212	10686.12
861.534	10620.36
861.855	10614.25
862.176	10655.61
862.498	10640.02
862.819	10622.62
863.14	10568.38
863.461	10526.57
863.782	10503.98
864.103	10447.93
864.424	10435.5
864.745	10425.33
865.065	10503.07
865.386	10395.73
865.707	10399.57
866.027	10428.95
866.348	10386.24
866.668	10393.02
866.989	10348.73
867.309	10216.53
867.63	10277.31
867.95	10261.5
868.27	10207.49
868.59	10175.85
868.91	10186.92
869.23	10150.99
869.55	10113.48
869.87	10185.79
870.19	10124.1
870.51	10166.13
870.83	10076.87
871.15	10005.46
871.469	10023.54
871.789	9972.24
872.109	10035.06
872.428	9995.74
872.748	9994.38
873.067	10025.57
873.386	9911.22
873.706	9977.44
874.025	9902.41
874.344	9848.17
874.663	9806.37
874.982	9885.91
875.301	9852.01
875.62	9817.89
875.939	9774.73
876.258	9754.84
876.577	9715.52
876.896	9757.78
877.214	9655.64
877.533	9761.4
877.852	9738.12
878.17	9704.45
878.489	9719.82
878.807	9695.41
879.125	9710.78
879.444	9697.67
879.762	9587.16
880.08	9602.98
880.398	9555.07
880.716	9582.87
881.034	9511.91
881.352	9561.18
881.67	9561.18
881.988	9527.73
882.306	9477.11
882.624	9467.17
882.941	9428.07
883.259	9339.94
883.577	9360.5
883.894	9303.1
884.212	9365.02
884.529	9328.86
884.846	9271.01
885.164	9248.19
885.481	9200.73
885.798	9196.44
886.115	9152.37
886.432	9201.18
886.75	9115.54
887.067	9201.86
887.383	9149.89
887.7	9149.89
888.017	9154.41
888.334	9063.56
888.651	9090.91
888.967	9018.59
889.284	8965.71
889.6	8961.64
889.917	8886.84
890.233	8934.75
890.55	8904.24
890.866	8838.48
891.182	8811.36
891.498	8795.77
891.815	8795.32
892.131	8689.33
892.447	8665.38
892.763	8701.31
893.079	8696.79
893.395	8709.9
893.71	8610.92
894.026	8625.61
894.342	8666.74
894.657	8523.69
894.973	8603.23
895.289	8510.13
895.604	8491.82
895.92	8370.25
896.235	8409.12
896.55	8371.38
896.865	8368.89
897.181	8364.37
897.496	8417.02
897.811	8289.12
898.126	8262.45
898.441	8240.31
898.756	8202.11
899.071	8181.1
899.386	8156.01
899.7	8116.47
900.015	8085.51
900.33	8032.63
900.644	7964.15
900.959	8047.54
901.273	7944.49
901.588	7958.73
901.902	7894.33
902.216	7864.95
902.531	7819.75
902.845	7829.7
903.159	7754.67
903.473	7721.22
903.787	7660.89
904.101	7606.65
904.415	7627.89
904.729	7523.26
905.042	7619.08
905.356	7608.01
905.67	7577.05
905.984	7522.13
906.297	7540.44
906.611	7514.68
906.924	7446.88
907.237	7420.89
907.551	7381.57
907.864	7312.87
908.177	7339.09
908.491	7336.37
908.804	7325.53
909.117	7264.96
909.43	7185.64
909.743	7156.94
910.056	7138.87
910.368	7131.18
910.681	7073.1
910.994	7031.07
911.307	7030.17
911.619	6931.64
911.932	6949.27
912.244	6934.58
912.557	6928.7
912.869	6914.92
913.181	6789.27
913.494	6847.8
913.806	6814.58
914.118	6816.84
914.43	6721.48
914.742	6709.72
915.054	6684.19
915.366	6617.3
915.678	6649.39
915.99	6578.88
916.302	6613.46
916.613	6542.72
916.925	6572.55
917.236	6526.23
917.548	6518.09
917.859	6498.66
918.171	6411.88
918.482	6376.85
918.794	6399
919.105	6342.28
919.416	6307.48
919.727	6316.29
920.038	6288.04
920.349	6251.21
920.66	6199.23
920.971	6139.12
921.282	6140.7
921.593	6102.96
921.903	6086.92
922.214	6096.41
922.525	6003.3
922.835	6077.65
923.146	5977.54
923.456	5999.91
923.767	5937.09
924.077	5993.59
924.387	5900.71
924.697	5888.96
925.008	5815.06
925.318	5835.17
925.628	5827.04
925.938	5810.54
926.248	5757.89
926.558	5740.48
926.867	5710.65
927.177	5694.16
927.487	5649.64
927.796	5625.46
928.106	5579.81
928.416	5562.86
928.725	5559.47
929.034	5485.58
929.344	5501.62
929.653	5506.14
929.962	5402.41
930.271	5441.06
930.581	5444.9
930.89	5365.13
931.199	5340.27
931.508	5333.04
931.817	5348.18
932.125	5345.01
932.434	5260.95
932.743	5224.79
933.051	5198.13
933.36	5229.99
933.669	5139.37
933.977	5116.32
934.286	5138.47
934.594	5133.72
934.902	5108.64
935.21	5059.82
935.519	5070.67
935.827	5032.93
936.135	5058.24
936.443	4988.41
936.751	4935.53
937.059	4913.39
937.367	4928.08
937.674	4884.24
937.982	4904.8
938.29	4895.08
938.597	4816.89
938.905	4862.99
939.213	4788.87
939.52	4817.12
939.827	4820.73
940.135	4745.48
940.442	4763.79
940.749	4715.43
941.056	4684.47
941.363	4685.82
941.67	4644.47
941.977	4684.24
942.284	4567.86
942.591	4593.17
942.898	4599.95
943.205	4551.36
943.511	4507.75
943.818	4480.18
944.125	4450.35
944.431	4443.57
944.738	4421.2
945.044	4426.62
945.35	4387.75
945.657	4398.37
945.963	4377.36
946.269	4329.22
946.575	4307.08
946.881	4286.96
947.187	4305.04
947.493	4261.65
947.799	4247.19
948.105	4248.77
948.41	4212.39
948.716	4187.76
949.022	4177.59
949.327	4157.02
949.633	4154.31
949.938	4175.55
950.244	4155.44
950.549	4099.85
950.854	4095.56
951.16	4093.52
951.465	4073.41
951.77	4038.61
952.075	4061.66
952.38	4010.59
952.685	3982.34
952.99	3956.35
953.294	3957.48
953.599	3925.84
953.904	3908.89
954.209	3906.63
954.513	3849.01
954.818	3819.41
955.122	3838.16
955.426	3792.29
955.731	3825.73
956.035	3766.07
956.339	3755.45
956.643	3791.84
956.948	3733.98
957.252	3710.93
957.556	3683.59
957.86	3680.88
958.163	3691.05
958.467	3656.47
958.771	3656.25
959.075	3655.57
959.378	3613.76
959.682	3588.22
959.985	3618.73
960.289	3599.98
960.592	3537.6
960.896	3529.24
961.199	3494.22
961.502	3499.19
961.805	3453.31
962.108	3471.84
962.411	3446.31
962.714	3423.03
963.017	3401.34
963.32	3432.3
963.623	3440.43
963.926	3442.01
964.228	3399.98
964.531	3384.61
964.833	3392.07
965.136	3311.62
965.438	3338.51
965.741	3301.45
966.043	3263.94
966.345	3265.3
966.648	3256.71
966.95	3225.07
967.252	3229.82
967.554	3261
967.856	3225.3
968.158	3223.94
968.46	3169.7
968.761	3172.19
969.063	3160.21
969.365	3173.77
969.666	3134
969.968	3122.25
970.269	3090.38
970.571	3043.15
970.872	3063.27
971.174	3010.39
971.475	3032.99
971.776	2978.3
972.077	3014.23
972.378	2981.01
972.679	2984.62
972.98	2997.96
973.281	2962.25
973.582	2953.67
973.883	2930.39
974.183	2912.76
974.484	2888.36
974.785	2888.58
975.085	2874.57
975.386	2893.78
975.686	2821.69
975.986	2866.89
976.287	2860.33
976.587	2808.13
976.887	2799.32
977.187	2833.44
977.487	2802.48
977.787	2818.98
978.087	2744.18
978.387	2769.26
978.687	2760.9
978.987	2730.39
979.286	2697.85
979.586	2715.48
979.885	2658.31
980.185	2676.84
980.484	2651.53
980.784	2648.81
981.083	2667.35
981.382	2641.58
981.682	2607.23
981.981	2596.61
982.28	2609.27
982.579	2607.46
982.878	2587.12
983.177	2560.91
983.475	2565.65
983.774	2541.7
984.073	2539.44
984.372	2538.08
984.67	2529.04
984.969	2492.43
985.267	2500.57
985.566	2508.25
985.864	2491.76
986.162	2453.57
986.461	2432.78
986.759	2427.8
987.057	2414.24
987.355	2413.11
987.653	2370.63
987.951	2360.69
988.249	2412.21
988.547	2389.84
988.844	2374.47
989.142	2359.56
989.44	2353
989.737	2356.62
990.035	2302.16
990.332	2305.77
990.63	2319.78
990.927	2290.63
991.224	2298.32
991.521	2266.68
991.819	2251.76
992.116	2250.41
992.413	2223.51
992.71	2222.84
993.006	2209.28
993.303	2259.22
993.6	2199.33
993.897	2200.46
994.193	2160.69
994.49	2145.78
994.787	2164.99
995.083	2130.41
995.379	2133.57
995.676	2112.78
995.972	2114.14
996.268	2106
996.565	2087.7
996.861	2095.16
997.157	2033.24
997.453	2056.29
997.749	2043.18
998.044	2020.58
998.34	2038.44
998.636	2004.09
998.932	1995.72
999.227	2015.84
999.523	1978.78
999.818	1977.87
1000.114	1965.22
1000.409	1946.01
1000.704	1957.53
1001	1960.92
1001.295	1904.43
1001.59	1920.92
1001.885	1901.49
1002.18	1921.15
1002.475	1886.12
1002.77	1876.18
1003.065	1849.29
1003.359	1875.28
1003.654	1853.13
1003.949	1826.69
1004.243	1845.45
1004.538	1837.31
1004.832	1804.99
1005.127	1795.96
1005.421	1796.63
1005.715	1813.36
1006.009	1772.68
1006.304	1805.9
1006.598	1751.44
1006.892	1761.15
1007.186	1730.65
1007.48	1719.57
1007.773	1727.48
1008.067	1700.36
1008.361	1692
1008.655	1682.74
1008.948	1701.27
1009.242	1659.24
1009.535	1677.31
1009.829	1669.63
1010.122	1638.9
1010.415	1625.79
1010.708	1652
1011.001	1597.32
1011.295	1596.86
1011.588	1624.21
1011.881	1581.5
1012.173	1582.63
1012.466	1593.48
1012.759	1565.45
1013.052	1570.2
1013.344	1550.99
1013.637	1544.21
1013.93	1502.63
1014.222	1533.36
1014.514	1515.51
1014.807	1527.26
1015.099	1511.44
1015.391	1485.23
1015.683	1489.07
1015.976	1461.28
1016.268	1444.55
1016.56	1489.3
1016.851	1450.43
1017.143	1418.79
1017.435	1433.25
1017.727	1398
1018.018	1412.24
1018.31	1407.94
1018.602	1396.42
1018.893	1377.21
1019.185	1349.87
1019.476	1370.2
1019.767	1371.33
1020.058	1357.78
1020.35	1330.43
1020.641	1355.52
1020.932	1314.16
1021.223	1301.96
1021.514	1311
1021.804	1286.82
1022.095	1281.17
1022.386	1271.9
1022.677	1258.79
1022.967	1278
1023.258	1255.18
1023.548	1242.98
1023.839	1240.26
1024.129	1236.2
1024.419	1234.16
1024.709	1246.14
1025	1202.52
1025.29	1218.34
1025.58	1173.6
1025.87	1162.07
1026.16	1167.95
1026.449	1185.8
1026.739	1164.79
1027.029	1162.07
1027.319	1180.83
1027.608	1155.29
1027.898	1138.8
1028.187	1140.61
1028.477	1138.57
1028.766	1115.3
1029.055	1103.32
1029.344	1100.61
1029.634	1098.8
1029.923	1088.86
1030.212	1076.88
1030.501	1059.03
1030.79	1055.64
1031.078	1058.57
1031.367	1066.03
1031.656	1049.53
1031.945	1008.18
1032.233	1061.96
1032.522	1017.22
1032.81	1027.84
1033.099	991.23
1033.387	996.2
1033.675	1004.79
1033.963	1004.34
1034.251	981.06
1034.54	987.62
1034.828	968.18
1035.116	950.1
1035.403	979.25
1035.691	951.91
1035.979	954.85
1036.267	940.61
1036.554	939.48
1036.842	902.19
1037.129	930.89
1037.417	929.54
1037.704	890.67
1037.992	920.95
1038.279	912.81
1038.566	903.1
1038.853	903.1
1039.14	903.1
