Data from plate_porcelain_FLMS001491_025.txt Node
Date: Tue Feb 07 11:19:01 GMT 2017
User: dcchb
Spectrometer: FLMS00149
Trigger mode: 0
Integration Time (sec): 2.000000E-2
Scans to average: 10
Electric dark correction enabled: true
Nonlinearity correction enabled: false
Boxcar width: 0
XAxis mode: Wavelengths
Number of Pixels in Spectrum: 2048
>>>>>Begin Spectral Data<<<<<
341.393	-1.93
341.776	-1.93
342.16	-1.93
342.543	-19.79
342.927	-58.66
343.31	-78.32
343.693	-76.96
344.077	-86
344.46	-69.28
344.843	-44.19
345.226	-39.67
345.61	-35.61
345.993	-15.27
346.376	-1.93
346.759	2.81
347.142	35.58
347.525	46.43
347.908	58.18
348.291	94.33
348.674	87.1
349.057	122.81
349.44	122.13
349.823	146.76
350.206	158.96
350.588	228.12
350.971	248.91
351.354	258.62
351.737	264.5
352.119	272.86
352.502	285.97
352.884	314.67
353.267	327.55
353.65	323.48
354.032	353.76
354.414	337.27
354.797	348.79
355.179	368
355.562	372.74
355.944	349.92
356.326	362.8
356.709	377.49
357.091	382.46
357.473	379.75
357.855	361.45
358.238	402.35
358.62	386.08
359.002	387.66
359.384	386.08
359.766	372.29
360.148	392.63
360.53	404.16
360.912	396.25
361.294	386.53
361.676	387.89
362.057	392.86
362.439	391.28
362.821	390.37
363.203	383.82
363.584	402.57
363.966	396.25
364.348	389.92
364.729	401.67
365.111	383.59
365.493	382.91
365.874	388.11
366.256	377.72
366.637	386.08
367.019	385.17
367.4	409.13
367.781	397.83
368.163	406.19
368.544	387.89
368.925	388.34
369.306	406.87
369.688	386.76
370.069	398.73
370.45	403.03
370.831	417.04
371.212	387.66
371.593	413.65
371.974	402.35
372.355	420.43
372.736	436.02
373.117	419.52
373.498	404.61
373.879	415.68
374.26	406.87
374.641	427.66
375.021	439.41
375.402	417.49
375.783	441.44
376.163	490.03
376.544	443.25
376.925	438.05
377.305	439.86
377.686	460.88
378.066	463.59
378.447	456.58
378.827	441.9
379.208	494.55
379.588	469.92
379.968	482.57
380.349	487.54
380.729	501.1
381.109	486.64
381.489	487.77
381.87	509.46
382.25	493.19
382.63	508.11
383.01	486.41
383.39	525.51
383.77	534.1
384.15	539.52
384.53	514.89
384.91	538.84
385.29	538.62
385.67	560.99
386.049	565.96
386.429	583.36
386.809	564.15
387.189	552.4
387.568	564.38
387.948	572.97
388.328	575.45
388.707	592.4
389.087	598.05
389.466	618.39
389.846	632.17
390.225	603.7
390.605	638.95
390.984	657.26
391.363	636.01
391.743	640.76
392.122	661.1
392.501	652.06
392.881	675.56
393.26	678.73
393.639	696.58
394.018	700.65
394.397	713.3
394.776	724.15
395.155	736.35
395.534	734.99
395.913	713.3
396.292	748.33
396.671	742.23
397.05	770.25
397.429	774.99
397.808	767.08
398.186	788.78
398.565	776.8
398.944	792.17
399.323	789.46
399.701	822
400.08	803.24
400.458	816.12
400.837	847.31
401.215	845.73
401.594	839.4
401.972	861.77
402.351	873.07
402.729	887.08
403.107	890.47
403.486	919.4
403.864	886.4
404.242	916.23
404.62	928.21
404.999	938.83
405.377	930.7
405.755	944.71
406.133	980.86
406.511	987.19
406.889	984.48
407.267	992.84
407.645	1033.97
408.023	1049.11
408.401	1060.18
408.779	1072.16
409.156	1087.98
409.534	1103.8
409.912	1106.28
410.29	1137.24
410.667	1126.17
411.045	1163.68
411.422	1160.07
411.8	1207.98
412.178	1215.66
412.555	1218.6
412.933	1266.73
413.31	1291.82
413.687	1289.1
414.065	1281.65
414.442	1312.15
414.819	1320.74
415.197	1336.11
415.574	1373.4
415.951	1370.23
416.328	1382.66
416.705	1388.54
417.082	1435.32
417.46	1429.67
417.837	1462.89
418.214	1441.64
418.591	1474.41
418.967	1522.09
419.344	1498.36
419.721	1524.8
420.098	1547.63
420.475	1553.05
420.852	1573.62
421.228	1624.46
421.605	1626.04
421.982	1619.04
422.358	1638.47
422.735	1662.43
423.111	1679.6
423.488	1672.15
423.864	1700.17
424.241	1730
424.617	1762.31
424.994	1782.88
425.37	1808.86
425.746	1820.16
426.123	1842.08
426.499	1852.25
426.875	1894.74
427.251	1940.84
427.627	1976.77
428.003	1961.86
428.379	1999.82
428.756	2005.02
429.132	2033.04
429.507	2104.9
429.883	2098.8
430.259	2148.06
430.635	2158.23
431.011	2149.42
431.387	2238.68
431.763	2293.6
432.138	2294.95
432.514	2339.7
432.89	2336.08
433.265	2387.83
433.641	2399.81
434.016	2439.36
434.392	2495.4
434.767	2525.23
435.143	2547.38
435.518	2583.31
435.894	2627.15
436.269	2646.58
436.644	2678.22
437.02	2658.79
437.395	2730.2
437.77	2802.51
438.145	2775.39
438.52	2798.9
438.895	2859.23
439.271	2860.14
439.646	2916.41
440.021	2938.1
440.395	2982.62
440.77	2959.34
441.145	2950.98
441.52	3077.31
441.895	3029.62
442.27	3107.59
442.645	3089.74
443.019	3111.66
443.394	3174.25
443.769	3219.68
444.143	3195.27
444.518	3245.44
444.892	3247.92
445.267	3265.1
445.641	3311.65
446.016	3345.55
446.39	3355.94
446.764	3395.26
447.139	3397.3
447.513	3417.18
447.887	3460.35
448.262	3469.61
448.636	3471.65
449.01	3572.43
449.384	3602.49
449.758	3597.52
450.132	3615.6
450.506	3701.92
450.88	3702.37
451.254	3704.18
451.628	3795.93
452.002	3844.29
452.376	3834.57
452.75	3899.88
453.123	3915.7
453.497	4045.42
453.871	4037.28
454.244	4106.21
454.618	4142.36
454.992	4223.72
455.365	4225.75
455.739	4312.08
456.112	4379.64
456.486	4416.25
456.859	4485.18
457.232	4555.46
457.606	4510.26
457.979	4614.89
458.352	4689.92
458.725	4765.17
459.099	4826.19
459.472	4913.87
459.845	4951.83
460.218	5016.46
460.591	5082.23
460.964	5077.03
461.337	5205.84
461.71	5266.63
462.083	5375.32
462.456	5346.17
462.829	5398.6
463.201	5475.89
463.574	5508.43
463.947	5618.26
464.32	5716.11
464.692	5787.29
465.065	5822.32
465.438	5924.91
465.81	6028.41
466.183	6101.18
466.555	6167.39
466.928	6264.34
467.3	6271.35
467.672	6436.77
468.045	6524.67
468.417	6547.27
468.789	6595.86
469.161	6719.02
469.534	6833.37
469.906	6949.52
470.278	7034.94
470.65	7157.2
471.022	7220.7
471.394	7469.06
471.766	7401.03
472.138	7510.86
472.51	7676.96
472.882	7843.96
473.253	7984.75
473.625	8045.99
473.997	8250.5
474.369	8263.84
474.74	8360.78
475.112	8565.3
475.484	8744.05
475.855	8859.07
476.227	8959.86
476.598	9175.22
476.97	9307.88
477.341	9472.84
477.713	9595.33
478.084	9751.93
478.455	9936.11
478.827	10037.12
479.198	10356.44
479.569	10327.74
479.94	10678.46
480.311	10786.26
480.682	10965.23
481.053	11335.85
481.424	11393.47
481.795	11488.38
482.166	11733.8
482.537	11957.52
482.908	12208.37
483.279	12323.62
483.65	12557.73
484.021	12805.41
484.391	12952.98
484.762	13088.12
485.133	13185.29
485.503	13395.9
485.874	13740.53
486.244	13824.59
486.615	14083.8
486.985	14249.44
487.356	14589.77
487.726	14599.26
488.097	15010.33
488.467	15015.75
488.837	15387.04
489.207	15506.36
489.578	15812.34
489.948	15936.18
490.318	16153.57
490.688	16285.32
491.058	16474.24
491.428	16775.25
491.798	16925.76
492.168	17303.6
492.538	17297.5
492.908	17540.2
493.278	17779.29
493.648	17842.79
494.017	18113.75
494.387	18281.88
494.757	18371.59
495.126	18612.94
495.496	18696.1
495.866	18854.07
496.235	19066.04
496.605	19330.89
496.974	19364.11
497.344	19541.96
497.713	19765.68
498.082	19832.8
498.452	20078.22
498.821	20214.03
499.19	20359.56
499.559	20389.85
499.928	20666.67
500.298	20771.53
500.667	21032.54
501.036	20961.13
501.405	21259.43
501.774	21258.97
502.143	21472.53
502.512	21670.49
502.88	21826.87
503.249	21935.12
503.618	22156.58
503.987	22063.02
504.356	22297.14
504.724	22565.16
505.093	22545.27
505.462	22730.35
505.83	22922.43
506.199	23171.02
506.567	23445.13
506.936	23431.8
507.304	23705.92
507.672	23881.73
508.041	23885.8
508.409	24085.12
508.777	24342.96
509.145	24557.87
509.514	24453.47
509.882	24798.09
510.25	24782.05
510.618	25136.84
510.986	25205.99
511.354	25425.65
511.722	25629.93
512.09	25863.6
512.458	25881.45
512.826	26099.75
513.193	26398.5
513.561	26470.59
513.929	26725.05
514.297	26914.42
514.664	27149.89
515.032	27195.77
515.4	27542.2
515.767	27564.12
516.135	27774.96
516.502	27760.72
516.869	28287.94
517.237	28374.04
517.604	28401.16
517.972	28774.03
518.339	28891.99
518.706	29111.65
519.073	29253.34
519.44	29513
519.808	29769.26
520.175	29749.37
520.542	30277.95
520.909	30429.36
521.276	30451.05
521.643	30861.43
522.009	31069.34
522.376	31233.85
522.743	31446.5
523.11	31818.25
523.477	32039.93
523.843	32130.1
524.21	32580.71
524.577	32797.65
524.943	32837.43
525.31	33109.06
525.676	33558.09
526.043	33571.87
526.409	33870.85
526.776	34242.81
527.142	34433.32
527.508	34664.95
527.874	34937.49
528.241	35193.07
528.607	35204.37
528.973	35560.52
529.339	35595.77
529.705	36025.37
530.071	36278.02
530.437	36466.03
530.803	36605.01
531.169	36992.57
531.535	36875.29
531.901	37080.48
532.267	37237.99
532.632	37365.67
532.998	37590.07
533.364	37910.97
533.73	38040.45
534.095	38433.44
534.461	38569.25
534.826	38712.75
535.192	38800.89
535.557	39051.73
535.923	39208.11
536.288	39305.73
536.653	39355.22
537.019	39413.98
537.384	39593.18
537.749	39829.79
538.114	39730.35
538.479	40063.45
538.845	40273.16
539.21	40244.01
539.575	40595.42
539.94	40616.43
540.305	40839.25
540.67	40772.36
541.034	41110.66
541.399	41253.25
541.764	41463.42
542.129	41499.57
542.494	41524.2
542.858	41681.94
543.223	41810.98
543.587	42136.62
543.952	41984.98
544.316	42266.11
544.681	42400.11
545.045	42382.94
545.41	42746.09
545.774	42822.93
546.138	42887.56
546.503	43080.32
546.867	43160.09
547.231	43322.12
547.595	43536.13
547.959	43730.7
548.324	43838.04
548.688	43809.34
549.052	43953.07
549.416	44081.65
549.779	44083.91
550.143	44444.81
550.507	44679.38
550.871	44725.93
551.235	44851.8
551.599	45120.72
551.962	45065.35
552.326	45207.05
552.689	45520.71
553.053	45483.87
553.417	45703.76
553.78	46167.7
554.143	45944.43
554.507	46086.34
554.87	46317.98
555.234	46800.9
555.597	46525.66
555.96	46749.83
556.323	46803.61
556.686	47004.74
557.05	47296.03
557.413	47371.96
557.776	47576.02
558.139	47814.43
558.502	47778.05
558.865	47842.68
559.228	48300.52
559.59	48370.13
559.953	48402.44
560.316	48792.04
560.679	48900.96
561.041	48986.38
561.404	49266.6
561.767	49491
562.129	49492.13
562.492	49792.91
562.854	49801.95
563.217	49945.9
563.579	50044.43
563.941	50246.69
564.304	50459.79
564.666	50707.01
565.028	50748.82
565.39	50981.13
565.753	50948.36
566.115	51110.17
566.477	51352.65
566.839	51309.48
567.201	51657.72
567.563	51675.12
567.925	51901.79
568.287	51871.5
568.648	51992.18
569.01	52189.46
569.372	52292.06
569.734	52207.31
570.095	52486.85
570.457	52634.42
570.819	52721.88
571.18	52581.77
571.542	52872.15
571.903	52896.34
572.265	53022.43
572.626	53066.73
572.987	53121.87
573.349	53248.19
573.71	53429.2
574.071	53482.31
574.432	53506.49
574.794	53840.49
575.155	53778.35
575.516	53621.06
575.877	53833.49
576.238	53948.51
576.599	54012.46
576.96	54053.14
577.32	54068.51
577.681	54231.44
578.042	54249.07
578.403	54298.11
578.763	54414.26
579.124	54452.9
579.485	54460.59
579.845	54555.05
580.206	54428.5
580.566	54528.16
580.927	54503.52
581.287	54616.29
581.648	54540.59
582.008	54699
582.368	54630.75
582.728	54745.78
583.089	54695.16
583.449	54665.55
583.809	54739.22
584.169	54767.25
584.529	54687.02
584.889	54886.79
585.249	54726.57
585.609	54671.88
585.969	54907.36
586.329	54819
586.688	54846.34
587.048	54888.15
587.408	54767.25
587.768	54774.48
588.127	54738.09
588.487	54727.93
588.846	54952.33
589.206	54715.27
589.565	54821.48
589.925	54970.18
590.284	54841.14
590.643	54954.59
591.003	54957.52
591.362	54992.55
591.721	55033.91
592.08	54958.88
592.44	55080.91
592.799	55107.12
593.158	55029.61
593.517	54989.16
593.876	55089.5
594.235	55075.49
594.593	54999.78
594.952	55209.72
595.311	55036.17
595.67	55040.01
596.029	55121.36
596.387	55193.22
596.746	55216.95
597.104	55162.26
597.463	55196.39
597.822	55405.87
598.18	55247.23
598.538	55221.47
598.897	55343.73
599.255	55165.2
599.613	55501.24
599.972	55365.87
600.33	55409.94
600.688	55338.76
601.046	55521.58
601.404	55581.01
601.762	55497.85
602.12	55648.58
602.478	55647.68
602.836	55680.89
603.194	55567.9
603.552	55561.12
603.91	55512.54
604.268	55685.64
604.625	55597.51
604.983	55761.57
605.341	55543.05
605.698	55809.7
606.056	55795.69
606.413	55712.76
606.771	55882.25
607.128	55941
607.485	55839.99
607.843	55851.29
608.2	55940.1
608.557	56057.16
608.914	55958.18
609.272	56089.7
609.629	56079.08
609.986	56205.17
610.343	55996.59
610.7	56279.75
611.057	56239.3
611.414	56280.88
611.771	56282.69
612.127	56369.01
612.484	56381.22
612.841	56475.45
613.198	56361.33
613.554	56438.61
613.911	56510.93
614.267	56472.06
614.624	56527.2
614.98	56465.28
615.337	56670.02
615.693	56562.45
616.05	56591.61
616.406	56688.55
616.762	56600.87
617.118	56636.8
617.475	56578.72
617.831	56723.35
618.187	56733.07
618.543	56724.94
618.899	56902.33
619.255	56870.02
619.611	56829.11
619.967	56927.42
620.323	56911.14
620.678	56790.24
621.034	56752.96
621.39	56773.75
621.746	56811.94
622.101	57128.54
622.457	56792.28
622.812	56895.33
623.168	56950.47
623.523	56979.39
623.879	57004.02
624.234	56848.32
624.589	56939.62
624.945	56896.68
625.3	56950.92
625.655	56923.8
626.01	56979.39
626.365	56990.92
626.72	56971.26
627.075	56899.39
627.43	56891.94
627.785	56840.86
628.14	56891.71
628.495	56869.56
628.85	56835.21
629.205	56778.27
629.559	56829.34
629.914	56750.7
630.269	56804.93
630.623	56668.21
630.978	56609.68
631.332	56781.43
631.687	56862.11
632.041	56652.62
632.396	56728.1
632.75	56568.33
633.104	56656.24
633.459	56557.71
633.813	56522
634.167	56576.01
634.521	56499.4
634.875	56522
635.229	56523.36
635.583	56393.42
635.937	56321.78
636.291	56335.11
636.645	56360.42
636.999	56293.31
637.352	56331.73
637.706	56119.3
638.06	56331.73
638.413	56180.99
638.767	56130.6
639.121	56177.15
639.474	56013.99
639.828	56015.35
640.181	55959.31
640.534	55996.37
640.888	55919.08
641.241	55797.05
641.594	55820.78
641.947	55947.33
642.301	55804.73
642.654	55839.99
643.007	55803.6
643.36	55743.04
643.713	55729.26
644.066	55789.14
644.419	55686.77
644.771	55438.19
645.124	55210.62
645.477	55179.89
645.83	54957.3
646.182	54837.3
646.535	54669.85
646.888	54801.37
647.24	54586.46
647.593	54774.7
647.945	54669.85
648.298	54489.06
648.65	54382.4
649.002	54365.22
649.355	54472.56
649.707	54519.12
650.059	54586.69
650.411	54975.6
650.763	54912.55
651.115	55205.2
651.467	55027.8
651.819	55035.04
652.171	54986.9
652.523	54972.21
652.875	54964.98
653.227	54721.6
653.578	54935.6
653.93	54814.02
654.282	54693.12
654.633	54604.76
654.985	54742.16
655.337	54694.25
655.688	54663.07
656.039	54842.27
656.391	54501.72
656.742	54621.49
657.094	54695.38
657.445	54728.38
657.796	54631.43
658.147	54659
658.498	54526.8
658.849	54619
659.2	54539
659.551	54478.21
659.902	54648.61
660.253	54500.36
660.604	54554.14
660.955	54367.93
661.306	54383.3
661.656	54386.92
662.007	54400.93
662.358	54393.24
662.708	54411.32
663.059	54312.57
663.409	54158.22
663.76	54345.11
664.11	54273.93
664.461	54291.55
664.811	54296.98
665.161	54303.53
665.511	54259.46
665.862	54211.78
666.212	54309.63
666.562	54303.98
666.912	54318.44
667.262	54274.15
667.612	54206.81
667.962	54228.96
668.312	54158.22
668.662	54326.81
669.011	54138.34
669.361	54215.62
669.711	54123.42
670.06	54040.26
670.41	54037.55
670.76	53955.06
671.109	54174.04
671.459	54002.52
671.808	53905.35
672.157	54111.22
672.507	53843.43
672.856	53904.44
673.205	53993.71
673.554	53891.34
673.904	53802.3
674.253	54072.12
674.602	53829.64
674.951	53542.42
675.3	53301.75
675.649	53808.85
675.998	53751.68
676.346	53803.66
676.695	53795.97
677.044	53584.23
677.393	53769.98
677.741	53772.24
678.09	53649.76
678.438	53546.49
678.787	53685.92
679.135	53616.09
679.484	53426.94
679.832	53533.61
680.181	53342.43
680.529	53478.01
680.877	53305.36
681.225	53318.92
681.573	53506.49
681.922	53142.43
682.27	53174.52
682.618	53212.26
682.966	53080.51
683.314	53040.51
683.661	52991.25
684.009	52797.13
684.357	52792.16
684.705	52781.31
685.053	52850.91
685.4	52744.7
685.748	52578.15
686.095	52549.9
686.443	52387.87
686.79	52315.79
687.138	52382.22
687.485	52504.93
687.832	52300.87
688.18	52316.92
688.527	52131.61
688.874	52078.73
689.221	51969.81
689.568	51866.08
689.915	51806.42
690.262	51861.33
690.609	51723.94
690.956	51625.63
691.303	51598.29
691.65	51451.4
691.997	51394.68
692.344	51164.63
692.69	51351.97
693.037	51301.8
693.383	50832.89
693.73	51132.31
694.077	50810.74
694.423	50850.06
694.769	50656.85
695.116	50672.21
695.462	50674.02
695.808	50464.99
696.155	50622.95
696.501	50229.51
696.847	50292.11
697.193	50016.64
697.539	50158.1
697.885	49930.99
698.231	49843.99
698.577	49865.91
698.923	49758.79
699.269	49567.61
699.614	49361.96
699.96	49298.01
700.306	49381.85
700.651	49217.11
700.997	49122.42
701.342	49063.67
701.688	48959.94
702.033	48851.7
702.379	48767.63
702.724	48723.56
703.069	48723.11
703.415	48358.83
703.76	48465.27
704.105	48294.65
704.45	48135.1
704.795	47886.07
705.14	47729.92
705.485	47932.4
705.83	47654.44
706.175	47844.04
706.52	47633.2
706.865	47431.85
707.209	47364.28
707.554	47319.76
707.899	47370.15
708.243	47195.92
708.588	47037.28
708.932	46763.62
709.277	46835.03
709.621	47030.27
709.966	46572.43
710.31	46704.86
710.654	46264.87
710.998	46443.4
711.342	46336.28
711.687	46266.9
712.031	45887.71
712.375	45962.96
712.719	45962.96
713.063	46027.59
713.407	46000.92
713.75	45823.75
714.094	45716.86
714.438	45550.77
714.782	45522.74
715.125	45194.16
715.469	45422.41
715.812	45115.52
716.156	45003.21
716.499	44932.7
716.843	45020.16
717.186	44735.42
717.53	44940.84
717.873	44802.99
718.216	44831.69
718.559	44669.43
718.902	44575.42
719.246	44652.26
719.589	44394.64
719.932	44300.85
720.275	44203.46
720.617	44137.47
720.96	44199.16
721.303	43994.42
721.646	44060.18
721.989	43753.98
722.331	43796.01
722.674	43841.43
723.016	43797.82
723.359	43590.82
723.701	43701.77
724.044	43447.77
724.386	43182.24
724.729	43418.39
725.071	43274.44
725.413	43239.41
725.755	43179.53
726.097	42997.61
726.439	42837.16
726.782	42822.93
727.124	42972.08
727.465	42778.86
727.807	42762.82
728.149	42508.36
728.491	42556.72
728.833	42617.51
729.175	42567.12
729.516	42306.78
729.858	42257.52
730.199	42440.56
730.541	42214.13
730.882	41951.54
731.224	42271.08
731.565	41891.65
731.906	42102.95
732.248	41985.44
732.589	41761.49
732.93	41684.2
733.271	41635.39
733.612	41730.3
733.953	41621.6
734.294	41384.77
734.635	41305.91
734.976	41488.27
735.317	41182.74
735.658	41114.95
735.999	41107.94
736.339	41112.92
736.68	41248.28
737.021	40987.5
737.361	40853.94
737.702	41079.7
738.042	40982.52
738.383	40698.69
738.723	40741.17
739.063	40698.92
739.404	40770.55
739.744	40413.5
740.084	40445.59
740.424	40460.28
740.764	40331.02
741.104	40498.47
741.444	40224.35
741.784	40037.69
742.124	40240.85
742.464	40107.07
742.804	39966.96
743.143	39877.24
743.483	39923.34
743.823	39722.22
744.162	39658.72
744.502	39853.29
744.841	39587.31
745.181	39621.66
745.52	39480.19
745.86	39606.06
746.199	39524.48
746.538	39377.82
746.877	39484.71
747.216	39228.45
747.556	39203.36
747.895	39106.64
748.234	38900.54
748.573	38820.77
748.911	38857.83
749.25	38693.77
749.589	38773.77
749.928	38679.53
750.267	38654.68
750.605	38502.82
750.944	38621.23
751.283	38355.93
751.621	38493.32
751.96	38084.52
752.298	38298.98
752.636	38168.59
752.975	37927.46
753.313	37710.97
753.651	37909.61
753.989	37755.26
754.327	37757.07
754.666	37485.21
755.004	37485.21
755.342	37684.76
755.679	37382.39
756.017	37303.3
756.355	37286.12
756.693	37035.28
757.031	37195.96
757.368	36989.18
757.706	36734.27
758.044	36737.44
758.381	36755.74
758.719	36522.08
759.056	36569.53
759.394	36459.93
759.731	36173.16
760.068	36123.22
760.405	36054.52
760.743	36018.59
761.08	36008.19
761.417	35868.99
761.754	35721.19
762.091	35538.6
762.428	35499.96
762.765	35479.39
763.102	35426.74
763.438	35134.77
763.775	34966.86
764.112	34927.99
764.449	34906.53
764.785	34616.59
765.122	34503.6
765.458	34531.39
765.795	34436.48
766.131	34371.85
766.467	34240.78
766.804	34041.92
767.14	33966.66
767.476	33809.61
767.812	33653.9
768.148	33733.45
768.485	33516.73
768.821	33377.98
769.157	33279.68
769.492	33270.18
769.828	33237.87
770.164	32955.62
770.5	32814.38
770.836	32783.87
771.171	32624.78
771.507	32562.63
771.842	32293.49
772.178	32416.42
772.513	32427.72
772.849	32089.65
773.184	32111.57
773.519	31980.95
773.855	31875.87
774.19	31688.31
774.525	31482.43
774.86	31648.53
775.195	31423.68
775.53	31285.6
775.865	31112.5
776.2	31057.59
776.535	30800.19
776.87	30753.41
777.205	30671.38
777.539	30433.2
777.874	30602.01
778.209	30295.12
778.543	30246.54
778.878	30102.36
779.212	30125.41
779.547	29895.81
779.881	29911.85
780.215	29635.93
780.55	29752.76
780.884	29510.51
781.218	29398.2
781.552	29487.91
781.886	29192.55
782.22	29061.03
782.554	28930.19
782.888	28702.85
783.222	28740.59
783.556	28643.41
783.889	28485.68
784.223	28374.27
784.557	28204.33
784.89	28294.04
785.224	28053.15
785.557	27970.66
785.891	27942.42
786.224	27931.34
786.558	27729.77
786.891	27447.96
787.224	27261.53
787.557	27309.66
787.891	27326.61
788.224	27256.33
788.557	27127.97
788.89	27086.39
789.223	27148.09
789.556	26851.82
789.888	26639.4
790.221	26706.06
790.554	26421.1
790.887	26487.76
791.219	26340.42
791.552	26269.92
791.884	26202.57
792.217	26078.96
792.549	26087.32
792.882	25887.33
793.214	25677.62
793.546	25754.68
793.879	25614.34
794.211	25310.62
794.543	25487.34
794.875	25309.49
795.207	25272.43
795.539	25358.3
795.871	25306.1
796.203	25097.52
796.535	25001.7
796.867	24829.28
797.198	24797.19
797.53	24786.79
797.862	24519.23
798.193	24631.09
798.525	24443.3
798.856	24480.13
799.188	24223.64
799.519	24106.81
799.85	24029.3
800.182	24218.45
800.513	24029.75
800.844	23817.33
801.175	23992.69
801.506	23855.74
801.837	23795.86
802.168	23766.93
802.499	23724.9
802.83	23418.01
803.161	23509.31
803.491	23349.54
803.822	23332.82
804.153	23162.88
804.483	22988.19
804.814	23084.46
805.145	22937.8
805.475	23020.74
805.805	22783.68
806.136	22868.42
806.466	22773.51
806.796	22752.72
807.126	22450.36
807.457	22584.14
807.787	22606.28
808.117	22349.34
808.447	22292.17
808.777	22340.75
809.107	22281.77
809.436	22242.9
809.766	22082.91
810.096	22048.78
810.426	22006.3
810.755	22062.57
811.085	21974.44
811.414	21881.33
811.744	21775.12
812.073	21715.91
812.403	21727.44
812.732	21461.23
813.061	21467.78
813.39	21485.86
813.719	21398.41
814.049	21451.96
814.378	21264.17
814.707	21298.07
815.036	21153.44
815.365	21140.56
815.693	20818.08
816.022	20976.04
816.351	20900.57
816.68	20730.85
817.008	20872.54
817.337	20645.21
817.665	20681.36
817.994	20748.03
818.322	20694.92
818.651	20435.49
818.979	20494.02
819.307	20516.17
819.636	20350.07
819.964	20231.21
820.292	20318.21
820.62	20274.14
820.948	20254.48
821.276	20261.71
821.604	20129.06
821.932	20227.36
822.259	20254.26
822.587	20303.07
822.915	20145.11
823.243	20268.72
823.57	20184.88
823.898	20118.44
824.225	20147.82
824.553	20105.78
824.88	20093.81
825.207	20229.4
825.535	20047.03
825.862	20217.87
826.189	20104.43
826.516	20185.1
826.843	20258.1
827.17	20164.31
827.497	20230.98
827.824	20169.51
828.151	20132.68
828.478	20096.29
828.805	20166.8
829.131	20052.9
829.458	20102.4
829.785	20071.44
830.111	20076.41
830.438	20072.34
830.764	20052.68
831.09	20072.34
831.417	19973.13
831.743	19970.2
832.069	20018.78
832.395	19806.81
832.722	19919.58
833.048	19835.74
833.374	19984.43
833.7	19739.92
834.026	19911.89
834.351	19866.92
834.677	19911.21
835.003	19821.95
835.329	19863.08
835.654	19768.17
835.98	19706.7
836.306	19712.8
836.631	19637.32
836.956	19667.38
837.282	19766.36
837.607	19607.49
837.932	19701.5
838.258	19584.67
838.583	19593.03
838.908	19380.61
839.233	19425.8
839.558	19389.42
839.883	19383.54
840.208	19309.42
840.533	19308.52
840.858	19322.75
841.182	19280.72
841.507	19270.1
841.832	19087.05
842.156	19030.11
842.481	19006.83
842.805	18969.32
843.13	19023.33
843.454	18921.41
843.778	18816.1
844.103	18815.88
844.427	18756.44
844.751	18788.31
845.075	18702.66
845.399	18613.85
845.723	18512.15
846.047	18560.97
846.371	18451.82
846.695	18404.81
847.019	18325.27
847.343	18219.05
847.666	18011.83
847.99	17960.98
848.313	17965.5
848.637	17831.95
848.96	17770.71
849.284	17653.19
849.607	17629.69
849.931	17641.44
850.254	17486.19
850.577	17341.56
850.9	17330.72
851.223	17318.06
851.546	17327.1
851.869	17103.6
852.192	17173.66
852.515	17089.59
852.838	16946.09
853.161	16888.47
853.483	16831.52
853.806	16778.64
854.129	16782.71
854.451	16710.17
854.774	16594.69
855.096	16589.04
855.419	16528.93
855.741	16450.74
856.063	16383.85
856.385	16257.75
856.708	16237.19
857.03	16200.35
857.352	16235.83
857.674	16142.73
857.996	16132.78
858.318	15988.38
858.64	16037.64
858.961	15907.7
859.283	15932.11
859.605	15805.11
859.926	15836.74
860.248	15776.86
860.57	15730.76
860.891	15750.42
861.212	15549.97
861.534	15609.41
861.855	15581.61
862.176	15564.66
862.498	15500.71
862.819	15507.26
863.14	15413.03
863.461	15439.24
863.782	15391.11
864.103	15408.96
864.424	15344.55
864.745	15389.07
865.065	15267.27
865.386	15184.56
865.707	15270.43
866.027	15223.65
866.348	15277.21
866.668	15155.63
866.989	15096.65
867.309	14998.8
867.63	15125.8
867.95	15060.95
868.27	14947.95
868.59	15025.01
868.91	14928.29
869.23	14935.98
869.55	14881.74
869.87	14943.21
870.19	14955.41
870.51	14839.93
870.83	14824.12
871.15	14723.33
871.469	14712.25
871.789	14698.7
872.109	14671.13
872.428	14563.33
872.748	14624.57
873.067	14601.52
873.386	14572.82
873.706	14573.28
874.025	14517.23
874.344	14404.69
874.663	14506.38
874.982	14500.51
875.301	14536.89
875.62	14406.5
875.939	14408.08
876.258	14357.91
876.577	14340.96
876.896	14294.86
877.214	14246.5
877.533	14314.52
877.852	14298.71
878.17	14203.79
878.489	14195.66
878.807	14179.39
879.125	14121.99
879.444	14126.06
879.762	14097.81
880.08	14086.06
880.398	13988.88
880.716	14059.62
881.034	14069.11
881.352	14043.57
881.67	14028.66
881.988	14049
882.306	13917.7
882.624	13788.66
882.941	13772.62
883.259	13774.65
883.577	13699.17
883.894	13798.38
884.212	13637.48
884.529	13598.61
884.846	13539.4
885.164	13595
885.481	13525.17
885.798	13504.83
886.115	13439.75
886.432	13426.19
886.75	13406.98
887.067	13408.33
887.383	13313.87
887.7	13349.13
888.017	13238.39
888.334	13273.42
888.651	13236.14
888.967	13260.99
889.284	13090.15
889.6	13065.52
889.917	13006.08
890.233	13127.66
890.55	12908.69
890.866	13043.82
891.182	12883.6
891.498	12771.97
891.815	12789.37
892.131	12819.65
892.447	12749.82
892.763	12776.49
893.079	12751.63
893.395	12791.17
893.71	12541.92
894.026	12584.85
894.342	12621.01
894.657	12499.21
894.973	12421.92
895.289	12441.58
895.604	12379.89
895.92	12243.84
896.235	12229.16
896.55	12284.75
896.865	12247.01
897.181	12189.16
897.496	12223.96
897.811	12225.54
898.126	12047.69
898.441	12022.61
898.756	12006.11
899.071	11859
899.386	11966.34
899.7	11817.87
900.015	11782.16
900.33	11674.59
900.644	11706.01
900.959	11681.15
901.273	11601.38
901.588	11588.27
901.902	11488.38
902.216	11453.81
902.531	11427.14
902.845	11502.62
903.159	11310.08
903.473	11292.68
903.787	11249.52
904.101	11146.25
904.415	11168.39
904.729	11121.84
905.042	11097.21
905.356	11093.37
905.67	11038.68
905.984	11059.92
906.297	10942.86
906.611	10943.77
906.924	10886.14
907.237	10889.98
907.551	10804.11
907.864	10765.69
908.177	10805.24
908.491	10645.47
908.804	10610.67
909.117	10535.64
909.43	10482.76
909.743	10383.78
910.056	10436.89
910.368	10362.54
910.681	10301.75
910.994	10284.35
911.307	10228.98
911.619	10118.93
911.932	10284.8
912.244	10139.04
912.557	10110.57
912.869	10062.43
913.181	10018.82
913.494	10037.8
913.806	9947.63
914.118	9885.94
914.43	9849.33
914.742	9859.95
915.054	9799.39
915.366	9791.03
915.678	9690.24
915.99	9624.48
916.302	9592.16
916.613	9503.13
916.925	9493.86
917.236	9446.63
917.548	9458.61
917.859	9427.87
918.171	9375.9
918.482	9309.01
918.794	9241.44
919.105	9255.45
919.416	9135.9
919.727	9188.11
920.038	9140.2
920.349	9051.16
920.66	9033.08
920.971	9028.56
921.282	8977.94
921.593	8906.53
921.903	8843.03
922.214	8855.91
922.525	8824.5
922.835	8779.98
923.146	8713.54
923.456	8749.7
923.767	8706.31
924.077	8727.1
924.387	8587.67
924.697	8515.13
925.008	8495.02
925.318	8433.32
925.628	8445.75
925.938	8410.95
926.248	8338.86
926.558	8358.3
926.867	8291.41
927.177	8308.35
927.487	8178.41
927.796	8146.78
928.106	8181.13
928.416	8132.77
928.725	8100.45
929.034	8036.95
929.344	8053.9
929.653	8008.7
929.962	7924.41
930.271	7869.95
930.581	7894.13
930.89	7842.15
931.199	7817.07
931.508	7777.97
931.817	7780.91
932.125	7691.87
932.434	7646.68
932.743	7646
933.051	7549.73
933.36	7562.61
933.669	7580.24
933.977	7479.45
934.286	7447.13
934.594	7476.51
934.902	7322.17
935.21	7248.27
935.519	7304.99
935.827	7291.21
936.135	7180.7
936.443	7205.79
936.751	7175.05
937.059	7148.84
937.367	7093.47
937.674	7129.4
937.982	7076.07
938.29	7009.63
938.597	7041.95
938.905	7010.08
939.213	6962.85
939.52	6954.72
939.827	6918.56
940.135	6825.68
940.442	6854.83
940.749	6781.16
941.056	6835.4
941.363	6726.48
941.67	6715.85
941.977	6679.7
942.284	6593.15
942.591	6605.35
942.898	6567.84
943.205	6571.9
943.511	6521.96
943.818	6500.49
944.125	6449.87
944.431	6400.38
944.738	6421.17
945.044	6349.54
945.35	6321.06
945.657	6280.16
945.963	6291.68
946.269	6241.74
946.575	6255.98
946.881	6235.19
947.187	6253.04
947.493	6131.92
947.799	6134.85
948.105	6099.37
948.41	6109.99
948.716	6043.56
949.022	6034.29
949.327	6023.67
949.633	5987.96
949.938	5955.65
950.244	5963.11
950.549	5850.79
950.854	5884.69
951.16	5849.44
951.465	5849.21
951.77	5829.55
952.075	5781.87
952.38	5723.79
952.685	5744.13
952.99	5624.13
953.294	5643.11
953.599	5582.32
953.904	5600.86
954.209	5559.95
954.513	5508.2
954.818	5512.72
955.122	5510.24
955.426	5457.13
955.731	5416.45
956.035	5449.9
956.339	5364.03
956.643	5398.38
956.948	5369.45
957.252	5308.66
957.556	5387.08
957.86	5282.9
958.163	5258.49
958.467	5281.32
958.771	5207.87
959.075	5195.67
959.378	5204.03
959.682	5159.29
959.985	5153.18
960.289	5109.57
960.592	5046.52
960.896	5045.84
961.199	5044.03
961.502	4999.74
961.805	4932.4
962.108	4927.43
962.411	4927.43
962.714	4930.82
963.017	4860.08
963.32	4896.69
963.623	4883.13
963.926	4865.73
964.228	4793.19
964.531	4865.28
964.833	4826.19
965.136	4747.54
965.438	4803.14
965.741	4747.54
966.043	4703.25
966.345	4742.8
966.648	4709.58
966.95	4626.42
967.252	4622.58
967.554	4610.83
967.856	4582.58
968.158	4547.1
968.46	4556.82
968.761	4478.63
969.063	4499.87
969.365	4473.88
969.666	4461.45
969.968	4450.6
970.269	4455.35
970.571	4389.36
970.872	4368.8
971.174	4319.76
971.475	4341
971.776	4286.99
972.077	4289.93
972.378	4298.29
972.679	4262.13
972.98	4246.54
973.281	4202.02
973.582	4213.32
973.883	4214.68
974.183	4151.18
974.484	4089.93
974.785	4126.54
975.085	4099.2
975.386	4101.69
975.686	4067.56
975.986	4089.26
976.287	4061.01
976.587	3971.07
976.887	4008.13
977.187	3974.46
977.487	3974.68
977.787	3936.72
978.087	3955.7
978.387	3899.21
978.687	3870.73
978.987	3856.04
979.286	3827.34
979.586	3827.34
979.885	3754.58
980.185	3788.47
980.484	3766.55
980.784	3732.2
981.083	3784.41
981.382	3788.93
981.682	3757.74
981.981	3709.83
982.28	3708.7
982.579	3681.81
982.878	3665.09
983.177	3625.99
983.475	3611.53
983.774	3616.05
984.073	3566.56
984.372	3545.77
984.67	3594.35
984.969	3542.6
985.267	3485.66
985.566	3519.78
985.864	3487.92
986.162	3502.83
986.461	3459.22
986.759	3426
987.057	3448.82
987.355	3433.91
987.653	3403.85
987.951	3370.18
988.249	3349.39
988.547	3373.57
988.844	3288.83
989.142	3326.11
989.44	3272.33
989.737	3306.68
990.035	3270.75
990.332	3285.21
990.63	3279.79
990.927	3228.26
991.224	3200.47
991.521	3195.04
991.819	3175.61
992.116	3170.64
992.413	3144.87
992.71	3124.54
993.006	3106.91
993.303	3076.63
993.6	3086.35
993.897	3077.08
994.193	3040.02
994.49	3041.37
994.787	3003.86
995.083	2987.59
995.379	2964.54
995.676	2987.36
995.972	2973.13
996.268	2927.25
996.565	2920.02
996.861	2883.86
997.157	2881.15
997.453	2893.13
997.749	2827.82
998.044	2833.7
998.34	2823.75
998.636	2834.83
998.932	2808.61
999.227	2776.98
999.523	2748.95
999.818	2767.94
1000.114	2726.58
1000.409	2758.44
1000.704	2692.46
1001	2691.33
1001.295	2645.45
1001.59	2681.61
1001.885	2647.71
1002.18	2637.54
1002.475	2624.21
1002.77	2628.5
1003.065	2607.49
1003.359	2591.44
1003.654	2579.92
1003.949	2562.52
1004.243	2541.5
1004.538	2505.8
1004.832	2522.29
1005.127	2503.31
1005.421	2458.11
1005.715	2472.12
1006.009	2456.08
1006.304	2428.06
1006.598	2436.87
1006.892	2403.65
1007.186	2397.78
1007.48	2439.81
1007.773	2387.38
1008.067	2345.8
1008.361	2313.94
1008.655	2336.99
1008.948	2327.27
1009.242	2317.55
1009.535	2280.94
1009.829	2268.74
1010.122	2264.22
1010.415	2235.75
1010.708	2255.18
1011.001	2226.03
1011.295	2212.92
1011.588	2214.5
1011.881	2178.8
1012.173	2167.73
1012.466	2178.8
1012.759	2136.77
1013.052	2136.99
1013.344	2123.43
1013.637	2098.57
1013.93	2096.99
1014.222	2094.06
1014.514	2088.63
1014.807	2068.52
1015.099	2044.11
1015.391	2039.37
1015.683	2035.75
1015.976	2003.21
1016.268	1963.66
1016.56	1968.41
1016.851	1946.71
1017.143	1936.32
1017.435	1946.94
1017.727	1947.39
1018.018	1916.88
1018.31	1907.62
1018.602	1901.07
1018.893	1875.3
1019.185	1842.31
1019.476	1829.66
1019.767	1857.45
1020.058	1821.75
1020.35	1840.28
1020.641	1823.33
1020.932	1784.01
1021.223	1768.64
1021.514	1791.01
1021.804	1765.02
1022.095	1762.54
1022.386	1734.52
1022.677	1704.69
1022.967	1739.71
1023.258	1675.08
1023.548	1689.77
1023.839	1680.73
1024.129	1653.16
1024.419	1645.25
1024.709	1655.2
1025	1624.24
1025.29	1610.45
1025.58	1610.68
1025.87	1596.89
1026.16	1579.04
1026.449	1560.96
1026.739	1553.73
1027.029	1537.46
1027.319	1506.27
1027.608	1505.37
1027.898	1523.9
1028.187	1480.74
1028.477	1510.79
1028.766	1491.59
1029.055	1467.86
1029.344	1503.56
1029.634	1441.64
1029.923	1464.02
1030.212	1440.74
1030.501	1423.11
1030.79	1431.25
1031.078	1403.23
1031.367	1378.14
1031.656	1358.71
1031.945	1368.42
1032.233	1351.7
1032.522	1353.51
1032.81	1329.78
1033.099	1341.76
1033.387	1348.76
1033.675	1321.65
1033.963	1296.79
1034.251	1298.6
1034.54	1310.57
1034.828	1268.77
1035.116	1270.8
1035.403	1248.2
1035.691	1264.25
1035.979	1244.13
1036.267	1237.35
1036.554	1238.94
1036.842	1234.87
1037.129	1226.51
1037.417	1210.46
1037.704	1198.94
1037.992	1187.19
1038.279	1192.84
1038.566	1184.47
1038.853	1184.47
1039.14	1184.47
