Data from plate_ceramic_FLMS001491_048.txt Node
Date: Tue Feb 07 11:16:50 GMT 2017
User: dcchb
Spectrometer: FLMS00149
Trigger mode: 0
Integration Time (sec): 2.000000E-2
Scans to average: 10
Electric dark correction enabled: true
Nonlinearity correction enabled: false
Boxcar width: 0
XAxis mode: Wavelengths
Number of Pixels in Spectrum: 2048
>>>>>Begin Spectral Data<<<<<
341.393	4.01
341.776	4.01
342.16	4.01
342.543	-87.96
342.927	-72.82
343.31	-72.82
343.693	-69.21
344.077	-52.71
344.46	-50.68
344.843	-68.76
345.226	-44.58
345.61	-50.9
345.993	-13.62
346.376	1.3
346.759	6.95
347.142	27.06
347.525	53.95
347.908	63.22
348.291	82.43
348.674	86.04
349.057	102.31
349.44	120.17
349.823	150.22
350.206	153.39
350.588	219.82
350.971	243.1
351.354	246.49
351.737	255.08
352.119	259.37
352.502	272.03
352.884	283.1
353.267	281.74
353.65	318.35
354.032	313.16
354.414	306.6
354.797	333.95
355.179	322.87
355.562	350.44
355.944	344.34
356.326	351.57
356.709	348.41
357.091	348.18
357.473	363.32
357.855	351.57
358.238	362.19
358.62	341.4
359.002	342.53
359.384	365.58
359.766	368.07
360.148	345.92
360.53	362.65
360.912	353.38
361.294	370.78
361.676	369.2
362.057	353.83
362.439	371.91
362.821	352.25
363.203	343.44
363.584	369.65
363.966	356.32
364.348	362.65
364.729	345.7
365.111	352.93
365.493	372.82
365.874	326.94
366.256	355.41
366.637	354.06
367.019	351.57
367.4	359.03
367.781	354.74
368.163	349.09
368.544	344.34
368.925	343.44
369.306	363.32
369.688	333.72
370.069	352.48
370.45	356.32
370.831	343.44
371.212	342.99
371.593	357.22
371.974	333.72
372.355	347.28
372.736	362.87
373.117	382.98
373.498	343.89
373.879	376.43
374.26	364.68
374.641	357.45
375.021	366.04
375.402	356.09
375.783	369.43
376.163	393.61
376.544	385.47
376.925	378.69
377.305	392.48
377.686	388.18
378.066	369.65
378.447	401.06
378.827	380.95
379.208	407.16
379.588	392.02
379.968	398.8
380.349	399.93
380.729	408.52
381.109	387.28
381.489	402.87
381.87	406.71
382.25	401.51
382.63	431.12
383.01	419.59
383.39	423.66
383.77	421.4
384.15	431.57
384.53	417.79
384.91	430.89
385.29	435.64
385.67	428.41
386.049	417.79
386.429	450.78
386.809	436.77
387.189	453.49
387.568	436.32
387.948	455.3
388.328	439.71
388.707	462.08
389.087	452.36
389.466	477.67
389.846	479.48
390.225	465.24
390.605	465.92
390.984	492.13
391.363	515.64
391.743	485.13
392.122	498.01
392.501	528.29
392.881	513.15
393.26	504.56
393.639	510.44
394.018	514.73
394.397	519.03
394.776	550.89
395.155	517.44
395.534	527.61
395.913	528.97
396.292	536.65
396.671	548.63
397.05	570.1
397.429	542.3
397.808	529.87
398.186	555.41
398.565	571.23
398.944	557.44
399.323	580.04
399.701	585.24
400.08	585.24
400.458	600.38
400.837	608.06
401.215	630.21
401.594	614.16
401.972	590.21
402.351	620.49
402.729	629.76
403.107	637.67
403.486	647.84
403.864	647.84
404.242	627.72
404.62	655.29
404.999	654.39
405.377	659.59
405.755	657.55
406.133	675.18
406.511	665.69
406.889	705.69
407.267	716.53
407.645	688.29
408.023	718.34
408.401	725.8
408.779	744.56
409.156	758.79
409.534	752.47
409.912	754.27
410.29	774.61
410.667	788.17
411.045	816.19
411.422	796.08
411.8	809.87
412.178	817.78
412.555	838.57
412.933	838.79
413.31	869.07
413.687	848.73
414.065	885.57
414.442	875.17
414.819	880.37
415.197	912.01
415.574	904.78
415.951	932.12
416.328	919.92
416.705	931.9
417.082	912.46
417.46	931.9
417.837	952.46
418.214	973.48
418.591	968.73
418.967	967.38
419.344	1008.5
419.721	999.69
420.098	997.21
420.475	1015.06
420.852	1020.71
421.228	1027.94
421.605	1056.19
421.982	1072.01
422.358	1066.58
422.735	1086.02
423.111	1097.09
423.488	1088.73
423.864	1125.34
424.241	1120.82
424.617	1145.22
424.994	1143.19
425.37	1156.52
425.746	1187.26
426.123	1193.58
426.499	1184.32
426.875	1198.1
427.251	1228.61
427.627	1262.28
428.003	1275.39
428.379	1264.77
428.756	1282.62
429.132	1286.69
429.507	1304.99
429.883	1344.31
430.259	1344.09
430.635	1362.17
431.011	1373.69
431.387	1407.36
431.763	1447.36
432.138	1417.99
432.514	1454.82
432.89	1477.19
433.265	1488.72
433.641	1525.1
434.016	1494.37
434.392	1538.89
434.767	1586.79
435.143	1591.54
435.518	1585.44
435.894	1604.42
436.269	1649.84
436.644	1643.97
437.02	1682.39
437.395	1647.13
437.77	1683.74
438.145	1718.32
438.52	1746.56
438.895	1732.78
439.271	1737.07
439.646	1805.32
440.021	1779.78
440.395	1768.71
440.77	1784.08
441.145	1838.77
441.52	1838.99
441.895	1845.77
442.27	1887.58
442.645	1874.02
443.019	1902.27
443.394	1914.7
443.769	1945.88
444.143	1898.42
444.518	1956.28
444.892	1938.88
445.267	1963.28
445.641	1993.34
446.016	1991.98
446.39	1998.99
446.764	2031.3
447.139	2019.78
447.513	2045.09
447.887	2089.61
448.262	2084.63
448.636	2092.77
449.01	2128.02
449.384	2153.11
449.758	2147.68
450.132	2179.77
450.506	2167.8
450.88	2180.23
451.254	2187.68
451.628	2220.68
452.002	2275.36
452.376	2295.48
452.75	2303.39
453.123	2323.5
453.497	2371.86
453.871	2386.1
454.244	2412.54
454.618	2419.99
454.992	2479.65
455.365	2480.33
455.739	2543.83
456.112	2547.9
456.486	2582.02
456.859	2583.38
457.232	2670.83
457.606	2671.51
457.979	2662.92
458.352	2755.58
458.725	2728.91
459.099	2799.64
459.472	2855.91
459.845	2828.57
460.218	2905.18
460.591	2971.62
460.964	2941.11
461.337	2986.53
461.71	3064.95
462.083	3068.56
462.456	3097.49
462.829	3148.79
463.201	3186.53
463.574	3222.68
463.947	3235.79
464.32	3303.59
464.692	3376.8
465.065	3362.57
465.438	3453.64
465.81	3472.62
466.183	3509.68
466.555	3612.05
466.928	3609.57
467.3	3597.14
467.672	3677.81
468.045	3759.84
468.417	3774.31
468.789	3811.59
469.161	3819.28
469.534	3891.59
469.906	3965.94
470.278	4047.97
470.65	4031.48
471.022	4164.81
471.394	4247.74
471.766	4277.12
472.138	4296.78
472.51	4390.56
472.882	4480.96
473.253	4487.51
473.625	4587.17
473.997	4725.47
474.369	4693.15
474.74	4784.9
475.112	4857.89
475.484	4892.02
475.855	5020.38
476.227	5092.24
476.598	5175.63
476.97	5254.72
477.341	5366.58
477.713	5398.67
478.084	5517.99
478.455	5651.55
478.827	5711.88
479.198	5853.57
479.569	5872.56
479.94	6074.36
480.311	6091.31
480.682	6243.62
481.053	6370.17
481.424	6446.1
481.795	6535.14
482.166	6619.2
482.537	6730.39
482.908	6781.69
483.279	6877.73
483.65	7061.23
484.021	7157.04
484.391	7296.47
484.762	7335.34
485.133	7403.14
485.503	7532.17
485.874	7697.37
486.244	7822.56
486.615	7980.3
486.985	8008.09
487.356	8153.4
487.726	8261.2
488.097	8441.08
488.467	8376.9
488.837	8589.77
489.207	8720.62
489.578	8829.77
489.948	8930.1
490.318	8995.19
490.688	9076.99
491.058	9217.78
491.428	9385.23
491.798	9394.27
492.168	9610.09
492.538	9637.66
492.908	9774.6
493.278	9897.54
493.648	9942.28
494.017	10154.93
494.387	10149.06
494.757	10261.37
495.126	10383.85
495.496	10451.42
495.866	10469.72
496.235	10672.43
496.605	10734.58
496.974	10780
497.344	10895.02
497.713	11042.59
498.082	11030.39
498.452	11147.67
498.821	11283.04
499.19	11290.95
499.559	11405.52
499.928	11572.29
500.298	11581.79
500.667	11705.85
501.036	11661.11
501.405	11797.83
501.774	11804.6
502.143	11990.14
502.512	11983.81
502.88	12280.98
503.249	12160.98
503.618	12265.61
503.987	12354.19
504.356	12474.64
504.724	12490.01
505.093	12567.3
505.462	12682.55
505.83	12748.99
506.199	12854.97
506.567	12985.14
506.936	13085.48
507.304	13181.52
507.672	13219.48
508.041	13354.85
508.409	13426.03
508.777	13565.69
509.145	13694.95
509.514	13732.69
509.882	13760.94
510.25	13801.84
510.618	14034.83
510.986	14065.79
511.354	14239.34
511.722	14305.56
512.09	14364.54
512.458	14411.54
512.826	14568.15
513.193	14624.64
513.561	14800.23
513.929	14901.92
514.297	15006.55
514.664	15105.99
515.032	15199.54
515.4	15336.49
515.767	15409.71
516.135	15587.1
516.502	15449.25
516.869	15822.13
517.237	15840.88
517.604	15905.06
517.972	16063.48
518.339	16161.33
518.706	16132.85
519.073	16263.92
519.44	16511.37
519.808	16564.25
520.175	16676.34
520.542	16976.45
520.909	16979.61
521.276	17099.61
521.643	17166.27
522.009	17345.48
522.376	17502.08
522.743	17590.89
523.11	17675.86
523.477	18010.09
523.843	18034.05
524.21	18170.77
524.577	18347.94
524.943	18436.52
525.31	18416.63
525.676	18754.7
526.043	18861.59
526.409	18956.51
526.776	19213.22
527.142	19300.68
527.508	19399.66
527.874	19534.8
528.241	19608.02
528.607	19694.11
528.973	19902.92
529.339	19875.13
529.705	20163.26
530.071	20320.77
530.437	20493.87
530.803	20638.95
531.169	20638.72
531.535	20665.84
531.901	20758.72
532.267	20962.33
532.632	21024.48
532.998	21211.59
533.364	21222.21
533.73	21343.34
534.095	21540.17
534.461	21455.2
534.826	21631.92
535.192	21755.76
535.557	21951.46
535.923	21927.5
536.288	22102.64
536.653	22259.25
537.019	22168.85
537.384	22328.17
537.749	22447.49
538.114	22498.79
538.479	22583.98
538.845	22602.29
539.21	22598.22
539.575	22807.48
539.94	22881.38
540.305	23117.3
540.67	22974.25
541.034	23239.33
541.399	23190.07
541.764	23358.43
542.129	23402.04
542.494	23439.33
542.858	23625.09
543.223	23566.1
543.587	23734.23
543.952	23786.66
544.316	23888.58
544.681	23892.87
545.045	24098.07
545.41	24210.61
545.774	24173.77
546.138	24224.17
546.503	24353.88
546.867	24436.36
547.231	24646.75
547.595	24712.51
547.959	24795.68
548.324	24844.49
548.688	24870.02
549.052	24982.11
549.416	25131.71
549.779	25028.66
550.143	25277.24
550.507	25407.19
550.871	25514.53
551.235	25543.45
551.599	25670.23
551.962	25716.33
552.326	25832.94
552.689	25952.48
553.053	26013.5
553.417	25998.81
553.78	26401.51
554.143	26306.37
554.507	26481.73
554.87	26554.5
555.234	26944.09
555.597	26669.07
555.96	26856.86
556.323	27028.84
556.686	27015.73
557.05	27326.68
557.413	27309.96
557.776	27450.3
558.139	27646.9
558.502	27690.06
558.865	27655.04
559.228	27821.81
559.59	27920.34
559.953	28059.77
560.316	28292.08
560.679	28398.29
561.041	28579.08
561.404	28782.24
561.767	28829.02
562.129	28810.71
562.492	29217.25
562.854	29166.18
563.217	29292.96
563.579	29382.67
563.941	29625.15
564.304	29644.81
564.666	29983.56
565.028	29960.74
565.39	30069.44
565.753	30215.65
566.115	30294.29
566.477	30369.09
566.839	30489.76
567.201	30715.75
567.563	30855.63
567.925	31035.96
568.287	31015.17
568.648	31133.14
569.01	31510.75
569.372	31578.32
569.734	31417.65
570.095	31737.87
570.457	31847.24
570.819	31859.22
571.18	31828.94
571.542	31993.45
571.903	32283.84
572.265	32298.76
572.626	32350.73
572.987	32399.54
573.349	32570.39
573.71	32700.55
574.071	32657.39
574.432	32848.57
574.794	33150.71
575.155	33095.57
575.516	32988
575.877	33153.87
576.238	33225.74
576.599	33364.26
576.96	33319.75
577.32	33375.11
577.681	33659.62
578.042	33673.63
578.403	33590.7
578.763	33719.51
579.124	33794.31
579.485	33922.22
579.845	34039.27
580.206	33990.46
580.566	33929.9
580.927	34017.35
581.287	34094.64
581.648	33972.61
582.008	34142.77
582.368	34057.81
582.728	34159.27
583.089	34018.03
583.449	34095.77
583.809	34296.22
584.169	34288.53
584.529	34227.29
584.889	34518.58
585.249	34293.28
585.609	34157.24
585.969	34349.55
586.329	34253.73
586.688	34386.38
587.048	34294.86
587.408	34398.59
587.768	34331.7
588.127	34364.46
588.487	34370.79
588.846	34616.89
589.206	34413.95
589.565	34413.5
589.925	34509.77
590.284	34392.71
590.643	34498.7
591.003	34502.31
591.362	34604.01
591.721	34612.14
592.08	34606.49
592.44	34870.21
592.799	34780.27
593.158	34547.28
593.517	34637.45
593.876	34630.22
594.235	34611.91
594.593	34688.97
594.952	34754.96
595.311	34661.63
595.67	34759.93
596.029	34905.01
596.387	34897.11
596.746	35097.55
597.104	34852.36
597.463	34879.03
597.822	35041.06
598.18	34834.51
598.538	34916.09
598.897	35149.3
599.255	34914.73
599.613	35274.72
599.972	35178.23
600.33	35317.21
600.688	35144.1
601.046	35231.79
601.404	35608.72
601.762	35291.44
602.12	35492.12
602.478	35389.97
602.836	35467.26
603.194	35375.96
603.552	35444.21
603.91	35318.11
604.268	35552.68
604.625	35375.96
604.983	35601.72
605.341	35438.79
605.698	35500.7
606.056	35601.72
606.413	35535.51
606.771	35815.05
607.128	35797.87
607.485	35716.97
607.843	35756.97
608.2	35797.87
608.557	35998.77
608.914	35870.64
609.272	35988.38
609.629	35984.76
609.986	36142.5
610.343	36020.01
610.7	36275.83
611.057	36286.22
611.414	36274.92
611.771	36266.79
612.127	36302.94
612.484	36325.99
612.841	36414.81
613.198	36302.49
613.554	36351.3
613.911	36461.13
614.267	36488.25
614.624	36534.58
614.98	36537.06
615.337	36709.49
615.693	36823.38
616.05	36724.18
616.406	36814.79
616.762	36752.42
617.118	36868.13
617.475	36828.58
617.831	36938.18
618.187	36877.84
618.543	36860.67
618.899	37224.95
619.255	36963.27
619.611	36955.13
619.967	36939.76
620.323	37209.59
620.678	36939.54
621.034	37087.56
621.39	37035.58
621.746	37058.86
622.101	37277.38
622.457	37001.91
622.812	36999.42
623.168	37246.87
623.523	37287.32
623.879	37363.25
624.234	37012.08
624.589	37212.75
624.945	37222.47
625.3	37162.81
625.655	37257.49
626.01	37190.83
626.365	37295.91
626.72	37114.9
627.075	37140.44
627.43	37154.45
627.785	37064.51
628.14	37041
628.495	37151.06
628.85	37201.9
629.205	37041.91
629.559	37011.17
629.914	36962.36
630.269	36988.8
630.623	36827.45
630.978	36782.71
631.332	36914.23
631.687	37073.09
632.041	36705.87
632.396	36908.13
632.75	36789.03
633.104	36765.08
633.459	36447.12
633.813	36527.57
634.167	36498.87
634.521	36541.36
634.875	36514.69
635.229	36524.41
635.583	36441.92
635.937	36275.37
636.291	36300.91
636.645	36206.22
636.999	36218.88
637.352	36292.77
637.706	36076.96
638.06	36206.9
638.413	36085.77
638.767	36013.01
639.121	36036.74
639.474	35791.09
639.828	35911.09
640.181	35981.37
640.534	35898.66
640.888	35803.97
641.241	35755.16
641.594	35634.71
641.947	35667.48
642.301	35650.08
642.654	35668.61
643.007	35681.27
643.36	35511.1
643.713	35475.62
644.066	35600.36
644.419	35336.42
644.771	35148.17
645.124	34689.88
645.477	34721.06
645.83	34474.07
646.182	34249.66
646.535	34281.08
646.888	34298.25
647.24	34188.2
647.593	34397.68
647.945	34288.31
648.298	34061.19
648.65	34148.42
649.002	33902.33
649.355	33992.5
649.707	33948.66
650.059	34056.9
650.411	34535.31
650.763	34503.9
651.115	34750.67
651.467	34640.16
651.819	34723.78
652.171	34610.56
652.523	34526.04
652.875	34567.17
653.227	34342.09
653.578	34582.54
653.93	34572.37
654.282	34325.37
654.633	34270.45
654.985	34330.11
655.337	34474.29
655.688	34354.52
656.039	34448.53
656.391	34102.1
656.742	34231.59
657.094	34277.69
657.445	34422.77
657.796	34202.66
658.147	34205.82
658.498	34134.64
658.849	34208.99
659.2	34138.48
659.551	34042.89
659.902	34204.92
660.253	33924.02
660.604	34097.13
660.955	33906.62
661.306	33997.02
661.656	33908.66
662.007	33914.31
662.358	33764.48
662.708	33897.13
663.059	33802.44
663.409	33639.51
663.76	33937.81
664.11	33962.89
664.461	33947.3
664.811	33788.21
665.161	33820.52
665.511	33625.05
665.862	33794.99
666.212	33659.62
666.562	33776
666.912	33663.01
667.262	33635.44
667.612	33628.21
667.962	33609.46
668.312	33543.24
668.662	33579.4
669.011	33692.62
669.361	33451.95
669.711	33556.8
670.06	33457.59
670.41	33393.42
670.76	33397.94
671.109	33400.65
671.459	33445.62
671.808	33357.48
672.157	33443.81
672.507	33244.04
672.856	33130.6
673.205	33188.9
673.554	33332.63
673.904	33026.19
674.253	33391.38
674.602	33171.73
674.951	32773.32
675.3	32672.76
675.649	33315.68
675.998	33037.94
676.346	33244.49
676.695	33213.76
677.044	32977.83
677.393	32974.22
677.741	33147.32
678.09	32954.56
678.438	32889.47
678.787	32930.38
679.135	32943.71
679.484	32611.52
679.832	32878.18
680.181	32653.77
680.529	32633.44
680.877	32526.77
681.225	32617.62
681.573	32825.97
681.922	32503.72
682.27	32485.19
682.618	32435.7
682.966	32310.28
683.314	32444.29
683.661	32246.78
684.009	32136.27
684.357	32094.01
684.705	32134.47
685.053	32067.12
685.4	31954.13
685.748	31882.5
686.095	31876.62
686.443	31769.28
686.79	31791.42
687.138	31710.52
687.485	31749.17
687.832	31544.42
688.18	31701.71
688.527	31550.3
688.874	31412.22
689.221	31348.05
689.568	31155.96
689.915	31262.17
690.262	31207.71
690.609	30971.11
690.956	30925.68
691.303	30948.96
691.65	30829.19
691.997	30839.58
692.344	30756.65
692.69	30695.41
693.037	30708.29
693.383	30384.68
693.73	30585.81
694.077	30376.77
694.423	30426.71
694.769	30396.43
695.116	30259.94
695.462	30198.92
695.808	30047.52
696.155	30016.1
696.501	29783.57
696.847	29813.85
697.193	29471.71
697.539	29653.18
697.885	29406.18
698.231	29282.11
698.577	29410.24
698.923	29313.97
699.269	29172.74
699.614	28970.03
699.96	28871.05
700.306	29007.32
700.651	28769.36
700.997	28663.37
701.342	28728.68
701.688	28582.69
702.033	28567.55
702.379	28441.91
702.724	28479.65
703.069	28512.41
703.415	28188.35
703.76	28147.9
704.105	28181.12
704.45	28108.81
704.795	27997.4
705.14	27963.95
705.485	27908.14
705.83	27711.31
706.175	27794.01
706.52	27716.05
706.865	27681.7
707.209	27502.27
707.554	27482.38
707.899	27558.31
708.243	27280.36
708.588	27293.24
708.932	27176.18
709.277	27127.59
709.621	27119.91
709.966	26953.81
710.31	27151.55
710.654	26810.31
710.998	26893.47
711.342	26890.31
711.687	26732.57
712.031	26577.1
712.375	26448.74
712.719	26538.91
713.063	26556.76
713.407	26545.91
713.75	26392.7
714.094	26403.09
714.438	26338.69
714.782	26350.89
715.125	26190.22
715.469	26364.67
715.812	26081.29
716.156	26091.46
716.499	26009.2
716.843	25899.6
717.186	25819.38
717.53	26013.5
717.873	25999.03
718.216	25820.06
718.559	25706.84
718.902	25543.45
719.246	25623.9
719.589	25412.83
719.932	25468.88
720.275	25430.24
720.617	25333.74
720.96	25309.33
721.303	25364.25
721.646	25350.01
721.989	25075.89
722.331	25175.33
722.674	25129.9
723.016	25018.49
723.359	24893.75
723.701	25003.58
724.044	24840.42
724.386	24676.13
724.729	24887.2
725.071	24725.17
725.413	24829.35
725.755	24807.88
726.097	24642.91
726.439	24508.45
726.782	24490.82
727.124	24567.43
727.465	24513.88
727.807	24525.4
728.149	24368.34
728.491	24321.79
728.833	24457.83
729.175	24251.28
729.516	24256.93
729.858	24154.11
730.199	24191.17
730.541	24097.16
730.882	24036.15
731.224	24232.53
731.565	23933.55
731.906	24022.81
732.248	24011.52
732.589	23862.59
732.93	23742.82
733.271	23836.6
733.612	23817.85
733.953	23873.89
734.294	23593
734.635	23620.79
734.976	23626.67
735.317	23532.43
735.658	23548.7
735.999	23613.56
736.339	23415.37
736.68	23486.11
737.021	23349.39
737.361	23294.02
737.702	23476.61
738.042	23278.88
738.383	23295.83
738.723	23231.42
739.063	23128.15
739.404	23322.27
739.744	23186.9
740.084	22987.59
740.424	23102.61
740.764	23065.78
741.104	23094.25
741.444	22961.37
741.784	22882.73
742.124	22880.02
742.464	22945.1
742.804	22891.32
743.143	22743.75
743.483	22844.77
743.823	22636.86
744.162	22686.8
744.502	22597.32
744.841	22507.83
745.181	22562.74
745.52	22511.67
745.86	22466.02
746.199	22503.76
746.538	22430.54
746.877	22372.69
747.216	22398.45
747.556	22407.26
747.895	22296.08
748.234	22175.86
748.573	22197.55
748.911	22179.7
749.25	22097.67
749.589	22035.3
749.928	22009.08
750.267	22014.96
750.605	21927.5
750.944	21835.08
751.283	21807.96
751.621	21849.54
751.96	21733.61
752.298	21643.67
752.636	21800.05
752.975	21602.99
753.313	21556.89
753.651	21666.27
753.989	21533.39
754.327	21453.84
754.666	21364.58
755.004	21460.62
755.342	21371.58
755.679	21236
756.017	21075.32
756.355	21271.25
756.693	21065.83
757.031	21031.48
757.368	20936.34
757.706	20942.9
758.044	20803.01
758.381	20951.48
758.719	20740.87
759.056	20804.82
759.394	20685.5
759.731	20492.51
760.068	20473.08
760.405	20426.75
760.743	20356.24
761.08	20440.76
761.417	20269.47
761.754	20259.98
762.091	20215.01
762.428	20128.45
762.765	19913.32
763.102	20010.26
763.438	19874.68
763.775	19826.09
764.112	19851.17
764.449	19811.17
764.785	19746.54
765.122	19515.14
765.458	19575.93
765.795	19511.29
766.131	19492.09
766.467	19332.99
766.804	19275.37
767.14	19088.71
767.476	19120.57
767.812	19139.78
768.148	19093.23
768.485	19031.76
768.821	18900.46
769.157	18978.65
769.492	18760.58
769.828	18712.45
770.164	18563.3
770.5	18543.41
770.836	18639.45
771.171	18416.41
771.507	18397.88
771.842	18292.8
772.178	18212.57
772.513	18182.52
772.849	18127.83
773.184	18088.06
773.519	18062.07
773.855	17953.82
774.19	17915.18
774.525	17803.77
774.86	17760.15
775.195	17706.82
775.53	17649.42
775.865	17528.52
776.2	17446.72
776.535	17340.96
776.87	17477.68
777.205	17327.17
777.539	17142.77
777.874	17215.76
778.209	17074.75
778.543	17024.81
778.878	17039.27
779.212	17015.77
779.547	16780.75
779.881	16862.32
780.215	16703.01
780.55	16728.54
780.884	16576.23
781.218	16519.51
781.552	16513.86
781.886	16403.13
782.22	16337.14
782.554	16236.13
782.888	16178.05
783.222	16101.22
783.556	16062.35
783.889	15996.81
784.223	15972.86
784.557	15861.22
784.89	15951.16
785.224	15805.18
785.557	15725.63
785.891	15657.16
786.224	15685.41
786.558	15652.41
786.891	15454.23
787.224	15365.42
787.557	15343.04
787.891	15411.97
788.224	15314.57
788.557	15301.91
788.89	15182.14
789.223	15281.12
789.556	15016.5
789.888	15063.5
790.221	14990.51
790.554	14782.15
790.887	14863.28
791.219	14836.84
791.552	14728.37
791.884	14689.5
792.217	14637.98
792.549	14589.62
792.882	14543.06
793.214	14415.84
793.546	14482.05
793.879	14375.38
794.211	14321.15
794.543	14317.08
794.875	14249.06
795.207	14342.62
795.539	14157.76
795.871	14206.35
796.203	14113.92
796.535	13963.64
796.867	13876.64
797.198	13919.13
797.53	13941.05
797.862	13823.31
798.193	13808.17
798.525	13739.02
798.856	13744.44
799.188	13616.31
799.519	13621.96
799.85	13491.34
800.182	13508.97
800.513	13530.89
800.844	13352.59
801.175	13407.27
801.506	13420.61
801.837	13331.34
802.168	13294.51
802.499	13210.9
802.83	13139.94
803.161	13186.49
803.491	13085.48
803.822	13118.24
804.153	13007.96
804.483	12891.58
804.814	12938.59
805.145	12894.29
805.475	12838.93
805.805	12748.76
806.136	12800.51
806.466	12706.05
806.796	12736.56
807.126	12618.14
807.457	12578.6
807.787	12595.32
808.117	12534.53
808.447	12483.91
808.777	12502.44
809.107	12426.06
809.436	12413.18
809.766	12369.56
810.096	12349.45
810.426	12346.06
810.755	12295.67
811.085	12266.51
811.414	12245.27
811.744	12072.17
812.073	12152.84
812.403	12123.92
812.732	12073.75
813.061	12087.99
813.39	11964.83
813.719	11913.98
814.049	11952.4
814.378	11989.68
814.707	11898.61
815.036	11893.42
815.365	11819.07
815.693	11647.09
816.022	11725.74
816.351	11626.08
816.68	11634.44
817.008	11685.29
817.337	11545.85
817.665	11563.03
817.994	11617.72
818.322	11516.93
818.651	11473.77
818.979	11445.07
819.307	11477.16
819.636	11391.73
819.964	11303.15
820.292	11372.75
820.62	11397.84
820.948	11318.97
821.276	11394.67
821.604	11319.65
821.932	11330.04
822.259	11334.79
822.587	11267.9
822.915	11298.63
823.243	11275.35
823.57	11193.1
823.898	11327.33
824.225	11265.64
824.553	11214.56
824.88	11194.45
825.207	11163.04
825.535	11193.1
825.862	11227.22
826.189	11210.72
826.516	11245.52
826.843	11257.5
827.17	11164.17
827.497	11252.3
827.824	11220.44
828.151	11206.2
828.478	11174.79
828.805	11240.1
829.131	11176.6
829.458	11142.25
829.785	11094.34
830.111	11158.07
830.438	11236.71
830.764	11178.41
831.09	11187.9
831.417	11124.17
831.743	11148.58
832.069	11092.76
832.395	11046.21
832.722	11091.63
833.048	11033.33
833.374	11150.38
833.7	10988.36
834.026	11038.52
834.351	11072.42
834.677	11079.65
835.003	11017.73
835.329	11034
835.654	10990.39
835.98	10948.81
836.306	10914.01
836.631	10954.01
836.956	10978.64
837.282	10930.05
837.607	10937.28
837.932	10897.51
838.258	10939.54
838.583	10851.86
838.908	10816.16
839.233	10793.33
839.558	10783.39
839.883	10812.54
840.208	10682.6
840.533	10760.34
840.858	10666.33
841.182	10704.29
841.507	10653.67
841.832	10570.29
842.156	10656.61
842.481	10618.65
842.805	10652.77
843.13	10635.6
843.454	10552.89
843.778	10488.26
844.103	10502.04
844.427	10430.4
844.751	10464.08
845.075	10391.08
845.399	10374.59
845.723	10265.66
846.047	10263.85
846.371	10173.24
846.695	10225.21
847.019	10078.1
847.343	10149.96
847.666	10029.74
847.99	10040.81
848.313	9987.25
848.637	9925.33
848.96	9941.38
849.284	9869.97
849.607	9817.54
849.931	9807.6
850.254	9698.22
850.577	9670.65
850.9	9562.86
851.223	9610.09
851.546	9652.35
851.869	9549.52
852.192	9560.82
852.515	9486.25
852.838	9410.09
853.161	9405.8
853.483	9355.63
853.806	9419.81
854.129	9287.16
854.451	9305.01
854.774	9207.39
855.096	9168.52
855.419	9231.11
855.741	9167.84
856.063	9125.35
856.385	9064.56
856.708	9041.06
857.03	9049.88
857.352	8964
857.674	8972.14
857.996	8960.16
858.318	8872.7
858.64	8915.42
858.961	8818.24
859.283	8751.58
859.605	8808.3
859.926	8820.95
860.248	8818.92
860.57	8742.54
860.891	8747.28
861.212	8657.34
861.534	8628.64
861.855	8705.03
862.176	8649.66
862.498	8668.64
862.819	8609.43
863.14	8558.36
863.461	8633.39
863.782	8578.7
864.103	8568.98
864.424	8554.29
864.745	8512.26
865.065	8463.45
865.386	8395.43
865.707	8430.46
866.027	8483.56
866.348	8444.24
866.668	8384.58
866.989	8381.42
867.309	8335.32
867.63	8316.56
867.95	8299.61
868.27	8291.25
868.59	8344.81
868.91	8305.71
869.23	8315.88
869.55	8194.98
869.87	8294.87
870.19	8262.55
870.51	8240.4
870.83	8279.73
871.15	8189.11
871.469	8196.11
871.789	8187.52
872.109	8121.31
872.428	8197.69
872.748	8149.11
873.067	8148.43
873.386	8122.44
873.706	8100.97
874.025	8024.37
874.344	7913.18
874.663	8041.31
874.982	8035.66
875.301	7978.94
875.62	7977.59
875.939	8001.99
876.258	7958.6
876.577	7939.17
876.896	7945.72
877.214	7933.52
877.533	7934.65
877.852	7939.17
878.17	7911.6
878.489	7876.57
878.807	7898.27
879.125	7876.12
879.444	7860.98
879.762	7784.37
880.08	7844.03
880.398	7752.06
880.716	7808.55
881.034	7742.11
881.352	7748.21
881.67	7705.28
881.988	7680.87
882.306	7729.01
882.624	7685.84
882.941	7647.2
883.259	7655.11
883.577	7530.37
883.894	7592.51
884.212	7513.87
884.529	7585.96
884.846	7537.37
885.164	7493.53
885.481	7422.57
885.798	7513.42
886.115	7432.06
886.432	7397.72
886.75	7395.68
887.067	7365.85
887.383	7348.22
887.7	7380.54
888.017	7312.75
888.334	7341.22
888.651	7340.32
888.967	7288.79
889.284	7233.65
889.6	7235.23
889.917	7219.64
890.233	7214.67
890.55	7174.22
890.866	7168.34
891.182	7078.18
891.498	7145.74
891.815	7133.54
892.131	7038.18
892.447	7052.87
892.763	7039.53
893.079	7009.7
893.395	6992.53
893.71	6918.18
894.026	6949.82
894.342	6934.45
894.657	6844.06
894.973	6865.75
895.289	6898.75
895.604	6891.74
895.92	6796.83
896.235	6793.66
896.55	6768.13
896.865	6758.86
897.181	6684.29
897.496	6743.5
897.811	6734.23
898.126	6649.94
898.441	6664.4
898.756	6606.1
899.071	6581.01
899.386	6530.85
899.7	6597.96
900.015	6517.51
900.33	6468.93
900.644	6440.9
900.959	6434.58
901.273	6378.08
901.588	6433.45
901.902	6390.06
902.216	6373.34
902.531	6370.85
902.845	6356.39
903.159	6273.68
903.473	6288.14
903.787	6197.07
904.101	6154.13
904.415	6159.33
904.729	6181.48
905.042	6154.13
905.356	6178.09
905.67	6146.67
905.984	6058.99
906.297	6077.52
906.611	6078.65
906.924	6069.39
907.237	6096.73
907.551	5991.2
907.864	5923.86
908.177	5913.23
908.491	5948.71
908.804	5882.73
909.117	5856.96
909.43	5779.68
909.743	5747.59
910.056	5748.04
910.368	5801.6
910.681	5782.39
910.994	5707.36
911.307	5668.27
911.619	5633.69
911.932	5645.67
912.244	5589.85
912.557	5650.19
912.869	5601.6
913.181	5578.55
913.494	5528.39
913.806	5480.7
914.118	5443.42
914.43	5429.86
914.742	5463.53
915.054	5406.58
915.366	5374.04
915.678	5347.37
915.99	5326.36
916.302	5357.77
916.613	5287.71
916.925	5278.22
917.236	5279.8
917.548	5245.68
917.859	5231.67
918.171	5198.22
918.482	5179.69
918.794	5168.62
919.105	5112.13
919.416	5063.77
919.727	5110.32
920.038	5062.18
920.349	5019.02
920.66	4966.59
920.971	4995.29
921.282	5018.79
921.593	4961.85
921.903	4978.8
922.214	4904.22
922.525	4894.96
922.835	4823.32
923.146	4852.92
923.456	4843.43
923.767	4811.12
924.077	4795.3
924.387	4791.91
924.697	4754.85
925.008	4731.12
925.318	4707.84
925.628	4756.88
925.938	4704.45
926.248	4640.27
926.558	4644.57
926.867	4583.78
927.177	4604.79
927.487	4635.53
927.796	4562.76
928.106	4540.39
928.416	4506.04
928.725	4558.92
929.034	4469.88
929.344	4477.79
929.653	4439.37
929.962	4432.82
930.271	4412.71
930.581	4425.82
930.89	4374.07
931.199	4321.41
931.508	4347.4
931.817	4357.12
932.125	4264.01
932.434	4290.45
932.743	4241.87
933.051	4216.78
933.36	4215.43
933.669	4215.65
933.977	4201.41
934.286	4154.18
934.594	4160.74
934.902	4113.28
935.21	4116.45
935.519	4091.59
935.827	4090.46
936.135	4065.83
936.443	4023.34
936.751	4021.76
937.059	4004.58
937.367	3980.63
937.674	3952.61
937.982	3977.92
938.29	3958.71
938.597	3939.27
938.905	3927.3
939.213	3896.56
939.52	3908.77
939.827	3847.07
940.135	3887.52
940.442	3803.91
940.749	3846.85
941.056	3802.33
941.363	3800.07
941.67	3807.08
941.977	3716.46
942.284	3754.65
942.591	3714.65
942.898	3701.32
943.205	3676.91
943.511	3655.67
943.818	3693.86
944.125	3650.92
944.431	3610.02
944.738	3617.7
945.044	3584.03
945.35	3600.75
945.657	3561.21
945.963	3532.51
946.269	3524.37
946.575	3527.99
946.881	3496.12
947.187	3513.3
947.493	3478.27
947.799	3428.55
948.105	3438.05
948.41	3416.58
948.716	3475.78
949.022	3377.03
949.327	3402.34
949.633	3365.73
949.938	3365.96
950.244	3389.68
950.549	3352.62
950.854	3297.03
951.16	3297.26
951.465	3242.8
951.77	3292.74
952.075	3263.59
952.38	3258.84
952.685	3250.71
952.99	3208.67
953.294	3250.93
953.599	3186.3
953.904	3158.73
954.209	3154.89
954.513	3118.51
954.818	3143.82
955.122	3112.63
955.426	3069.24
955.731	3095.23
956.035	3026.76
956.339	3072.86
956.643	3077.38
956.948	3046.87
957.252	2984.05
957.556	3008.23
957.86	3001.45
958.163	2979.98
958.467	2983.37
958.771	2963.03
959.075	2986.98
959.378	2943.37
959.682	2921.9
959.985	2909.7
960.289	2901.56
960.592	2867.66
960.896	2874.44
961.199	2848.46
961.502	2840.32
961.805	2823.37
962.108	2833.99
962.411	2805.29
962.714	2768.91
963.017	2771.62
963.32	2777.27
963.623	2744.73
963.926	2758.74
964.228	2771.17
964.531	2715.8
964.833	2690.72
965.136	2696.14
965.438	2718.29
965.741	2664.73
966.043	2682.36
966.345	2651.4
966.648	2625.64
966.95	2632.64
967.252	2630.61
967.554	2592.64
967.856	2589.25
968.158	2581.57
968.46	2592.19
968.761	2594.45
969.063	2562.14
969.365	2544.06
969.666	2547
969.968	2501.8
970.269	2524.17
970.571	2493.89
970.872	2509.71
971.174	2481.46
971.475	2455.92
971.776	2475.58
972.077	2465.42
972.378	2445.08
972.679	2443.27
972.98	2457.05
973.281	2438.75
973.582	2383.84
973.883	2388.36
974.183	2363.5
974.484	2352.2
974.785	2372.76
975.085	2370.73
975.386	2378.64
975.686	2378.41
975.986	2315.36
976.287	2292.54
976.587	2295.02
976.887	2314.68
977.187	2284.18
977.487	2262.48
977.787	2251.64
978.087	2193.56
978.387	2259.32
978.687	2217.29
978.987	2235.59
979.286	2227.23
979.586	2169.83
979.885	2196.72
980.185	2188.81
980.484	2182.71
980.784	2148.59
981.083	2149.27
981.382	2156.27
981.682	2147.46
981.981	2135.03
982.28	2096.16
982.579	2124.18
982.878	2091.64
983.177	2071.3
983.475	2113.79
983.774	2074.47
984.073	2085.99
984.372	2057.29
984.67	2058.19
984.969	2066.56
985.267	2037.18
985.566	2009.16
985.864	2016.39
986.162	2044.41
986.461	2007.35
986.759	2020.91
987.057	1997.63
987.355	1969.61
987.653	1987.69
987.951	1977.29
988.249	1937.07
988.547	1943.4
988.844	1930.06
989.142	1936.16
989.44	1900.68
989.737	1911.08
990.035	1913.34
990.332	1874.92
990.63	1903.62
990.927	1872.21
991.224	1841.48
991.521	1875.83
991.819	1845.77
992.116	1844.41
992.413	1837.41
992.71	1825.66
993.006	1792.66
993.303	1796.28
993.6	1801.48
993.897	1819.56
994.193	1786.11
994.49	1795.38
994.787	1759.22
995.083	1738.88
995.379	1757.64
995.676	1731.2
995.972	1740.46
996.268	1716.28
996.565	1730.07
996.861	1699.56
997.157	1716.51
997.453	1679.22
997.749	1668.83
998.044	1693.91
998.34	1641.48
998.636	1660.46
998.932	1672.44
999.227	1644.19
999.523	1667.7
999.818	1624.99
1000.114	1623.4
1000.409	1613.01
1000.704	1617.53
1001	1581.37
1001.295	1609.84
1001.59	1575.5
1001.885	1587.25
1002.18	1577.53
1002.475	1518.1
1002.77	1538.89
1003.065	1546.12
1003.359	1551.09
1003.654	1547.47
1003.949	1532.11
1004.243	1493.92
1004.538	1533.69
1004.832	1519.45
1005.127	1496.85
1005.421	1486.01
1005.715	1510.64
1006.009	1465.44
1006.304	1434.26
1006.598	1443.75
1006.892	1434.26
1007.186	1436.74
1007.48	1410.3
1007.773	1435.16
1008.067	1436.06
1008.361	1403.52
1008.655	1395.16
1008.948	1389.51
1009.242	1397.65
1009.535	1389.29
1009.829	1366.91
1010.122	1364.2
1010.415	1344.31
1010.708	1346.8
1011.001	1358.55
1011.295	1328.04
1011.588	1343.64
1011.881	1301.6
1012.173	1307.48
1012.466	1298.89
1012.759	1323.75
1013.052	1320.36
1013.344	1288.72
1013.637	1277.2
1013.93	1286.01
1014.222	1268.38
1014.514	1242.4
1014.807	1291.43
1015.099	1230.19
1015.391	1234.04
1015.683	1254.83
1015.976	1248.5
1016.268	1212.34
1016.56	1184.77
1016.851	1202.62
1017.143	1200.36
1017.435	1186.8
1017.727	1192.45
1018.018	1135.96
1018.31	1143.19
1018.602	1137.54
1018.893	1148.16
1019.185	1149.07
1019.476	1128.05
1019.767	1098.22
1020.058	1129.63
1020.35	1115.62
1020.641	1096.19
1020.932	1126.92
1021.223	1112.46
1021.514	1089.63
1021.804	1093.25
1022.095	1079.92
1022.386	1069.29
1022.677	1050.54
1022.967	1059.12
1023.258	1050.76
1023.548	1029.97
1023.839	1059.8
1024.129	1029.97
1024.419	1043.53
1024.709	998.34
1025	1019.58
1025.29	1008.96
1025.58	1022.97
1025.87	975.51
1026.16	970.31
1026.449	1005.34
1026.739	974.83
1027.029	987.49
1027.319	974.16
1027.608	977.77
1027.898	960.37
1028.187	932.35
1028.477	939.35
1028.766	947.94
1029.055	908.39
1029.344	931.67
1029.634	932.12
1029.923	907.94
1030.212	897.55
1030.501	892.8
1030.79	903.65
1031.078	929.41
1031.367	887.38
1031.656	875.4
1031.945	874.95
1032.233	910.65
1032.522	862.75
1032.81	867.49
1033.099	880.82
1033.387	901.84
1033.675	871.11
1033.963	849.64
1034.251	869.3
1034.54	830.2
1034.828	837.66
1035.116	821.62
1035.403	838.11
1035.691	812.35
1035.979	812.8
1036.267	819.58
1036.554	799.02
1036.842	823.65
1037.129	809.87
1037.417	781.39
1037.704	787.04
1037.992	798.11
1038.279	784.56
1038.566	755.18
1038.853	755.18
1039.14	755.18
