Data from plate_ceramic_FLMS001491_071.txt Node
Date: Tue Feb 07 11:17:15 GMT 2017
User: dcchb
Spectrometer: FLMS00149
Trigger mode: 0
Integration Time (sec): 2.000000E-2
Scans to average: 10
Electric dark correction enabled: true
Nonlinearity correction enabled: false
Boxcar width: 0
XAxis mode: Wavelengths
Number of Pixels in Spectrum: 2048
>>>>>Begin Spectral Data<<<<<
341.393	-13.81
341.776	-13.81
342.16	-13.81
342.543	-56.98
342.927	-62.85
343.31	-88.39
343.693	-74.15
344.077	-61.95
344.46	-48.84
344.843	-35.73
345.226	-43.19
345.61	-32.12
345.993	-5.68
346.376	-7.94
346.759	12.85
347.142	15.34
347.525	54.89
347.908	63.25
348.291	72.51
348.674	71.83
349.057	107.31
349.44	115.22
349.823	122.91
350.206	153.64
350.588	221.66
350.971	230.02
351.354	236.8
351.737	269.57
352.119	282.68
352.502	262.79
352.884	302.34
353.267	304.37
353.65	281.09
354.032	329.23
354.414	322.68
354.797	341.88
355.179	338.04
355.562	355.67
355.944	348.21
356.326	353.41
356.709	375.56
357.091	363.35
357.473	349.34
357.855	367.87
358.238	358.15
358.62	369.23
359.002	361.09
359.384	371.71
359.766	345.95
360.148	364.48
360.53	366.97
360.912	337.59
361.294	342.11
361.676	361.77
362.057	348.44
362.439	364.71
362.821	364.71
363.203	352.5
363.584	378.72
363.966	353.18
364.348	369
364.729	365.84
365.111	336.01
365.493	341.66
365.874	352.73
366.256	372.17
366.637	357.93
367.019	337.82
367.4	354.99
367.781	328.78
368.163	368.32
368.544	352.96
368.925	350.7
369.306	351.15
369.688	355.67
370.069	346.63
370.45	362.22
370.831	355.89
371.212	363.35
371.593	384.82
371.974	367.19
372.355	357.48
372.736	376.01
373.117	381.43
373.498	370.36
373.879	389.11
374.26	372.17
374.641	364.48
375.021	361.77
375.402	381.66
375.783	398.83
376.163	404.93
376.544	385.5
376.925	373.75
377.305	381.88
377.686	399.74
378.066	395.22
378.447	406.97
378.827	413.97
379.208	394.54
379.588	421.43
379.968	411.49
380.349	416.46
380.729	416.46
381.109	426.63
381.489	434.76
381.87	422.56
382.25	441.32
382.63	418.94
383.01	430.02
383.39	420.75
383.77	472.5
384.15	449
384.53	440.19
384.91	439.28
385.29	444.71
385.67	460.3
386.049	446.97
386.429	460.98
386.809	467.3
387.189	486.29
387.568	477.25
387.948	482.9
388.328	480.41
388.707	488.09
389.087	482.9
389.466	485.83
389.846	499.39
390.225	517.02
390.605	518.83
390.984	518.6
391.363	512.05
391.743	532.84
392.122	528.77
392.501	523.12
392.881	552.95
393.26	545.95
393.639	527.87
394.018	573.97
394.397	561.54
394.776	552.95
395.155	565.83
395.534	573.29
395.913	576.91
396.292	580.75
396.671	621.2
397.05	585.95
397.429	587.75
397.808	597.24
398.186	615.77
398.565	626.85
398.944	613.06
399.323	649.9
399.701	633.4
400.08	636.57
400.458	657.13
400.837	641.31
401.215	645.83
401.594	661.42
401.972	648.09
402.351	674.76
402.729	691.03
403.107	690.12
403.486	703
403.864	689.9
404.242	712.04
404.62	718.82
404.999	729.22
405.377	738.26
405.755	724.92
406.133	765.83
406.511	766.73
406.889	742.1
407.267	774.87
407.645	793.62
408.023	817.13
408.401	820.06
408.779	839.05
409.156	813.96
409.534	862.32
409.912	829.33
410.29	844.92
410.667	859.84
411.045	876.33
411.422	887.41
411.8	885.82
412.178	902.55
412.555	928.31
412.933	920.85
413.31	960.17
413.687	974.18
414.065	968.08
414.442	986.84
414.819	993.17
415.197	984.58
415.574	1037.91
415.951	1004.24
416.328	1039.27
416.705	1027.06
417.082	1039.04
417.46	1062.32
417.837	1098.7
418.214	1078.36
418.591	1073.84
418.967	1101.41
419.344	1115.2
419.721	1140.05
420.098	1144.8
420.475	1172.14
420.852	1187.29
421.228	1193.61
421.605	1185.48
421.982	1196.78
422.358	1210.79
422.735	1220.05
423.111	1236.78
423.488	1249.66
423.864	1237.23
424.241	1299.82
424.617	1281.97
424.994	1306.38
425.37	1310.45
425.746	1324.91
426.123	1340.95
426.499	1348.41
426.875	1370.78
427.251	1414.4
427.627	1427.28
428.003	1422.76
428.379	1427.96
428.756	1485.36
429.132	1501.4
429.507	1542.3
429.883	1513.15
430.259	1556.32
430.635	1576.65
431.011	1580.95
431.387	1609.42
431.763	1643.09
432.138	1652.13
432.514	1626.14
432.89	1663.66
433.265	1736.2
433.641	1721.51
434.016	1744.78
434.392	1751.79
434.767	1809.87
435.143	1811.9
435.518	1833.6
435.894	1864.33
436.269	1879.92
436.644	1892.13
437.02	1887.38
437.395	1923.76
437.77	1928.28
438.145	1958.79
438.52	2003.53
438.895	2019.58
439.271	2035.85
439.646	2081.72
440.021	2088.73
440.395	2105.23
440.77	2076.53
441.145	2134.15
441.52	2149.29
441.895	2162.4
442.27	2153.14
442.645	2159.46
443.019	2196.52
443.394	2206.47
443.769	2217.99
444.143	2200.14
444.518	2275.62
444.892	2238.56
445.267	2288.5
445.641	2285.79
446.016	2339.57
446.39	2349.97
446.764	2378.21
447.139	2317.42
447.513	2362.85
447.887	2438.1
448.262	2389.74
448.636	2465.44
449.01	2473.58
449.384	2503.86
449.758	2517.42
450.132	2547.02
450.506	2538.44
450.88	2575.27
451.254	2574.82
451.628	2613.46
452.002	2671.09
452.376	2652.78
452.75	2698.43
453.123	2704.08
453.497	2783.18
453.871	2766
454.244	2807.13
454.618	2834.47
454.992	2886.22
455.365	2921.7
455.739	2927.8
456.112	3020.91
456.486	2999.44
456.859	3031.08
457.232	3132.09
457.606	3114.01
457.979	3210.06
458.352	3258.64
458.725	3240.56
459.099	3272.43
459.472	3381.13
459.845	3383.16
460.218	3436.49
460.591	3495.02
460.964	3434.68
461.337	3553.55
461.71	3594
462.083	3653.66
462.456	3669.71
462.829	3689.82
463.201	3746.99
463.574	3763.04
463.947	3811.85
464.32	3917.38
464.692	3951.73
465.065	3970.04
465.438	4086.42
465.81	4129.13
466.183	4129.35
466.555	4247.32
466.928	4229.24
467.3	4257.26
467.672	4340.87
468.045	4485.73
468.417	4456.13
468.789	4466.97
469.161	4551.49
469.534	4635.1
469.906	4677.59
470.278	4753.29
470.65	4823.57
471.022	4955.55
471.394	4979.73
471.766	5034.87
472.138	5106.5
472.51	5205.94
472.882	5283.9
473.253	5358.25
473.625	5428.3
473.997	5529.32
474.369	5598.92
474.74	5644.8
475.112	5789.2
475.484	5906.94
475.855	5972.47
476.227	6040.49
476.598	6154.61
476.97	6236.42
477.341	6352.8
477.713	6471.89
478.084	6485
478.455	6661.04
478.827	6757.53
479.198	7007.02
479.569	6955.5
479.94	7136.51
480.311	7227.58
480.682	7374.69
481.053	7591.86
481.424	7698.53
481.795	7744.63
482.166	7962.02
482.537	7968.58
482.908	8206.99
483.279	8253.54
483.65	8397.49
484.021	8588.9
484.391	8653.98
484.762	8716.35
485.133	8857.82
485.503	8929.23
485.874	9137.13
486.244	9242.44
486.615	9450.34
486.985	9540.29
487.356	9725.59
487.726	9792.71
488.097	10043.55
488.467	10094.85
488.837	10232.92
489.207	10351.79
489.578	10579.35
489.948	10681.72
490.318	10820.7
490.688	10841.72
491.058	10994.26
491.428	11139.34
491.798	11251.43
492.168	11459.78
492.538	11513.12
492.908	11701.81
493.278	11821.81
493.648	11858.42
494.017	12055.02
494.387	12194.68
494.757	12216.37
495.126	12381.79
495.496	12438.74
495.866	12536.14
496.235	12691.16
496.605	12812.97
496.974	12865.85
497.344	12993.3
497.713	13029.91
498.082	13177.25
498.452	13405.27
498.821	13390.81
499.19	13427.87
499.559	13763.9
499.928	13724.36
500.298	13751.25
500.667	13874.18
501.036	13930.9
501.405	14079.83
501.774	14224.91
502.143	14268.98
502.512	14368.18
502.88	14509.19
503.249	14588.29
503.618	14703.54
503.987	14762.07
504.356	14831.22
504.724	14901.95
505.093	14946.47
505.462	15089.29
505.83	15266.69
506.199	15277.99
506.567	15580.13
506.936	15529.96
507.304	15742.38
507.672	15783.06
508.041	15910.29
508.409	16033.9
508.777	16184.18
509.145	16216.72
509.514	16280.9
509.882	16497.39
510.25	16425.08
510.618	16644.28
510.986	16688.12
511.354	16901.22
511.722	17042.91
512.09	17202.23
512.458	17199.07
512.826	17300.53
513.193	17536.46
513.561	17481.77
513.929	17720.86
514.297	17925.38
514.664	18002.44
515.032	18113.85
515.4	18215.54
515.767	18208.98
516.135	18471.8
516.502	18436.32
516.869	18766.48
517.237	18905.46
517.604	18820.72
517.972	19048.28
518.339	19182.52
518.706	19275.62
519.073	19367.82
519.44	19542.51
519.808	19681.94
520.175	19810.98
520.542	20040.8
520.909	20187.24
521.276	20148.59
521.643	20417.51
522.009	20582.26
522.376	20705.87
522.743	20928.01
523.11	21002.36
523.477	21235.35
523.843	21446.87
524.21	21659.29
524.577	21687.09
524.943	21814.99
525.31	22011.6
525.676	22204.13
526.043	22347.86
526.409	22476.44
526.776	22692.71
527.142	22866.04
527.508	23080.95
527.874	23215.41
528.241	23182.64
528.607	23384.67
528.973	23663.76
529.339	23608.16
529.705	23860.59
530.071	23991.88
530.437	24059.23
530.803	24234.36
531.169	24442.72
531.535	24467.13
531.901	24690.62
532.267	24750.96
532.632	24960.22
532.998	25055.13
533.364	25142.81
533.73	25335.58
534.095	25523.14
534.461	25545.51
534.826	25666.42
535.192	25792.74
535.557	25989.34
535.923	25926.52
536.288	26239.73
536.653	26225.04
537.019	26245.38
537.384	26497.35
537.749	26609.22
538.114	26583.91
538.479	26580.29
538.845	26757.46
539.21	26751.36
539.575	26970.56
539.94	27022.54
540.305	27197.22
540.67	27136.21
541.034	27246.26
541.399	27503.2
541.764	27549.08
542.129	27611
542.494	27714.72
542.858	27879.69
543.223	27933.7
543.587	28046.47
543.952	28084.66
544.316	28176.63
544.681	28340.47
545.045	28520.35
545.41	28587.02
545.774	28634.02
546.138	28583.85
546.503	28816.39
546.867	28810.74
547.231	29088.02
547.595	29124.63
547.959	29128.25
548.324	29281.01
548.688	29332.53
549.052	29509.03
549.416	29751.28
549.779	29718.51
550.143	29906.3
550.507	30075.34
550.871	30070.59
551.235	30009.35
551.599	30188.33
551.962	30424.93
552.326	30443.47
552.689	30831.25
553.053	30676.45
553.417	30676
553.78	31119.61
554.143	30941.98
554.507	31262.88
554.87	31307.85
555.234	31543.55
555.597	31348.07
555.96	31688.63
556.323	31762.07
556.686	31859.7
557.05	32102.18
557.413	32061.95
557.776	32223.98
558.139	32348.73
558.502	32575.61
558.865	32742.39
559.228	32889.28
559.59	32909.16
559.953	33057.86
560.316	33466.66
560.679	33446.78
561.041	33694.9
561.404	33821
561.767	34024.16
562.129	34013.09
562.492	34310.03
562.854	34323.14
563.217	34417.82
563.579	34755.22
563.941	34828.43
564.304	34865.04
564.666	35088.54
565.028	35140.97
565.39	35446.27
565.753	35607.85
566.115	35549.32
566.477	35754.96
566.839	35771.01
567.201	36070.21
567.563	36076.54
567.925	36509.52
568.287	36588.84
568.648	36465
569.01	36664.32
569.372	36906.8
569.734	36894.82
570.095	37256.17
570.457	37344.3
570.819	37384.3
571.18	37556.05
571.542	37710.39
571.903	37783.16
572.265	37854.8
572.626	38019.76
572.987	37999.42
573.349	38190.83
573.71	38295.24
574.071	38459.98
574.432	38490.94
574.794	38941.55
575.155	38760.99
575.516	38656.13
575.877	38935.67
576.238	39010.47
576.599	39188.09
576.96	39131.6
577.32	39130.69
577.681	39511.48
578.042	39410.46
578.403	39478.03
578.763	39609.55
579.124	39700.17
579.485	39820.62
579.845	39861.97
580.206	39853.61
580.566	39789.21
580.927	39863.33
581.287	39832.14
581.648	39841.18
582.008	39920.96
582.368	39854.07
582.728	40073.27
583.089	40044.79
583.449	40141.74
583.809	40059.26
584.169	40240.5
584.529	40199.82
584.889	40475.29
585.249	40167.73
585.609	40021.52
585.969	40370.21
586.329	40271.46
586.688	40194.4
587.048	40281.62
587.408	40253.15
587.768	40222.19
588.127	40308.52
588.487	40241.17
588.846	40507.61
589.206	40216.77
589.565	40268.07
589.925	40416.08
590.284	40351
590.643	40417.89
591.003	40382.86
591.362	40650.65
591.721	40649.98
592.08	40550.09
592.44	40590.99
592.799	40653.37
593.158	40635.06
593.517	40621.73
593.876	40750.09
594.235	40578.34
594.593	40786.24
594.952	40782.85
595.311	40670.99
595.67	40763.19
596.029	41038.89
596.387	41022.17
596.746	41009.51
597.104	40847.03
597.463	40822.85
597.822	41028.95
598.18	40885.45
598.538	40847.26
598.897	41155.05
599.255	40974.04
599.613	41475.04
599.972	41129.06
600.33	41358.21
600.688	41096.74
601.046	41141.26
601.404	41414.25
601.762	41205.89
602.12	41526.11
602.478	41480.69
602.836	41372.9
603.194	41310.75
603.552	41473.91
603.91	41347.13
604.268	41584.64
604.625	41470.75
604.983	41558.2
605.341	41406.11
605.698	41699.89
606.056	41732.89
606.413	41794.35
606.771	41740.57
607.128	42037.51
607.485	41799.32
607.843	41849.72
608.2	42055.59
608.557	42126.1
608.914	41992.77
609.272	42021.69
609.629	42215.81
609.986	42439.53
610.343	42190.27
610.7	42450.38
611.057	42286.77
611.414	42371.96
611.771	42312.76
612.127	42569.47
612.484	42437.95
612.841	42553.2
613.198	42495.8
613.554	42480.44
613.911	42985.51
614.267	42866.42
614.624	42720.88
614.98	42841.11
615.337	43042.23
615.693	42902.35
616.05	42895.34
616.406	43144.37
616.762	42948.45
617.118	42981.21
617.475	42911.39
617.831	43136.01
618.187	43016.02
618.543	43177.37
618.899	43279.51
619.255	43180.98
619.611	43386.4
619.967	43289.68
620.323	43428.66
620.678	43352.73
621.034	43219.4
621.39	43332.39
621.746	43302.79
622.101	43695.77
622.457	43281.77
622.812	43474.99
623.168	43544.82
623.523	43591.59
623.879	43501.43
624.234	43373.07
624.589	43456.68
624.945	43547.53
625.3	43455.1
625.655	43517.25
626.01	43571.48
626.365	43566.74
626.72	43451.94
627.075	43547.53
627.43	43391.37
627.785	43396.34
628.14	43390.7
628.495	43335.33
628.85	43351.15
629.205	43247.87
629.559	43438.38
629.914	43301.66
630.269	43267.76
630.623	43213.52
630.978	43151.61
631.332	43374.65
631.687	43346.63
632.041	43072.06
632.396	43145.5
632.75	43058.95
633.104	43018.5
633.459	42866.87
633.813	42758.85
634.167	42739.86
634.521	42793.42
634.875	42896.7
635.229	42759.75
635.583	42585.74
635.937	42550.04
636.291	42532.86
636.645	42635.91
636.999	42463.26
637.352	42617.83
637.706	42436.82
638.06	42507.55
638.413	42411.06
638.767	42243.15
639.121	42305.3
639.474	42035.02
639.828	42081.8
640.181	42070.5
640.534	42077.51
640.888	42225.3
641.241	41866.89
641.594	41980.11
641.947	41945.99
642.301	41877.74
642.654	41904.63
643.007	41985.53
643.36	41640.91
643.713	41707.58
644.066	41838.19
644.419	41509.61
644.771	41134.03
645.124	40863.76
645.477	40756.41
645.83	40601.62
646.182	40459.92
646.535	40380.83
646.888	40483.43
647.24	40154.62
647.593	40521.62
647.945	40359.59
648.298	40133.38
648.65	40096.54
649.002	39923.89
649.355	40031.01
649.707	39933.16
650.059	39955.76
650.411	40508.96
650.763	40517.32
651.115	40826.24
651.467	40742.18
651.819	40871.44
652.171	40758.22
652.523	40732.69
652.875	40588.51
653.227	40575.63
653.578	40761.16
653.93	40750.54
654.282	40403.66
654.633	40398.91
654.985	40432.35
655.337	40451.79
655.688	40502.64
656.039	40411.34
656.391	40218.12
656.742	40163.66
657.094	40246.15
657.445	40399.36
657.796	40314.84
658.147	40176.54
658.498	40049.54
658.849	40284.34
659.2	40165.02
659.551	40014.74
659.902	40113.27
660.253	40019.48
660.604	40187.62
660.955	39862.2
661.306	39929.54
661.656	39863.33
662.007	39977.23
662.358	39936.55
662.708	39886.15
663.059	39819.49
663.409	39636.9
663.76	39871.01
664.11	39860.84
664.461	39944.01
664.811	39814.52
665.161	39986.49
665.511	39687.52
665.862	39630.79
666.212	39802.99
666.562	39965.02
666.912	39709.21
667.262	39629.89
667.612	39652.71
667.962	39586.5
668.312	39483.68
668.662	39744.01
669.011	39517.8
669.361	39534.75
669.711	39640.06
670.06	39565.03
670.41	39447.07
670.76	39356.9
671.109	39462.21
671.459	39433.06
671.808	39307.41
672.157	39303.8
672.507	39102.9
672.856	39149.9
673.205	39141.99
673.554	39198.04
673.904	39200.97
674.253	39479.39
674.602	39166.85
674.951	38794.21
675.3	38503.14
675.649	39222.9
675.998	39029.91
676.346	39022
676.695	39144.03
677.044	38909.46
677.393	38985.39
677.741	38923.24
678.09	38814.54
678.438	38864.49
678.787	38760.53
679.135	38876.46
679.484	38680.99
679.832	38811.61
680.181	38494.78
680.529	38579.75
680.877	38416.81
681.225	38371.39
681.573	38661.33
681.922	38285.07
682.27	38161
682.618	38295.24
682.966	38271.73
683.314	38309.25
683.661	38205.97
684.009	38027.22
684.357	37848.47
684.705	37835.36
685.053	38012.31
685.4	37745.42
685.748	37606.44
686.095	37613.9
686.443	37473.56
686.79	37477.18
687.138	37497.06
687.485	37396.73
687.832	37370.29
688.18	37374.13
688.527	37139.79
688.874	37226.79
689.221	36959
689.568	36891.21
689.915	36792.22
690.262	36806.91
690.609	36874.03
690.956	36648.73
691.303	36733.92
691.65	36457.09
691.997	36478.56
692.344	36210.32
692.69	36398.79
693.037	36287.15
693.383	35957.9
693.73	36080.83
694.077	35832.25
694.423	35925.58
694.769	35766.26
695.116	35698.69
695.462	35515.42
695.808	35453.28
696.155	35489.21
696.501	35271.36
696.847	35235.66
697.193	34970.13
697.539	35265.49
697.885	34930.13
698.231	34726.52
698.577	34723.13
698.923	34798.15
699.269	34399.97
699.614	34442
699.96	34369.24
700.306	34350.03
700.651	34142.8
700.997	34108.45
701.342	34096.25
701.688	33937.16
702.033	33904.62
702.379	33877.73
702.724	33623.04
703.069	33863.94
703.415	33402.94
703.76	33459.88
704.105	33376.5
704.45	33258.31
704.795	33167.46
705.14	33068.71
705.485	33051.98
705.83	32853.57
706.175	32925.43
706.52	32841.82
706.865	32655.84
707.209	32715.27
707.554	32550.75
707.899	32740.81
708.243	32531.32
708.588	32446.8
708.932	32154.61
709.277	32286.35
709.621	32148.96
709.966	31895.63
710.31	32113.7
710.654	31803.2
710.998	31934.5
711.342	31842.98
711.687	31696.31
712.031	31623.77
712.375	31513.95
712.719	31621.51
713.063	31513.72
713.407	31605.02
713.75	31382.42
714.094	31303.33
714.438	31237.57
714.782	31317.79
715.125	31022.21
715.469	31231.47
715.812	30963
716.156	30753.74
716.499	30858.6
716.843	30929.55
717.186	30597.36
717.53	30764.13
717.873	30801.2
718.216	30657.47
718.559	30495.67
718.902	30313.98
719.246	30544.25
719.589	30356.69
719.932	30191.95
720.275	30106.75
720.617	30110.82
720.96	30069.24
721.303	29943.82
721.646	29990.14
721.989	29783.82
722.331	29905.85
722.674	29678.51
723.016	29823.82
723.359	29763.93
723.701	29635.12
724.044	29552.87
724.386	29367.11
724.729	29520.33
725.071	29538.86
725.413	29413.21
725.755	29363.95
726.097	29217.06
726.439	29057.06
726.782	29215.47
727.124	29295.02
727.465	29015.03
727.807	29116.27
728.149	28954.92
728.491	28983.16
728.833	28978.19
729.175	28816.16
729.516	28757.63
729.858	28729.84
730.199	28777.52
730.541	28634.7
730.882	28554.02
731.224	28758.76
731.565	28583.63
731.906	28555.38
732.248	28485.78
732.589	28295.95
732.93	28405.33
733.271	28349.28
733.612	28346.12
733.953	28320.36
734.294	28132.57
734.635	28159.68
734.976	28224.54
735.317	28043.53
735.658	28061.61
735.999	28088.72
736.339	27875.4
736.68	27976.86
737.021	27828.17
737.361	27860.03
737.702	27862.74
738.042	27842.63
738.383	27659.13
738.723	27684.22
739.063	27606.7
739.404	27714.27
739.744	27594.05
740.084	27498.46
740.424	27521.73
740.764	27390.66
741.104	27503.2
741.444	27245.58
741.784	27325.35
742.124	27202.87
742.464	27231.57
742.804	27137.56
743.143	27094.17
743.483	27115.19
743.823	26897.12
744.162	26896.44
744.502	27033.39
744.841	26877.23
745.181	27084.46
745.52	26826.61
745.86	26849.44
746.199	26681.53
746.538	26728.53
746.877	26778.7
747.216	26627.52
747.556	26580.52
747.895	26567.18
748.234	26299.62
748.573	26374.42
748.911	26304.59
749.25	26307.98
749.589	26286.29
749.928	26145.05
750.267	26141.21
750.605	26109.12
750.944	26100.08
751.283	25897.37
751.621	26063.47
751.96	25847.65
752.298	25735.11
752.636	25816.92
752.975	25684.27
753.313	25522.01
753.651	25752.97
753.989	25661.44
754.327	25531.5
754.666	25419.87
755.004	25455.57
755.342	25455.8
755.679	25310.49
756.017	25126.32
756.355	25372.64
756.693	25221.91
757.031	25246.99
757.368	25012.42
757.706	24873.22
758.044	24880
758.381	24897.85
758.719	24834.57
759.056	24714.12
759.394	24750.06
759.731	24603.84
760.068	24585.99
760.405	24317.52
760.743	24384.87
761.08	24390.74
761.417	24245.21
761.754	24139.68
762.091	24232.78
762.428	23942.39
762.765	23822.62
763.102	23951.66
763.438	23797.31
763.775	23663.76
764.112	23820.59
764.449	23699.91
764.785	23505.57
765.122	23497.66
765.458	23313.48
765.795	23277.1
766.131	23351.22
766.467	23205.46
766.804	23175.63
767.14	22995.07
767.476	22937.67
767.812	22841.18
768.148	22821.52
768.485	22681.64
768.821	22492.71
769.157	22627.63
769.492	22572.03
769.828	22526.61
770.164	22219.95
770.5	22286.17
770.836	22197.58
771.171	22031.03
771.507	22048.88
771.842	21902.22
772.178	21844.14
772.513	21790.13
772.849	21729.34
773.184	21612.51
773.519	21591.49
773.855	21430.14
774.19	21413.19
774.525	21261.56
774.86	21368
775.195	21196.93
775.53	21174.78
775.865	21028.12
776.2	20994.9
776.535	20724.62
776.87	20720.33
777.205	20600.33
777.539	20528.92
777.874	20648.92
778.209	20518.53
778.543	20442.15
778.878	20237.86
779.212	20254.81
779.547	20161.7
779.881	20170.29
780.215	20097.97
780.55	20017.52
780.884	19899.56
781.218	19693.24
781.552	19734.37
781.886	19766.91
782.22	19579.12
782.554	19532.57
782.888	19439.23
783.222	19396.75
783.556	19297.32
783.889	19156.76
784.223	19097.1
784.557	19037.44
784.89	19132.35
785.224	18954.28
785.557	18836.76
785.891	18824.11
786.224	18765.58
786.558	18683.32
786.891	18544.57
787.224	18554.96
787.557	18491.01
787.891	18431.35
788.224	18413.27
788.557	18424.35
788.89	18318.59
789.223	18242.66
789.556	18164.47
789.888	18032.49
790.221	17928.77
790.554	17862.1
790.887	17898.26
791.219	17681.99
791.552	17742.56
791.884	17559.96
792.217	17610.58
792.549	17479.06
792.882	17359.74
793.214	17294.21
793.546	17384.37
793.879	17243.81
794.211	17044.95
794.543	17217.82
794.875	17058.51
795.207	17085.17
795.539	16994.33
795.871	16959.98
796.203	16806.76
796.535	16837.5
796.867	16822.81
797.198	16687.22
797.53	16654.9
797.862	16486.09
798.193	16641.12
798.525	16534.9
798.856	16584.85
799.188	16404.96
799.519	16265.98
799.85	16206.33
800.182	16157.96
800.513	16204.97
800.844	16032.09
801.175	16089.49
801.506	16132.88
801.837	15970.63
802.168	15909.84
802.499	15904.41
802.83	15919.1
803.161	15750.29
803.491	15714.59
803.822	15654.02
804.153	15613.12
804.483	15467.59
804.814	15463.75
805.145	15485.44
805.475	15395.05
805.805	15387.14
806.136	15393.92
806.466	15384.43
806.796	15343.52
807.126	15207.26
807.457	15092.91
807.787	15167.71
808.117	15082.06
808.447	14958.22
808.777	14999.35
809.107	14929.52
809.436	14915.74
809.766	14882.74
810.096	14805.23
810.426	14824.67
810.755	14783.99
811.085	14780.15
811.414	14709.64
811.744	14536.09
812.073	14482.53
812.403	14495.41
812.732	14445.69
813.061	14431.68
813.39	14285.25
813.719	14291.12
814.049	14339.48
814.378	14346.94
814.707	14258.35
815.036	14231.69
815.365	14155.76
815.693	14111.47
816.022	14199.37
816.351	14161.41
816.68	13950.11
817.008	14082.09
817.337	13939.72
817.665	13831.47
817.994	13932.26
818.322	13892.49
818.651	13817.91
818.979	13798.93
819.307	13838.7
819.636	13762.1
819.964	13684.81
820.292	13678.26
820.62	13706.05
820.948	13525.27
821.276	13748.54
821.604	13548.54
821.932	13591.93
822.259	13613.63
822.587	13537.02
822.915	13461.99
823.243	13577.92
823.57	13490.24
823.898	13561.42
824.225	13470.35
824.553	13472.16
824.88	13484.36
825.207	13540.86
825.535	13495.21
825.862	13575.43
826.189	13516.23
826.516	13537.02
826.843	13547.64
827.17	13478.49
827.497	13579.5
827.824	13576.79
828.151	13475.1
828.478	13500.18
828.805	13493.4
829.131	13446.4
829.458	13462.67
829.785	13399.85
830.111	13379.96
830.438	13423.57
830.764	13439.62
831.09	13439.39
831.417	13402.78
831.743	13414.53
832.069	13394.87
832.395	13323.24
832.722	13348.1
833.048	13401.65
833.374	13360.98
833.7	13261.54
834.026	13323.01
834.351	13311.71
834.677	13300.64
835.003	13356.46
835.329	13279.62
835.654	13301.32
835.98	13230.81
836.306	13271.04
836.631	13198.95
836.956	13249.11
837.282	13174.09
837.607	13165.28
837.932	13140.19
838.258	13092.06
838.583	13136.58
838.908	13035.11
839.233	13048.67
839.558	13066.52
839.883	12897.49
840.208	12933.19
840.533	12995.34
840.858	12895.9
841.182	12917.82
841.507	12815.68
841.832	12802.35
842.156	12715.8
842.481	12698.62
842.805	12730.03
843.13	12632.63
843.454	12665.63
843.778	12614.78
844.103	12644.61
844.427	12616.14
844.751	12581.79
845.075	12510.6
845.399	12511.73
845.723	12404.62
846.047	12468.8
846.371	12394
846.695	12338.86
847.019	12194
847.343	12221.57
847.666	12097.73
847.99	12057.96
848.313	12102.93
848.637	11990.62
848.96	11985.87
849.284	11978.64
849.607	11829.94
849.931	11810.96
850.254	11746.33
850.577	11701.58
850.9	11667.24
851.223	11600.12
851.546	11538.65
851.869	11427.24
852.192	11551.31
852.515	11416.85
852.838	11378.43
853.161	11293.69
853.483	11366.9
853.806	11208.26
854.129	11234.25
854.451	11262.05
854.774	11198.77
855.096	11092.79
855.419	11114.71
855.741	11089.17
856.063	10970.53
856.385	11035.84
856.708	10927.59
857.03	10895.73
857.352	10913.36
857.674	10799.91
857.996	10770.99
858.318	10659.13
858.64	10692.57
858.961	10665.68
859.283	10547.27
859.605	10530.77
859.926	10667.04
860.248	10550.88
860.57	10540.26
860.891	10548.85
861.212	10524.44
861.534	10444.22
861.855	10428.85
862.176	10380.04
862.498	10410.32
862.819	10434.05
863.14	10415.97
863.461	10368.06
863.782	10329.19
864.103	10339.13
864.424	10150.89
864.745	10222.53
865.065	10267.5
865.386	10221.17
865.707	10205.35
866.027	10207.84
866.348	10185.47
866.668	10159.48
866.989	10167.61
867.309	10105.69
867.63	10103.43
867.95	10009.65
868.27	10030.89
868.59	10010.1
868.91	10049.43
869.23	9981.18
869.55	9948.41
869.87	9940.95
870.19	9977.56
870.51	9981.63
870.83	9917.23
871.15	9908.64
871.469	9901.63
871.789	9926.72
872.109	9902.99
872.428	9777.34
872.748	9923.1
873.067	9805.59
873.386	9817.79
873.706	9735.31
874.025	9736.89
874.344	9718.13
874.663	9778.02
874.982	9749.32
875.301	9761.97
875.62	9737.12
875.939	9608.98
876.258	9633.39
876.577	9584.35
876.896	9645.59
877.214	9604.01
877.533	9539.61
877.852	9587.06
878.17	9493.51
878.489	9528.08
878.807	9460.74
879.125	9477.24
879.444	9464.81
879.762	9453.51
880.08	9390.91
880.398	9300.97
880.716	9343.45
881.034	9279.5
881.352	9317.24
881.67	9340.74
881.988	9385.49
882.306	9332.38
882.624	9281.54
882.941	9258.03
883.259	9173.97
883.577	9183.69
883.894	9145.72
884.212	9124.03
884.529	9101.88
884.846	9102.11
885.164	9049.68
885.481	9092.61
885.798	9104.37
886.115	8984.82
886.432	8988.89
886.75	8971.71
887.067	9001.99
887.383	9005.38
887.7	8951.15
888.017	8930.81
888.334	8896.24
888.651	8856.91
888.967	8799.74
889.284	8830.93
889.6	8823.47
889.917	8746.63
890.233	8757.71
890.55	8660.99
890.866	8730.14
891.182	8728.33
891.498	8646.3
891.815	8644.72
892.131	8561.1
892.447	8559.29
892.763	8497.6
893.079	8513.19
893.395	8458.05
893.71	8515.91
894.026	8458.73
894.342	8410.15
894.657	8416.02
894.973	8389.81
895.289	8332.86
895.604	8298.96
895.92	8260.77
896.235	8240.21
896.55	8167.67
896.865	8171.96
897.181	8160.44
897.496	8152.07
897.811	8122.7
898.126	8107.56
898.441	7973.1
898.756	8072.75
899.071	8004.06
899.386	8004.28
899.7	7919.31
900.015	7863.95
900.33	7851.74
900.644	7866.88
900.959	7834.79
901.273	7853.1
901.588	7849.93
901.902	7779.2
902.216	7708.47
902.531	7675.48
902.845	7654.01
903.159	7581.47
903.473	7606.1
903.787	7561.35
904.101	7482.26
904.415	7553.67
904.729	7515.03
905.042	7456.27
905.356	7403.39
905.67	7410.4
905.984	7364.98
906.297	7319.78
906.611	7280.23
906.924	7285.88
907.237	7258.54
907.551	7229.84
907.864	7183.06
908.177	7215.38
908.491	7232.32
908.804	7162.04
909.117	7057.19
909.43	7099.22
909.743	7011.99
910.056	6957.3
910.368	6953.46
910.681	6941.03
910.994	6919.56
911.307	6864.2
911.619	6802.5
911.932	6809.74
912.244	6778.55
912.557	6780.36
912.869	6741.72
913.181	6782.39
913.494	6706.91
913.806	6629.18
914.118	6638.44
914.43	6605
914.742	6608.61
915.054	6544.88
915.366	6511.89
915.678	6504.66
915.99	6419.46
916.302	6430.09
916.613	6353.48
916.925	6405
917.236	6390.31
917.548	6317.32
917.859	6339.24
918.171	6334.27
918.482	6239.81
918.794	6248.17
919.105	6151.67
919.416	6220.15
919.727	6125.01
920.038	6119.58
920.349	6092.92
920.66	6066.93
920.971	6049.08
921.282	6015.18
921.593	5995.75
921.903	5972.02
922.214	5995.52
922.525	5984.22
922.835	5886.82
923.146	5856.77
923.456	5808.18
923.767	5834.62
924.077	5752.36
924.387	5760.95
924.697	5752.14
925.008	5727.5
925.318	5699.71
925.628	5718.24
925.938	5620.84
926.248	5601.18
926.558	5596.21
926.867	5567.51
927.177	5559.6
927.487	5556.89
927.796	5504.23
928.106	5500.17
928.416	5501.3
928.725	5442.54
929.034	5406.38
929.344	5379.27
929.653	5396.44
929.962	5311.7
930.271	5347.63
930.581	5295.2
930.89	5277.8
931.199	5218.37
931.508	5207.97
931.817	5221.3
932.125	5171.36
932.434	5187.86
932.743	5101.08
933.051	5114.19
933.36	5106.5
933.669	5078.03
933.977	5082.55
934.286	5039.16
934.594	5062.21
934.902	4975.66
935.21	4982.67
935.519	4986.06
935.827	4949.9
936.135	4914.42
936.443	4919.84
936.751	4822.9
937.059	4795.55
937.367	4832.16
937.674	4856.12
937.982	4761.65
938.29	4745.84
938.597	4715.1
938.905	4725.95
939.213	4724.37
939.52	4643.24
939.827	4719.4
940.135	4600.75
940.442	4596.24
940.749	4574.09
941.056	4581.77
941.363	4521.21
941.67	4555.78
941.977	4495.45
942.284	4471.72
942.591	4451.61
942.898	4446.18
943.205	4448.67
943.511	4394.66
943.818	4357.6
944.125	4345.85
944.431	4346.07
944.738	4325.96
945.044	4314.66
945.35	4332.74
945.657	4250.03
945.963	4308.11
946.269	4249.13
946.575	4233.98
946.881	4212.29
947.187	4217.94
947.493	4176.13
947.799	4135.23
948.105	4137.94
948.41	4148.56
948.716	4077.83
949.022	4125.06
949.327	4077.15
949.633	4057.04
949.938	4043.93
950.244	4016.82
950.549	4005.52
950.854	3992.64
951.16	3997.15
951.465	3943.14
951.77	3875.8
952.075	3939.76
952.38	3894.33
952.685	3930.26
952.99	3834.22
953.294	3871.51
953.599	3863.6
953.904	3826.54
954.209	3806.2
954.513	3768.91
954.818	3769.14
955.122	3752.87
955.426	3728.91
955.731	3772.53
956.035	3700.44
956.339	3711.29
956.643	3690.72
956.948	3635.58
957.252	3640.33
957.556	3665.86
957.86	3626.54
958.163	3614.57
958.467	3540.67
958.771	3572.99
959.075	3568.92
959.378	3513.55
959.682	3514.46
959.985	3512.65
960.289	3530.73
960.592	3473.1
960.896	3473.33
961.199	3439.43
961.502	3427
961.805	3410.28
962.108	3395.59
962.411	3381.58
962.714	3330.73
963.017	3365.08
963.32	3328.02
963.623	3315.59
963.926	3312.65
964.228	3239.89
964.531	3268.36
964.833	3243.5
965.136	3229.49
965.438	3243.28
965.741	3234.01
966.043	3219.55
966.345	3204.41
966.648	3198.98
966.95	3155.82
967.252	3135.26
967.554	3114.69
967.856	3113.34
968.158	3124.18
968.46	3115.37
968.761	3098.42
969.063	3061.59
969.365	3071.76
969.666	3033.56
969.968	3027.24
970.269	3037.18
970.571	2996.73
970.872	3000.34
971.174	2979.33
971.475	2966.9
971.776	2960.12
972.077	2935.04
972.378	2938.43
972.679	2968.71
972.98	2894.13
973.281	2899.33
973.582	2875.15
973.883	2868.82
974.183	2869.5
974.484	2886.9
974.785	2823.4
975.085	2836.06
975.386	2797.86
975.686	2780.01
975.986	2796.28
976.287	2759.67
976.587	2764.42
976.887	2751.99
977.187	2734.82
977.487	2721.71
977.787	2687.58
978.087	2683.52
978.387	2666.79
978.687	2673.57
978.987	2676.74
979.286	2643.29
979.586	2671.99
979.885	2615.04
980.185	2617.53
980.484	2630.19
980.784	2586.8
981.083	2562.39
981.382	2600.13
981.682	2568.27
981.981	2509.06
982.28	2537.08
982.579	2507.25
982.878	2485.78
983.177	2467.25
983.475	2483.3
983.774	2499.12
984.073	2500.7
984.372	2451.43
984.67	2473.58
984.969	2402.62
985.267	2411.43
985.566	2435.39
985.864	2388.84
986.162	2394.49
986.461	2397.2
986.759	2337.76
987.057	2327.59
987.355	2328.95
987.653	2321.94
987.951	2314.94
988.249	2339.57
988.547	2287.14
988.844	2328.95
989.142	2285.34
989.44	2261.61
989.737	2284.21
990.035	2262.74
990.332	2249.86
990.63	2232
990.927	2220.48
991.224	2212.79
991.521	2199.46
991.819	2208.73
992.116	2219.12
992.413	2184.77
992.71	2139.58
993.006	2149.52
993.303	2167.37
993.6	2149.29
993.897	2158.79
994.193	2154.72
994.49	2130.31
994.787	2098
995.083	2079.69
995.379	2042.18
995.676	2043.53
995.972	2084.44
996.268	2049.86
996.565	2022.29
996.861	2022.74
997.157	2011.67
997.453	1969.64
997.749	1973.93
998.044	1989.75
998.34	1965.34
998.636	1971.67
998.932	1938.9
999.227	1921.05
999.523	1990.65
999.818	1906.81
1000.114	1930.32
1000.409	1891
1000.704	1905.23
1001	1869.98
1001.295	1887.83
1001.59	1885.35
1001.885	1882.63
1002.18	1843.54
1002.475	1858.91
1002.77	1850.54
1003.065	1818
1003.359	1815.52
1003.654	1811
1003.949	1778.91
1004.243	1777.78
1004.538	1762.64
1004.832	1769.87
1005.127	1747.5
1005.421	1749.98
1005.715	1766.93
1006.009	1735.75
1006.304	1719.47
1006.598	1716.08
1006.892	1688.51
1007.186	1683.54
1007.48	1720.6
1007.773	1672.92
1008.067	1659.36
1008.361	1673.37
1008.655	1657.1
1008.948	1657.33
1009.242	1630.89
1009.535	1639.25
1009.829	1601.51
1010.122	1622.53
1010.415	1602.19
1010.708	1581.85
1011.001	1566.26
1011.295	1556.77
1011.588	1574.39
1011.881	1547.28
1012.173	1518.12
1012.466	1547.73
1012.759	1553.38
1013.052	1544.34
1013.344	1509.54
1013.637	1503.21
1013.93	1489.88
1014.222	1485.58
1014.514	1463.44
1014.807	1458.92
1015.099	1437.9
1015.391	1467.05
1015.683	1462.31
1015.976	1431.8
1016.268	1409.65
1016.56	1374.4
1016.851	1418.47
1017.143	1414.62
1017.435	1368.98
1017.727	1399.71
1018.018	1355.42
1018.31	1381.4
1018.602	1353.61
1018.893	1333.04
1019.185	1328.3
1019.476	1311.35
1019.767	1321.07
1020.058	1306.83
1020.35	1301.63
1020.641	1265.7
1020.932	1269.77
1021.223	1257.79
1021.514	1289.88
1021.804	1244.46
1022.095	1248.3
1022.386	1270.9
1022.677	1263.44
1022.967	1230.67
1023.258	1221.18
1023.548	1215.08
1023.839	1208.3
1024.129	1185.48
1024.419	1216.89
1024.709	1205.36
1025	1202.88
1025.29	1157.91
1025.58	1141.18
1025.87	1162.88
1026.16	1158.36
1026.449	1171.47
1026.739	1140.28
1027.029	1115.42
1027.319	1114.74
1027.608	1100.73
1027.898	1100.06
1028.187	1080.85
1028.477	1097.12
1028.766	1088.53
1029.055	1060.06
1029.344	1054.63
1029.634	1067.29
1029.923	1052.83
1030.212	1024.58
1030.501	1034.75
1030.79	1034.29
1031.078	1042.66
1031.367	1012.83
1031.656	1034.52
1031.945	1008.08
1032.233	997.91
1032.522	1004.47
1032.81	995.43
1033.099	967.86
1033.387	975.99
1033.675	950.46
1033.963	1001.08
1034.251	967.4
1034.54	994.52
1034.828	953.39
1035.116	922.43
1035.403	957.91
1035.691	928.08
1035.979	920.85
1036.267	949.78
1036.554	893.06
1036.842	920.85
1037.129	908.65
1037.417	907.74
1037.704	879.95
1037.992	892.15
1038.279	879.5
1038.566	897.35
1038.853	897.35
1039.14	897.35
