Data from plate_ceramic_FLMS001491_056.txt Node
Date: Tue Feb 07 11:16:59 GMT 2017
User: dcchb
Spectrometer: FLMS00149
Trigger mode: 0
Integration Time (sec): 2.000000E-2
Scans to average: 10
Electric dark correction enabled: true
Nonlinearity correction enabled: false
Boxcar width: 0
XAxis mode: Wavelengths
Number of Pixels in Spectrum: 2048
>>>>>Begin Spectral Data<<<<<
341.393	-14.14
341.776	-14.14
342.16	-14.14
342.543	-63.4
342.927	-66.34
343.31	-59.11
343.693	-39.67
344.077	-58.43
344.46	-47.36
344.843	-67.92
345.226	-43.29
345.61	-33.12
345.993	-3.97
346.376	1.23
346.759	-9.62
347.142	16.37
347.525	43.71
347.908	58.63
348.291	65.86
348.674	88.46
349.057	88.23
349.44	128.68
349.823	130.94
350.206	148.12
350.588	212.3
350.971	227.44
351.354	249.13
351.737	241.67
352.119	268.34
352.502	289.58
352.884	293.88
353.267	301.79
353.65	307.21
354.032	309.92
354.414	330.71
354.797	342.01
355.179	337.72
355.562	322.35
355.944	359.86
356.326	344.04
356.709	356.93
357.091	352.63
357.473	358.28
357.855	364.38
358.238	369.81
358.62	386.76
359.002	361.22
359.384	365.96
359.766	358.73
360.148	344.95
360.53	358.28
360.912	346.53
361.294	342.46
361.676	367.09
362.057	362.58
362.439	362.35
362.821	365.74
363.203	346.3
363.584	359.64
363.966	357.83
364.348	366.42
364.729	366.19
365.111	360.09
365.493	354.44
365.874	366.87
366.256	351.5
366.637	367.55
367.019	339.98
367.4	353.08
367.781	363.71
368.163	338.17
368.544	363.93
368.925	369.81
369.306	370.26
369.688	360.09
370.069	332.52
370.45	361.9
370.831	342.24
371.212	377.94
371.593	362.12
371.974	362.58
372.355	363.71
372.736	362.35
373.117	388.11
373.498	380.65
373.879	360.54
374.26	360.54
374.641	365.29
375.021	366.64
375.402	374.1
375.783	383.59
376.163	407.09
376.544	415.46
376.925	400.09
377.305	387.66
377.686	392.4
378.066	381.33
378.447	406.64
378.827	407.55
379.208	420.65
379.588	414.33
379.968	397.6
380.349	379.75
380.729	414.78
381.109	427.88
381.489	421.1
381.87	442.35
382.25	429.92
382.63	433.08
383.01	453.42
383.39	436.02
383.77	454.78
384.15	445.96
384.53	469.47
384.91	453.65
385.29	464.04
385.67	459.75
386.049	451.61
386.429	462.23
386.809	471.5
387.189	462.69
387.568	461.1
387.948	479.18
388.328	491.84
388.707	489.35
389.087	505.85
389.466	480.54
389.846	496.58
390.225	525.73
390.605	502.46
390.984	506.07
391.363	522.35
391.743	511.05
392.122	508.56
392.501	535.9
392.881	534.77
393.26	568.45
393.639	551.5
394.018	549.46
394.397	553.08
394.776	574.55
395.155	564.15
395.534	578.39
395.913	574.32
396.292	594.89
396.671	619.52
397.05	581.1
397.429	618.84
397.808	599.86
398.186	613.87
398.565	647.31
398.944	627.65
399.323	624.72
399.701	619.97
400.08	625.17
400.458	630.36
400.837	655.9
401.215	633.98
401.594	655.22
401.972	661.55
402.351	680.08
402.729	664.04
403.107	695.22
403.486	669.23
403.864	688.44
404.242	724.83
404.62	693.87
404.999	725.96
405.377	726.86
405.755	754.88
406.133	766.41
406.511	749.68
406.889	741.77
407.267	768.67
407.645	768.89
408.023	814.77
408.401	828.78
408.779	795.78
409.156	795.33
409.534	823.81
409.912	850.7
410.29	839.62
410.667	871.94
411.045	864.93
411.422	889.34
411.8	887.76
412.178	909
412.555	915.1
412.933	938.15
413.31	904.93
413.687	932.28
414.065	951.94
414.442	980.64
414.819	991.03
415.197	1006.17
415.574	976.8
415.951	1011.37
416.328	1005.04
416.705	1030.13
417.082	1022.67
417.46	1048.21
417.837	1053.63
418.214	1081.88
418.591	1052.27
418.967	1089.11
419.344	1122.56
419.721	1121.43
420.098	1117.81
420.475	1166.4
420.852	1172.05
421.228	1159.16
421.605	1144.93
421.982	1182.44
422.358	1182.67
422.735	1225.6
423.111	1195.1
423.488	1214.53
423.864	1238.26
424.241	1252.5
424.617	1290.69
424.994	1285.49
425.37	1290.91
425.746	1287.07
426.123	1310.35
426.499	1336.56
426.875	1345.6
427.251	1366.62
427.627	1405.71
428.003	1408.42
428.379	1442.09
428.756	1423.34
429.132	1461.3
429.507	1464.69
429.883	1506.27
430.259	1525.48
430.635	1537.23
431.011	1553.28
431.387	1583.79
431.763	1611.58
432.138	1605.93
432.514	1655.2
432.89	1657.68
433.265	1726.83
433.641	1734.74
434.016	1756.89
434.392	1774.52
434.767	1755.98
435.143	1790.56
435.518	1809.54
435.894	1791.69
436.269	1845.47
436.644	1876.66
437.02	1896.55
437.395	1883.44
437.77	1938.13
438.145	1935.19
438.52	1973.83
438.895	1991.23
439.271	1995.07
439.646	2027.16
440.021	1999.82
440.395	2062.64
440.77	2047.05
441.145	2084.11
441.52	2117.78
441.895	2111.23
442.27	2128.63
442.645	2125.92
443.019	2164.56
443.394	2154.39
443.769	2196.88
444.143	2181.74
444.518	2232.13
444.892	2245.69
445.267	2245.46
445.641	2265.8
446.016	2287.04
446.39	2305.35
446.764	2301.96
447.139	2335.18
447.513	2375.4
447.887	2350.77
448.262	2371.11
448.636	2426.93
449.01	2429.41
449.384	2468.06
449.758	2465.12
450.132	2495.85
450.506	2509.19
450.88	2517.09
451.254	2553.25
451.628	2593.93
452.002	2606.58
452.376	2619.24
452.75	2671.67
453.123	2710.08
453.497	2736.3
453.871	2677.77
454.244	2818.33
454.618	2814.71
454.992	2875.05
455.365	2877.54
455.739	2947.37
456.112	2962.28
456.486	2960.25
456.859	3018.78
457.232	3064.88
457.606	3116.63
457.979	3134.25
458.352	3190.52
458.725	3245.66
459.099	3251.99
459.472	3305.32
459.845	3367.92
460.218	3395.26
460.591	3425.55
460.964	3417.41
461.337	3509.16
461.71	3546.67
462.083	3589.83
462.456	3636.39
462.829	3643.17
463.201	3720.45
463.574	3729.27
463.947	3791.86
464.32	3866.66
464.692	3890.17
465.065	3910.96
465.438	3980.11
465.81	4017.62
466.183	4057.62
466.555	4178.52
466.928	4199.54
467.3	4190.05
467.672	4219.2
468.045	4345.52
468.417	4429.81
468.789	4449.25
469.161	4459.87
469.534	4543.71
469.906	4713.65
470.278	4704.38
470.65	4779.86
471.022	4832.74
471.394	4914.32
471.766	4980.98
472.138	5050.81
472.51	5138.72
472.882	5209.45
473.253	5291.94
473.625	5343.24
473.997	5442.67
474.369	5550.91
474.74	5636.56
475.112	5667.97
475.484	5784.81
475.855	5848.08
476.227	5936.21
476.598	6069.77
476.97	6146.38
477.341	6294.17
477.713	6418.46
478.084	6427.5
478.455	6588.85
478.827	6671.79
479.198	6847.15
479.569	6881.95
479.94	7075.17
480.311	7118.78
480.682	7327.14
481.053	7456.4
481.424	7598.77
481.795	7596.96
482.166	7780.23
482.537	7907.24
482.908	8010.74
483.279	8073.78
483.65	8278.98
484.021	8400.78
484.391	8517.62
484.762	8688.01
485.133	8730.26
485.503	8845.52
485.874	9013.87
486.244	9121.67
486.615	9311.49
486.985	9464.03
487.356	9584.25
487.726	9713.52
488.097	9879.84
488.467	9901.76
488.837	10167.97
489.207	10231.92
489.578	10359.6
489.948	10489.31
490.318	10680.27
490.688	10714.17
491.058	10908.96
491.428	10950.55
491.798	11163.42
492.168	11341.72
492.538	11332.23
492.908	11466.01
493.278	11659.45
493.648	11724.76
494.017	11845.21
494.387	12019.67
494.757	12112.77
495.126	12276.39
495.496	12300.57
495.866	12381.02
496.235	12519.54
496.605	12676.6
496.974	12773.32
497.344	12816.03
497.713	12966.99
498.082	12981.9
498.452	13184.84
498.821	13293.99
499.19	13298.96
499.559	13578.5
499.928	13577.59
500.298	13629.8
500.667	13754.54
501.036	13778.04
501.405	13983.01
501.774	13969.22
502.143	14167.86
502.512	14152.95
502.88	14409.89
503.249	14284.47
503.618	14518.81
503.987	14554.07
504.356	14687.17
504.724	14808.3
505.093	14881.06
505.462	14881.52
505.83	15070.66
506.199	15164.67
506.567	15418
506.936	15375.74
507.304	15581.38
507.672	15665.68
508.041	15788.38
508.409	15855.5
508.777	16033.35
509.145	16110.18
509.514	16088.04
509.882	16269.5
510.25	16351.53
510.618	16490.51
510.986	16691.19
511.354	16846.21
511.722	16974.79
512.09	17108.8
512.458	17006.66
512.826	17244.17
513.193	17297.5
513.561	17470.37
513.929	17550.6
514.297	17816.81
514.664	17865.39
515.032	18052.96
515.4	18071.94
515.767	18220.18
516.135	18414.08
516.502	18239.85
516.869	18607.75
517.237	18763.9
517.604	18624.92
517.972	18906.49
518.339	19129.99
518.706	19179.48
519.073	19258.8
519.44	19481.85
519.808	19732.69
520.175	19717.55
520.542	19985.56
520.909	20164.54
521.276	20095.16
521.643	20243.63
522.009	20533.34
522.376	20705.54
522.743	20762.94
523.11	20963.84
523.477	21168.13
523.843	21389.37
524.21	21575.58
524.577	21758.85
524.943	21843.37
525.31	22020.31
525.676	22128.33
526.043	22355.67
526.409	22388.66
526.776	22683.34
527.142	22804.25
527.508	22926.73
527.874	23231.13
528.241	23278.13
528.607	23413.49
528.973	23670.21
529.339	23593.83
529.705	23862.97
530.071	24074.95
530.437	24249.18
530.803	24349.29
531.169	24426.35
531.535	24456.18
531.901	24469.51
532.267	24724.19
532.632	24828.37
532.998	25086.67
533.364	25197.18
533.73	25430.62
534.095	25555.81
534.461	25512.65
534.826	25721
535.192	25967.1
535.557	26153.31
535.923	26023.37
536.288	26083.25
536.653	26308.11
537.019	26373.87
537.384	26462
537.749	26530.25
538.114	26664.03
538.479	26764.14
538.845	27020.86
539.21	26940.63
539.575	27151.02
539.94	27187.18
540.305	27359.38
540.67	27319.83
541.034	27434.63
541.399	27570.22
541.764	27708.52
542.129	27798.69
542.494	28094.28
542.858	28032.13
543.223	28088.85
543.587	28340.82
543.952	28272.35
544.316	28368.62
544.681	28448.84
545.045	28583.53
545.41	28779
545.774	28760.25
546.138	28914.59
546.503	29047.24
546.867	28932.45
547.231	29336.73
547.595	29288.37
547.959	29384.64
548.324	29515.03
548.688	29509.15
549.052	29646.55
549.416	29784.4
549.779	29900.33
550.143	29910.95
550.507	30108.46
550.871	30287.21
551.235	30332.41
551.599	30492.63
551.962	30468.22
552.326	30574.21
552.689	30885.16
553.053	30732.62
553.417	30854.88
553.78	31295.55
554.143	31174.19
554.507	31334.64
554.87	31517.46
555.234	31791.35
555.597	31735.08
555.96	31832.26
556.323	32041.97
556.686	32135.07
557.05	32300.94
557.413	32429.98
557.776	32592.46
558.139	32791.55
558.502	32853.02
558.865	33004.88
559.228	33219.79
559.59	33281.03
559.953	33360.35
560.316	33653.9
560.679	33692.09
561.041	33930.05
561.404	34064.74
561.767	34371.62
562.129	34143.38
562.492	34646.19
562.854	34735
563.217	34736.13
563.579	34859.75
563.941	35233.75
564.304	35245.05
564.666	35502.89
565.028	35488.43
565.39	35559.16
565.753	35857.69
566.115	35993.5
566.477	36144.23
566.839	36152.14
567.201	36410.67
567.563	36473.72
567.925	36767.72
568.287	36774.95
568.648	36812.92
569.01	37090.88
569.372	37295.84
569.734	37353.47
570.095	37576.96
570.457	37679.79
570.819	37759.56
571.18	37883.62
571.542	38084.75
571.903	38186.89
572.265	38243.16
572.626	38233.67
572.987	38445.87
573.349	38580.78
573.71	38683.83
574.071	38763.15
574.432	38847.66
574.794	39128.79
575.155	39049.92
575.516	38980.77
575.877	39353.19
576.238	39386.18
576.599	39631.83
576.96	39405.16
577.32	39620.07
577.681	39655.1
578.042	39743.01
578.403	39753.4
578.763	39931.48
579.124	40094.64
579.485	40032.04
579.845	40143.9
580.206	40068.88
580.566	40207.18
580.927	40254.41
581.287	40356.55
581.648	40252.15
582.008	40483.1
582.368	40461.18
582.728	40409.66
583.089	40503.67
583.449	40405.14
583.809	40586.38
584.169	40539.15
584.529	40475.19
584.889	40816.2
585.249	40468.87
585.609	40524.91
585.969	40660.95
586.329	40671.12
586.688	40669.99
587.048	40734.85
587.408	40623.89
587.768	40775.07
588.127	40655.75
588.487	40651.46
588.846	40797.9
589.206	40579.14
589.565	40636.54
589.925	40803.09
590.284	40527.17
590.643	40844.45
591.003	40956.99
591.362	40920.15
591.721	40889.42
592.08	40951.56
592.44	40965.8
592.799	41144.1
593.158	40984.11
593.517	41054.84
593.876	41008.06
594.235	40920.83
594.593	40990.66
594.952	41264.78
595.311	41032.92
595.67	41135.97
596.029	41326.92
596.387	41119.02
596.746	41398.11
597.104	41130.54
597.463	41316.53
597.822	41471.78
598.18	41192.24
598.538	41342.29
598.897	41533.7
599.255	41237.21
599.613	41701.83
599.972	41445.79
600.33	41663.64
600.688	41549.06
601.046	41661.83
601.404	41730.53
601.762	41617.99
602.12	41792.45
602.478	41826.8
602.836	41939.79
603.194	41712.9
603.552	41785.44
603.91	41708.15
604.268	41964.42
604.625	41909.51
604.983	42052.1
605.341	41900.92
605.698	41986.79
606.056	42135.71
606.413	42078.99
606.771	42309.95
607.128	42311.53
607.485	42244.19
607.843	42185.88
608.2	42321.92
608.557	42384.52
608.914	42309.49
609.272	42507.91
609.629	42575.93
609.986	42845.07
610.343	42530.51
610.7	42711.29
611.057	42761.91
611.414	42727.79
611.771	42775.25
612.127	42884.17
612.484	43027.89
612.841	42936.82
613.198	42904.06
613.554	43059.31
613.911	43225.63
614.267	43071.51
614.624	43042.58
614.98	43154.67
615.337	43346.53
615.693	43407.09
616.05	43296.14
616.406	43537.71
616.762	43485.28
617.118	43355.57
617.475	43540.42
617.831	43691.15
618.187	43636.92
618.543	43580.2
618.899	43941.09
619.255	43630.82
619.611	43502.46
619.967	43822
620.323	43960.98
620.678	43797.14
621.034	43691.15
621.39	43605.05
621.746	43798.72
622.101	44011.37
622.457	43697.48
622.812	43828.55
623.168	43934.54
623.523	43893.86
623.879	44168.88
624.234	43804.14
624.589	44024.7
624.945	43960.75
625.3	43987.64
625.655	43858.15
626.01	44043.46
626.365	44027.87
626.72	43912.16
627.075	43888.44
627.43	43738.16
627.785	43708.55
628.14	43740.19
628.495	43888.21
628.85	43789.46
629.205	43652.96
629.559	43936.34
629.914	43608.67
630.269	43634.43
630.623	43578.16
630.978	43446.64
631.332	43616.35
631.687	43644.6
632.041	43477.6
632.396	43503.81
632.75	43491.16
633.104	43341.33
633.459	43309.47
633.813	43265.4
634.167	43295.23
634.521	43286.87
634.875	43281.22
635.229	43062.47
635.583	42996.71
635.937	43059.76
636.291	42849.14
636.645	42877.16
636.999	42803.95
637.352	42994.9
637.706	42728.01
638.06	42786.77
638.413	42745.87
638.767	42723.27
639.121	42712.65
639.474	42388.59
639.828	42488.7
640.181	42524.18
640.534	42585.87
640.888	42472.88
641.241	42061.37
641.594	42316.95
641.947	42297.29
642.301	42187.92
642.654	42202.38
643.007	42187.46
643.36	42078.09
643.713	42053.23
644.066	42297.74
644.419	41958.09
644.771	41608.95
645.124	41242.18
645.477	41264.55
645.83	40916.99
646.182	40779.59
646.535	40563.78
646.888	40666.6
647.24	40739.14
647.593	40935.52
647.945	40952.24
648.298	40720.61
648.65	40460.5
649.002	40187.06
649.355	40391.81
649.707	40431.35
650.059	40538.69
650.411	41022.98
650.763	41041.28
651.115	41441.27
651.467	41233.82
651.819	41332.8
652.171	41110.66
652.523	41020.94
652.875	41069.98
653.227	40873.37
653.578	41136.64
653.93	41092.58
654.282	40806.48
654.633	40846.03
654.985	40848.06
655.337	40914.96
655.688	41000.15
656.039	40781.4
656.391	40500.73
656.742	40575.76
657.094	40538.02
657.445	40835.41
657.796	40577.11
658.147	40575.98
658.498	40507.73
658.849	40619.14
659.2	40477.9
659.551	40490.79
659.902	40644.23
660.253	40428.87
660.604	40558.35
660.955	40333.5
661.306	40541.86
661.656	40321.75
662.007	40384.12
662.358	40297.34
662.708	40213.73
663.059	40171.25
663.409	39883.34
663.76	40211.24
664.11	40154.3
664.461	40057.35
664.811	40208.99
665.161	40199.95
665.511	40171.7
665.862	40175.31
666.212	40236.78
666.562	40265.25
666.912	40205.14
667.262	40293.95
667.612	40070.68
667.962	40153.39
668.312	39933.29
668.662	40113.17
669.011	40151.81
669.361	40059.84
669.711	40085.37
670.06	39925.83
670.41	39879.28
670.76	39788.88
671.109	39910.46
671.459	39708.66
671.808	39694.65
672.157	39919.5
672.507	39622.11
672.856	39626.63
673.205	39703.91
673.554	39780.07
673.904	39499.85
674.253	39844.47
674.602	39656.01
674.951	39180.31
675.3	38976.02
675.649	39540.08
675.998	39440.42
676.346	39439.51
676.695	39497.14
677.044	39299.4
677.393	39428.44
677.741	39394.32
678.09	39254.43
678.438	39276.81
678.787	39352.28
679.135	39297.82
679.484	39119.75
679.832	39340.53
680.181	38904.16
680.529	39037.04
680.877	38788.23
681.225	38886.99
681.573	39050.6
681.922	38875.91
682.27	38772.64
682.618	38761.57
682.966	38617.61
683.314	38689.03
683.661	38624.39
684.009	38407
684.357	38191.64
684.705	38173.56
685.053	38149.38
685.4	38139.89
685.748	38049.95
686.095	38046.78
686.443	37919.55
686.79	37817.86
687.138	37887.24
687.485	37857.18
687.832	37716.62
688.18	37811.53
688.527	37596.85
688.874	37579.68
689.221	37343.3
689.568	37151.21
689.915	37075.28
690.262	37170.87
690.609	37102.17
690.956	37136.3
691.303	36957.09
691.65	36674.84
691.997	36754.16
692.344	36675.52
692.69	36636.88
693.037	36678.23
693.383	36440.04
693.73	36422.19
694.077	36234.85
694.423	36298.13
694.769	36240.95
695.116	36140.17
695.462	36024.46
695.808	35819.95
696.155	35873.05
696.501	35496.57
696.847	35599.61
697.193	35365.95
697.539	35579.73
697.885	35261.32
698.231	35141.55
698.577	35269.68
698.923	35144.94
699.269	34880.31
699.614	34623.14
699.96	34602.58
700.306	34673.99
700.651	34606.65
700.997	34485.52
701.342	34434.9
701.688	34356.71
702.033	34233.32
702.379	34153.78
702.724	34075.36
703.069	34078.07
703.415	33767.57
703.76	33671.98
704.105	33723.51
704.45	33657.74
704.795	33431.54
705.14	33360.13
705.485	33285.33
705.83	33160.58
706.175	33218.21
706.52	33089.62
706.865	32984.54
707.209	32967.59
707.554	32853.47
707.899	32987.93
708.243	32765.11
708.588	32713.81
708.932	32533.93
709.277	32420.04
709.621	32588.17
709.966	32337.33
710.31	32427.49
710.654	32342.07
710.998	32296.88
711.342	32084.9
711.687	32076.77
712.031	31947.73
712.375	31888.07
712.719	31995.64
713.063	31834.74
713.407	31864.35
713.75	31648.53
714.094	31603.79
714.438	31507.29
714.782	31518.59
715.125	31458.03
715.469	31306.62
715.812	31197.92
716.156	31152.27
716.499	31064.37
716.843	31159.73
717.186	30924.48
717.53	31070.92
717.873	31198.15
718.216	30959.96
718.559	30944.6
718.902	30685.85
719.246	30812.85
719.589	30708.22
719.932	30598.84
720.275	30563.59
720.617	30477.04
720.96	30333.99
721.303	30442.24
721.646	30332.86
721.989	30193.2
722.331	30383.71
722.674	30207.44
723.016	30291.28
723.359	30058.29
723.701	30118.85
724.044	29832.99
724.386	29721.13
724.729	29937.84
725.071	29763.61
725.413	29750.28
725.755	29699.43
726.097	29589.15
726.439	29393.45
726.782	29390.29
727.124	29691.07
727.465	29265.09
727.807	29386.67
728.149	29320.68
728.491	29279.78
728.833	29256.96
729.175	29102.16
729.516	29056.28
729.858	29129.95
730.199	28933.8
730.541	29044.76
730.882	28950.3
731.224	29063.29
731.565	28755.05
731.906	28951.65
732.248	28809.51
732.589	28755.27
732.93	28591.66
733.271	28586.69
733.612	28664.66
733.953	28658.1
734.294	28463.53
734.635	28377.88
734.976	28533.59
735.317	28261.05
735.658	28239.13
735.999	28226.93
736.339	28175.18
736.68	28349.41
737.021	28140.6
737.361	28040.49
737.702	28174.5
738.042	28051.11
738.383	28068.74
738.723	28057.89
739.063	28003.88
739.404	27943.77
739.744	27937.67
740.084	27695.42
740.424	27896.54
740.764	27785.13
741.104	27821.06
741.444	27585.81
741.784	27547.62
742.124	27598.24
742.464	27697.68
742.804	27425.37
743.143	27440.73
743.483	27530.9
743.823	27330
744.162	27226.95
744.502	27279.83
744.841	27226.5
745.181	27170.01
745.52	27145.6
745.86	27062.21
746.199	27038.48
746.538	26932.05
746.877	27002.1
747.216	26869.9
747.556	26781.54
747.895	26743.58
748.234	26743.58
748.573	26582.9
748.911	26660.87
749.25	26666.74
749.589	26477.59
749.928	26595.33
750.267	26504.49
750.605	26477.37
750.944	26430.59
751.283	26374.55
751.621	26366.41
751.96	26162.35
752.298	26119.19
752.636	26208.22
752.975	26046.87
753.313	25898.4
753.651	25950.15
753.989	25930.94
754.327	25782.47
754.666	25671.74
755.004	25761.68
755.342	25744.51
755.679	25595.58
756.017	25455.47
756.355	25614.79
756.693	25415.93
757.031	25430.84
757.368	25230.62
757.706	25271.75
758.044	25199.21
758.381	25165.76
758.719	25160.34
759.056	25156.27
759.394	24951.53
759.731	24826.11
760.068	24780.01
760.405	24617.98
760.743	24540.24
761.08	24761.93
761.417	24431.77
761.754	24420.47
762.091	24462.28
762.428	24363.07
762.765	24181.61
763.102	24314.71
763.438	23975.74
763.775	23934.84
764.112	23861.39
764.449	23872.24
764.785	23678.57
765.122	23651.45
765.458	23554.96
765.795	23427.05
766.131	23446.49
766.467	23335.53
766.804	23365.36
767.14	23192.48
767.476	23255.31
767.812	23097.34
768.148	23213.73
768.485	22955.43
768.821	22838.37
769.157	22932.38
769.492	22838.37
769.828	22806.28
770.164	22547.08
770.5	22467.53
770.836	22427.53
771.171	22277.48
771.507	22291.94
771.842	22238.16
772.178	22141.44
772.513	22047.2
772.849	22017.15
773.184	21836.59
773.519	21705.52
773.855	21736.7
774.19	21607.44
774.525	21578.74
774.86	21528.35
775.195	21572.41
775.53	21366.32
775.865	21202.03
776.2	21072.54
776.535	20868.02
776.87	20957.29
777.205	20882.26
777.539	20823.73
777.874	20871.19
778.209	20710.97
778.543	20676.84
778.878	20506.45
779.212	20554.59
779.547	20359.34
779.881	20301.26
780.215	20215.61
780.55	20274.14
780.884	20149.17
781.218	20042.28
781.552	20112.56
781.886	19914.83
782.22	19818.33
782.554	19729.98
782.888	19628.51
783.222	19579.7
783.556	19448.63
783.889	19380.61
784.223	19279.82
784.557	19230.78
784.89	19331.12
785.224	19120.73
785.557	19060.39
785.891	18935.65
786.224	18938.81
786.558	18967.28
786.891	18802.99
787.224	18748.08
787.557	18772.94
787.891	18601.42
788.224	18637.12
788.557	18612.26
788.89	18521.87
789.223	18483.91
789.556	18352.38
789.888	18234.87
790.221	18205.04
790.554	18113.97
790.887	18105.16
791.219	17967.76
791.552	17910.36
791.884	17850.93
792.217	17744.49
792.549	17728.9
792.882	17615.91
793.214	17578.39
793.546	17567.77
793.879	17425.63
794.211	17377.95
794.543	17406.65
794.875	17488.45
795.207	17357.38
795.539	17224.73
795.871	17302.02
796.203	17188.8
796.535	17008.92
796.867	16949.26
797.198	16906.77
797.53	16885.08
797.862	16789.04
798.193	16822.26
798.525	16690.28
798.856	16651.19
799.188	16589.72
799.519	16454.81
799.85	16439.21
800.182	16395.15
800.513	16385.88
800.844	16299.11
801.175	16388.37
801.506	16287.81
801.837	16192.44
802.168	16102.73
802.499	16064.54
802.83	15988.61
803.161	16059.11
803.491	16004.2
803.822	15922.17
804.153	15863.86
804.483	15752.45
804.814	15705.45
805.145	15673.59
805.475	15682.4
805.805	15675.17
806.136	15552.23
806.466	15623.87
806.796	15499.8
807.126	15368.73
807.457	15340.03
807.787	15362.18
808.117	15256.65
808.447	15279.25
808.777	15254.84
809.107	15129.64
809.436	15143.2
809.766	15121.06
810.096	15007.61
810.426	14992.47
810.755	14923.32
811.085	14895.53
811.414	14844.45
811.744	14735.98
812.073	14794.51
812.403	14738.24
812.732	14651.01
813.061	14590.45
813.39	14620.96
813.719	14585.7
814.049	14643.78
814.378	14513.16
814.707	14463.45
815.036	14562.2
815.365	14366.73
815.693	14260.74
816.022	14182.55
816.351	14190.01
816.68	14196.79
817.008	14181.87
817.337	14020.97
817.665	14118.82
817.994	14147.3
818.322	14091.93
818.651	13998.6
818.979	13949.34
819.307	13906.85
819.636	13936.46
819.964	13823.92
820.292	13899.62
820.62	13802.9
820.948	13719.74
821.276	13805.39
821.604	13840.86
821.932	13800.19
822.259	13739.17
822.587	13839.28
822.915	13661.89
823.243	13827.98
823.57	13671.6
823.898	13726.52
824.225	13739.62
824.553	13747.53
824.88	13760.87
825.207	13782.11
825.535	13701.89
825.862	13748.44
826.189	13669.8
826.516	13690.36
826.843	13868.43
827.17	13715.22
827.497	13760.64
827.824	13792.5
828.151	13695.78
828.478	13684.48
828.805	13751.6
829.131	13691.94
829.458	13647.42
829.785	13640.19
830.111	13653.98
830.438	13664.6
830.764	13656.69
831.09	13679.74
831.417	13529.01
831.743	13582.11
832.069	13566.3
832.395	13569.46
832.722	13602.45
833.048	13639.29
833.374	13618.95
833.7	13504.6
834.026	13566.07
834.351	13528.56
834.677	13500.53
835.003	13572.17
835.329	13544.6
835.654	13538.5
835.98	13445.4
836.306	13449.01
836.631	13321.33
836.956	13444.94
837.282	13386.41
837.607	13351.16
837.932	13350.93
838.258	13328.56
838.583	13262.12
838.908	13216.93
839.233	13266.64
839.558	13147.1
839.883	13126.08
840.208	13089.25
840.533	13113.65
840.858	13140.77
841.182	13194.78
841.507	13171.73
841.832	13067.78
842.156	13026.87
842.481	13036.82
842.805	12969.25
843.13	12943.71
843.454	12867.33
843.778	12740.78
844.103	12839.99
844.427	12738.97
844.751	12773.55
845.075	12818.29
845.399	12710.73
845.723	12661.91
846.047	12594.8
846.371	12496.04
846.695	12514.35
847.019	12289.95
847.343	12274.8
847.666	12223.05
847.99	12302.83
848.313	12231.87
848.637	12150.06
848.96	12195.26
849.284	12065.54
849.607	12053.34
849.931	12002.5
850.254	11839.34
850.577	11854.25
850.9	11706.23
851.223	11746
851.546	11753.01
851.869	11619.45
852.192	11738.55
852.515	11596.4
852.838	11559.57
853.161	11442.28
853.483	11468.72
853.806	11402.06
854.129	11447.71
854.451	11360.48
854.774	11337.43
855.096	11350.08
855.419	11235.51
855.741	11265.57
856.063	11184.89
856.385	11252.23
856.708	11075.06
857.03	11036.87
857.352	10998.91
857.674	10982.63
857.996	10936.08
858.318	10948.74
858.64	10922.3
858.961	10878.46
859.283	10820.38
859.605	10739.03
859.926	10750.32
860.248	10740.83
860.57	10635.07
860.891	10706.94
861.212	10633.94
861.534	10662.64
861.855	10632.59
862.176	10630.78
862.498	10653.6
862.819	10581.06
863.14	10569.54
863.461	10534.51
863.782	10485.92
864.103	10442.54
864.424	10381.52
864.745	10457.45
865.065	10453.61
865.386	10396.21
865.707	10377.45
866.027	10418.13
866.348	10408.86
866.668	10427.17
866.989	10355.31
867.309	10290.9
867.63	10283.22
867.95	10260.62
868.27	10267.17
868.59	10183.79
868.91	10192.6
869.23	10174.75
869.55	10145.82
869.87	10133.62
870.19	10135.2
870.51	10105.37
870.83	10132.04
871.15	9988.08
871.469	9992.38
871.789	10045.94
872.109	10031.7
872.428	9971.59
872.748	10010.23
873.067	9981.08
873.386	9993.06
873.706	9944.7
874.025	9855.66
874.344	9864.7
874.663	9890.69
874.982	9817.02
875.301	9837.81
875.62	9805.49
875.939	9767.3
876.258	9797.13
876.577	9749
876.896	9784.47
877.214	9727.53
877.533	9661.09
877.852	9675.1
878.17	9685.49
878.489	9706.96
878.807	9662.9
879.125	9696.34
879.444	9630.13
879.762	9646.85
880.08	9598.94
880.398	9592.84
880.716	9557.36
881.034	9546.29
881.352	9612.05
881.67	9488.44
881.988	9527.31
882.306	9503.35
882.624	9535.89
882.941	9423.58
883.259	9381.1
883.577	9288.44
883.894	9302
884.212	9395.11
884.529	9302.23
884.846	9239.63
885.164	9264.49
885.481	9190.14
885.798	9210.25
886.115	9131.61
886.432	9161.44
886.75	9115.11
887.067	9191.95
887.383	9104.27
887.7	9106.3
888.017	9090.26
888.334	9142.68
888.651	9066.75
888.967	9035.79
889.284	8998.51
889.6	8969.81
889.917	8890.94
890.233	8905.4
890.55	8862.46
890.866	8914.67
891.182	8789.02
891.498	8803.71
891.815	8801.22
892.131	8678.29
892.447	8693.66
892.763	8620.44
893.079	8729.36
893.395	8678.51
893.71	8690.72
894.026	8661.34
894.342	8602.58
894.657	8518.07
894.973	8593.77
895.289	8546.31
895.604	8473.32
895.92	8424.96
896.235	8372.76
896.55	8311.97
896.865	8329.6
897.181	8315.81
897.496	8372.08
897.811	8282.59
898.126	8313.33
898.441	8219.09
898.756	8179.77
899.071	8140
899.386	8184.06
899.7	8065.42
900.015	8068.14
900.33	8010.51
900.644	8022.71
900.959	8010.06
901.273	7965.99
901.588	7914.02
901.902	7855.94
902.216	7860.01
902.531	7801.48
902.845	7756.96
903.159	7713.34
903.473	7721.48
903.787	7651.42
904.101	7641.93
904.415	7642.38
904.729	7582.27
905.042	7575.72
905.356	7552.67
905.67	7527.36
905.984	7546.79
906.297	7505.21
906.611	7478.77
906.924	7537.98
907.237	7409.62
907.551	7366.46
907.864	7394.03
908.177	7321.26
908.491	7350.64
908.804	7214.37
909.117	7211.43
909.43	7143.41
909.743	7176.86
910.056	7132.34
910.368	7127.6
910.681	7130.53
910.994	7014.15
911.307	7019.12
911.619	6981.16
911.932	6947.49
912.244	6909.52
912.557	6938.9
912.869	6928.28
913.181	6800.82
913.494	6761.73
913.806	6768.96
914.118	6784.33
914.43	6688.51
914.742	6727.83
915.054	6669.08
915.366	6683.76
915.678	6563.32
915.99	6629.98
916.302	6532.58
916.613	6568.97
916.925	6539.14
917.236	6505.69
917.548	6425.47
917.859	6497.78
918.171	6427.5
918.482	6350.44
918.794	6350.44
919.105	6375.3
919.416	6326.49
919.727	6299.82
920.038	6254.17
920.349	6227.73
920.66	6233.38
920.971	6219.37
921.282	6141.86
921.593	6098.02
921.903	6060.05
922.214	6036.32
922.525	6061.41
922.835	6071.13
923.146	5987.96
923.456	6029.09
923.767	5995.42
924.077	5949.09
924.387	5862.32
924.697	5848.76
925.008	5868.42
925.318	5826.84
925.628	5809.66
925.938	5795.88
926.248	5698.48
926.558	5714.75
926.867	5714.75
927.177	5674.75
927.487	5643.79
927.796	5571.03
928.106	5588.2
928.416	5514.3
928.725	5535.09
929.034	5489.45
929.344	5502.78
929.653	5494.87
929.962	5500.07
930.271	5409.45
930.581	5385.49
930.89	5388.43
931.199	5346.4
931.508	5324.03
931.817	5289.23
932.125	5298.26
932.434	5285.16
932.743	5223.24
933.051	5182.79
933.36	5225.27
933.669	5234.99
933.977	5131.49
934.286	5186.86
934.594	5152.96
934.902	5036.58
935.21	5065.95
935.519	5058.27
935.827	5047.42
936.135	5019.85
936.443	5011.94
936.751	4929.46
937.059	4940.76
937.367	4933.3
937.674	4869.12
937.982	4893.76
938.29	4888.56
938.597	4870.71
938.905	4792.06
939.213	4810.82
939.52	4807.66
939.827	4791.16
940.135	4781.67
940.442	4719.97
940.749	4707.55
941.056	4664.83
941.363	4638.85
941.67	4651.73
941.977	4600.88
942.284	4588.23
942.591	4586.64
942.898	4556.36
943.205	4582.35
943.511	4559.98
943.818	4522.92
944.125	4457.38
944.431	4411.06
944.738	4450.15
945.044	4393.2
945.35	4392.07
945.657	4368.8
945.963	4370.15
946.269	4331.96
946.575	4385.97
946.881	4258.29
947.187	4305.97
947.493	4236.82
947.799	4295.35
948.105	4239.31
948.41	4243.38
948.716	4177.39
949.022	4192.98
949.327	4193.43
949.633	4113.66
949.938	4114.79
950.244	4159.09
950.549	4105.75
950.854	4083.38
951.16	4086.09
951.465	4052.42
951.77	4031.18
952.075	3992.76
952.38	4010.84
952.685	3999.99
952.99	3964.29
953.294	3958.41
953.599	3943.72
953.904	3902.14
954.209	3881.58
954.513	3859.43
954.818	3832.09
955.122	3823.5
955.426	3823.28
955.731	3798.64
956.035	3781.92
956.339	3750.06
956.643	3746.44
956.948	3727.91
957.252	3738.98
957.556	3703.73
957.86	3697.85
958.163	3713
958.467	3635.48
958.771	3681.58
959.075	3656.05
959.378	3625.31
959.682	3607.24
959.985	3579.21
960.289	3588.93
960.592	3536.96
960.896	3512.32
961.199	3487.69
961.502	3515.49
961.805	3460.12
962.108	3474.81
962.411	3453.12
962.714	3389.39
963.017	3421.48
963.32	3430.74
963.623	3398.2
963.926	3447.92
964.228	3413.57
964.531	3371.54
964.833	3350.75
965.136	3325.21
965.438	3301.26
965.741	3349.62
966.043	3281.14
966.345	3246.34
966.648	3231.2
966.95	3275.72
967.252	3231.43
967.554	3238.43
967.856	3193.69
968.158	3209.73
968.46	3169.96
968.761	3151.43
969.063	3123.63
969.365	3143.29
969.666	3154.37
969.968	3092.22
970.269	3054.26
970.571	3101.71
970.872	3030.53
971.174	3047.7
971.475	3012.45
971.776	3028.49
972.077	3046.57
972.378	3000.92
972.679	2987.82
972.98	2964.77
973.281	2956.41
973.582	2934.71
973.883	2926.58
974.183	2934.71
974.484	2954.37
974.785	2871.89
975.085	2893.81
975.386	2911.43
975.686	2879.35
975.986	2819.01
976.287	2861.27
976.587	2887.03
976.887	2828.5
977.187	2789.4
977.487	2791.21
977.787	2751.44
978.087	2720.25
978.387	2760.03
978.687	2750.99
978.987	2738.78
979.286	2675.28
979.586	2701.95
979.885	2674.15
980.185	2654.72
980.484	2680.93
980.784	2680.25
981.083	2641.61
981.382	2607.49
981.682	2638.45
981.981	2602.97
982.28	2579.24
982.579	2578.79
982.878	2580.82
983.177	2587.15
983.475	2536.98
983.774	2562.29
984.073	2524.78
984.372	2529.98
984.67	2500.37
984.969	2516.19
985.267	2499.92
985.566	2477.77
985.864	2437.32
986.162	2473.03
986.461	2447.04
986.759	2437.77
987.057	2409.3
987.355	2389.87
987.653	2383.31
987.951	2410.2
988.249	2371.79
988.547	2394.84
988.844	2370.88
989.142	2355.29
989.44	2317.33
989.737	2312.58
990.035	2301.73
990.332	2330.89
990.63	2273.03
990.927	2288.17
991.224	2314.61
991.521	2282.52
991.819	2250.21
992.116	2255.41
992.413	2230.32
992.71	2214.96
993.006	2212.02
993.303	2187.16
993.6	2164.11
993.897	2149.42
994.193	2166.6
994.49	2148.74
994.787	2126.14
995.083	2130.89
995.379	2145.58
995.676	2133.6
995.972	2125.01
996.268	2109.87
996.565	2061.29
996.861	2066.94
997.157	2082.53
997.453	2062.87
997.749	2041.18
998.044	2016.77
998.34	2014.06
998.636	2035.3
998.932	2040.05
999.227	1975.64
999.523	1992.81
999.818	1953.27
1000.114	1965.47
1000.409	1960.5
1000.704	1939.71
1001	1945.36
1001.295	1938.35
1001.59	1929.09
1001.885	1916.88
1002.18	1908.07
1002.475	1895.64
1002.77	1879.37
1003.065	1872.59
1003.359	1873.27
1003.654	1843.44
1003.949	1815.42
1004.243	1841.86
1004.538	1806.83
1004.832	1834.63
1005.127	1811.12
1005.421	1781.07
1005.715	1783.1
1006.009	1762.31
1006.304	1734.29
1006.598	1749.88
1006.892	1737.68
1007.186	1713.05
1007.48	1734.52
1007.773	1724.35
1008.067	1674.41
1008.361	1684.57
1008.655	1680.51
1008.948	1680.96
1009.242	1699.49
1009.535	1656.78
1009.829	1636.44
1010.122	1608.42
1010.415	1650.45
1010.708	1617.01
1011.001	1628.08
1011.295	1600.28
1011.588	1617.68
1011.881	1581.07
1012.173	1600.51
1012.466	1559.83
1012.759	1564.58
1013.052	1549.21
1013.344	1557.8
1013.637	1521.87
1013.93	1520.51
1014.222	1507.63
1014.514	1521.64
1014.807	1500.4
1015.099	1479.83
1015.391	1471.02
1015.683	1458.59
1015.976	1423.56
1016.268	1467.4
1016.56	1468.31
1016.851	1421.98
1017.143	1422.89
1017.435	1410.46
1017.727	1408.42
1018.018	1377.46
1018.31	1379.05
1018.602	1371.14
1018.893	1370.91
1019.185	1400.97
1019.476	1343.11
1019.767	1366.16
1020.058	1357.13
1020.35	1333.62
1020.641	1322.55
1020.932	1286.62
1021.223	1283.45
1021.514	1296.56
1021.804	1280.97
1022.095	1272.61
1022.386	1291.14
1022.677	1277.35
1022.967	1240.97
1023.258	1222.89
1023.548	1251.82
1023.839	1207.75
1024.129	1240.74
1024.419	1198.94
1024.709	1217.92
1025	1193.51
1025.29	1188.54
1025.58	1210.69
1025.87	1170.24
1026.16	1193.51
1026.449	1157.58
1026.739	1180.63
1027.029	1166.4
1027.319	1140.41
1027.608	1138.6
1027.898	1110.35
1028.187	1129.33
1028.477	1119.62
1028.766	1117.36
1029.055	1084.36
1029.344	1096.57
1029.634	1076.23
1029.923	1086.85
1030.212	1062.9
1030.501	1064.7
1030.79	1042.33
1031.078	1050.69
1031.367	1032.61
1031.656	1047.3
1031.945	1041.43
1032.233	1029.45
1032.522	1031.94
1032.81	1017.25
1033.099	989.9
1033.387	1004.82
1033.675	1001.65
1033.963	985.38
1034.251	1004.82
1034.54	963.92
1034.828	981.32
1035.116	962.11
1035.403	954.88
1035.691	955.1
1035.979	943.8
1036.267	955.33
1036.554	945.84
1036.842	921.43
1037.129	920.07
1037.417	941.09
1037.704	906.74
1037.992	902.67
1038.279	909.68
1038.566	891.83
1038.853	891.83
1039.14	891.83
