Data from plate_porcelain_FLMS001491_086.txt Node
Date: Tue Feb 07 11:20:03 GMT 2017
User: dcchb
Spectrometer: FLMS00149
Trigger mode: 0
Integration Time (sec): 2.000000E-2
Scans to average: 10
Electric dark correction enabled: true
Nonlinearity correction enabled: false
Boxcar width: 0
XAxis mode: Wavelengths
Number of Pixels in Spectrum: 2048
>>>>>Begin Spectral Data<<<<<
341.393	-12.73
341.776	-12.73
342.16	-12.73
342.543	-44.14
342.927	-46.4
343.31	-76.23
343.693	-66.06
344.077	-56.57
344.46	-57.92
344.843	-56.79
345.226	-30.58
345.61	-27.64
345.993	-30.35
346.376	-15.21
346.759	-0.97
347.142	18.69
347.525	48.97
347.908	51.23
348.291	79.7
348.674	113.82
349.057	105.92
349.44	136.87
349.823	144.78
350.206	188.17
350.588	217.1
350.971	238.12
351.354	248.51
351.737	292.58
352.119	298.68
352.502	298.23
352.884	291
353.267	323.99
353.65	323.54
354.032	330.99
354.414	352.46
354.797	361.73
355.179	365.8
355.562	367.38
355.944	357.66
356.326	392.69
356.709	381.16
357.091	368.28
357.473	382.07
357.855	398.11
358.238	411.67
358.62	364.44
359.002	396.3
359.384	392.24
359.766	398.56
360.148	375.29
360.53	403.76
360.912	386.13
361.294	399.01
361.676	378.9
362.057	368.06
362.439	393.14
362.821	392.01
363.203	378.68
363.584	383.42
363.966	380.26
364.348	381.16
364.729	390.43
365.111	393.59
365.493	390.88
365.874	401.73
366.256	386.36
366.637	380.71
367.019	396.53
367.4	383.42
367.781	398.79
368.163	400.37
368.544	379.13
368.925	389.07
369.306	406.25
369.688	389.07
370.069	409.64
370.45	405.12
370.831	410.09
371.212	428.17
371.593	394.5
371.974	416.64
372.355	418.22
372.736	419.81
373.117	436.53
373.498	427.04
373.879	402.63
374.26	418.22
374.641	409.64
375.021	391.78
375.402	433.36
375.783	459.58
376.163	448.96
376.544	464.1
376.925	460.48
377.305	437.43
377.686	449.86
378.066	450.31
378.447	464.55
378.827	457.32
379.208	479.92
379.588	465.68
379.968	480.37
380.349	461.84
380.729	468.39
381.109	472.46
381.489	475.17
381.87	499.8
382.25	511.33
382.63	506.13
383.01	486.7
383.39	509.52
383.77	522.85
384.15	523.31
384.53	539.12
384.91	515.85
385.29	521.27
385.67	547.71
386.049	539.58
386.429	548.62
386.809	565.11
387.189	552.68
387.568	535.96
387.948	583.42
388.328	578.67
388.707	573.7
389.087	598.11
389.466	615.05
389.846	592
390.225	616.86
390.605	613.92
390.984	620.48
391.363	664.09
391.743	643.3
392.122	622.96
392.501	638.33
392.881	648.5
393.26	660.7
393.639	644.88
394.018	672.68
394.397	690.53
394.776	677.88
395.155	713.58
395.534	708.84
395.913	721.04
396.292	738.89
396.671	735.73
397.05	737.09
397.429	732.11
397.808	755.16
398.186	750.64
398.565	766.46
398.944	759.23
399.323	787.93
399.701	787.25
400.08	789.74
400.458	816.63
400.837	803.75
401.215	808.5
401.594	815.28
401.972	834.71
402.351	849.17
402.729	853.92
403.107	873.8
403.486	861.38
403.864	870.41
404.242	891.21
404.62	901.37
404.999	890.75
405.377	907.48
405.755	922.62
406.133	954.25
406.511	929.85
406.889	980.47
407.267	978.21
407.645	974.37
408.023	1027.47
408.401	1014.14
408.779	1059.34
409.156	1056.62
409.534	1088.71
409.912	1083.97
410.29	1095.95
410.667	1103.4
411.045	1145.21
411.422	1132.55
411.8	1140.01
412.178	1171.88
412.555	1216.62
412.933	1202.16
413.31	1224.53
413.687	1238.54
414.065	1264.75
414.442	1284.42
414.819	1287.13
415.197	1297.75
415.574	1312.66
415.951	1341.82
416.328	1326.22
416.705	1336.84
417.082	1306.79
417.46	1376.62
417.837	1390.4
418.214	1390.63
418.591	1431.98
418.967	1413.23
419.344	1459.33
419.721	1464.52
420.098	1476.73
420.475	1511.08
420.852	1504.3
421.228	1559.66
421.605	1535.26
421.982	1580.9
422.358	1565.99
422.735	1607.12
423.111	1610.73
423.488	1632.65
423.864	1627.91
424.241	1689.6
424.617	1688.25
424.994	1706.1
425.37	1711.52
425.746	1735.93
426.123	1759.88
426.499	1770.73
426.875	1802.37
427.251	1841.24
427.627	1863.16
428.003	1864.51
428.379	1904.96
428.756	1939.77
429.132	1964.85
429.507	2003.94
429.883	2027.9
430.259	2070.84
430.635	2073.77
431.011	2096.82
431.387	2141.57
431.763	2150.83
432.138	2209.81
432.514	2237.16
432.89	2263.15
433.265	2286.65
433.641	2338.4
434.016	2351.05
434.392	2378.4
434.767	2426.76
435.143	2404.61
435.518	2438.96
435.894	2486.19
436.269	2485.29
436.644	2585.85
437.02	2601.89
437.395	2619.75
437.77	2610.71
438.145	2708.33
438.52	2714.43
438.895	2760.53
439.271	2741.1
439.646	2806.18
440.021	2793.53
440.395	2823.13
440.77	2847.31
441.145	2884.83
441.52	2903.58
441.895	2939.29
442.27	2924.6
442.645	2951.94
443.019	3010.92
443.394	3002.79
443.769	3026.52
444.143	3018.61
444.518	3122.11
444.892	3096.57
445.267	3100.19
445.641	3170.47
446.016	3153.97
446.39	3218.38
446.764	3261.76
447.139	3250.47
447.513	3264.48
447.887	3285.94
448.262	3347.86
448.636	3319.16
449.01	3408.88
449.384	3439.16
449.758	3482.1
450.132	3530.23
450.506	3510.57
450.88	3500.63
451.254	3579.04
451.628	3579.72
452.002	3640.74
452.376	3710.34
452.75	3717.12
453.123	3740.62
453.497	3857.46
453.871	3869.43
454.244	3970.67
454.618	3979.94
454.992	4046.6
455.365	4033.72
455.739	4104
456.112	4165.7
456.486	4216.32
456.859	4223.77
457.232	4364.33
457.606	4315.07
457.979	4398.91
458.352	4515.06
458.725	4519.81
459.099	4598.45
459.472	4686.59
459.845	4735.85
460.218	4791.44
460.591	4816.98
460.964	4870.99
461.337	5021.04
461.71	5047.48
462.083	5102.39
462.456	5138.1
462.829	5171.09
463.201	5264.65
463.574	5277.08
463.947	5404.99
464.32	5514.36
464.692	5462.61
465.065	5586
465.438	5670.29
465.81	5739.89
466.183	5834.35
466.555	5920.23
466.928	5982.82
467.3	6044.97
467.672	6078.87
468.045	6244.96
468.417	6292.87
468.789	6303.04
469.161	6435.24
469.534	6512.53
469.906	6672.97
470.278	6733.99
470.65	6763.37
471.022	6952.51
471.394	7045.39
471.766	7125.62
472.138	7255.33
472.51	7356.57
472.882	7498.49
473.253	7585.72
473.625	7729.22
473.997	7895.32
474.369	7939.16
474.74	8007.63
475.112	8150.22
475.484	8323.55
475.855	8498.01
476.227	8479.48
476.598	8779.81
476.97	8818
477.341	9029.52
477.713	9121.27
478.084	9241.27
478.455	9510.87
478.827	9580.02
479.198	9839.22
479.569	9865.21
479.94	10221.58
480.311	10249.83
480.682	10497.28
481.053	10811.17
481.424	10971.17
481.795	11040.09
482.166	11243.25
482.537	11332.74
482.908	11665.39
483.279	11637.36
483.65	11943.12
484.021	12222.21
484.391	12349.89
484.762	12527.96
485.133	12619.94
485.503	12762.31
485.874	13073.94
486.244	13195.97
486.615	13458.33
486.985	13663.98
487.356	13898.1
487.726	13953.69
488.097	14333.56
488.467	14320.46
488.837	14621.01
489.207	14807.68
489.578	15018.52
489.948	15130.15
490.318	15420.31
490.688	15495.79
491.058	15754.09
491.428	15950.92
491.798	16113.86
492.168	16437.69
492.538	16493.06
492.908	16775.31
493.278	16882.42
493.648	16972.59
494.017	17211.45
494.387	17429.98
494.757	17524.67
495.126	17740.48
495.496	17824.55
495.866	17997.42
496.235	18185.21
496.605	18325.32
496.974	18458.65
497.344	18587.24
497.713	18858.19
498.082	18912.88
498.452	19118.07
498.821	19243.04
499.19	19321.46
499.559	19569.81
499.928	19682.58
500.298	19848.45
500.667	20040.53
501.036	19990.82
501.405	20271.26
501.774	20336.8
502.143	20476
502.512	20596.9
502.88	20739.27
503.249	20753.28
503.618	21052.71
503.987	21138.13
504.356	21193.72
504.724	21474.84
505.093	21485.01
505.462	21600.27
505.83	21861.73
506.199	22021.72
506.567	22390.3
506.936	22193.24
507.304	22663.06
507.672	22658.32
508.041	22682.27
508.409	22994.8
508.777	23202.48
509.145	23446.77
509.514	23385.08
509.882	23567.22
510.25	23649.48
510.618	23814.9
510.986	23843.82
511.354	24284.49
511.722	24272.29
512.09	24758.15
512.458	24690.35
512.826	24983.91
513.193	25088.08
513.561	25075.43
513.929	25382.54
514.297	25679.25
514.664	25938.91
515.032	25913.37
515.4	26237.21
515.767	26310.88
516.135	26434.71
516.502	26436.97
516.869	26829.28
517.237	26950.18
517.604	26977.75
517.972	27490.96
518.339	27540.45
518.706	27749.93
519.073	27745.87
519.44	28047.33
519.808	28365.51
520.175	28299.98
520.542	28761.43
520.909	28881.43
521.276	29043.91
521.643	29328.65
522.009	29574.97
522.376	29838.47
522.743	29873.95
523.11	30279.36
523.477	30582.18
523.843	30800.25
524.21	30939.23
524.577	31291.99
524.943	31402.72
525.31	31581.47
525.676	31864.85
526.043	32103.72
526.409	32184.17
526.776	32574.44
527.142	32691.27
527.508	33073.86
527.874	33207.87
528.241	33434.3
528.607	33517.01
528.973	33914.52
529.339	33867.29
529.705	34291.23
530.071	34570.32
530.437	34725.12
530.803	34883.98
531.169	35168.72
531.535	35168.72
531.901	35257.31
532.267	35297.76
532.632	35656.84
532.998	35784.07
533.364	36069.26
533.73	36349.71
534.095	36624.28
534.461	36661.56
534.826	36885.51
535.192	36887.32
535.557	37316.01
535.923	37158.73
536.288	37404.37
536.653	37593.97
537.019	37584.03
537.384	37726.17
537.749	37903.79
538.114	38026.73
538.479	38262.2
538.845	38288.64
539.21	38278.47
539.575	38484.34
539.94	38557.79
540.305	38987.38
540.67	38823.09
541.034	39122.52
541.399	39317.54
541.764	39341.49
542.129	39481.6
542.494	39590.3
542.858	39837.07
543.223	39871.2
543.587	40097.63
543.952	40077.97
544.316	40214.69
544.681	40261.24
545.045	40628.69
545.41	40763.83
545.774	40883.83
546.138	40928.12
546.503	41033.2
546.867	41065.06
547.231	41387.54
547.595	41540.08
547.959	41659.85
548.324	41655.33
548.688	41879.96
549.052	41921.54
549.416	42162.44
549.779	42159.5
550.143	42352.71
550.507	42606.27
550.871	42632.48
551.235	42919.7
551.599	43027.5
551.962	43251.9
552.326	43270.88
552.689	43506.36
553.053	43380.94
553.417	43506.81
553.78	44057.08
554.143	43986.57
554.507	44116.51
554.87	44350.63
555.234	44755.81
555.597	44519.89
555.96	44786.32
556.323	44785.64
556.686	44977.05
557.05	45295.69
557.413	45482.35
557.776	45369.58
558.139	45833.07
558.502	45803.24
558.865	45985.61
559.228	46236
559.59	46396.22
559.953	46590.79
560.316	46878.92
560.679	46846.61
561.041	47162.08
561.404	47255.41
561.767	47596.42
562.129	47450.66
562.492	47837.54
562.854	47911.89
563.217	47904.43
563.579	48166.8
563.941	48405.66
564.304	48606.33
564.666	48870.51
565.028	48838.19
565.39	48973.56
565.753	49123.16
566.115	49457.39
566.477	49546.88
566.839	49556.37
567.201	49877.94
567.563	49847.88
567.925	50192.28
568.287	50149.57
568.648	50211.04
569.01	50390.69
569.372	50679.95
569.734	50598.15
570.095	50882.21
570.457	50901.87
570.819	51027.51
571.18	50992.71
571.542	51280.84
571.903	51258.69
572.265	51432.48
572.626	51469.54
572.987	51591.57
573.349	51697.55
573.71	51865.01
574.071	51884.89
574.432	52057.77
574.794	52312.68
575.155	52178.9
575.516	52044.89
575.877	52307.03
576.238	52281.72
576.599	52516.97
576.96	52533.92
577.32	52490.3
577.681	52678.32
578.042	52708.15
578.403	52750.41
578.763	52769.84
579.124	52867.69
579.485	52929.61
579.845	53083.28
580.206	53021.13
580.566	53005.09
580.927	53122.15
581.287	53163.73
581.648	53035.6
582.008	53280.11
582.368	53185.2
582.728	53255.93
583.089	53230.17
583.449	53203.05
583.809	53270.85
584.169	53360.79
584.529	53278.53
584.889	53422.93
585.249	53284.4
585.609	53113.79
585.969	53406.89
586.329	53342.26
586.688	53430.39
587.048	53360.11
587.408	53358.98
587.768	53232.43
588.127	53372.54
588.487	53247.12
588.846	53459.54
589.206	53395.59
589.565	53329.15
589.925	53484.62
590.284	53447.11
590.643	53538.86
591.003	53564.62
591.362	53650.5
591.721	53569.37
592.08	53458.64
592.44	53610.5
592.799	53597.62
593.158	53495.25
593.517	53594.9
593.876	53664.96
594.235	53572.53
594.593	53575.02
594.952	53737.73
595.311	53672.87
595.67	53633.1
596.029	53777.95
596.387	53854.33
596.746	53789.25
597.104	53757.39
597.463	53693.43
597.822	53916.25
598.18	53786.76
598.538	53757.84
598.897	53916.48
599.255	53661.12
599.613	54055.01
599.972	53905.4
600.33	53939.3
600.688	53919.87
601.046	54024.95
601.404	54183.82
601.762	53993.31
602.12	54217.49
602.478	54218.39
602.836	54247.32
603.194	54068.79
603.552	54177.04
603.91	54091.39
604.268	54362.34
604.625	54225.85
604.983	54354.21
605.341	54159.64
605.698	54353.08
606.056	54460.19
606.413	54418.84
606.771	54451.38
607.128	54539.74
607.485	54354.66
607.843	54394.88
608.2	54538.61
608.557	54686.63
608.914	54493.86
609.272	54680.75
609.629	54641.66
609.986	54807.3
610.343	54696.34
610.7	54909.9
611.057	54889.56
611.414	54829.22
611.771	54861.54
612.127	55055.2
612.484	55034.19
612.841	55076
613.198	54954.87
613.554	54931.37
613.911	55197.57
614.267	55115.32
614.624	55106.28
614.98	55190.57
615.337	55300.85
615.693	55244.35
616.05	55195.31
616.406	55338.14
616.762	55300.4
617.118	55259.49
617.475	55314.18
617.831	55340.85
618.187	55377.46
618.543	55398.25
618.899	55456.32
619.255	55473.05
619.611	55433.27
619.967	55493.16
620.323	55669.88
620.678	55517.57
621.034	55514.63
621.39	55541.07
621.746	55520.05
622.101	55763.66
622.457	55555.76
622.812	55579.03
623.168	55632.36
623.523	55632.36
623.879	55733.15
624.234	55532.03
624.589	55626.72
624.945	55633.49
625.3	55694.51
625.655	55592.14
626.01	55621.74
626.365	55608.64
626.72	55604.8
627.075	55546.94
627.43	55578.13
627.785	55536.55
628.14	55585.81
628.495	55582.65
628.85	55528.86
629.205	55404.8
629.559	55530.67
629.914	55501.07
630.269	55564.57
630.623	55413.16
630.978	55400.96
631.332	55455.65
631.687	55488.41
632.041	55301.75
632.396	55391.02
632.75	55278.48
633.104	55250.91
633.459	55181.76
633.813	55196.9
634.167	55196.44
634.521	55168.87
634.875	55212.94
635.229	55052.04
635.583	55036.45
635.937	54960.97
636.291	55040.06
636.645	54951.48
636.999	54942.67
637.352	54924.36
637.706	54821.54
638.06	54950.8
638.413	54865.15
638.767	54776.79
639.121	54838.49
639.474	54622.67
639.828	54638.04
640.181	54654.09
640.534	54610.92
640.888	54597.82
641.241	54365.28
641.594	54459.97
641.947	54511.04
642.301	54415.22
642.654	54422
643.007	54475.79
643.36	54420.87
643.713	54324.83
644.066	54398.95
644.419	54128.9
644.771	54041.45
645.124	53778.63
645.477	53642.36
645.83	53522.36
646.182	53308.58
646.535	53260.22
646.888	53367.57
647.24	53183.62
647.593	53329.83
647.945	53187.91
648.298	53009.38
648.65	52975.94
649.002	52974.13
649.355	53090.28
649.707	53023.39
650.059	53077.4
650.411	53498.41
650.763	53469.48
651.115	53772.98
651.467	53664.28
651.819	53591.06
652.171	53497.96
652.523	53510.16
652.875	53454.8
653.227	53344.06
653.578	53530.27
653.93	53420.22
654.282	53273.56
654.633	53212.09
654.985	53214.35
655.337	53203.73
655.688	53295.25
656.039	53490.5
656.391	53043.73
656.742	53096.16
657.094	53185.2
657.445	53201.02
657.796	53219.77
658.147	53091.19
658.498	53109.27
658.849	53133.22
659.2	53144.07
659.551	53069.04
659.902	53105.88
660.253	53044.64
660.604	53017.29
660.955	52883.96
661.306	53019.55
661.656	52946.79
662.007	52943.4
662.358	52895.94
662.708	53006.9
663.059	52888.03
663.409	52729.16
663.76	52899.1
664.11	52847.13
664.461	52816.62
664.811	52800.35
665.161	52862.95
665.511	52788.6
665.862	52754.47
666.212	52862.49
666.562	52926.45
666.912	52707.92
667.262	52715.15
667.612	52714.02
667.962	52771.2
668.312	52724.87
668.662	52832.66
669.011	52718.54
669.361	52614.82
669.711	52612.78
670.06	52706.34
670.41	52535.72
670.76	52480.36
671.109	52592.22
671.459	52501.6
671.808	52484.43
672.157	52600.13
672.507	52312.68
672.856	52419.57
673.205	52483.3
673.554	52470.87
673.904	52356.74
674.253	52491.88
674.602	52304.32
674.951	51941.39
675.3	51785.91
675.649	52250.98
675.998	52312.68
676.346	52224.09
676.695	52341.15
677.044	52047.83
677.393	52239.01
677.741	52260.93
678.09	52184.55
678.438	52041.27
678.787	52191.1
679.135	52070.88
679.484	51898.9
679.832	52091.22
680.181	51809.41
680.529	51869.75
680.877	51744.56
681.225	51673.82
681.573	51909.3
681.922	51660.27
682.27	51582.75
682.618	51752.47
682.966	51562.64
683.314	51546.82
683.661	51319.26
684.009	51296.66
684.357	51178.24
684.705	51197.91
685.053	51281.97
685.4	51184.12
685.748	51029.1
686.095	51008.76
686.443	50849.21
686.79	50647.19
687.138	50713.4
687.485	50787.52
687.832	50772.83
688.18	50806.28
688.527	50493.74
688.874	50458.49
689.221	50344.37
689.568	50249.91
689.915	50208.33
690.262	50281.77
690.609	50124.94
690.956	49915
691.303	49858.51
691.65	49725.18
691.997	49654.22
692.344	49563.37
692.69	49492.41
693.037	49650.38
693.383	49252.87
693.73	49245.64
694.077	49028.92
694.423	49223.27
694.769	48935.14
695.116	49035.02
695.462	48974.23
695.808	48651.76
696.155	48856.27
696.501	48557.75
696.847	48506.45
697.193	48284.76
697.539	48365.66
697.885	48258.55
698.231	48015.84
698.577	48054.03
698.923	47908.27
699.269	47770.88
699.614	47503.99
699.96	47467.38
700.306	47512.13
700.651	47308.97
700.997	47202.53
701.342	47260.83
701.688	47167.73
702.033	46907.62
702.379	46879.83
702.724	46771.13
703.069	46898.36
703.415	46487.07
703.76	46564.58
704.105	46359.39
704.45	46253.18
704.795	46109.9
705.14	45801.89
705.485	45939.06
705.83	45932.51
706.175	45883.47
706.52	45750.36
706.865	45612.97
707.209	45542.01
707.554	45444.16
707.899	45342.92
708.243	45160.78
708.588	45098.63
708.932	44921.01
709.277	44851.63
709.621	44907.68
709.966	44678.3
710.31	44751.3
710.654	44401.47
710.998	44322.15
711.342	44481.25
711.687	44333.23
712.031	44018.21
712.375	43992.22
712.719	44034.03
713.063	43904.99
713.407	44069.28
713.75	43926.46
714.094	43819.79
714.438	43613.47
714.782	43783.18
715.125	43428.39
715.469	43610.53
715.812	43185.69
716.156	43079.47
716.499	43156.76
716.843	42994.73
717.186	42738.69
717.53	42872.7
717.873	42873.6
718.216	42988.86
718.559	42600.62
718.902	42545.25
719.246	42653.5
719.589	42428.64
719.932	42214.19
720.275	42207.41
720.617	42139.84
720.96	42356.78
721.303	42041.54
721.646	42152.49
721.989	41824.37
722.331	41967.41
722.674	41890.13
723.016	41976.23
723.359	41723.35
723.701	41708.44
724.044	41541.21
724.386	41389.58
724.729	41416.92
725.071	41338.5
725.413	41226.64
725.755	41309.13
726.097	41085.63
726.439	40962.02
726.782	40969.47
727.124	41070.94
727.465	40928.57
727.807	40877.72
728.149	40715.02
728.491	40610.84
728.833	40644.51
729.175	40516.15
729.516	40522.03
729.858	40329.94
730.199	40454.01
730.541	40267.57
730.882	40172.66
731.224	40225.54
731.565	40051.31
731.906	40015.6
732.248	40177.63
732.589	39876.4
732.93	39713.69
733.271	39933.34
733.612	39850.18
733.953	39773.35
734.294	39614.26
734.635	39605.67
734.976	39579.68
735.317	39441.83
735.658	39337.65
735.999	39318.9
736.339	39241.61
736.68	39411.55
737.021	39007.27
737.361	39062.18
737.702	39113.48
738.042	39004.78
738.383	38946.48
738.723	39009.07
739.063	38778.57
739.404	38826.48
739.744	38838.46
740.084	38545.58
740.424	38810.43
740.764	38577.9
741.104	38577.22
741.444	38380.16
741.784	38260.39
742.124	38368.86
742.464	38250.68
742.804	38172.03
743.143	38137.91
743.483	38229.66
743.823	37991.92
744.162	37993.05
744.502	37934.75
744.841	37681.88
745.181	37935.2
745.52	37712.84
745.86	37676.9
746.199	37749.67
746.538	37635.1
746.877	37605.72
747.216	37548.32
747.556	37343.58
747.895	37416.8
748.234	37278.5
748.573	37119.18
748.911	37054.55
749.25	37092.74
749.589	36805.97
749.928	36872.18
750.267	36881.22
750.605	36711.51
750.944	36720.32
751.283	36436.94
751.621	36643.03
751.96	36452.3
752.298	36420.44
752.636	36606.2
752.975	36119.88
753.313	36010.96
753.651	36240.78
753.989	36010.96
754.327	35927.57
754.666	35738.65
755.004	35921.47
755.342	35713.11
755.679	35815.71
756.017	35511.31
756.355	35675.38
756.693	35382.73
757.031	35436.06
757.368	35234.71
757.706	35092.57
758.044	34985.9
758.381	35123.3
758.719	34839.01
759.056	34854.15
759.394	34754.5
759.731	34483.09
760.068	34580.72
760.405	34306.37
760.743	34221.63
761.08	34173.04
761.417	34109.09
761.754	33986.38
762.091	33954.52
762.428	33779.61
762.765	33773.96
763.102	33698.03
763.438	33553.4
763.775	33330.58
764.112	33374.19
764.449	33322.9
764.785	33259.39
765.122	33001.77
765.458	32799.74
765.795	32801.78
766.131	32767.66
766.467	32582.12
766.804	32534.89
767.14	32350.72
767.476	32301.68
767.812	32066.88
768.148	32241.34
768.485	31888.13
768.821	31840.45
769.157	31765.87
769.492	31742.37
769.828	31605.2
770.164	31370.63
770.5	31352.78
770.836	31378.09
771.171	31039.34
771.507	30975.39
771.842	30782.62
772.178	30751.66
772.513	30803.41
772.849	30831.21
773.184	30573.14
773.519	30633.02
773.855	30347.61
774.19	30058.8
774.525	30085.92
774.86	30075.97
775.195	29940.84
775.53	29828.98
775.865	29670.79
776.2	29530.23
776.535	29357.58
776.87	29372.72
777.205	29195.09
777.539	29051.37
777.874	29067.41
778.209	28855.67
778.543	28855.89
778.878	28567.09
779.212	28739.06
779.547	28441.67
779.881	28462.01
780.215	28325.96
780.55	28246.64
780.884	28111.05
781.218	28116.03
781.552	28103.37
781.886	27884.85
782.22	27705.19
782.554	27692.53
782.888	27534.57
783.222	27260.68
783.556	27243.96
783.889	27246.44
784.223	27078.09
784.557	26971.42
784.89	26979.11
785.224	26809.17
785.557	26622.73
785.891	26682.62
786.224	26462.74
786.558	26360.14
786.891	26206.7
787.224	26107.27
787.557	26139.13
787.891	25963.99
788.224	26006.03
788.557	26003.77
788.89	25930.32
789.223	25759.25
789.556	25621.63
789.888	25481.52
790.221	25486.04
790.554	25080.85
790.887	25241.75
791.219	25262.99
791.552	25122.21
791.884	24935.54
792.217	24941.65
792.549	24821.65
792.882	24726.96
793.214	24538.72
793.546	24637.47
793.879	24371.49
794.211	24207.88
794.543	24336.46
794.875	24130.14
795.207	24168.56
795.539	24069.13
795.871	24025.06
796.203	23814.9
796.535	23790.72
796.867	23747.1
797.198	23675.92
797.53	23570.38
797.862	23437.51
798.193	23479.54
798.525	23266.66
798.856	23362.03
799.188	23127.46
799.519	23064.41
799.85	22962.26
800.182	22981.02
800.513	22965.2
800.844	22770.4
801.175	22861.7
801.506	22892.66
801.837	22712.78
802.168	22529.73
802.499	22522.95
802.83	22374.48
803.161	22379
803.491	22282.28
803.822	22260.36
804.153	22092.23
804.483	22028.28
804.814	21954.15
805.145	21893.82
805.475	21917.09
805.805	21765.46
806.136	21647.04
806.466	21670.55
806.796	21593.03
807.126	21495.41
807.457	21544.9
807.787	21467.39
808.117	21325.02
808.447	21242.99
808.777	21271.23
809.107	21263.1
809.436	21144.68
809.766	21113.27
810.096	21108.07
810.426	21011.35
810.755	20936.33
811.085	20922.77
811.414	20769.55
811.744	20696.11
812.073	20599.16
812.403	20685.26
812.732	20553.74
813.061	20529.11
813.39	20326.85
813.719	20393.52
814.049	20494.31
814.378	20308.1
814.707	20079.63
815.036	20123.92
815.365	20065.16
815.693	19978.84
816.022	19998.73
816.351	19926.86
816.68	19831.72
817.008	19924.38
817.337	19660.66
817.665	19610.49
817.994	19656.81
818.322	19586.53
818.651	19611.84
818.979	19511.28
819.307	19536.36
819.636	19476.03
819.964	19351.51
820.292	19410.72
820.62	19335.24
820.948	19257.28
821.276	19384.5
821.604	19310.61
821.932	19249.14
822.259	19329.14
822.587	19257.28
822.915	19217.73
823.243	19240.33
823.57	19243.04
823.898	19256.82
824.225	19186.77
824.553	19243.94
824.88	19187.22
825.207	19255.69
825.535	19152.19
825.862	19255.24
826.189	19165.75
826.516	19307.67
826.843	19241.01
827.17	19302.47
827.497	19210.05
827.824	19105.87
828.151	19280.33
828.478	19279.65
828.805	19285.75
829.131	19058.64
829.458	19145.64
829.785	19058.64
830.111	19199.42
830.438	19181.35
830.764	19179.99
831.09	19208.92
831.417	18897.96
831.743	19148.13
832.069	19128.24
832.395	19039.88
832.722	19053.67
833.048	19057.06
833.374	19016.15
833.7	18919.88
834.026	18970.28
834.351	18931.41
834.677	18903.16
835.003	18975.02
835.329	18961.92
835.654	18847.12
835.98	18815.03
836.306	18810.28
836.631	18790.4
836.956	18819.32
837.282	18850.51
837.607	18757.18
837.932	18690.96
838.258	18619.78
838.583	18585.43
838.908	18483.06
839.233	18542.72
839.558	18461.59
839.883	18372.55
840.208	18437.86
840.533	18358.32
840.858	18390.63
841.182	18427.69
841.507	18286.91
841.832	18277.19
842.156	18193.8
842.481	18240.81
842.805	18246.91
843.13	18126.23
843.454	18039.68
843.778	17966.91
844.103	17857.09
844.427	17914.71
844.751	17947.93
845.075	17879.01
845.399	17783.87
845.723	17659.8
846.047	17759.24
846.371	17551.56
846.695	17508.4
847.019	17413.26
847.343	17398.57
847.666	17291.23
847.99	17174.39
848.313	17133.49
848.637	17035.64
848.96	17030.22
849.284	16994.74
849.607	16847.17
849.931	16831.35
850.254	16664.8
850.577	16625.25
850.9	16514.75
851.223	16523.79
851.546	16365.6
851.869	16257.81
852.192	16380.52
852.515	16238.6
852.838	16206.06
853.161	16129
853.483	16156.11
853.806	15998.38
854.129	16008.55
854.451	15932.17
854.774	15812.39
855.096	15853.98
855.419	15809.23
855.741	15728.78
856.063	15641.78
856.385	15692.4
856.708	15491.73
857.03	15511.61
857.352	15467.77
857.674	15448.79
857.996	15247.44
858.318	15257.61
858.64	15253.77
858.961	15246.53
859.283	15128.35
859.605	15114.33
859.926	15093.32
860.248	15024.17
860.57	15024.62
860.891	14974.45
861.212	14877.73
861.534	14906.2
861.855	14824.4
862.176	14885.19
862.498	14843.61
862.819	14865.75
863.14	14823.95
863.461	14762.03
863.782	14682.93
864.103	14703.95
864.424	14565.2
864.745	14609.04
865.065	14545.54
865.386	14478.42
865.707	14469.61
866.027	14437.74
866.348	14565.2
866.668	14449.72
866.989	14388.03
867.309	14335.37
867.63	14322.26
867.95	14275.49
868.27	14226.22
868.59	14272.77
868.91	14253.34
869.23	14202.49
869.55	14218.31
869.87	14265.32
870.19	14129.73
870.51	14213.34
870.83	14171.31
871.15	14070.52
871.469	13968.38
871.789	14012.22
872.109	13937.64
872.428	13960.92
872.748	14066
873.067	13935.83
873.386	13901.26
873.706	13935.16
874.025	13878.21
874.344	13821.03
874.663	13836.63
874.982	13837.08
875.301	13767.25
875.62	13684.54
875.939	13766.57
876.258	13770.41
876.577	13643.41
876.896	13724.31
877.214	13572.68
877.533	13670.76
877.852	13596.63
878.17	13609.74
878.489	13519.8
878.807	13528.39
879.125	13497.65
879.444	13439.12
879.762	13491.33
880.08	13491.78
880.398	13456.98
880.716	13455.85
881.034	13334.27
881.352	13345.57
881.67	13334.49
881.988	13322.74
882.306	13282.52
882.624	13281.84
882.941	13152.35
883.259	13104.44
883.577	13121.62
883.894	13088.85
884.212	12986.25
884.529	12993.03
884.846	12928.4
885.164	12901.51
885.481	12872.59
885.798	12822.42
886.115	12767.73
886.432	12752.14
886.75	12708.52
887.067	12817.9
887.383	12729.99
887.7	12738.13
888.017	12729.09
888.334	12679.82
888.651	12690.22
888.967	12543.78
889.284	12534.74
889.6	12523.44
889.917	12387.63
890.233	12424.24
890.55	12349.44
890.866	12368.42
891.182	12263.56
891.498	12234.18
891.815	12224.01
892.131	12144.69
892.447	12193.06
892.763	12099.5
893.079	12135.88
893.395	12030.8
893.71	12011.14
894.026	11974.98
894.342	11945.6
894.657	11823.8
894.973	11857.7
895.289	11776.12
895.604	11796.46
895.92	11691.6
896.235	11638.72
896.55	11683.46
896.865	11609.12
897.181	11663.8
897.496	11587.2
897.811	11497.48
898.126	11518.72
898.441	11508.1
898.756	11453.64
899.071	11372.96
899.386	11319.18
899.7	11245.74
900.015	11271.5
900.33	11274.89
900.644	11156.7
900.959	11132.97
901.273	11106.08
901.588	11106.53
901.902	10995.35
902.216	10997.83
902.531	10860.21
902.845	10878.74
903.159	10825.18
903.473	10753.77
903.787	10682.13
904.101	10659.99
904.415	10711.29
904.729	10581.12
905.042	10543.15
905.356	10623.15
905.67	10518.75
905.984	10487.34
906.297	10432.42
906.611	10400.33
906.924	10339.54
907.237	10265.2
907.551	10357.85
907.864	10261.35
908.177	10219.32
908.491	10154.46
908.804	10166.89
909.117	10059.78
909.43	10073.56
909.743	9921.25
910.056	9900.91
910.368	9914.24
910.681	9852.1
910.994	9811.65
911.307	9827.24
911.619	9739.33
911.932	9714.93
912.244	9691.65
912.557	9636.96
912.869	9610.07
913.181	9580.92
913.494	9568.27
913.806	9539.79
914.118	9478.32
914.43	9322.4
914.742	9396.52
915.054	9343.86
915.366	9284.43
915.678	9264.09
915.99	9233.81
916.302	9182.29
916.613	9176.64
916.925	9118.79
917.236	9081.27
917.548	9001.95
917.859	9025.68
918.171	8964.67
918.482	8901.84
918.794	8874.95
919.105	8842.41
919.416	8757.67
919.727	8782.3
920.038	8732.58
920.349	8592.02
920.66	8687.61
920.971	8687.84
921.282	8579.36
921.593	8506.6
921.903	8428.63
922.214	8456.43
922.525	8393.16
922.835	8376.21
923.146	8330.33
923.456	8295.3
923.767	8285.81
924.077	8261.86
924.387	8192.71
924.697	8121.07
925.008	8108.87
925.318	8079.72
925.628	8039.94
925.938	8040.85
926.248	7977.35
926.558	7953.84
926.867	7952.49
927.177	7912.49
927.487	7822.55
927.796	7791.59
928.106	7813.28
928.416	7766.5
928.725	7735.32
929.034	7656.45
929.344	7632.05
929.653	7607.64
929.962	7582.33
930.271	7508.43
930.581	7519.96
930.89	7528.77
931.199	7464.82
931.508	7374.2
931.817	7357.02
932.125	7377.14
932.434	7307.31
932.743	7218.27
933.051	7226.41
933.36	7228.21
933.669	7093.53
933.977	7153.64
934.286	7143.24
934.594	7124.94
934.902	7012.17
935.21	6969.46
935.519	6951.61
935.827	7007.43
936.135	6931.72
936.443	6866.19
936.751	6862.35
937.059	6888.34
937.367	6810.82
937.674	6790.26
937.982	6740.09
938.29	6769.47
938.597	6754.33
938.905	6629.59
939.213	6588.91
939.52	6601.56
939.827	6673.2
940.135	6608.34
940.442	6528.8
940.749	6512.98
941.056	6463.71
941.363	6347.33
941.67	6424.39
941.977	6363.6
942.284	6336.94
942.591	6302.14
942.898	6253.78
943.205	6291.52
943.511	6266.21
943.818	6192.08
944.125	6194.12
944.431	6114.12
944.738	6063.27
945.044	6035.48
945.35	6049.94
945.657	6008.81
945.963	5997.51
946.269	5963.84
946.575	5996.16
946.881	5937.63
947.187	5881.58
947.493	5876.84
947.799	5834.58
948.105	5754.81
948.41	5799.78
948.716	5737.63
949.022	5778.08
949.327	5764.3
949.633	5648.37
949.938	5656.28
950.244	5668.03
950.549	5599.33
950.854	5593.91
951.16	5609.27
951.465	5562.04
951.77	5554.36
952.075	5514.13
952.38	5440.69
952.685	5464.42
952.99	5425.78
953.294	5391.2
953.599	5362.5
953.904	5326.12
954.209	5301.71
954.513	5284.54
954.818	5291.09
955.122	5241.83
955.426	5257.64
955.731	5232.33
956.035	5148.27
956.339	5190.3
956.643	5155.05
956.948	5124.09
957.252	5092.68
957.556	5079.34
957.86	5086.58
958.163	5058.33
958.467	4997.31
958.771	5017.2
959.075	4986.92
959.378	4986.24
959.682	4936.75
959.985	4929.52
960.289	4891.55
960.592	4857.65
960.896	4823.98
961.199	4833.7
961.502	4793.48
961.805	4719.81
962.108	4739.69
962.411	4713.25
962.714	4666.25
963.017	4671.22
963.32	4653.14
963.623	4697.21
963.926	4671.67
964.228	4614.95
964.531	4612.92
964.833	4619.24
965.136	4571.11
965.438	4576.53
965.741	4546.48
966.043	4522.75
966.345	4445.24
966.648	4489.08
966.95	4447.72
967.252	4442.07
967.554	4401.17
967.856	4331.79
968.158	4374.28
968.46	4298.12
968.761	4342.64
969.063	4281.85
969.365	4302.19
969.666	4280.95
969.968	4231
970.269	4160.27
970.571	4186.71
970.872	4182.42
971.174	4181.06
971.475	4187.16
971.776	4088.18
972.077	4104.68
972.378	4080.95
972.679	4122.08
972.98	4065.36
973.281	4024.46
973.582	4033.5
973.883	4039.82
974.183	3983.55
974.484	3988.53
974.785	3933.16
975.085	3933.16
975.386	3931.8
975.686	3917.57
975.986	3899.71
976.287	3832.6
976.587	3827.63
976.887	3813.39
977.187	3839.83
977.487	3803.22
977.787	3770.9
978.087	3755.54
978.387	3712.83
978.687	3710.34
978.987	3729.77
979.286	3669.66
979.586	3689.55
979.885	3641.64
980.185	3647.52
980.484	3628.31
980.784	3617.46
981.083	3596.67
981.382	3570.23
981.682	3572.72
981.981	3542.89
982.28	3532.04
982.579	3490.23
982.878	3491.36
983.177	3468.54
983.475	3479.39
983.774	3431.93
984.073	3426.05
984.372	3393.96
984.67	3374.3
984.969	3382.67
985.267	3385.83
985.566	3288.66
985.864	3300.63
986.162	3336.56
986.461	3276.91
986.759	3277.81
987.057	3229.22
987.355	3228.77
987.653	3195.78
987.951	3212.5
988.249	3210.01
988.547	3227.64
988.844	3206.17
989.142	3184.03
989.44	3120.98
989.737	3123.46
990.035	3135.89
990.332	3108.55
990.63	3087.98
990.927	3083.46
991.224	3080.07
991.521	3075.33
991.819	3038.27
992.116	3038.49
992.413	2990.13
992.71	3016.57
993.006	2993.52
993.303	2934.09
993.6	2945.39
993.897	2949.91
994.193	2931.38
994.49	2909.46
994.787	2877.14
995.083	2850.93
995.379	2830.36
995.676	2867.2
995.972	2844.37
996.268	2819.97
996.565	2772.29
996.861	2779.97
997.157	2764.15
997.453	2774.32
997.749	2713.76
998.044	2709.24
998.34	2721.89
998.636	2739.07
998.932	2682.8
999.227	2672.63
999.523	2652.97
999.818	2626.98
1000.114	2620.88
1000.409	2609.13
1000.704	2606.64
1001	2531.39
1001.295	2553.76
1001.59	2579.97
1001.885	2530.71
1002.18	2543.82
1002.475	2495.23
1002.77	2518.06
1003.065	2504.95
1003.359	2454.1
1003.654	2480.32
1003.949	2438.28
1004.243	2442.35
1004.538	2417.49
1004.832	2407.78
1005.127	2393.31
1005.421	2395.35
1005.715	2374.33
1006.009	2364.16
1006.304	2323.48
1006.598	2292.3
1006.892	2314.67
1007.186	2302.92
1007.48	2280.77
1007.773	2282.81
1008.067	2213.88
1008.361	2247.55
1008.655	2227.89
1008.948	2223.15
1009.242	2209.36
1009.535	2219.31
1009.829	2190.38
1010.122	2163.49
1010.415	2132.75
1010.708	2150.61
1011.001	2161.91
1011.295	2123.72
1011.588	2120.55
1011.881	2102.7
1012.173	2054.34
1012.466	2057.73
1012.759	2062.47
1013.052	2032.42
1013.344	2028.8
1013.637	2011.63
1013.93	2017.05
1014.222	1992.19
1014.514	1983.83
1014.807	1994.45
1015.099	1962.36
1015.391	1943.38
1015.683	1909.48
1015.976	1931.86
1016.268	1930.73
1016.56	1880.56
1016.851	1904.06
1017.143	1870.84
1017.435	1883.72
1017.727	1868.13
1018.018	1839.88
1018.31	1829.71
1018.602	1830.39
1018.893	1764.63
1019.185	1815.7
1019.476	1800.56
1019.767	1787.23
1020.058	1754.91
1020.35	1752.88
1020.641	1725.76
1020.932	1707
1021.223	1711.75
1021.514	1684.63
1021.804	1684.86
1022.095	1650.73
1022.386	1675.82
1022.677	1663.84
1022.967	1644.86
1023.258	1607.57
1023.548	1618.87
1023.839	1620.9
1024.129	1594.01
1024.419	1576.84
1024.709	1583.16
1025	1553.79
1025.29	1553.33
1025.58	1541.36
1025.87	1528.7
1026.16	1502.49
1026.449	1532.54
1026.739	1489.61
1027.029	1517.86
1027.319	1503.39
1027.608	1458.2
1027.898	1453.22
1028.187	1449.16
1028.477	1453.22
1028.766	1432.66
1029.055	1430.85
1029.344	1435.15
1029.634	1417.52
1029.923	1356.73
1030.212	1373.23
1030.501	1373.23
1030.79	1366.45
1031.078	1335.04
1031.367	1360.57
1031.656	1327.58
1031.945	1331.42
1032.233	1322.38
1032.522	1322.38
1032.81	1288.03
1033.099	1315.6
1033.387	1282.83
1033.675	1267.69
1033.963	1254.13
1034.251	1248.48
1034.54	1257.98
1034.828	1214.13
1035.116	1225.66
1035.403	1217.52
1035.691	1195.6
1035.979	1181.37
1036.267	1188.37
1036.554	1193.8
1036.842	1204.64
1037.129	1163.29
1037.417	1168.71
1037.704	1167.13
1037.992	1130.97
1038.279	1153.12
1038.566	1123.06
1038.853	1123.06
1039.14	1123.06
