Data from plate_porcelain_FLMS001491_038.txt Node
Date: Tue Feb 07 11:19:13 GMT 2017
User: dcchb
Spectrometer: FLMS00149
Trigger mode: 0
Integration Time (sec): 2.000000E-2
Scans to average: 10
Electric dark correction enabled: true
Nonlinearity correction enabled: false
Boxcar width: 0
XAxis mode: Wavelengths
Number of Pixels in Spectrum: 2048
>>>>>Begin Spectral Data<<<<<
341.393	-23.57
341.776	-23.57
342.16	-23.57
342.543	-67.64
342.927	-44.14
343.31	-76.23
343.693	-64.02
344.077	-74.19
344.46	-41.43
344.843	-69.22
345.226	-40.52
345.61	-43.01
345.993	-13.18
346.376	-15.21
346.759	20.72
347.142	24.56
347.525	30.21
347.908	71.57
348.291	63.43
348.674	100.94
349.057	125.58
349.44	117.67
349.823	135.97
350.206	152.92
350.588	208.29
350.971	224.56
351.354	258.45
351.737	274.95
352.119	275.85
352.502	273.37
352.884	300.71
353.267	318.57
353.65	313.59
354.032	331.67
354.414	313.37
354.797	330.09
355.179	365.34
355.562	348.39
355.944	368.28
356.326	351.56
356.709	382.97
357.091	354.72
357.473	375.06
357.855	350.88
358.238	393.59
358.62	377.77
359.002	381.84
359.384	380.71
359.766	389.52
360.148	379.58
360.53	386.81
360.912	367.15
361.294	368.96
361.676	402.18
362.057	373.03
362.439	380.03
362.821	387.26
363.203	386.36
363.584	401.27
363.966	365.12
364.348	391.33
364.729	379.58
365.111	380.48
365.493	363.99
365.874	373.93
366.256	396.98
366.637	383.87
367.019	350.88
367.4	375.51
367.781	382.29
368.163	392.46
368.544	379.35
368.925	391.33
369.306	381.39
369.688	377.77
370.069	398.34
370.45	416.42
370.831	408.05
371.212	400.14
371.593	395.4
371.974	384.33
372.355	399.24
372.736	417.77
373.117	423.65
373.498	419.13
373.879	429.75
374.26	410.31
374.641	386.36
375.021	415.96
375.402	411.9
375.783	434.72
376.163	454.15
376.544	459.35
376.925	444.66
377.305	440.82
377.686	434.27
378.066	472.23
378.447	461.84
378.827	454.15
379.208	478.79
379.588	475.62
379.968	450.99
380.349	475.85
380.729	500.48
381.109	483.98
381.489	491.44
381.87	499.13
382.25	469.52
382.63	514.72
383.01	500.71
383.39	505.23
383.77	521.95
384.15	525.34
384.53	511.1
384.91	552.46
385.29	549.29
385.67	550.42
386.049	545
386.429	519.01
386.809	564.89
387.189	556.52
387.568	575.73
387.948	588.84
388.328	605.79
388.707	600.14
389.087	563.3
389.466	601.27
389.846	598.78
390.225	609.4
390.605	606.24
390.984	612.79
391.363	617.77
391.743	661.38
392.122	643.75
392.501	672
392.881	669.52
393.26	676.52
393.639	683.08
394.018	688.5
394.397	679.23
394.776	684.88
395.155	723.3
395.534	703.19
395.913	728.5
396.292	716.52
396.671	705.22
397.05	744.54
397.429	742.51
397.808	761.72
398.186	776.18
398.565	791.55
398.944	806.01
399.323	775.73
399.701	785.9
400.08	796.97
400.458	797.65
400.837	799.68
401.215	825.44
401.594	838.33
401.972	837.87
402.351	862.05
402.729	861.6
403.107	862.96
403.486	887.82
403.864	908.15
404.242	893.92
404.62	911.32
404.999	903.41
405.377	926.01
405.755	947.25
406.133	962.39
406.511	947.02
406.889	991.09
407.267	984.54
407.645	1010.75
408.023	1053.46
408.401	1055.49
408.779	1060.24
409.156	1048.94
409.534	1060.47
409.912	1061.37
410.29	1107.24
410.667	1142.72
411.045	1147.02
411.422	1148.37
411.8	1175.27
412.178	1196.06
412.555	1225.21
412.933	1206.45
413.31	1237.41
413.687	1277.86
414.065	1261.37
414.442	1298.88
414.819	1330.06
415.197	1316.73
415.574	1339.78
415.951	1346.11
416.328	1394.92
416.705	1387.69
417.082	1401.47
417.46	1449.61
417.837	1410.74
418.214	1460.23
418.591	1448.7
418.967	1471.76
419.344	1481.47
419.721	1510.17
420.098	1501.13
420.475	1547.91
420.852	1543.62
421.228	1563.05
421.605	1586.78
421.982	1639.21
422.358	1606.67
422.735	1615.93
423.111	1630.62
423.488	1678.08
423.864	1668.13
424.241	1726.89
424.617	1728.47
424.994	1719.43
425.37	1749.04
425.746	1810.28
426.123	1838.75
426.499	1832.42
426.875	1857.28
427.251	1858.19
427.627	1907
428.003	1915.13
428.379	1984.74
428.756	1977.05
429.132	2000.55
429.507	2073.77
429.883	2065.64
430.259	2128.24
430.635	2149.48
431.011	2145.41
431.387	2171.4
431.763	2231.06
432.138	2240.32
432.514	2278.51
432.89	2297.72
433.265	2387.21
433.641	2422.69
434.016	2396.02
434.392	2456.59
434.767	2474.44
435.143	2490.49
435.518	2583.14
435.894	2546.98
436.269	2569.13
436.644	2660.88
437.02	2658.16
437.395	2652.29
437.77	2742.68
438.145	2749.46
438.52	2818.39
438.895	2816.58
439.271	2834.66
439.646	2926.86
440.021	2915.11
440.395	2873.3
440.77	2905.84
441.145	2958.95
441.52	3031.49
441.895	3024.26
442.27	3088.66
442.645	3096.8
443.019	3123.01
443.394	3129.56
443.769	3163.01
444.143	3101.77
444.518	3196
444.892	3214.99
445.267	3242.1
445.641	3294.08
446.016	3297.24
446.39	3331.59
446.764	3334.08
447.139	3348.54
447.513	3421.31
447.887	3394.87
448.262	3403.46
448.636	3470.57
449.01	3506.73
449.384	3566.16
449.758	3602.32
450.132	3661.08
450.506	3635.31
450.88	3628.76
451.254	3654.52
451.628	3758.02
452.002	3772.03
452.376	3777.23
452.75	3887.06
453.123	3891.13
453.497	3950.56
453.871	3994.17
454.244	4058.81
454.618	4100.84
454.992	4128.63
455.365	4133.15
455.739	4242.98
456.112	4314.39
456.486	4353.71
456.859	4402.75
457.232	4521.39
457.606	4451.56
457.979	4590.09
458.352	4630.77
458.725	4699.24
459.099	4729.75
459.472	4857.2
459.845	4884.77
460.218	4951.89
460.591	5012.23
460.964	5007.26
461.337	5123.86
461.71	5196.63
462.083	5280.02
462.456	5331.09
462.829	5318.21
463.201	5421.71
463.574	5466.9
463.947	5550.97
464.32	5664.64
464.692	5689.95
465.065	5753
465.438	5862.6
465.81	5905.31
466.183	5983.5
466.555	6146.43
466.928	6204.29
467.3	6169.94
467.672	6335.36
468.045	6425.07
468.417	6488.35
468.789	6534.67
469.161	6667.1
469.534	6713.43
469.906	6900.31
470.278	6923.14
470.65	7094.88
471.022	7169.68
471.394	7304.14
471.766	7354.76
472.138	7445.84
472.51	7585.27
472.882	7741.65
473.253	7831.81
473.625	7975.54
473.997	8110.45
474.369	8215.53
474.74	8288.3
475.112	8520.84
475.484	8594.05
475.855	8835.63
476.227	8817.78
476.598	9085.79
476.97	9125.34
477.341	9309.06
477.713	9476.97
478.084	9572.79
478.455	9813
478.827	9948.37
479.198	10224.52
479.569	10234.46
479.94	10577.96
480.311	10695.92
480.682	10921.9
481.053	11174.1
481.424	11318.73
481.795	11440.08
482.166	11654.99
482.537	11820.41
482.908	12011.59
483.279	12122.32
483.65	12361.64
484.021	12626.26
484.391	12777.22
484.762	12908.74
485.133	13001.85
485.503	13200.71
485.874	13534.49
486.244	13663.98
486.615	13923.86
486.985	14025.55
487.356	14392.55
487.726	14532.88
488.097	14837.73
488.467	14867.56
488.837	15156.82
489.207	15421.22
489.578	15629.12
489.948	15720.65
490.318	16006.97
490.688	16107.3
491.058	16234.53
491.428	16483.79
491.798	16757.91
492.168	17080.84
492.538	17230.44
492.908	17331
493.278	17503.88
493.648	17638.11
494.017	17915.84
494.387	18068.38
494.757	18202.61
495.126	18420.24
495.496	18506.34
495.866	18563.51
496.235	18906.32
496.605	19079.88
496.974	19161.01
497.344	19304.51
497.713	19407.55
498.082	19692.07
498.452	19831.95
498.821	20000.08
499.19	19955.79
499.559	20266.29
499.928	20403.01
500.298	20585.15
500.667	20746.73
501.036	20788.76
501.405	20938.81
501.774	20979.94
502.143	21318.92
502.512	21434.17
502.88	21571.57
503.249	21634.84
503.618	21765.91
503.987	21852.91
504.356	22126.35
504.724	22240.02
505.093	22279.34
505.462	22442.05
505.83	22639.11
506.199	22804.08
506.567	23193.22
506.936	23095.14
507.304	23387.34
507.672	23450.84
508.041	23673.43
508.409	23817.16
508.777	24125.62
509.145	24183.25
509.514	24344.15
509.882	24413.07
510.25	24501.66
510.618	24775.55
510.986	24810.35
511.354	25134.41
511.722	25305.25
512.09	25593.83
512.458	25560.84
512.826	25924.45
513.193	25939.59
513.561	26147.49
513.929	26427.48
514.297	26676.52
514.664	26828.83
515.032	26965.32
515.4	27107.92
515.767	27358.53
516.135	27487.12
516.502	27392.88
516.869	27852.53
517.237	27992.64
517.604	27881.91
517.972	28419.3
518.339	28715.56
518.706	28634.66
519.073	28813.86
519.44	29103.12
519.808	29346.73
520.175	29461.75
520.542	29814.29
520.909	30022.87
521.276	30116.43
521.643	30411.11
522.009	30763.19
522.376	30750.76
522.743	31116.85
523.11	31312.33
523.477	31577.4
523.843	31832.09
524.21	32107.56
524.577	32368.8
524.943	32543.48
525.31	32684.72
525.676	33126.97
526.043	33380.07
526.409	33484.25
526.776	33824.12
527.142	33910.22
527.508	34250.78
527.874	34474.05
528.241	34444.22
528.607	34742.52
528.973	35201.49
529.339	35180.02
529.705	35627.92
530.071	35746.56
530.437	35911.3
530.803	36088.47
531.169	36421.34
531.535	36329.14
531.901	36528.23
532.267	36659.76
532.632	36957.83
532.998	37077.6
533.364	37488.44
533.73	37645.04
534.095	37821.53
534.461	37856.34
534.826	38090.68
535.192	38352.59
535.557	38579.48
535.923	38469.65
536.288	38739.25
536.653	38845.24
537.019	38890.66
537.384	39128.62
537.749	39303.08
538.114	39275.51
538.479	39477.08
538.845	39684.54
539.21	39650.64
539.575	39908.48
539.94	40086.33
540.305	40413.33
540.67	40270.28
541.034	40430.96
541.399	40753.66
541.764	40821
542.129	41000.21
542.494	41045.4
542.858	41199.52
543.223	41372.17
543.587	41546.63
543.952	41432.51
544.316	41757.02
544.681	41753.63
545.045	41893.97
545.41	42097.81
545.774	42267.97
546.138	42232.04
546.503	42383.22
546.867	42475.87
547.231	42809.43
547.595	42889.2
547.959	43020.95
548.324	43025.24
548.688	43192.47
549.052	43380.94
549.416	43565.56
549.779	43599.23
550.143	43643.53
550.507	43985.67
550.871	44147.47
551.235	44088.49
551.599	44486.22
551.962	44509.04
552.326	44694.8
552.689	44920.56
553.053	44944.51
553.417	44932.76
553.78	45485.97
554.143	45368
554.507	45488.45
554.87	45719.63
555.234	46121.2
555.597	45929.57
555.96	46231.71
556.323	46403.23
556.686	46466.73
557.05	46617.91
557.413	46796.89
557.776	46931.8
558.139	47162.31
558.502	47201.4
558.865	47362.07
559.228	47674.16
559.59	47904.66
559.953	47852.91
560.316	48099.46
560.679	48250.64
561.041	48483.63
561.404	48712.77
561.767	48883.84
562.129	48856.72
562.492	49247
562.854	49263.94
563.217	49344.62
563.579	49382.36
563.941	49832.07
564.304	49944.6
564.666	50108.89
565.028	50145.05
565.39	50323.8
565.753	50561.09
566.115	50703.23
566.477	50689.44
566.839	50816.45
567.201	51067.51
567.563	51130.56
567.925	51266.15
568.287	51242.65
568.648	51348.18
569.01	51613.49
569.372	51833.82
569.734	51712.69
570.095	52014.83
570.457	52152
570.819	52179.57
571.18	52186.13
571.542	52308.61
571.903	52521.71
572.265	52483.97
572.626	52603.29
572.987	52653.91
573.349	52840.8
573.71	52861.36
574.071	52927.13
574.432	53063.17
574.794	53188.81
575.155	53264.74
575.516	53257.06
575.877	53300.9
576.238	53369.37
576.599	53524.4
576.96	53497.73
577.32	53563.49
577.681	53612.08
578.042	53709.03
578.403	53791.28
578.763	53774.11
579.124	53838.74
579.485	53960.54
579.845	54057.04
580.206	53972.52
580.566	54003.26
580.927	54069.92
581.287	54194.21
581.648	54048.9
582.008	54268.33
582.368	54212.97
582.728	54230.82
583.089	54170.93
583.449	54162.35
583.809	54216.13
584.169	54276.92
584.529	54238.96
584.889	54445.5
585.249	54250.25
585.609	54161.9
585.969	54401.66
586.329	54192.18
586.688	54364.15
587.048	54324.15
587.408	54323.92
587.768	54291.16
588.127	54255
588.487	54209.13
588.846	54501.55
589.206	54254.77
589.565	54423.13
589.925	54517.59
590.284	54412.96
590.643	54462.68
591.003	54530.47
591.362	54577.7
591.721	54475.79
592.08	54441.89
592.44	54552.62
592.799	54612.73
593.158	54530.7
593.517	54548.1
593.876	54525.28
594.235	54667.87
594.593	54599.62
594.952	54668.32
595.311	54585.16
595.67	54558.04
596.029	54707.42
596.387	54802.33
596.746	54671.94
597.104	54690.92
597.463	54742.9
597.822	54813.86
598.18	54715.55
598.538	54743.35
598.897	54861.31
599.255	54687.31
599.613	55009.33
599.972	54795.55
600.33	54983.34
600.688	54904.47
601.046	54924.13
601.404	55061.76
601.762	54969.33
602.12	55088.65
602.478	55099.72
602.836	55130.68
603.194	54938.37
603.552	55052.72
603.91	54937.24
604.268	55143.34
604.625	55055.88
604.983	55277.57
605.341	55065.6
605.698	55237.12
606.056	55258.59
606.413	55207.74
606.771	55299.94
607.128	55446.61
607.485	55215.2
607.843	55298.36
608.2	55534.97
608.557	55577.45
608.914	55501.29
609.272	55578.58
609.629	55656.77
609.986	55690.89
610.343	55612.7
610.7	55782.64
611.057	55726.83
611.414	55790.78
611.771	55779.93
612.127	55832.59
612.484	55872.58
612.841	55882.08
613.198	55844.11
613.554	55895.18
613.911	55997.78
614.267	55872.81
614.624	55945.8
614.98	56035.29
615.337	56144.89
615.693	56046.37
616.05	56057.66
616.406	56168.4
616.762	56198.9
617.118	56136.31
617.475	56162.07
617.831	56238.9
618.187	56203.65
618.543	56298.11
618.899	56376.75
619.255	56353.48
619.611	56305.12
619.967	56383.76
620.323	56451.1
620.678	56323.19
621.034	56246.59
621.39	56317.77
621.746	56254.04
622.101	56600.02
622.457	56393.25
622.812	56438.9
623.168	56466.92
623.523	56389.41
623.879	56548.05
624.234	56380.14
624.589	56462.17
624.945	56410.42
625.3	56496.3
625.655	56407.94
626.01	56450.65
626.365	56481.83
626.72	56438.9
627.075	56384.89
627.43	56361.84
627.785	56266.92
628.14	56347.6
628.495	56345.79
628.85	56353.7
629.205	56246.81
629.559	56396.86
629.914	56256.76
630.269	56249.98
630.623	56221.05
630.978	56101.96
631.332	56310.77
631.687	56286.81
632.041	56185.8
632.396	56214.72
632.75	56107.38
633.104	56182.18
633.459	56042.98
633.813	55958.01
634.167	56006.37
634.521	55990.32
634.875	56092.01
635.229	56007.5
635.583	55842.98
635.937	55908.52
636.291	55847.5
636.645	55777.67
636.999	55745.58
637.352	55832.36
637.706	55626.04
638.06	55753.72
638.413	55672.82
638.767	55601.63
639.121	55617
639.474	55455.65
639.828	55483.22
640.181	55446.16
640.534	55460.84
640.888	55381.3
641.241	55290.9
641.594	55357.12
641.947	55429.21
642.301	55277.57
642.654	55292.03
643.007	55293.39
643.36	55176.11
643.713	55167.52
644.066	55227.18
644.419	54979.27
644.771	54889.79
645.124	54664.71
645.477	54585.16
645.83	54394.66
646.182	54232.4
646.535	54167.77
646.888	54205.06
647.24	54068.11
647.593	54204.38
647.945	54135.68
648.298	53989.47
648.65	53895.91
649.002	53811.4
649.355	53935.23
649.707	53846.42
650.059	54097.04
650.411	54371.61
650.763	54386.3
651.115	54596.46
651.467	54519.17
651.819	54498.84
652.171	54500.19
652.523	54362.79
652.875	54399.85
653.227	54248.67
653.578	54382.23
653.93	54228.56
654.282	54135.91
654.633	54031.5
654.985	54045.06
655.337	54165.06
655.688	54091.16
656.039	54189.01
656.391	53956.02
656.742	54042.8
657.094	54038.51
657.445	54076.7
657.796	54029.92
658.147	53970.49
658.498	53952.41
658.849	53963.93
659.2	53913.09
659.551	53866.76
659.902	54031.28
660.253	53933.2
660.604	53968.45
660.955	53742.7
661.306	53879.42
661.656	53723.04
662.007	53797.38
662.358	53792.19
662.708	53750.61
663.059	53713.77
663.409	53499.31
663.76	53776.14
664.11	53679.87
664.461	53745.63
664.811	53761.45
665.161	53700.89
665.511	53509.48
665.862	53664.96
666.212	53772.3
666.562	53763.71
666.912	53697.27
667.262	53605.3
667.612	53627.22
667.962	53626.54
668.312	53712.64
668.662	53730.49
669.011	53569.82
669.361	53575.7
669.711	53541.35
670.06	53435.13
670.41	53370.5
670.76	53300.45
671.109	53460.44
671.459	53345.42
671.808	53403.5
672.157	53415.25
672.507	53306.1
672.856	53299.32
673.205	53263.61
673.554	53452.54
673.904	53214.12
674.253	53345.87
674.602	53274.91
674.951	52758.77
675.3	52758.99
675.649	53320.11
675.998	53082.38
676.346	53147.91
676.695	53229.26
677.044	53048.7
677.393	53184.07
677.741	53146.33
678.09	53130.51
678.438	52924.87
678.787	52998.54
679.135	52987.91
679.484	52756.73
679.832	52923.51
680.181	52722.38
680.529	52775.49
680.877	52718.54
681.225	52626.57
681.573	52788.6
681.922	52645.1
682.27	52552.45
682.618	52515.61
682.966	52432.9
683.314	52459.79
683.661	52335.95
684.009	52204.21
684.357	52166.47
684.705	52162.17
685.053	52201.27
685.4	52125.56
685.748	51947.26
686.095	51931.67
686.443	51744.33
686.79	51822.3
687.138	51777.33
687.485	51831.11
687.832	51577.33
688.18	51675.86
688.527	51464.34
688.874	51473.15
689.221	51341.18
689.568	51236.55
689.915	51197.91
690.262	51197.91
690.609	51041.3
690.956	50957.91
691.303	50896.67
691.65	50608.99
691.997	50696.22
692.344	50475.44
692.69	50512.5
693.037	50554.53
693.383	50183.02
693.73	50374.65
694.077	50122
694.423	50143.24
694.769	50049.69
695.116	49887.21
695.462	49905.28
695.808	49782.58
696.155	49881.1
696.501	49528.57
696.847	49609.02
697.193	49207.45
697.539	49370.61
697.885	49196.6
698.231	49071.41
698.577	49163.16
698.923	49006.1
699.269	48775.6
699.614	48584.19
699.96	48522.72
700.306	48528.82
700.651	48431.2
700.997	48363.18
701.342	48280.92
701.688	48200.92
702.033	47979.91
702.379	48045.9
702.724	47825.11
703.069	47837.77
703.415	47352.58
703.76	47536.31
704.105	47414.73
704.45	47215.19
704.795	47079.37
705.14	47005.25
705.485	47050.9
705.83	46745.14
706.175	46852.71
706.52	46771.13
706.865	46658.14
707.209	46624.47
707.554	46528.88
707.899	46516.45
708.243	46282.55
708.588	46195.55
708.932	45969.79
709.277	46005.05
709.621	45965.5
709.966	45778.84
710.31	45880.3
710.654	45487.09
710.998	45537.49
711.342	45612.06
711.687	45251.85
712.031	45157.84
712.375	45024.06
712.719	45166.88
713.063	45056.82
713.407	45129.14
713.75	44694.35
714.094	44881.69
714.438	44626.55
714.782	44814.34
715.125	44508.82
715.469	44495.48
715.812	44277.64
716.156	44042.61
716.499	44105.89
716.843	44167.58
717.186	43777.54
717.53	44072.89
717.873	44037.42
718.216	43959.45
718.559	43822.28
718.902	43587.03
719.246	43747.03
719.589	43524.89
719.932	43249.19
720.275	43404.21
720.617	43366.02
720.96	43176.65
721.303	43128.29
721.646	43249.87
721.989	42911.57
722.331	43104.78
722.674	42842.87
723.016	42981.62
723.359	42818.24
723.701	42852.14
724.044	42611.46
724.386	42581.41
724.729	42642.88
725.071	42300.51
725.413	42344.8
725.755	42166.5
726.097	42157.92
726.439	42026.85
726.782	41979.16
727.124	42291.92
727.465	41861.43
727.807	41781.88
728.149	41717.25
728.491	41588.44
728.833	41722.22
729.175	41623.92
729.516	41441.55
729.858	41411.95
730.199	41432.06
730.541	41417.82
730.882	41339.63
731.224	41372.85
731.565	41037.27
731.906	41073.88
732.248	41176.02
732.589	40970.38
732.93	40849.93
733.271	40848.35
733.612	40917.27
733.953	41031.62
734.294	40653.78
734.635	40625.3
734.976	40675.24
735.317	40475.25
735.658	40435.02
735.999	40389.6
736.339	40329.49
736.68	40344.18
737.021	40075.49
737.361	39978.99
737.702	40205.43
738.042	40094.24
738.383	40031.19
738.723	40072.77
739.063	39922.27
739.404	39827.36
739.744	39678.43
740.084	39416.52
740.424	39627.36
740.764	39543.07
741.104	39703.29
741.444	39278.67
741.784	39200.71
742.124	39294.94
742.464	39258.11
742.804	39040.03
743.143	39153.48
743.483	39054.95
743.823	38844.56
744.162	38894.05
744.502	38888.62
744.841	38805.24
745.181	38831.68
745.52	38800.72
745.86	38700.83
746.199	38574.73
746.538	38600.04
746.877	38636.88
747.216	38377.68
747.556	38127.51
747.895	38191.47
748.234	38041.87
748.573	38019.27
748.911	38006.16
749.25	38050.45
749.589	37862.44
749.928	37888.65
750.267	37857.47
750.605	37574.31
750.944	37533.41
751.283	37466.97
751.621	37580.18
751.96	37253.87
752.298	37194.21
752.636	37217.71
752.975	37078.28
753.313	36904.95
753.651	36991.95
753.989	36835.8
754.327	36800.77
754.666	36615.24
755.004	36710.83
755.342	36719.87
755.679	36541.57
756.017	36440.55
756.355	36507.22
756.693	36243.72
757.031	36401.46
757.368	36075.59
757.706	36004.18
758.044	35893.22
758.381	36024.07
758.719	35713.57
759.056	35749.27
759.394	35625.21
759.731	35453.01
760.068	35450.07
760.405	35238.78
760.743	35086.24
761.08	35237.87
761.417	34888.96
761.754	35006.47
762.091	34810.31
762.428	34829.3
762.765	34462.53
763.102	34702.52
763.438	34369.42
763.775	34217.33
764.112	34167.39
764.449	34134.17
764.785	33995.65
765.122	33797.68
765.458	33647.41
765.795	33615.09
766.131	33600.63
766.467	33387.98
766.804	33174.65
767.14	33177.81
767.476	33150.02
767.812	32920.87
768.148	33060.3
768.485	32664.83
768.821	32667.77
769.157	32585.74
769.492	32612.18
769.828	32470.71
770.164	32278.85
770.5	32101.68
770.836	32051.52
771.171	31883.84
771.507	31785.53
771.842	31653.33
772.178	31581.02
772.513	31675.71
772.849	31489.5
773.184	31457.41
773.519	31160.47
773.855	31057.87
774.19	30906.24
774.525	30735.39
774.86	30800.02
775.195	30673.47
775.53	30579.69
775.865	30397.77
776.2	30267.38
776.535	30055.86
776.87	30033.49
777.205	30013.38
777.539	29907.62
777.874	29864.45
778.209	29519.61
778.543	29505.82
778.878	29426.05
779.212	29423.11
779.547	29052.05
779.881	29198.48
780.215	28990.81
780.55	29043.69
780.884	28931.37
781.218	28742.9
781.552	28728.67
781.886	28550.14
782.22	28429.46
782.554	28309.92
782.888	28089.13
783.222	27977.72
783.556	27930.04
783.889	27773.89
784.223	27642.37
784.557	27596.72
784.89	27657.73
785.224	27485.99
785.557	27301.36
785.891	27298.87
786.224	27051.2
786.558	27135.49
786.891	26886.23
787.224	26692.11
787.557	26649.62
787.891	26612.56
788.224	26733.46
788.557	26613.47
788.89	26489.85
789.223	26357.2
789.556	26280.37
789.888	26047.61
790.221	26077.21
790.554	25816.2
790.887	25802.19
791.219	25666.15
791.552	25607.62
791.884	25501.18
792.217	25462.99
792.549	25443.1
792.882	25291.47
793.214	25180.51
793.546	25240.62
793.879	24981.19
794.211	24865.04
794.543	24925.83
794.875	24802.22
795.207	24889.67
795.539	24669.56
795.871	24600.64
796.203	24526.29
796.535	24215.79
796.867	24255.34
797.198	24154.77
797.53	24187.77
797.862	24034.78
798.193	24170.82
798.525	23798.17
798.856	23919.75
799.188	23680.44
799.519	23629.14
799.85	23398.41
800.182	23494.23
800.513	23487
800.844	23269.15
801.175	23418.52
801.506	23363.61
801.837	23216.49
802.168	23152.09
802.499	23000.45
802.83	22917.07
803.161	22894.02
803.491	22769.73
803.822	22703.29
804.153	22749.84
804.483	22475.95
804.814	22407.7
805.145	22417.65
805.475	22395.27
805.805	22309.63
806.136	22265.11
806.466	22206.58
806.796	22292.45
807.126	22003.42
807.457	21988.28
807.787	22076.64
808.117	21914.16
808.447	21797.77
808.777	21852.24
809.107	21775.63
809.436	21668.51
809.766	21646.82
810.096	21588.06
810.426	21473.04
810.755	21426.71
811.085	21389.88
811.414	21283.21
811.744	21066.27
812.073	21160.28
812.403	21148.98
812.732	20981.52
813.061	20943.79
813.39	20858.14
813.719	20819.72
814.049	20947.4
814.378	20838.03
814.707	20743.56
815.036	20663.79
815.365	20604.59
815.693	20398.94
816.022	20462.67
816.351	20384.03
816.68	20305.61
817.008	20333.86
817.337	20160.53
817.665	20096.58
817.994	20184.03
818.322	20092.06
818.651	20189.46
818.979	19979.97
819.307	19968.9
819.636	19981.1
819.964	19791.5
820.292	19931.38
820.62	19817.71
820.948	19773.65
821.276	19889.8
821.604	19729.58
821.932	19833.98
822.259	19735
822.587	19741.33
822.915	19786.08
823.243	19686.42
823.57	19752.86
823.898	19660.43
824.225	19604.16
824.553	19586.31
824.88	19673.08
825.207	19650.94
825.535	19687.1
825.862	19641.45
826.189	19624.72
826.516	19681.22
826.843	19863.59
827.17	19673.31
827.497	19697.26
827.824	19764.83
828.151	19709.24
828.478	19684.16
828.805	19783.59
829.131	19537.04
829.458	19622.46
829.785	19478.97
830.111	19549.92
830.438	19682.58
830.764	19597.15
831.09	19581.11
831.417	19415.69
831.743	19533.88
832.069	19496.14
832.395	19457.5
832.722	19506.99
833.048	19419.76
833.374	19529.13
833.7	19404.84
834.026	19374.79
834.351	19483.71
834.677	19414.11
835.003	19392.41
835.329	19323.72
835.654	19285.52
835.98	19197.62
836.306	19191.97
836.631	19225.64
836.956	19208.24
837.282	19218.41
837.607	19157.17
837.932	19118.52
838.258	19128.24
838.583	19142.48
838.908	18870.17
839.233	18975.93
839.558	18907.91
839.883	18845.54
840.208	18832.2
840.533	18841.92
840.858	18796.95
841.182	18813.9
841.507	18716.73
841.832	18675.14
842.156	18677.63
842.481	18619.33
842.805	18463.62
843.13	18601.25
843.454	18396.28
843.778	18422.04
844.103	18290.07
844.427	18336.17
844.751	18309.05
845.075	18225.89
845.399	18216.85
845.723	18101.15
846.047	18100.24
846.371	17957.65
846.695	17989.29
847.019	17834.49
847.343	17744.77
847.666	17577.55
847.99	17591.78
848.313	17471.11
848.637	17434.73
848.96	17401.05
849.284	17447.61
849.607	17296.2
849.931	17133.72
850.254	17152.25
850.577	17047.16
850.9	16881.52
851.223	16868.19
851.546	16824.57
851.869	16620.28
852.192	16736.89
852.515	16643.79
852.838	16493.73
853.161	16464.81
853.483	16397.24
853.806	16354.3
854.129	16354.53
854.451	16194.98
854.774	16199.5
855.096	16114.99
855.419	16065.5
855.741	16012.84
856.063	15928.32
856.385	15873.18
856.708	15830.47
857.03	15776.24
857.352	15836.35
857.674	15733.53
857.996	15697.37
858.318	15591.84
858.64	15489.69
858.961	15467.77
859.283	15501.44
859.605	15412.63
859.926	15420.77
860.248	15376.47
860.57	15337.83
860.891	15385.74
861.212	15234.11
861.534	15166.99
861.855	15137.61
862.176	15133.77
862.498	15111.4
862.819	15217.38
863.14	15062.36
863.461	15012.87
863.782	14887.22
864.103	14953.21
864.424	14849.26
864.745	14950.04
865.065	14843.38
865.386	14811.97
865.707	14770.61
866.027	14828.69
866.348	14796.15
866.668	14791.4
866.989	14727
867.309	14703.72
867.63	14602.48
867.95	14619.66
868.27	14509.6
868.59	14585.99
868.91	14651.97
869.23	14555.25
869.55	14465.31
869.87	14615.59
870.19	14501.02
870.51	14559.32
870.83	14404.07
871.15	14336.28
871.469	14280.46
871.789	14334.69
872.109	14336.95
872.428	14240.91
872.748	14239.33
873.067	14254.02
873.386	14226.22
873.706	14175.15
874.025	14181.03
874.344	14154.13
874.663	14117.3
874.982	14115.72
875.301	14125.66
875.62	14012.67
875.939	13961.14
876.258	14000.24
876.577	13986.68
876.896	13964.31
877.214	13899
877.533	13914.37
877.852	13931.99
878.17	13906.91
878.489	13768.38
878.807	13830.53
879.125	13821.49
879.444	13754.6
879.762	13774.71
880.08	13778.55
880.398	13633.47
880.716	13756.63
881.034	13675.95
881.352	13670.98
881.67	13567.71
881.988	13535.84
882.306	13530.65
882.624	13501.04
882.941	13448.84
883.259	13366.81
883.577	13454.49
883.894	13287.94
884.212	13238.68
884.529	13341.73
884.846	13208.62
885.164	13270.09
885.481	13169.53
885.798	13172.92
886.115	13062.86
886.432	13075.29
886.75	12996.2
887.067	12936.76
887.383	13023.99
887.7	12929.08
888.017	13035.29
888.334	12971.57
888.651	12879.36
888.967	12854.51
889.284	12800.5
889.6	12807.73
889.917	12622.42
890.233	12720.95
890.55	12669.2
890.866	12624.91
891.182	12537
891.498	12527.96
891.815	12485.48
892.131	12420.39
892.447	12433.27
892.763	12346.95
893.079	12447.51
893.395	12343.11
893.71	12296.33
894.026	12165.71
894.342	12214.3
894.657	12083.23
894.973	12125.94
895.289	12087.52
895.604	12031.93
895.92	11937.47
896.235	11844.14
896.55	11982.89
896.865	11906.06
897.181	11846.17
897.496	11897.47
897.811	11744.25
898.126	11776.57
898.441	11667.42
898.756	11646.63
899.071	11555.11
899.386	11618.15
899.7	11483.92
900.015	11394.21
900.33	11401.21
900.644	11338.61
900.959	11351.04
901.273	11335.9
901.588	11249.8
901.902	11184.49
902.216	11180.2
902.531	11079.86
902.845	11103.59
903.159	11044.16
903.473	11026.08
903.787	10855.24
904.101	10836.25
904.415	10897.5
904.729	10862.24
905.042	10778.63
905.356	10757.84
905.67	10730.72
905.984	10761.45
906.297	10629.93
906.611	10633.1
906.924	10560.33
907.237	10627.22
907.551	10505.87
907.864	10532.08
908.177	10483.27
908.491	10376.61
908.804	10330.96
909.117	10226.1
909.43	10232.2
909.743	10143.17
910.056	10158.53
910.368	10126.89
910.681	10114.47
910.994	9957.86
911.307	9988.37
911.619	9920.12
911.932	9937.3
912.244	9839.9
912.557	9874.7
912.869	9765.77
913.181	9685.78
913.494	9787.92
913.806	9665.89
914.118	9629.28
914.43	9587.47
914.742	9575.72
915.054	9554.93
915.366	9516.29
915.678	9460.25
915.99	9444.43
916.302	9299.12
916.613	9277.43
916.925	9306.8
917.236	9217.54
917.548	9158.11
917.859	9169.63
918.171	9080.37
918.482	9067.04
918.794	9064.1
919.105	9046.47
919.416	8942.97
919.727	8933.48
920.038	8860.49
920.349	8868.17
920.66	8834.73
920.971	8743.43
921.282	8705.24
921.593	8666.37
921.903	8647.39
922.214	8565.13
922.525	8582.75
922.835	8517.67
923.146	8481.51
923.456	8455.3
923.767	8436.77
924.077	8479.25
924.387	8338.92
924.697	8312.93
925.008	8240.62
925.318	8226.61
925.628	8214.85
925.938	8173.95
926.248	8086.95
926.558	8140.96
926.867	8048.53
927.177	8058.47
927.487	7978.48
927.796	7861.19
928.106	7941.87
928.416	7875.88
928.725	7830.68
929.034	7856.67
929.344	7830.91
929.653	7839.95
929.962	7763.12
930.271	7643.8
930.581	7562.44
930.89	7633.85
931.199	7545.04
931.508	7614.42
931.817	7533.06
932.125	7479.05
932.434	7458.94
932.743	7421.2
933.051	7370.36
933.36	7384.14
933.669	7303.69
933.977	7287.65
934.286	7258.5
934.594	7228.67
934.902	7155.22
935.21	7165.62
935.519	7075
935.827	7094.88
936.135	7055.11
936.443	7007.2
936.751	6968.11
937.059	6956.81
937.367	6937.83
937.674	6930.14
937.982	6872.97
938.29	6815.8
938.597	6894.89
938.905	6754.33
939.213	6746.64
939.52	6701.22
939.827	6698.06
940.135	6656.03
940.442	6650.38
940.749	6638.62
941.056	6569.47
941.363	6554.11
941.67	6568.12
941.977	6562.92
942.284	6461.91
942.591	6485.18
942.898	6425.07
943.205	6356.15
943.511	6359.99
943.818	6322.93
944.125	6236.6
944.431	6287
944.738	6211.29
945.044	6219.65
945.35	6133.78
945.657	6119.09
945.963	6086.77
946.269	6128.58
946.575	6116.83
946.881	6086.55
947.187	6024.63
947.493	5978.53
947.799	5994.8
948.105	5918.19
948.41	5919.1
948.716	5876.39
949.022	5816.5
949.327	5841.58
949.633	5780.34
949.938	5793.9
950.244	5747.35
950.549	5733.34
950.854	5683.85
951.16	5653.57
951.465	5656.96
951.77	5630.06
952.075	5574.7
952.38	5540.8
952.685	5604.98
952.99	5471.88
953.294	5541.25
953.599	5454.25
953.904	5462.16
954.209	5326.12
954.513	5424.19
954.818	5389.62
955.122	5329.51
955.426	5296.29
955.731	5243.86
956.035	5244.54
956.339	5249.06
956.643	5238.44
956.948	5206.57
957.252	5195.05
957.556	5164.09
957.86	5165.44
958.163	5135.84
958.467	5121.38
958.771	5050.64
959.075	5122.73
959.378	5089.97
959.682	5047.03
959.985	4988.5
960.289	5054.71
960.592	4902.85
960.896	4887.71
961.199	4888.39
961.502	4859.46
961.805	4823.76
962.108	4802.74
962.411	4833.25
962.714	4784.66
963.017	4727.04
963.32	4776.07
963.623	4729.97
963.926	4706.7
964.228	4717.55
964.531	4674.83
964.833	4721.84
965.136	4657.43
965.438	4608.85
965.741	4604.33
966.043	4587.83
966.345	4596.19
966.648	4554.61
966.95	4498.12
967.252	4518.45
967.554	4480.49
967.856	4474.61
968.158	4450.21
968.46	4419.7
968.761	4360.49
969.063	4331.79
969.365	4397.55
969.666	4396.2
969.968	4293.15
970.269	4257.67
970.571	4292.02
970.872	4284.11
971.174	4195.75
971.475	4209.54
971.776	4243.21
972.077	4209.76
972.378	4155.07
972.679	4202.53
972.98	4142.42
973.281	4118.01
973.582	4063.1
973.883	4053.38
974.183	4034.4
974.484	4012.71
974.785	3972.48
975.085	3986.72
975.386	4006.15
975.686	3967.51
975.986	3925.48
976.287	3934.97
976.587	3890.9
976.887	3901.3
977.187	3859.26
977.487	3855.87
977.787	3831.02
978.087	3827.17
978.387	3803.67
978.687	3806.16
978.987	3767.06
979.286	3736.1
979.586	3713.5
979.885	3720.28
980.185	3676.67
980.484	3664.69
980.784	3676.44
981.083	3615.2
981.382	3623.11
981.682	3628.31
981.981	3641.42
982.28	3584.24
982.579	3570.46
982.878	3598.93
983.177	3528.88
983.475	3502.21
983.774	3520.74
984.073	3546.05
984.372	3422.66
984.67	3440.97
984.969	3446.17
985.267	3442.32
985.566	3438.71
985.864	3408.2
986.162	3403.91
986.461	3368.43
986.759	3341.31
987.057	3324.36
987.355	3293.18
987.653	3325.27
987.951	3282.78
988.249	3255.89
988.547	3250.24
988.844	3241.2
989.142	3256.57
989.44	3170.24
989.737	3204.36
990.035	3153.52
990.332	3130.02
990.63	3128.66
990.927	3121.88
991.224	3104.93
991.521	3105.61
991.819	3092.73
992.116	3097.48
992.413	3054.99
992.71	3016.57
993.006	3014.99
993.303	2997.59
993.6	2979.51
993.897	3007.31
994.193	2967.53
994.49	2958.72
994.787	2927.76
995.083	2899.97
995.379	2887.76
995.676	2881.21
995.972	2926.18
996.268	2871.27
996.565	2843.47
996.861	2819.52
997.157	2799.4
997.453	2815.9
997.749	2779.52
998.044	2786.52
998.34	2766.41
998.636	2720.31
998.932	2738.61
999.227	2689.58
999.523	2713.08
999.818	2692.06
1000.114	2655
1000.409	2646.41
1000.704	2648
1001	2622.01
1001.295	2622.46
1001.59	2574.32
1001.885	2616.58
1002.18	2555.12
1002.475	2527.55
1002.77	2541.78
1003.065	2549.92
1003.359	2501.78
1003.654	2504.04
1003.949	2490.49
1004.243	2479.86
1004.538	2433.31
1004.832	2446.42
1005.127	2443.03
1005.421	2422.69
1005.715	2419.07
1006.009	2407.32
1006.304	2375.23
1006.598	2368.23
1006.892	2309.93
1007.186	2339.3
1007.48	2321.9
1007.773	2287.55
1008.067	2278.06
1008.361	2285.74
1008.655	2276.25
1008.948	2216.82
1009.242	2260.66
1009.535	2241.23
1009.829	2208.01
1010.122	2207.78
1010.415	2163.04
1010.708	2195.13
1011.001	2171.62
1011.295	2131.4
1011.588	2107.44
1011.881	2083.49
1012.173	2085.75
1012.466	2111.29
1012.759	2096.82
1013.052	2043.27
1013.344	2049.14
1013.637	2026.09
1013.93	2047.79
1014.222	2019.76
1014.514	1986.32
1014.807	1995.13
1015.099	1999.2
1015.391	1986.77
1015.683	1965.08
1015.976	1971.4
1016.268	1927.11
1016.56	1936.83
1016.851	1892.99
1017.143	1937.96
1017.435	1881.24
1017.727	1889.82
1018.018	1862.25
1018.31	1868.13
1018.602	1828.81
1018.893	1841.24
1019.185	1772.54
1019.476	1796.72
1019.767	1762.59
1020.058	1738.19
1020.35	1757.85
1020.641	1751.52
1020.932	1756.49
1021.223	1746.78
1021.514	1716.49
1021.804	1692.31
1022.095	1689.83
1022.386	1678.08
1022.677	1670.17
1022.967	1645.54
1023.258	1631.52
1023.548	1647.57
1023.839	1648.02
1024.129	1599.66
1024.419	1618.42
1024.709	1609.6
1025	1602.83
1025.29	1589.49
1025.58	1560.57
1025.87	1549.95
1026.16	1533.67
1026.449	1529.61
1026.739	1489.83
1027.029	1523.05
1027.319	1493.22
1027.608	1514.01
1027.898	1490.06
1028.187	1459.55
1028.477	1441.02
1028.766	1409.84
1029.055	1421.13
1029.344	1439.21
1029.634	1415.71
1029.923	1438.31
1030.212	1358.09
1030.501	1369.38
1030.79	1349.05
1031.078	1356.05
1031.367	1356.5
1031.656	1350.18
1031.945	1340.91
1032.233	1323.06
1032.522	1326.9
1032.81	1315.15
1033.099	1313.12
1033.387	1281.7
1033.675	1280.8
1033.963	1269.5
1034.251	1257.98
1034.54	1262.72
1034.828	1246.9
1035.116	1262.72
1035.403	1235.83
1035.691	1202.84
1035.979	1212.33
1036.267	1207.36
1036.554	1215.72
1036.842	1179.11
1037.129	1193.57
1037.417	1178.2
1037.704	1174.14
1037.992	1183.18
1038.279	1155.15
1038.566	1115.61
1038.853	1115.61
1039.14	1115.61
