Data from plate_porcelain_FLMS001491_023.txt Node
Date: Tue Feb 07 11:19:01 GMT 2017
User: dcchb
Spectrometer: FLMS00149
Trigger mode: 0
Integration Time (sec): 2.000000E-2
Scans to average: 10
Electric dark correction enabled: true
Nonlinearity correction enabled: false
Boxcar width: 0
XAxis mode: Wavelengths
Number of Pixels in Spectrum: 2048
>>>>>Begin Spectral Data<<<<<
341.393	-33.25
341.776	-33.25
342.16	-33.25
342.543	-57.65
342.927	-81.16
343.31	-87.03
343.693	-70.99
344.077	-81.38
344.46	-54.72
344.843	-46.35
345.226	-48.16
345.61	-17.88
345.993	-4.55
346.376	4.72
346.759	-2.06
347.142	30.03
347.525	51.95
347.908	64.15
348.291	71.83
348.674	77.71
349.057	112.74
349.44	137.6
349.823	120.87
350.206	184.6
350.588	244.26
350.971	249
351.354	258.95
351.737	249.23
352.119	292.17
352.502	277.25
352.884	311.6
353.267	314.31
353.65	328.32
354.032	332.84
354.414	348.66
354.797	339.85
355.179	366.97
355.562	357.25
355.944	379.85
356.326	363.13
356.709	384.37
357.091	372.84
357.473	378.04
357.855	391.15
358.238	375.33
358.62	389.57
359.002	357.48
359.384	386.18
359.766	411.03
360.148	393.63
360.53	397.48
360.912	385.27
361.294	371.49
361.676	385.95
362.057	391.83
362.439	378.72
362.821	387.76
363.203	379.85
363.584	377.14
363.966	378.27
364.348	397.02
364.729	395.67
365.111	385.5
365.493	369.91
365.874	369.68
366.256	381.88
366.637	389.34
367.019	373.97
367.4	399.28
367.781	389.57
368.163	390.24
368.544	389.57
368.925	415.33
369.306	390.02
369.688	405.84
370.069	400.19
370.45	395.67
370.831	393.18
371.212	409
371.593	418.27
371.974	403.8
372.355	409
372.736	419.4
373.117	425.72
373.498	412.62
373.879	404.48
374.26	427.76
374.641	406.74
375.021	393.18
375.402	444.93
375.783	463.91
376.163	463.91
376.544	458.72
376.925	430.92
377.305	451.03
377.686	449.45
378.066	458.26
378.447	462.56
378.827	490.13
379.208	457.81
379.588	462.11
379.968	459.17
380.349	479.73
380.729	458.72
381.109	481.99
381.489	491.03
381.87	527.87
382.25	502.56
382.63	520.86
383.01	489.45
383.39	510.69
383.77	519.28
384.15	514.53
384.53	526.29
384.91	545.72
385.29	529.68
385.67	542.1
386.049	541.65
386.429	574.19
386.809	576.91
387.189	563.57
387.568	565.38
387.948	572.61
388.328	594.08
388.707	607.64
389.087	587.75
389.466	625.27
389.846	616
390.225	626.85
390.605	629.33
390.984	617.81
391.363	642.21
391.743	652.61
392.122	640.63
392.501	659.62
392.881	667.3
393.26	688.54
393.639	708.88
394.018	680.18
394.397	710.91
394.776	702.55
395.155	713.63
395.534	702.1
395.913	714.76
396.292	745.04
396.671	740.52
397.05	745.94
397.429	766.73
397.808	787.3
398.186	765.83
398.565	775.32
398.944	799.5
399.323	789.56
399.701	810.35
400.08	787.97
400.458	832.72
400.837	844.47
401.215	833.62
401.594	851.02
401.972	849.67
402.351	847.63
402.729	860.29
403.107	870.01
403.486	876.78
403.864	902.32
404.242	921.53
404.62	951.13
404.999	934.18
405.377	968.08
405.755	954.07
406.133	967.86
406.511	976.67
406.889	1007.4
407.267	982.54
407.645	1046.05
408.023	1045.14
408.401	1038.81
408.779	1059.15
409.156	1078.59
409.534	1093.28
409.912	1124.24
410.29	1164.91
410.667	1173.27
411.045	1164.91
411.422	1184.57
411.8	1164.01
412.178	1202.65
412.555	1228.41
412.933	1229.09
413.31	1275.64
413.687	1285.81
414.065	1303.21
414.442	1300.95
414.819	1319.26
415.197	1362.65
415.574	1373.72
415.951	1403.1
416.328	1417.11
416.705	1394.06
417.082	1402.42
417.46	1446.71
417.837	1436.54
418.214	1459.82
418.591	1472.48
418.967	1510.44
419.344	1502.76
419.721	1504.34
420.098	1547.73
420.475	1517.45
420.852	1572.36
421.228	1570.1
421.605	1611.45
421.982	1631.57
422.358	1654.62
422.735	1650.55
423.111	1664.11
423.488	1695.52
423.864	1712.02
424.241	1755.18
424.617	1765.58
424.994	1769.42
425.37	1836.99
425.746	1793.14
426.123	1842.64
426.499	1826.36
426.875	1859.81
427.251	1917.89
427.627	1963.76
428.003	1948.62
428.379	1989.75
428.756	2052.12
429.132	2075.17
429.507	2085.57
429.883	2102.97
430.259	2142.74
430.635	2182.06
431.011	2205.34
431.387	2248.95
431.763	2249.63
432.138	2291.44
432.514	2295.73
432.89	2330.31
433.265	2392.68
433.641	2384.09
434.016	2446.01
434.392	2463.18
434.767	2581.82
435.143	2526.68
435.518	2569.62
435.894	2608.26
436.269	2626.57
436.644	2675.61
437.02	2688.04
437.395	2690.97
437.77	2755.61
438.145	2808.26
438.52	2820.46
438.895	2849.84
439.271	2821.37
439.646	2937.75
440.021	2922.61
440.395	2959.22
440.77	2970.52
441.145	2987.24
441.52	3071.08
441.895	3090.29
442.27	3095.48
442.645	3093.68
443.019	3164.86
443.394	3140.91
443.769	3195.14
444.143	3222.71
444.518	3258.19
444.892	3210.06
445.267	3300.9
445.641	3296.83
446.016	3333.22
446.39	3366.21
446.764	3370.05
447.139	3370.05
447.513	3412.31
447.887	3491.63
448.262	3487.34
448.636	3505.87
449.01	3563.95
449.384	3582.7
449.758	3599.65
450.132	3644.17
450.506	3678.29
450.88	3733.66
451.254	3754.45
451.628	3813.88
452.002	3829.7
452.376	3843.49
452.75	3881.23
453.123	3916.7
453.497	3993.99
453.871	4063.82
454.244	4128.45
454.618	4142.91
454.992	4212.29
455.365	4192.18
455.739	4345.17
456.112	4343.36
456.486	4429.01
456.859	4442.34
457.232	4557.59
457.606	4541.32
457.979	4627.87
458.352	4713.75
458.725	4729.11
459.099	4737.25
459.472	4863.57
459.845	4968.43
460.218	4997.13
460.591	5072.38
460.964	5041.2
461.337	5194.64
461.71	5264.47
462.083	5335.88
462.456	5413.39
462.829	5386.72
463.201	5498.81
463.574	5537.45
463.947	5600.95
464.32	5789.2
464.692	5742.19
465.065	5820.84
465.438	5970.44
465.81	6028.06
466.183	6097.66
466.555	6236.42
466.928	6254.04
467.3	6247.04
467.672	6398.22
468.045	6536.98
468.417	6551.66
468.789	6578.78
469.161	6671.89
469.534	6807.02
469.906	6896.51
470.278	7042.05
470.65	7080.92
471.022	7292.21
471.394	7412.88
471.766	7435.48
472.138	7591.18
472.51	7712.09
472.882	7768.81
473.253	7964.73
473.625	8079.76
473.997	8253.54
474.369	8329.47
474.74	8395.01
475.112	8529.92
475.484	8724.94
475.855	8824.6
476.227	8903.24
476.598	9195.66
476.97	9270.91
477.341	9484.24
477.713	9627.74
478.084	9703.22
478.455	9976.66
478.827	10029.09
479.198	10378.68
479.569	10391.79
479.94	10704.55
480.311	10805.79
480.682	11047.82
481.053	11279.9
481.424	11471.08
481.795	11572.77
482.166	11730.06
482.537	11911.97
482.908	12126.88
483.279	12306.31
483.65	12552.86
484.021	12732.07
484.391	12883.7
484.762	13026.3
485.133	13220.19
485.503	13425.83
485.874	13664.7
486.244	13814.98
486.615	14110.56
486.985	14363.44
487.356	14542.64
487.726	14678.23
488.097	14992.8
488.467	14953.25
488.837	15381.49
489.207	15577.87
489.578	15751.42
489.948	15895.82
490.318	16172.65
490.688	16265.98
491.058	16511.63
491.428	16793.2
491.798	16819.42
492.168	17293.98
492.538	17255.79
492.908	17466.41
493.278	17819.62
493.648	17834.31
494.017	18099.16
494.387	18280.17
494.757	18419.37
495.126	18588.41
495.496	18706.37
495.866	18828.4
496.235	19069.07
496.605	19285.57
496.974	19376.64
497.344	19591.55
497.713	19677.65
498.082	19918.54
498.452	20134.58
498.821	20170.51
499.19	20273.56
499.559	20526.89
499.928	20627.9
500.298	20741.12
500.667	20963.71
501.036	20956.93
501.405	21269.47
501.774	21337.72
502.143	21466.98
502.512	21664.49
502.88	21840.53
503.249	21890.24
503.618	22012.05
503.987	22069
504.356	22381.08
504.724	22499.49
505.093	22553.5
505.462	22771.8
505.83	22983.1
506.199	23113.04
506.567	23403.42
506.936	23435.06
507.304	23772.68
507.672	23918.89
508.041	23914.37
508.409	24129.28
508.777	24360.24
509.145	24600.45
509.514	24551.19
509.882	24788.7
510.25	24738.08
510.618	25033.89
510.986	25184.62
511.354	25449.92
511.722	25804.04
512.09	25912.74
512.458	25804.49
512.826	26113.86
513.193	26256.46
513.561	26428.88
513.929	26678.14
514.297	26980.05
514.664	27162.87
515.032	27233.61
515.4	27490.1
515.767	27707.49
516.135	27936.19
516.502	27792.24
516.869	28324.42
517.237	28387.02
517.604	28365.55
517.972	28672.21
518.339	28985.2
518.706	29008.47
519.073	29149.04
519.44	29466.32
519.808	29765.52
520.175	29913.31
520.542	30278.72
520.909	30345.61
521.276	30473.07
521.643	30772.27
522.009	31161.41
522.376	31365.93
522.743	31608.18
523.11	31761.85
523.477	31992.12
523.843	32367.93
524.21	32571.09
524.577	32782.16
524.943	32928.37
525.31	33188.03
525.676	33571.74
526.043	33762.47
526.409	33872.75
526.776	34380.76
527.142	34439.29
527.508	34730.13
527.874	35025.94
528.241	35119.95
528.607	35341.19
528.973	35645.81
529.339	35503.45
529.705	35944.34
530.071	36333.93
530.437	36530.76
530.803	36526.69
531.169	36958.32
531.535	36812.34
531.901	36995.61
532.267	37215.49
532.632	37384.75
532.998	37549.27
533.364	37888.24
533.73	38143.15
534.095	38357.61
534.461	38424.27
534.826	38796.69
535.192	38841.21
535.557	39066.06
535.923	39017.48
536.288	39169.56
536.653	39463.34
537.019	39464.47
537.384	39579.72
537.749	39837.34
538.114	39908.3
538.479	40048.18
538.845	40250.44
539.21	40249.99
539.575	40450.89
539.94	40585.35
540.305	40894.26
540.67	40923.42
541.034	41027.14
541.399	41142.17
541.764	41357.08
542.129	41363.63
542.494	41495.38
542.858	41772.43
543.223	41719.55
543.587	41993.9
543.952	42190.73
544.316	42415.81
544.681	42394.34
545.045	42681.79
545.41	42734.44
545.774	42719.07
546.138	42791.61
546.503	43008.33
546.867	43199.74
547.231	43393.18
547.595	43529.67
547.959	43631.37
548.324	43767.63
548.688	43896.9
549.052	43999.49
549.416	44090.79
549.779	44198.81
550.143	44408.07
550.507	44602.87
550.871	44809.64
551.235	44743.88
551.599	45061.84
551.962	45144.32
552.326	45221.16
552.689	45457.76
553.053	45514.48
553.417	45639
553.78	46125.99
554.143	46050.29
554.507	46256.83
554.87	46307.23
555.234	46722.36
555.597	46502.03
555.96	46781.57
556.323	46962.13
556.686	47024.5
557.05	47322.34
557.413	47456.35
557.776	47584.71
558.139	47759.62
558.502	47825.15
558.865	47866.51
559.228	48271.24
559.59	48346.05
559.953	48461.75
560.316	48772.02
560.679	48821.29
561.041	49055.86
561.404	49415.4
561.767	49550.08
562.129	49313.7
562.492	49863.07
562.854	49827.36
563.217	49810.19
563.579	50077.53
563.941	50297.18
564.304	50420.57
564.666	50658.98
565.028	50736.49
565.39	50863.04
565.753	51063.26
566.115	51117.5
566.477	51297.61
566.839	51360.66
567.201	51538.96
567.563	51566.3
567.925	51849.46
568.287	51812.39
568.648	51911.15
569.01	52211.25
569.372	52349.56
569.734	52257.35
570.095	52506.84
570.457	52531.7
570.819	52582.77
571.18	52713.84
571.542	52963.32
571.903	52942.53
572.265	53077.22
572.626	53141.4
572.987	53128.52
573.349	53315.18
573.71	53420.71
574.071	53510.43
574.432	53607.38
574.794	53787.48
575.155	53727.6
575.516	53759.24
575.877	53884.88
576.238	53858.89
576.599	54004.43
576.96	54053.01
577.32	54034.48
577.681	54216.85
578.042	54248.04
578.403	54315.83
578.763	54363.74
579.124	54385.43
579.485	54423.85
579.845	54548.14
580.206	54502.95
580.566	54571.64
580.927	54587.69
581.287	54646.44
581.648	54540.46
582.008	54748.36
582.368	54599.89
582.728	54712.43
583.089	54604.41
583.449	54659.78
583.809	54785.65
584.169	54781.13
584.529	54723.28
584.889	54898.42
585.249	54684.86
585.609	54715.37
585.969	54857.51
586.329	54779.77
586.688	54839.21
587.048	54833.33
587.408	54752.43
587.768	54815.25
588.127	54794.92
588.487	54709.95
588.846	55031.07
589.206	54781.58
589.565	54756.5
589.925	54935.7
590.284	54913.33
590.643	55013.44
591.003	55033.33
591.362	55000.79
591.721	54966.66
592.08	55019.54
592.44	55064.96
592.799	55064.51
593.158	55015.93
593.517	55056.38
593.876	55027
594.235	55029.94
594.593	55057.96
594.952	55132.31
595.311	55088.01
595.67	55140.67
596.029	55210.72
596.387	55186.32
596.746	55272.42
597.104	55164.4
597.463	55186.32
597.822	55409.59
598.18	55218.63
598.538	55251.63
598.897	55374.79
599.255	55169.37
599.613	55506.99
599.972	55325.3
600.33	55450.27
600.688	55361.45
601.046	55438.06
601.404	55550.15
601.762	55528.46
602.12	55632.86
602.478	55656.14
602.836	55717.83
603.194	55474.45
603.552	55524.39
603.91	55488.46
604.268	55622.24
604.625	55543.6
604.983	55698.62
605.341	55554.67
605.698	55740.2
606.056	55824.49
606.413	55731.16
606.771	55856.13
607.128	55823.59
607.485	55814.55
607.843	55783.14
608.2	55919.63
608.557	56043.7
608.914	55931.83
609.272	56022.45
609.629	56079.63
609.986	56165.27
610.343	56043.92
610.7	56293.18
611.057	56171.38
611.414	56231.94
611.771	56262.22
612.127	56351.03
612.484	56313.29
612.841	56435.55
613.198	56352.16
613.554	56365.95
613.911	56482.33
614.267	56401.88
614.624	56518.03
614.98	56520.97
615.337	56636.9
615.693	56576.79
616.05	56583.57
616.406	56729.78
616.762	56579.28
617.118	56647.3
617.475	56689.33
617.831	56707.86
618.187	56719.61
618.543	56817.23
618.899	56857.01
619.255	56848.19
619.611	56815.88
619.967	56856.1
620.323	56914.18
620.678	56832.15
621.034	56811.81
621.39	56843.45
621.746	56854.3
622.101	57061.97
622.457	56827.18
622.812	56949.21
623.168	56920.96
623.523	56933.16
623.879	57040.96
624.234	56853.84
624.589	56955.99
624.945	56936.33
625.3	57017.91
625.655	56920.28
626.01	56955.76
626.365	57030.79
626.72	56985.59
627.075	56942.43
627.43	56905.14
627.785	56802.55
628.14	56920.51
628.495	56890.68
628.85	56787.18
629.205	56752.15
629.559	56810.23
629.914	56728.2
630.269	56862.21
630.623	56697.24
630.978	56644.81
631.332	56780.17
631.687	56803.45
632.041	56647.3
632.396	56738.14
632.75	56644.13
633.104	56563
633.459	56510.12
633.813	56492.05
634.167	56569.11
634.521	56513.51
634.875	56516.23
635.229	56473.97
635.583	56327.08
635.937	56338.15
636.291	56302.67
636.645	56252.5
636.999	56217.93
637.352	56294.08
637.706	56180.42
638.06	56221.09
638.413	56225.39
638.767	56071.49
639.121	56191.26
639.474	55980.87
639.828	56013.64
640.181	55913.98
640.534	55998.27
640.888	55902.46
641.241	55826.07
641.594	55796.7
641.947	55950.82
642.301	55814.32
642.654	55760.54
643.007	55875.79
643.36	55730.71
643.713	55678.06
644.066	55801.44
644.419	55609.81
644.771	55406.88
645.124	55192.64
645.477	55117.39
645.83	54919.66
646.182	54834.69
646.535	54638.08
646.888	54762.37
647.24	54524.64
647.593	54699.55
647.945	54619.33
648.298	54579.55
648.65	54447.35
649.002	54424.53
649.355	54497.97
649.707	54460.91
650.059	54601.47
650.411	54943.61
650.763	54913.33
651.115	55210.72
651.467	55081.24
651.819	55028.81
652.171	55017.06
652.523	54976.15
652.875	54861.35
653.227	54763.96
653.578	54899.32
653.93	54881.24
654.282	54735.93
654.633	54619.55
654.985	54694.58
655.337	54690.51
655.688	54693.9
656.039	54748.59
656.391	54560.8
656.742	54613.68
657.094	54588.59
657.445	54810.73
657.796	54671.3
658.147	54591.53
658.498	54481.7
658.849	54646.67
659.2	54526.67
659.551	54473.34
659.902	54593.56
660.253	54504.98
660.604	54511.76
660.955	54414.81
661.306	54509.72
661.656	54384.08
662.007	54379.56
662.358	54424.76
662.708	54390.86
663.059	54320.58
663.409	54089.17
663.76	54348.6
664.11	54274.7
664.461	54332.78
664.811	54324.42
665.161	54319
665.511	54197.19
665.862	54260.47
666.212	54371.42
666.562	54396.51
666.912	54167.81
667.262	54206.68
667.612	54199.45
667.962	54251.65
668.312	54109.28
668.662	54243.74
669.011	54212.11
669.361	54149.28
669.711	54145.89
670.06	54142.73
670.41	54051.88
670.76	53954.49
671.109	54111.77
671.459	54077.87
671.808	53991.09
672.157	54079
672.507	53882.62
672.856	53840.36
673.205	53969.17
673.554	53989.29
673.904	53886.01
674.253	53983.19
674.602	53868.84
674.951	53438.34
675.3	53257.33
675.649	53821.61
675.998	53706.81
676.346	53700.71
676.695	53798.11
677.044	53587.04
677.393	53724.89
677.741	53813.92
678.09	53655.28
678.438	53540.03
678.787	53629.52
679.135	53585.23
679.484	53445.8
679.832	53539.58
680.181	53266.37
680.529	53454.61
680.877	53255.07
681.225	53198.12
681.573	53552.46
681.922	53165.13
682.27	53159.48
682.618	53207.84
682.966	53147.95
683.314	53119.25
683.661	53043.1
684.009	52852.37
684.357	52809.43
684.705	52748.87
685.053	52768.98
685.4	52785.48
685.748	52542.77
686.095	52630
686.443	52380.52
686.79	52407.18
687.138	52432.27
687.485	52439.27
687.832	52332.83
688.18	52347.3
688.527	52122.67
688.874	52141.43
689.221	52058.49
689.568	51868.89
689.915	51842.9
690.262	51799.97
690.609	51787.08
690.956	51587.77
691.303	51573.53
691.65	51449.01
691.997	51419.41
692.344	51224.84
692.69	51209.25
693.037	51350.49
693.383	51031.4
693.73	51066.88
694.077	50912.53
694.423	50852.87
694.769	50756.83
695.116	50626.44
695.462	50681.8
695.808	50708.69
696.155	50539.89
696.501	50233
696.847	50272.1
697.193	50080.69
697.539	50172.89
697.885	49953.91
698.231	49928.6
698.577	49864.2
698.923	49690.87
699.269	49542.62
699.614	49390.99
699.96	49240.03
700.306	49317.32
700.651	49284.78
700.997	49108.29
701.342	49056.31
701.688	48906.71
702.033	48797.78
702.379	48777.45
702.724	48661.74
703.069	48641.18
703.415	48275.09
703.76	48253.84
704.105	48375.65
704.45	48218.36
704.795	47895.66
705.14	47809.34
705.485	47823.35
705.83	47567.76
706.175	47748.77
706.52	47623.13
706.865	47462.68
707.209	47403.02
707.554	47304.72
707.899	47362.57
708.243	47128.22
708.588	47038.51
708.932	46896.59
709.277	46867.67
709.621	46930.26
709.966	46480.56
710.31	46643.72
710.654	46347.45
710.998	46394.01
711.342	46372.31
711.687	46220.9
712.031	46135.48
712.375	45899.1
712.719	45991.53
713.063	45781.37
713.407	45998.08
713.75	45781.82
714.094	45727.13
714.438	45542.05
714.782	45518.32
715.125	45353.58
715.469	45430.42
715.812	45056.87
716.156	45054.61
716.499	45010.31
716.843	45005.57
717.186	44795.4
717.53	44959.92
717.873	44885.8
718.216	44880.83
718.559	44689.64
718.902	44428.41
719.246	44670.89
719.589	44415.08
719.932	44316.55
720.275	44164.91
720.617	44184.8
720.96	44023.67
721.303	44027.29
721.646	44079.26
721.989	43761.08
722.331	44020.51
722.674	43819.61
723.016	43888.54
723.359	43734.87
723.701	43629.79
724.044	43351.83
724.386	43413.75
724.729	43326.06
725.071	43168.33
725.413	43201.55
725.755	43180.76
726.097	42969.69
726.439	42830.03
726.782	42814.89
727.124	42903.02
727.465	42720.88
727.807	42670.26
728.149	42575.8
728.491	42536.25
728.833	42594.78
729.175	42416.71
729.516	42450.83
729.858	42384.85
730.199	42378.29
730.541	42089.26
730.882	41981.24
731.224	42188.69
731.565	41918.64
731.906	41843.62
732.248	41894.92
732.589	41773.79
732.93	41696.28
733.271	41705.32
733.612	41746.44
733.953	41649.05
734.294	41514.13
734.635	41279.56
734.976	41580.12
735.317	41299.22
735.658	41269.85
735.999	41334.25
736.339	41082.28
736.68	41277.53
737.021	41029.85
737.361	40773.36
737.702	40909.18
738.042	40920.03
738.383	40779.92
738.723	40768.84
739.063	40652.24
739.404	40622.86
739.744	40634.84
740.084	40328.63
740.424	40438.23
740.764	40375.63
741.104	40548.74
741.444	40211.57
741.784	40014.29
742.124	40080.73
742.464	40179.03
742.804	40010.9
743.143	39860.84
743.483	39887.74
743.823	39646.39
744.162	39736.78
744.502	39746.95
744.841	39541.76
745.181	39860.62
745.52	39447.97
745.86	39549.44
746.199	39401.65
746.538	39367.75
746.877	39336.11
747.216	39223.12
747.556	39109.9
747.895	39016.57
748.234	38791.49
748.573	38953.52
748.911	38791.49
749.25	38855.22
749.589	38734.09
749.928	38616.36
750.267	38676.69
750.605	38490.49
750.944	38485.51
751.283	38346.76
751.621	38384.73
751.96	38261.34
752.298	38099.99
752.636	38206.88
752.975	37961.69
753.313	37802.82
753.651	37934.57
753.989	37601.47
754.327	37678.08
754.666	37419.1
755.004	37553.56
755.342	37534.35
755.679	37407.8
756.017	37241.48
756.355	37332.78
756.693	37118.54
757.031	37222.27
757.368	36994.48
757.706	36899.79
758.044	36749.74
758.381	36780.7
758.719	36592.91
759.056	36669.74
759.394	36405.79
759.731	36167.16
760.068	36091.9
760.405	36070.44
760.743	35832.48
761.08	35869.54
761.417	35889.65
761.754	35571.47
762.091	35569.88
762.428	35521.3
762.765	35418.7
763.102	35309.78
763.438	35117.01
763.775	35031.82
764.112	34876.79
764.449	34964.25
764.785	34781.2
765.122	34467.31
765.458	34464.83
765.795	34519.29
766.131	34399.07
766.467	34211.5
766.804	34099.64
767.14	33822.36
767.476	33790.5
767.812	33710.27
768.148	33762.47
768.485	33492.88
768.821	33383.05
769.157	33248.14
769.492	33182.38
769.828	33270.51
770.164	32916.17
770.5	32900.58
770.836	32846.34
771.171	32629.17
771.507	32535.61
771.842	32349.4
772.178	32205.45
772.513	32227.37
772.849	32246.36
773.184	31971.33
773.519	32007.72
773.855	31873.71
774.19	31620.61
774.525	31505.58
774.86	31579.93
775.195	31454.74
775.53	31301.07
775.865	31006.39
776.2	30909.44
776.535	30880.52
776.87	30750.35
777.205	30655.89
777.539	30555.33
777.874	30515.1
778.209	30266.07
778.543	30285.28
778.878	30154.43
779.212	30082.12
779.547	29775.23
779.881	29899.3
780.215	29658.85
780.55	29666.99
780.884	29442.81
781.218	29361.69
781.552	29474
781.886	29240.33
782.22	29032.43
782.554	28923.51
782.888	28682.38
783.222	28676.28
783.556	28480.8
783.889	28573.01
784.223	28268.38
784.557	28256.4
784.89	28271.09
785.224	28161.72
785.557	27975.51
785.891	27864.32
786.224	27822.07
786.558	27783.2
786.891	27504.11
787.224	27459.36
787.557	27331
787.891	27350.89
788.224	27245.36
788.557	27209.43
788.89	27126.04
789.223	27121.52
789.556	26854.18
789.888	26814.18
790.221	26612.38
790.554	26559.73
790.887	26483.12
791.219	26348.21
791.552	26329
791.884	26152.73
792.217	26049
792.549	26055.33
792.882	25970.14
793.214	25783.25
793.546	25700.31
793.879	25622.57
794.211	25476.82
794.543	25567.44
794.875	25400.21
795.207	25406.76
795.539	25441.79
795.871	25246.77
796.203	25037.73
796.535	24941.24
796.867	24856.27
797.198	24776.72
797.53	24729.04
797.862	24609.27
798.193	24618.76
798.525	24345.32
798.856	24569.5
799.188	24274.14
799.519	24172.9
799.85	24117.98
800.182	24035.05
800.513	24122.73
800.844	23881.15
801.175	23993.47
801.506	23938.33
801.837	23653.14
802.168	23649.52
802.499	23706.02
802.83	23438.9
803.161	23318
803.491	23420.6
803.822	23356.42
804.153	23211.11
804.483	22991.68
804.814	22998.01
805.145	22888.64
805.475	23013.38
805.805	22812.03
806.136	22774.97
806.466	22847.05
806.796	22854.74
807.126	22615.87
807.457	22419.27
807.787	22523.67
808.117	22296.33
808.447	22208.65
808.777	22423.34
809.107	22292.04
809.436	22172.04
809.766	22225.38
810.096	22099.28
810.426	22081.88
810.755	22029
811.085	21963.46
811.414	21796.69
811.744	21763.47
812.073	21626.97
812.403	21692.28
812.732	21523.02
813.061	21516.47
813.39	21348.79
813.719	21418.17
814.049	21405.74
814.378	21354.44
814.707	21238.96
815.036	21175.23
815.365	21096.37
815.693	20920.1
816.022	20916.94
816.351	20736.83
816.68	20812.98
817.008	20822.93
817.337	20741.35
817.665	20569.15
817.994	20637.85
818.322	20692.99
818.651	20450.06
818.979	20495.48
819.307	20459.32
819.636	20402.6
819.964	20281.02
820.292	20379.32
820.62	20372.32
820.948	20261.13
821.276	20319.44
821.604	20182.27
821.932	20231.08
822.259	20273.79
822.587	20180.68
822.915	20130.74
823.243	20222.04
823.57	20092.32
823.898	20099.78
824.225	20134.58
824.553	20111.99
824.88	20186.33
825.207	20204.41
825.535	20114.25
825.862	20196.28
826.189	20124.19
826.516	20179.33
826.843	20305.88
827.17	20257.29
827.497	20318.08
827.824	20190.18
828.151	20165.32
828.478	20067.92
828.805	20063.4
829.131	20082.38
829.458	20064.08
829.785	20038.99
830.111	20037.41
830.438	20086.9
830.764	20079.67
831.09	20090.06
831.417	19985.21
831.743	20018.2
832.069	19993.34
832.395	19886.23
832.722	20054.13
833.048	19940.24
833.374	19890.75
833.7	19879.22
834.026	19881.26
834.351	19957.64
834.677	19966.9
835.003	19830.86
835.329	19840.58
835.654	19853.24
835.98	19750.19
836.306	19775.95
836.631	19646.23
836.956	19712.9
837.282	19717.65
837.607	19620.92
837.932	19599
838.258	19620.02
838.583	19523.07
838.908	19434.04
839.233	19417.77
839.558	19443.08
839.883	19281.95
840.208	19229.07
840.533	19357.65
840.858	19256.41
841.182	19333.93
841.507	19221.16
841.832	19120.37
842.156	19095.74
842.481	19073.37
842.805	18927.16
843.13	18947.04
843.454	18908.85
843.778	18851
844.103	18754.51
844.427	18774.62
844.751	18789.99
845.075	18699.59
845.399	18586.6
845.723	18521.74
846.047	18550.9
846.371	18345.03
846.695	18411.24
847.019	18185.48
847.343	18110.46
847.666	18069.1
847.99	17980.74
848.313	17976
848.637	17859.84
848.96	17807.87
849.284	17793.4
849.607	17714.76
849.931	17584.82
850.254	17519.96
850.577	17456.24
850.9	17347.99
851.223	17264.15
851.546	17204.49
851.869	17115.91
852.192	17159.07
852.515	17033.2
852.838	16901.9
853.161	16936.48
853.483	16868
853.806	16695.8
854.129	16780.32
854.451	16748.01
854.774	16666.2
855.096	16588.91
855.419	16548.46
855.741	16391.86
856.063	16464.4
856.385	16368.35
856.708	16210.17
857.03	16197.29
857.352	16287.91
857.674	16127.91
857.996	16069.15
858.318	15955.71
858.64	15973.34
858.961	15918.42
859.283	15866.9
859.605	15811.99
859.926	15860.12
860.248	15738.54
860.57	15707.81
860.891	15831.87
861.212	15596.17
861.534	15567.7
861.855	15645.89
862.176	15582.16
862.498	15541.48
862.819	15596.4
863.14	15505.78
863.461	15329.96
863.782	15444.99
864.103	15301.72
864.424	15335.61
864.745	15391.66
865.065	15267.14
865.386	15264.66
865.707	15246.12
866.027	15279.8
866.348	15199.8
866.668	15274.15
866.989	15072.57
867.309	14950.09
867.63	15008.62
867.95	15085
868.27	14962.74
868.59	14930.65
868.91	15012.68
869.23	14874.16
869.55	14821.73
869.87	14952.12
870.19	14826.25
870.51	14889.07
870.83	14865.57
871.15	14676.87
871.469	14638.46
871.789	14724.1
872.109	14637.55
872.428	14554.17
872.748	14656.31
873.067	14554.62
873.386	14682.3
873.706	14597.1
874.025	14518.23
874.344	14426.49
874.663	14548.52
874.982	14455.41
875.301	14470.1
875.62	14374.51
875.939	14405.02
876.258	14347.17
876.577	14350.78
876.896	14244.12
877.214	14207.06
877.533	14336.77
877.852	14304.45
878.17	14221.29
878.489	14197.34
878.807	14227.85
879.125	14176.32
879.444	14121.86
879.762	14076.44
880.08	14037.34
880.398	14018.81
880.716	14076.89
881.034	14041.86
881.352	14019.04
881.67	13970.9
881.988	13972.94
882.306	13871.02
882.624	13818.37
882.941	13764.81
883.259	13698.59
883.577	13732.72
883.894	13664.25
884.212	13604.13
884.529	13608.2
884.846	13585.38
885.164	13522.1
885.481	13490.92
885.798	13518.94
886.115	13421.31
886.432	13373.18
886.75	13354.65
887.067	13427.19
887.383	13385.83
887.7	13408.88
888.017	13291.83
888.334	13320.07
888.651	13202.56
888.967	13239.62
889.284	13146.97
889.6	13109.46
889.917	13043.47
890.233	13046.63
890.55	13070.14
890.866	13039.85
891.182	12924.83
891.498	12910.14
891.815	12840.09
892.131	12760.99
892.447	12715.34
892.763	12727.77
893.079	12644.61
893.395	12658.85
893.71	12588.34
894.026	12620.66
894.342	12480.55
894.657	12523.94
894.973	12446.42
895.289	12425.18
895.604	12450.94
895.92	12296.82
896.235	12244.62
896.55	12182.7
896.865	12227.9
897.181	12242.81
897.496	12195.81
897.811	12123.49
898.126	12073.1
898.441	11997.4
898.756	11944.52
899.071	11937.06
899.386	11924.63
899.7	11804.18
900.015	11763.05
900.33	11746.1
900.644	11716.5
900.959	11752.43
901.273	11702.94
901.588	11554.24
901.902	11556.5
902.216	11464.3
902.531	11514.47
902.845	11338.88
903.159	11293.46
903.473	11350.41
903.787	11231.09
904.101	11202.84
904.415	11242.61
904.729	11128.72
905.042	11095.5
905.356	11047.82
905.67	11062.28
905.984	11036.07
906.297	10966.01
906.611	10891.21
906.924	10849.4
907.237	10892.34
907.551	10784.77
907.864	10735.73
908.177	10685.57
908.491	10688.05
908.804	10625.46
909.117	10577.77
909.43	10428.17
909.743	10476.76
910.056	10443.54
910.368	10435.4
910.681	10324.9
910.994	10282.41
911.307	10309.53
911.619	10143.21
911.932	10239.02
912.244	10200.38
912.557	10090.55
912.869	10000.39
913.181	10057.11
913.494	9994.51
913.806	9907.96
914.118	9905.25
914.43	9844.01
914.742	9841.75
915.054	9806.49
915.366	9702.77
915.678	9707.29
915.99	9586.39
916.302	9576.67
916.613	9569.44
916.925	9569.89
917.236	9508.87
917.548	9479.95
917.859	9467.07
918.171	9340.52
918.482	9297.35
918.794	9236.79
919.105	9231.59
919.416	9124.93
919.727	9188.88
920.038	9136.91
920.349	9070.24
920.66	9039.51
920.971	9070.02
921.282	9038.38
921.593	8954.09
921.903	8864.15
922.214	8818.5
922.525	8829.34
922.835	8823.24
923.146	8703.47
923.456	8765.84
923.767	8660.31
924.077	8665.96
924.387	8605.85
924.697	8544.61
925.008	8477.71
925.318	8461.67
925.628	8464.16
925.938	8389.81
926.248	8356.59
926.558	8319.3
926.867	8277.04
927.177	8222.13
927.487	8205.18
927.796	8084.73
928.106	8107.1
928.416	8088.8
928.725	8106.65
929.034	8029.37
929.344	7987.11
929.653	8001.8
929.962	7866.66
930.271	7825.53
930.581	7857.62
930.89	7853.78
931.199	7789.6
931.508	7788.69
931.817	7767.68
932.125	7700.11
932.434	7633.67
932.743	7632.09
933.051	7578.3
933.36	7568.36
933.669	7475.71
933.977	7473.45
934.286	7383.05
934.594	7467.57
934.902	7342.38
935.21	7320.23
935.519	7287.69
935.827	7289.72
936.135	7230.97
936.443	7180.35
936.751	7175.38
937.059	7129.05
937.367	7126.56
937.674	7088.37
937.982	7053.12
938.29	7026
938.597	7040.46
938.905	6905.55
939.213	6926.8
939.52	6915.5
939.827	6942.84
940.135	6905.33
940.442	6798.44
940.749	6753.69
941.056	6782.17
941.363	6705.78
941.67	6709.4
941.977	6685.45
942.284	6658.33
942.591	6616.07
942.898	6602.06
943.205	6599.35
943.511	6511.89
943.818	6550.53
944.125	6441.84
944.431	6417.2
944.738	6375.4
945.044	6367.49
945.35	6328.84
945.657	6320.03
945.963	6294.72
946.269	6301.5
946.575	6261.73
946.881	6220.6
947.187	6129.08
947.493	6167.72
947.799	6113.03
948.105	6103.31
948.41	6059.93
948.716	6091.11
949.022	5980.38
949.327	5973.83
949.633	5904.22
949.938	5968.4
950.244	5958.01
950.549	5849.31
950.854	5882.98
951.16	5831.46
951.465	5791.68
951.77	5809.31
952.075	5745.13
952.38	5739.71
952.685	5760.27
952.99	5665.13
953.294	5644.12
953.599	5606.6
953.904	5597.79
954.209	5555.53
954.513	5561.41
954.818	5523.89
955.122	5486.16
955.426	5444.12
955.731	5441.64
956.035	5388.98
956.339	5440.51
956.643	5389.89
956.948	5339.49
957.252	5309.89
957.556	5358.02
957.86	5283.9
958.163	5281.41
958.467	5262.66
958.771	5172.27
959.075	5229.66
959.378	5188.31
959.682	5191.7
959.985	5116
960.289	5080.52
960.592	5111.25
960.896	5099.05
961.199	5061.53
961.502	5025.15
961.805	4962.78
962.108	5003
962.411	4954.42
962.714	4908.32
963.017	4866.28
963.32	4893.18
963.623	4885.04
963.926	4883.01
964.228	4778.83
964.531	4811.14
964.833	4819.28
965.136	4774.99
965.438	4760.98
965.741	4735.89
966.043	4777.47
966.345	4680.07
966.648	4648.21
966.95	4684.82
967.252	4627.65
967.554	4583.58
967.856	4609.12
968.158	4519.85
968.46	4544.71
968.761	4568.67
969.063	4476.01
969.365	4467.88
969.666	4471.04
969.968	4445.28
970.269	4415
970.571	4375.45
970.872	4360.08
971.174	4352.17
971.475	4321.21
971.776	4312.85
972.077	4282.8
972.378	4311.5
972.679	4267.66
972.98	4222.23
973.281	4162.12
973.582	4186.53
973.883	4172.52
974.183	4161.67
974.484	4174.1
974.785	4079.64
975.085	4076.7
975.386	4073.31
975.686	4120.54
975.986	3986.76
976.287	4060.88
976.587	3996.7
976.887	3986.76
977.187	3945.86
977.487	3951.28
977.787	3961.45
978.087	3914.45
978.387	3911.51
978.687	3864.05
978.987	3862.7
979.286	3862.02
979.586	3800.55
979.885	3860.89
980.185	3758.74
980.484	3773.43
980.784	3749.03
981.083	3764.62
981.382	3732.98
981.682	3682.59
981.981	3730.95
982.28	3664.28
982.579	3681.68
982.878	3669.71
983.177	3617.05
983.475	3652.31
983.774	3584.28
984.073	3578.41
984.372	3534.34
984.67	3566.21
984.969	3514
985.267	3556.71
985.566	3533.21
985.864	3500.67
986.162	3515.13
986.461	3468.36
986.759	3469.03
987.057	3443.5
987.355	3362.82
987.653	3403.27
987.951	3389.94
988.249	3366.21
988.547	3362.82
988.844	3315.14
989.142	3310.17
989.44	3294.12
989.737	3289.6
990.035	3281.24
990.332	3266.33
990.63	3213.67
990.927	3203.96
991.224	3200.79
991.521	3177.52
991.819	3164.41
992.116	3174.13
992.413	3129.61
992.71	3112.21
993.006	3125.99
993.303	3078.76
993.6	3081.7
993.897	3076.28
994.193	3017.97
994.49	3028.37
994.787	2994.47
995.083	3006.22
995.379	2963.74
995.676	3030.85
995.972	2968.48
996.268	2950.18
996.565	2931.87
996.861	2855.72
997.157	2903.4
997.453	2878.99
997.749	2833.34
998.044	2834.25
998.34	2819.56
998.636	2811.65
998.932	2807.58
999.227	2782.05
999.523	2773.46
999.818	2784.76
1000.114	2741.82
1000.409	2701.82
1000.704	2692.1
1001	2666.12
1001.295	2678.32
1001.59	2640.35
1001.885	2649.39
1002.18	2653.24
1002.475	2648.26
1002.77	2586.12
1003.065	2554.48
1003.359	2600.36
1003.654	2639.68
1003.949	2517.42
1004.243	2528.94
1004.538	2490.75
1004.832	2489.62
1005.127	2481.71
1005.421	2504.76
1005.715	2469.06
1006.009	2465.67
1006.304	2405.11
1006.598	2394.03
1006.892	2446.24
1007.186	2377.31
1007.48	2361.72
1007.773	2375.05
1008.067	2341.38
1008.361	2358.78
1008.655	2301.15
1008.948	2324.66
1009.242	2325.33
1009.535	2302.06
1009.829	2308.16
1010.122	2262.29
1010.415	2220.48
1010.708	2255.28
1011.001	2228.84
1011.295	2228.39
1011.588	2190.87
1011.881	2177.09
1012.173	2126.7
1012.466	2172.34
1012.759	2148.39
1013.052	2128.28
1013.344	2101.61
1013.637	2094.61
1013.93	2070.65
1014.222	2061.16
1014.514	2055.28
1014.807	2068.84
1015.099	2010.09
1015.391	2047.83
1015.683	2005.79
1015.976	2005.79
1016.268	1976.19
1016.56	1973.93
1016.851	1954.95
1017.143	1970.99
1017.435	1941.62
1017.727	1923.76
1018.018	1926.02
1018.31	1896.65
1018.602	1872.01
1018.893	1862.52
1019.185	1864.1
1019.476	1877.21
1019.767	1836.99
1020.058	1830.88
1020.35	1816.2
1020.641	1811.22
1020.932	1803.31
1021.223	1771.68
1021.514	1746.82
1021.804	1747.04
1022.095	1748.85
1022.386	1703.66
1022.677	1706.82
1022.967	1708.18
1023.258	1696.88
1023.548	1681.06
1023.839	1699.14
1024.129	1654.62
1024.419	1677.44
1024.709	1664.33
1025	1631.34
1025.29	1635.86
1025.58	1585.47
1025.87	1603.77
1026.16	1563.55
1026.449	1574.39
1026.739	1541.63
1027.029	1562.42
1027.319	1534.39
1027.608	1535.98
1027.898	1527.39
1028.187	1487.16
1028.477	1458.24
1028.766	1476.32
1029.055	1472.48
1029.344	1458.01
1029.634	1473.83
1029.923	1447.17
1030.212	1420.95
1030.501	1417.11
1030.79	1415.98
1031.078	1383.44
1031.367	1404.91
1031.656	1402.87
1031.945	1393.61
1032.233	1382.99
1032.522	1340.5
1032.81	1340.73
1033.099	1312.71
1033.387	1339.82
1033.675	1309.09
1033.963	1324.91
1034.251	1309.99
1034.54	1318.13
1034.828	1273.61
1035.116	1248.75
1035.403	1255.76
1035.691	1268.41
1035.979	1258.92
1036.267	1226.61
1036.554	1218.02
1036.842	1215.98
1037.129	1211.69
1037.417	1191.35
1037.704	1186.83
1037.992	1188.64
1038.279	1171.69
1038.566	1153.16
1038.853	1153.16
1039.14	1153.16
