Data from plate_porcelain_FLMS001491_021.txt Node
Date: Tue Feb 07 11:19:01 GMT 2017
User: dcchb
Spectrometer: FLMS00149
Trigger mode: 0
Integration Time (sec): 2.000000E-2
Scans to average: 10
Electric dark correction enabled: true
Nonlinearity correction enabled: false
Boxcar width: 0
XAxis mode: Wavelengths
Number of Pixels in Spectrum: 2048
>>>>>Begin Spectral Data<<<<<
341.393	-2.15
341.776	-2.15
342.16	-2.15
342.543	-67
342.927	-76.95
343.31	-78.3
343.693	-92.77
344.077	-57.29
344.46	-48.02
344.843	-32.65
345.226	-38.3
345.61	-29.04
345.993	-17.06
346.376	-7.57
346.759	7.12
347.142	34.24
347.525	52.32
347.908	43.05
348.291	76.27
348.674	81.92
349.057	106.1
349.44	114.01
349.823	142.03
350.206	162.14
350.588	214.12
350.971	237.17
351.354	259.32
351.737	264.51
352.119	275.36
352.502	289.6
352.884	298.41
353.267	331.4
353.65	317.39
354.032	345.41
354.414	326.21
354.797	339.54
355.179	368.46
355.562	371.85
355.944	372.31
356.326	376.37
356.709	364.4
357.091	362.82
357.473	393.1
357.855	379.99
358.238	380.22
358.62	395.13
359.002	400.33
359.384	390.39
359.766	383.38
360.148	394.9
360.53	395.81
360.912	371.18
361.294	370.27
361.676	396.94
362.057	373.66
362.439	387.45
362.821	386.32
363.203	390.61
363.584	375.7
363.966	387.45
364.348	394.45
364.729	407.56
365.111	394
365.493	390.16
365.874	374.34
366.256	384.96
366.637	376.83
367.019	378.63
367.4	399.65
367.781	395.36
368.163	419.09
368.544	393.32
368.925	401.01
369.306	402.36
369.688	393.55
370.069	405.3
370.45	392.19
370.831	385.19
371.212	399.42
371.593	409.37
371.974	415.92
372.355	411.63
372.736	420.67
373.117	438.75
373.498	402.59
373.879	404.4
374.26	409.37
374.641	400.55
375.021	428.35
375.402	403.49
375.783	438.75
376.163	468.8
376.544	450.5
376.925	462.02
377.305	454.56
377.686	445.3
378.066	466.32
378.447	464.96
378.827	450.04
379.208	497.5
379.588	461.57
379.968	488.24
380.349	490.95
380.729	491.85
381.109	481.46
381.489	521
381.87	525.3
382.25	506.31
382.63	509.48
383.01	506.09
383.39	506.77
383.77	518.07
384.15	519.2
384.53	544.51
384.91	538.86
385.29	551.28
385.67	539.99
386.049	567.1
386.429	541.79
386.809	566.88
387.189	582.02
387.568	577.72
387.948	574.79
388.328	599.65
388.707	593.32
389.087	611.17
389.466	625.18
389.846	627.22
390.225	620.21
390.605	641.9
390.984	629.47
391.363	678.74
391.743	637.38
392.122	650.94
392.501	652.75
392.881	667.89
393.26	675.8
393.639	705.18
394.018	700.66
394.397	693.65
394.776	731.85
395.155	721.22
395.534	706.54
395.913	737.49
396.292	716.25
396.671	747.21
397.05	761.9
397.429	751.51
397.808	765.97
398.186	794.67
398.565	781.11
398.944	809.58
399.323	798.28
399.701	795.35
400.08	785.63
400.458	821.11
400.837	834.22
401.215	838.28
401.594	830.83
401.972	865.63
402.351	845.51
402.729	865.4
403.107	871.5
403.486	888.9
403.864	887.55
404.242	918.28
404.62	940.65
404.999	927.09
405.377	938.39
405.755	958.73
406.133	977.04
406.511	967.09
406.889	996.47
407.267	1012.74
407.645	1022.91
408.023	1024.49
408.401	1062.68
408.779	1059.29
409.156	1074.89
409.534	1066.98
409.912	1108.56
410.29	1154.66
410.667	1172.51
411.045	1177.26
411.422	1140.42
411.8	1182.91
412.178	1219.52
412.555	1218.39
412.933	1232.4
413.31	1260.42
413.687	1282.11
414.065	1293.64
414.442	1332.73
414.819	1333.64
415.197	1347.65
415.574	1390.81
415.951	1373.86
416.328	1394.88
416.705	1396.91
417.082	1407.76
417.46	1452.05
417.837	1456.12
418.214	1482.56
418.591	1498.15
418.967	1489.11
419.344	1499.28
419.721	1509.45
420.098	1530.02
420.475	1581.77
420.852	1567.76
421.228	1596.68
421.605	1613.86
421.982	1625.83
422.358	1665.38
422.735	1665.15
423.111	1694.53
423.488	1714.19
423.864	1739.95
424.241	1767.3
424.617	1748.09
424.994	1726.85
425.37	1799.39
425.746	1791.93
426.123	1816.56
426.499	1846.17
426.875	1877.58
427.251	1891.59
427.627	1958.48
428.003	1978.37
428.379	2012.49
428.756	2031.47
429.132	2086.84
429.507	2101.98
429.883	2097.23
430.259	2103.79
430.635	2123.9
431.011	2158.02
431.387	2235.99
431.763	2268.08
432.138	2275.08
432.514	2339.49
432.89	2354.85
433.265	2371.58
433.641	2413.61
434.016	2448.41
434.392	2472.59
434.767	2544
435.143	2544.45
435.518	2584.9
435.894	2605.47
436.269	2630.1
436.644	2682.75
437.02	2695.86
437.395	2709.19
437.77	2739.02
438.145	2787.61
438.52	2811.56
438.895	2846.37
439.271	2858.12
439.646	2938.11
440.021	2930.66
440.395	2966.36
440.77	2950.54
441.145	2993.03
441.52	3029.41
441.895	3094.27
442.27	3051.78
442.645	3088.17
443.019	3131.56
443.394	3175.85
443.769	3190.76
444.143	3207.71
444.518	3248.16
444.892	3226.02
445.267	3293.13
445.641	3303.53
446.016	3329.52
446.39	3371.78
446.764	3375.62
447.139	3375.62
447.513	3417.88
447.887	3423.75
448.262	3456.97
448.636	3496.29
449.01	3576.74
449.384	3614.93
449.758	3640.92
450.132	3635.72
450.506	3651.99
450.88	3722.5
451.254	3740.35
451.628	3740.35
452.002	3824.19
452.376	3848.83
452.75	3916.85
453.123	3916.39
453.497	4009.05
453.871	4010.63
454.244	4136.95
454.618	4087.24
454.992	4207.23
455.365	4207.91
455.739	4306.89
456.112	4381.24
456.486	4456.94
456.859	4440.9
457.232	4506.89
457.606	4583.72
457.979	4611.07
458.352	4703.94
458.725	4753.43
459.099	4758.63
459.472	4897.84
459.845	4954.33
460.218	4983.48
460.591	5064.39
460.964	5061.9
461.337	5223.03
461.71	5248.11
462.083	5348.45
462.456	5363.59
462.829	5375.34
463.201	5540.76
463.574	5531.72
463.947	5615.33
464.32	5732.84
464.692	5789.79
465.065	5870.02
465.438	5926.74
465.81	5997.47
466.183	6058.48
466.555	6213.73
466.928	6248.76
467.3	6258.25
467.672	6379.15
468.045	6603.56
468.417	6527.17
468.789	6634.74
469.161	6746.15
469.534	6779.14
469.906	6969.2
470.278	7041.74
470.65	7157.89
471.022	7294.16
471.394	7398.56
471.766	7420.48
472.138	7582.74
472.51	7760.81
472.882	7867.48
473.253	7877.65
473.625	8042.39
473.997	8260.91
474.369	8285.09
474.74	8405.32
475.112	8570.74
475.484	8751.07
475.855	8894.34
476.227	8907.9
476.598	9172.75
476.97	9256.14
477.341	9457.27
477.713	9649.35
478.084	9645.51
478.455	9957.37
478.827	10058.15
479.198	10376.79
479.569	10392.38
479.94	10659.27
480.311	10774.74
480.682	11058.13
481.053	11313.26
481.424	11436.87
481.795	11525.69
482.166	11705.34
482.537	11821.05
482.908	12216.29
483.279	12360.24
483.65	12602.27
484.021	12797.52
484.391	12928.59
484.762	13047.45
485.133	13246.54
485.503	13381.68
485.874	13636.14
486.244	13882.46
486.615	14023.93
486.985	14179.4
487.356	14563.8
487.726	14700.97
488.097	14995.42
488.467	15005.14
488.837	15433.38
489.207	15516.99
489.578	15770.55
489.948	16008.05
490.318	16175.28
490.688	16177.31
491.058	16483.75
491.428	16777.07
491.798	16893.91
492.168	17236.27
492.538	17398.3
492.908	17431.07
493.278	17785.18
493.648	17857.04
494.017	18111.5
494.387	18264.94
494.757	18333.64
495.126	18650.92
495.496	18704.93
495.866	18884.59
496.235	19052.04
496.605	19277.57
496.974	19325.93
497.344	19541.75
497.713	19668.97
498.082	19900.83
498.452	20123.2
498.821	20289.3
499.19	20201.84
499.559	20451.78
499.928	20618.55
500.298	20773.35
500.667	21042.5
501.036	20974.7
501.405	21308.25
501.774	21356.39
502.143	21584.4
502.512	21619.21
502.88	21832.53
503.249	21852.42
503.618	22115.92
503.987	22137.38
504.356	22337.38
504.724	22541.44
505.093	22618.05
505.462	22733.3
505.83	22844.26
506.199	23107.75
506.567	23410.8
506.936	23331.7
507.304	23600.4
507.672	23795.65
508.041	23905.7
508.409	24147.5
508.777	24266.59
509.145	24515.63
509.514	24474.72
509.882	24746.35
510.25	24841.04
510.618	25108.15
510.986	25275.61
511.354	25465.66
511.722	25668.59
512.09	25951.75
512.458	25799.66
512.826	26022.25
513.193	26291.17
513.561	26396.26
513.929	26666.08
514.297	26921.21
514.664	27127.99
515.032	27305.84
515.4	27521.2
515.767	27694.98
516.135	27925.71
516.502	27732.49
516.869	28142.65
517.237	28264.91
517.604	28346.94
517.972	28698.34
518.339	28934.04
518.706	29002.51
519.073	29273.47
519.44	29365.22
519.808	29927.01
520.175	29871.87
520.542	30266.44
520.909	30367.9
521.276	30318.86
521.643	30810.15
522.009	31015.12
522.376	31270.7
522.743	31506.18
523.11	31894.64
523.477	31981.87
523.843	32194.75
524.21	32634.06
524.577	32854.16
524.943	32910.21
525.31	33155.17
525.676	33586.35
526.043	33650.08
526.409	33954.25
526.776	34206.45
527.142	34422.48
527.508	34650.05
527.874	34870.38
528.241	35130.49
528.607	35230.83
528.973	35579.06
529.339	35649.8
529.705	35997.36
530.071	36355.32
530.437	36486.39
530.803	36749.43
531.169	36821.74
531.535	36870.78
531.901	37104.9
532.267	37186.93
532.632	37526.36
532.998	37638.9
533.364	37923.18
533.73	37991.88
534.095	38322.72
534.461	38300.12
534.826	38562.71
535.192	38675.71
535.557	39084.51
535.923	39046.32
536.288	39200.66
536.653	39480.66
537.019	39459.87
537.384	39599.07
537.749	39698.05
538.114	39961.32
538.479	40006.74
538.845	40234.54
539.21	40188.89
539.575	40561.08
539.94	40642.43
540.305	40866.38
540.67	40738.25
541.034	41049.2
541.399	41149.77
541.764	41332.81
542.129	41479.25
542.494	41608.51
542.858	41897.32
543.223	41722.86
543.587	42125.33
543.952	42076.29
544.316	42317.87
544.681	42334.59
545.045	42567.58
545.41	42682.61
545.774	42773.23
546.138	42858.42
546.503	42951.3
546.867	43137.96
547.231	43365.53
547.595	43528.23
547.959	43687.78
548.324	43776.14
548.688	43745.86
549.052	43910.37
549.416	44061.33
549.779	44136.58
550.143	44326.41
550.507	44689.11
550.871	44619.5
551.235	44806.62
551.599	45114.18
551.962	45226.49
552.326	45344.68
552.689	45581.74
553.053	45420.84
553.417	45545.58
553.78	46115.28
554.143	45950.32
554.507	46109.86
554.87	46299.91
555.234	46636.17
555.597	46496.74
555.96	46754.82
556.323	46930.18
556.686	47046.79
557.05	47235.71
557.413	47347.12
557.776	47538.98
558.139	47724.73
558.502	47887.67
558.865	47862.58
559.228	48302.35
559.59	48357.49
559.953	48416.02
560.316	48812.16
560.679	48846.96
561.041	49124.25
561.404	49252.38
561.767	49531.24
562.129	49327.4
562.492	49867.5
562.854	49884.23
563.217	49862.08
563.579	50015.07
563.941	50220.94
564.304	50467.26
564.666	50637.43
565.028	50675.84
565.39	50820.25
565.753	51015.27
566.115	51111.09
566.477	51343.85
566.839	51269.73
567.201	51512.43
567.563	51687.57
567.925	51852.99
568.287	51853.21
568.648	51904.74
569.01	52088.23
569.372	52281.68
569.734	52215.24
570.095	52445.97
570.457	52554.66
570.819	52673.08
571.18	52683.02
571.542	52831.49
571.903	52977.25
572.265	53073.07
572.626	53104.25
572.987	53219.28
573.349	53348.77
573.71	53408.43
574.071	53516.45
574.432	53555.54
574.794	53792.14
575.155	53728.42
575.516	53669.89
575.877	53904.46
576.238	53948.52
576.599	53936.55
576.96	53993.04
577.32	54070.1
577.681	54183.55
578.042	54199.14
578.403	54281.17
578.763	54302.87
579.124	54360.94
579.485	54460.83
579.845	54574.5
580.206	54484.56
580.566	54484.33
580.927	54617.66
581.287	54700.6
581.648	54577.66
582.008	54691.78
582.368	54637.09
582.728	54772.01
583.089	54648.17
583.449	54710.99
583.809	54706.25
584.169	54856.07
584.529	54688.84
584.889	54856.52
585.249	54764.32
585.609	54761.38
585.969	54864.66
586.329	54761.16
586.688	54870.08
587.048	54810.88
587.408	54732.46
587.768	54741.72
588.127	54732.01
588.487	54793.7
588.846	54998.67
589.206	54779.69
589.565	54812.46
589.925	54978.55
590.284	54821.04
590.643	54965.45
591.003	55041.6
591.362	55028.95
591.721	55011.77
592.08	54991.66
592.44	55151.21
592.799	55059.68
593.158	55009.74
593.517	55029.85
593.876	55052.68
594.235	54992.57
594.593	54998.21
594.952	55071.21
595.311	55035.73
595.67	55093.81
596.029	55265.78
596.387	55255.38
596.746	55200.7
597.104	55155.5
597.463	55234.14
597.822	55303.74
598.18	55222.39
598.538	55183.97
598.897	55433.01
599.255	55135.39
599.613	55534.7
599.972	55286.12
600.33	55422.61
600.688	55381.26
601.046	55461.71
601.404	55602.04
601.762	55455.6
602.12	55592.32
602.478	55641.14
602.836	55688.59
603.194	55509.39
603.552	55505.32
603.91	55475.49
604.268	55587.8
604.625	55544.19
604.983	55708.48
605.341	55568.37
605.698	55730.17
606.056	55785.31
606.413	55775.82
606.771	55831.87
607.128	55881.81
607.485	55802.49
607.843	55799.78
608.2	55963.16
608.557	56019.21
608.914	55917.96
609.272	56063.27
609.629	56153.89
609.986	56111.63
610.343	56012.43
610.7	56266.88
611.057	56265.07
611.414	56310.72
611.771	56212.65
612.127	56359.08
612.484	56315.92
612.841	56401.12
613.198	56332.19
613.554	56373.09
613.911	56543.71
614.267	56538.29
614.624	56465.07
614.98	56519.53
615.337	56707.77
615.693	56621.45
616.05	56592.52
616.406	56671.39
616.762	56603.6
617.118	56661
617.475	56639.08
617.831	56691.73
618.187	56728.79
618.543	56753.87
618.899	56917.71
619.255	56873.19
619.611	56804.95
619.967	56865.51
620.323	56959.75
620.678	56848.34
621.034	56787.09
621.39	56808.34
621.746	56774.44
622.101	57114.09
622.457	56852.63
622.812	56853.53
623.168	56882.69
623.523	56960.88
623.879	57016.24
624.234	56875.23
624.589	56973.76
624.945	56941.67
625.3	57049.23
625.655	56925.62
626.01	56903.93
626.365	56998.39
626.72	56888.56
627.075	56965.17
627.43	56859.63
627.785	56866.64
628.14	56887.88
628.495	56904.38
628.85	56847.21
629.205	56740.32
629.559	56889.24
629.914	56747.32
630.269	56733.99
630.623	56721.33
630.978	56694.22
631.332	56745.51
631.687	56799.07
632.041	56667.78
632.396	56752.75
632.75	56648.12
633.104	56653.09
633.459	56514.56
633.813	56552.98
634.167	56502.36
634.521	56490.38
634.875	56548
635.229	56431.17
635.583	56369.93
635.937	56277.5
636.291	56255.36
636.645	56364.73
636.999	56215.36
637.352	56265.53
637.706	56147.34
638.06	56229.14
638.413	56134.91
638.767	56145.76
639.121	56234.79
639.474	55985.08
639.828	55980.34
640.181	55940.34
640.534	55971.52
640.888	55910.28
641.241	55792.54
641.594	55876.84
641.947	55903.05
642.301	55855.59
642.654	55804.75
643.007	55773.79
643.36	55823.5
643.713	55612.44
644.066	55792.54
644.419	55621.93
644.771	55430.75
645.124	55215.16
645.477	55049.51
645.83	54923.19
646.182	54814.49
646.535	54650.2
646.888	54751.89
647.24	54674.16
647.593	54725.91
647.945	54651.56
648.298	54488.62
648.65	54472.35
649.002	54334.96
649.355	54485.23
649.707	54477.78
650.059	54616.76
650.411	54873.47
650.763	54967.71
651.115	55170.64
651.467	55096.74
651.819	55050.64
652.171	54997.54
652.523	54941.95
652.875	54875.28
653.227	54769.97
653.578	54934.26
653.93	54859.46
654.282	54773.59
654.633	54646.81
654.985	54772.68
655.337	54759.58
655.688	54666.7
656.039	54775.4
656.391	54532.92
656.742	54611.78
657.094	54660.6
657.445	54726.81
657.796	54657.43
658.147	54578.11
658.498	54532.46
658.849	54543.99
659.2	54514.39
659.551	54454.95
659.902	54649.07
660.253	54511.9
660.604	54530.66
660.955	54328.4
661.306	54405.46
661.656	54320.94
662.007	54369.76
662.358	54358.01
662.708	54315.07
663.059	54331.79
663.409	54069.65
663.76	54339.02
664.11	54344.67
664.461	54308.97
664.811	54330.89
665.161	54354.39
665.511	54219.7
665.862	54313.49
666.212	54321.4
666.562	54337.67
666.912	54178.12
667.262	54187.39
667.612	54231.23
667.962	54286.82
668.312	54168.41
668.662	54321.62
669.011	54206.82
669.361	54160.5
669.711	54137.67
670.06	54080.95
670.41	54061.06
670.76	54016.32
671.109	54170.89
671.459	54006.38
671.808	53976.77
672.157	54007.05
672.507	53883.89
672.856	53922.99
673.205	53963.21
673.554	53883.67
673.904	53889.32
674.253	53958.92
674.602	53859.26
674.951	53475.09
675.3	53346.73
675.649	53729.1
675.998	53708.98
676.346	53763.67
676.695	53837.79
677.044	53682.09
677.393	53816.1
677.741	53700.17
678.09	53661.07
678.438	53528.88
678.787	53681.87
679.135	53588.31
679.484	53471.02
679.832	53498.59
680.181	53305.38
680.529	53417.47
680.877	53293.63
681.225	53269.9
681.573	53484.13
681.922	53208.43
682.27	53116
682.618	53203.91
682.966	53082.33
683.314	53054.54
683.661	52985.16
684.009	52849.12
684.357	52835.11
684.705	52845.05
685.053	52811.38
685.4	52789.01
685.748	52666.07
686.095	52478.51
686.443	52342.47
686.79	52370.71
687.138	52375.68
687.485	52490.71
687.832	52211.17
688.18	52364.16
688.527	52208.23
688.874	52145.86
689.221	52004.85
689.568	51916.26
689.915	51852.53
690.262	51845.53
690.609	51751.97
690.956	51629.94
691.303	51521.02
691.65	51439.21
691.997	51428.59
692.344	51225.88
692.69	51252.32
693.037	51262.95
693.383	50994.03
693.73	51004.65
694.077	50771.21
694.423	50882.16
694.769	50694.15
695.116	50703.41
695.462	50675.39
695.808	50588.39
696.155	50513.14
696.501	50265.23
696.847	50383.42
697.193	50068.85
697.539	50219.81
697.885	49954.73
698.231	49817.33
698.577	49815.07
698.923	49638.13
699.269	49494.86
699.614	49294.86
699.96	49289.21
700.306	49397.46
700.651	49331.92
700.997	49114.75
701.342	48954.31
701.688	48897.36
702.033	48789.56
702.379	48671.38
702.724	48589.12
703.069	48728.1
703.415	48488.33
703.76	48323.81
704.105	48238.17
704.45	48154.1
704.795	48000.21
705.14	47763.6
705.485	47773.09
705.83	47621.69
706.175	47610.39
706.52	47440
706.865	47331.52
707.209	47413.1
707.554	47341.24
707.899	47485.19
708.243	47130.17
708.588	47185.31
708.932	46835.27
709.277	46804.08
709.621	46887.69
709.966	46693.57
710.31	46701.71
710.654	46247.48
710.998	46422.85
711.342	46415.62
711.687	46250.65
712.031	46011.78
712.375	45961.39
712.719	46044.1
713.063	45855.18
713.407	45927.27
713.75	45784.67
714.094	45763.88
714.438	45626.03
714.782	45624.9
715.125	45271.92
715.469	45363.44
715.812	45156.89
716.156	44956.67
716.499	45016.33
716.843	44881.42
717.186	44712.38
717.53	44819.95
717.873	44897.69
718.216	44797.81
718.559	44750.12
718.902	44644.36
719.246	44529.11
719.589	44438.94
719.932	44330.7
720.275	44276.46
720.617	44158.73
720.96	44157.82
721.303	43980.88
721.646	44139.97
721.989	43806.64
722.331	43989.69
722.674	43841.45
723.016	43764.84
723.359	43481.68
723.701	43660.66
724.044	43499.08
724.386	43256.6
724.729	43394.45
725.071	43300.44
725.413	43236.49
725.755	43134.35
726.097	42965.54
726.439	42852.55
726.782	42829.95
727.124	42955.59
727.465	42733
727.807	42692.78
728.149	42574.36
728.491	42486.91
728.833	42693.68
729.175	42381.15
729.516	42316.29
729.858	42310.19
730.199	42299.34
730.541	42257.31
730.882	42095.28
731.224	42096.18
731.565	41953.81
731.906	42083.98
732.248	41865.23
732.589	41719.92
732.93	41639.02
733.271	41639.47
733.612	41758.56
733.953	41694.61
734.294	41437.89
734.635	41316.54
734.976	41402.19
735.317	41185.7
735.658	41030.22
735.999	41245.81
736.339	41140.73
736.68	41218.69
737.021	40968.75
737.361	40874.29
737.702	41075.19
738.042	40848.53
738.383	40746.39
738.723	40763.11
739.063	40697.12
739.404	40709.55
739.744	40596.56
740.084	40458.94
740.424	40296.68
740.764	40293.52
741.104	40409.22
741.444	40122.45
741.784	40173.07
742.124	40133.75
742.464	40121.54
742.804	40026.18
743.143	39941.44
743.483	39961.55
743.823	39762.46
744.162	39648.34
744.502	39732.85
744.841	39668.45
745.181	39629.58
745.52	39518.17
745.86	39539.86
746.199	39586.64
746.538	39393.88
746.877	39235.92
747.216	39249.48
747.556	39172.42
747.895	39075.02
748.234	38890.16
748.573	38894.46
748.911	38703.05
749.25	38889.26
749.589	38724.74
749.928	38734.91
750.267	38640.45
750.605	38588.7
750.944	38442.94
751.283	38346.45
751.621	38444.98
751.96	38086.34
752.298	38159.56
752.636	38118.66
752.975	37849.51
753.313	37848.84
753.651	37896.97
753.989	37746.47
754.327	37650.42
754.666	37508.73
755.004	37618.56
755.342	37508.73
755.679	37445.46
756.017	37229.42
756.355	37192.36
756.693	37059.93
757.031	37263.99
757.368	36998.24
757.706	36870.78
758.044	36652.26
758.381	36756.66
758.719	36522.32
759.056	36608.87
759.394	36379.27
759.731	36197.81
760.068	36274.87
760.405	36058.83
760.743	35989.45
761.08	35890.02
761.417	35724.82
761.754	35636.24
762.091	35650.7
762.428	35610.02
762.765	35337.71
763.102	35402.12
763.438	35128.23
763.775	35022.47
764.112	34903.15
764.449	34951.28
764.785	34796.71
765.122	34508.36
765.458	34446.89
765.795	34509.71
766.131	34331.41
766.467	34196.73
766.804	34163.28
767.14	33869.96
767.476	33864.08
767.812	33805.78
768.148	33690.53
768.485	33497.76
768.821	33333.93
769.157	33294.83
769.492	33227.04
769.828	33168.96
770.164	32926.03
770.5	32841.74
770.836	32848.97
771.171	32571.23
771.507	32525.36
771.842	32362.43
772.178	32332.6
772.513	32155.43
772.849	32170.57
773.184	32142.54
773.519	31966.96
773.855	31815.55
774.19	31714.31
774.525	31567.64
774.86	31529.23
775.195	31404.94
775.53	31360.64
775.865	31095.57
776.2	30935.8
776.535	30920.66
776.87	30754.56
777.205	30656.93
777.539	30479.31
777.874	30558.63
778.209	30314.8
778.543	30285.42
778.878	30077.51
779.212	30101.24
779.547	29807.69
779.881	29866.67
780.215	29623.06
780.55	29617.64
780.884	29485.89
781.218	29393.01
781.552	29321.15
781.886	29178.78
782.22	29068.05
782.554	28896.75
782.888	28593.26
783.222	28648.17
783.556	28606.82
783.889	28443.43
784.223	28369.31
784.557	28236.21
784.89	28212.48
785.224	28095.87
785.557	28067.62
785.891	27925.25
786.224	27766.39
786.558	27788.99
786.891	27467.87
787.224	27394.87
787.557	27361.2
787.891	27470.35
788.224	27193.75
788.557	27288.89
788.89	27174.99
789.223	27113.3
789.556	26888.45
789.888	26792.18
790.221	26685.74
790.554	26469.47
790.887	26540.21
791.219	26370.72
791.552	26251.63
791.884	26142.7
792.217	26172.08
792.549	26090.73
792.882	25903.16
793.214	25758.31
793.546	25880.11
793.879	25659.33
794.211	25501.36
794.543	25519.44
794.875	25270.18
795.207	25398.54
795.539	25240.58
795.871	25202.61
796.203	25065.89
796.535	24850.98
796.867	24783.64
797.198	24841.04
797.53	24755.17
797.862	24604.21
798.193	24746.35
798.525	24477.66
798.856	24451.45
799.188	24119.93
799.519	24149.31
799.85	23962.87
800.182	24067.28
800.513	24015.07
800.844	23848.07
801.175	23928.3
801.506	23981.18
801.837	23796.55
802.168	23663.67
802.499	23672.03
802.83	23630.23
803.161	23411.25
803.491	23412.38
803.822	23335.09
804.153	23232.5
804.483	23108.43
804.814	23021.88
805.145	23082.44
805.475	22931.71
805.805	22774.66
806.136	22881.32
806.466	22851.94
806.796	22754.99
807.126	22502.12
807.457	22490.14
807.787	22488.56
808.117	22373.31
808.447	22350.49
808.777	22473.19
809.107	22239.08
809.436	22190.49
809.766	22175.8
810.096	22138.74
810.426	22048.57
810.755	22023.26
811.085	21882.93
811.414	21774.23
811.744	21750.28
812.073	21710.28
812.403	21606.32
812.732	21492.43
813.061	21489.72
813.39	21424.18
813.719	21481.81
814.049	21470.06
814.378	21294.47
814.707	21306.9
815.036	21197.97
815.365	21120.91
815.693	20877.76
816.022	20944.2
816.351	20884.08
816.68	20752.11
817.008	20854.71
817.337	20706.46
817.665	20588.95
817.994	20563.87
818.322	20626.46
818.651	20424.43
818.979	20353.93
819.307	20532.45
819.636	20473.02
819.964	20188.28
820.292	20365.68
820.62	20229.19
820.948	20223.99
821.276	20313.48
821.604	20258.56
821.932	20293.82
822.259	20150.09
822.587	20230.09
822.915	20256.08
823.243	20242.52
823.57	20240.03
823.898	20198.45
824.225	20054.73
824.553	20202.07
824.88	20130.66
825.207	20203.2
825.535	20062.86
825.862	20136.98
826.189	20032.81
826.516	20199.36
826.843	20289.52
827.17	20231.22
827.497	20326.36
827.824	20071.22
828.151	20121.17
828.478	20072.13
828.805	20152.8
829.131	20096.99
829.458	20035.97
829.785	20002.3
830.111	20044.56
830.438	20187.38
830.764	20026.71
831.09	20074.84
831.417	19995.75
831.743	20036.65
832.069	19962.53
832.395	19849.76
832.722	20016.31
833.048	19870.32
833.374	19915.07
833.7	19853.6
834.026	19945.13
834.351	19805.69
834.677	19794.85
835.003	19896.54
835.329	19845.69
835.654	19817.67
835.98	19796.88
836.306	19717.33
836.631	19575.19
836.956	19746.94
837.282	19769.99
837.607	19651.12
837.932	19578.36
838.258	19591.91
838.583	19611.8
838.908	19412.03
839.233	19403.67
839.558	19314.86
839.883	19303.11
840.208	19269.66
840.533	19242.32
840.858	19346.5
841.182	19297.01
841.507	19305.37
841.832	19068.99
842.156	19058.82
842.481	19040.74
842.805	19016.34
843.13	18976.56
843.454	18847.98
843.778	18841.43
844.103	18798.04
844.427	18790.35
844.751	18673.52
845.075	18676.68
845.399	18691.15
845.723	18583.13
846.047	18552.39
846.371	18385.84
846.695	18496.35
847.019	18252.74
847.343	18214.1
847.666	18062.69
847.99	17841.9
848.313	17938.4
848.637	17883.26
848.96	17848.68
849.284	17794.9
849.607	17697.95
849.931	17595.36
850.254	17445.53
850.577	17376.15
850.9	17304.97
851.223	17230.39
851.546	17225.65
851.869	17137.97
852.192	17235.59
852.515	17037.63
852.838	16982.27
853.161	16997.63
853.483	16840.57
853.806	16677.19
854.129	16851.2
854.451	16751.76
854.774	16665.21
855.096	16550.19
855.419	16589.51
855.741	16432.22
856.063	16345.9
856.385	16300.48
856.708	16278.1
857.03	16222.74
857.352	16241.04
857.674	16092.8
857.996	16041.05
858.318	15973.03
858.64	15982.52
858.961	15893.71
859.283	15775.74
859.605	15818.45
859.926	15787.04
860.248	15747.72
860.57	15716.76
860.891	15691.45
861.212	15624.11
861.534	15573.71
861.855	15556.99
862.176	15565.81
862.498	15532.36
862.819	15503.21
863.14	15446.94
863.461	15366.26
863.782	15424.34
864.103	15403.78
864.424	15314.29
864.745	15296.89
865.065	15257.56
865.386	15260.73
865.707	15237.68
866.027	15300.95
866.348	15171.92
866.668	15228.19
866.989	15146.83
867.309	14969.66
867.63	15090.79
867.95	15027.74
868.27	15040.4
868.59	14977.12
868.91	14948.65
869.23	14904.13
869.55	14829.78
869.87	14963.34
870.19	14913.62
870.51	14880.85
870.83	14816.22
871.15	14626.85
871.469	14713.4
871.789	14712.95
872.109	14618.26
872.428	14644.47
872.748	14633.85
873.067	14614.87
873.386	14603.34
873.706	14616.23
874.025	14496
874.344	14539.62
874.663	14542.56
874.982	14488.09
875.301	14452.84
875.62	14465.5
875.939	14336.46
876.258	14492.61
876.577	14299.4
876.896	14401.77
877.214	14279.96
877.533	14276.35
877.852	14294.65
878.17	14215.56
878.489	14196.12
878.807	14264.37
879.125	14185.95
879.444	14130.14
879.762	14111.38
880.08	14101.21
880.398	14103.7
880.716	14128.56
881.034	14053.53
881.352	14010.59
881.67	13948.22
881.988	13980.99
882.306	13869.13
882.624	13771.73
882.941	13802.91
883.259	13795.46
883.577	13724.72
883.894	13716.59
884.212	13712.07
884.529	13574.45
884.846	13544.16
885.164	13502.81
885.481	13454.45
885.798	13452.41
886.115	13413.32
886.432	13435.69
886.75	13365.86
887.067	13357.28
887.383	13333.77
887.7	13398.18
888.017	13337.84
888.334	13294.23
888.651	13188.47
888.967	13266.88
889.284	13144.17
889.6	13139.88
889.917	13040.22
890.233	13052.88
890.55	12999.09
890.866	12966.1
891.182	12921.13
891.498	12845.65
891.815	12870.06
892.131	12754.58
892.447	12788.25
892.763	12735.6
893.079	12669.16
893.395	12685.2
893.71	12563.17
894.026	12570.63
894.342	12586.67
894.657	12437.98
894.973	12434.59
895.289	12372.44
895.604	12409.28
895.92	12245.67
896.235	12190.98
896.55	12267.59
896.865	12230.53
897.181	12115.5
897.496	12256.74
897.811	12178.78
898.126	12096.29
898.441	11990.98
898.756	12019.46
899.071	11847.26
899.386	11863.3
899.7	11798.45
900.015	11875.51
900.33	11724.1
900.644	11663.76
900.959	11645
901.273	11618.34
901.588	11558.23
901.902	11460.6
902.216	11489.53
902.531	11427.84
902.845	11413.15
903.159	11313.04
903.473	11234.85
903.787	11314.39
904.101	11156.88
904.415	11154.17
904.729	11140.39
905.042	11019.71
905.356	11019.94
905.67	11055.87
905.984	11050.22
906.297	10979.03
906.611	10905.59
906.924	10770.23
907.237	10880.73
907.551	10782.2
907.864	10796.21
908.177	10664.69
908.491	10711.47
908.804	10578.82
909.117	10577.91
909.43	10446.62
909.743	10466.28
910.056	10369.33
910.368	10351.48
910.681	10334.08
910.994	10326.4
911.307	10254.53
911.619	10186.06
911.932	10214.31
912.244	10127.76
912.557	10087.53
912.869	10018.61
913.181	10014.99
913.494	9984.26
913.806	9970.25
914.118	9902.9
914.43	9865.62
914.742	9844.15
915.054	9772.06
915.366	9758.27
915.678	9722.34
915.99	9630.59
916.302	9595.79
916.613	9503.59
916.925	9552.18
917.236	9469.92
917.548	9426.53
917.859	9456.14
918.171	9396.25
918.482	9367.32
918.794	9311.96
919.105	9320.32
919.416	9178.63
919.727	9200.32
920.038	9161.68
920.349	9089.37
920.66	9024.51
920.971	9097.27
921.282	9016.6
921.593	8894.34
921.903	8881.91
922.214	8863.83
922.525	8822.71
922.835	8796.72
923.146	8722.82
923.456	8793.1
923.767	8686.21
924.077	8652.77
924.387	8571.87
924.697	8533
925.008	8538.65
925.318	8510.62
925.628	8436.05
925.938	8364.64
926.248	8340.46
926.558	8258.88
926.867	8285.54
927.177	8227.47
927.487	8236.28
927.796	8104.08
928.106	8122.84
928.416	8120.58
928.725	8079.22
929.034	8039.68
929.344	7974.37
929.653	8025.89
929.962	7923.52
930.271	7893.01
930.581	7771.89
930.89	7778.89
931.199	7763.3
931.508	7758.55
931.817	7748.38
932.125	7662.06
932.434	7663.87
932.743	7621.16
933.051	7582.96
933.36	7534.38
933.669	7478.79
933.977	7450.31
934.286	7501.38
934.594	7426.58
934.902	7346.13
935.21	7343.65
935.519	7323.31
935.827	7289.86
936.135	7229.53
936.443	7197.21
936.751	7189.08
937.059	7169.64
937.367	7110.89
937.674	7106.82
937.982	7064.79
938.29	7036.54
938.597	7013.04
938.905	6994.73
939.213	6999.93
939.52	6878.8
939.827	6934.17
940.135	6851.23
940.442	6809.43
940.749	6802.42
941.056	6794.06
941.363	6688.07
941.67	6692.14
941.977	6646.27
942.284	6666.38
942.591	6622.99
942.898	6581.41
943.205	6606.94
943.511	6523.33
943.818	6542.54
944.125	6483.11
944.431	6405.82
944.738	6422.99
945.044	6352.26
945.35	6337.8
945.657	6313.17
945.963	6324.01
946.269	6312.26
946.575	6243.56
946.881	6263.9
947.187	6128.54
947.493	6160.63
947.799	6127.64
948.105	6041.31
948.41	6042.44
948.716	6118.82
949.022	5995.44
949.327	5946.17
949.633	5920.64
949.938	5946.85
950.244	5969.9
950.549	5873.86
950.854	5847.64
951.16	5824.14
951.465	5766.52
951.77	5780.98
952.075	5743.92
952.38	5729.23
952.685	5726.29
952.99	5705.95
953.294	5658.72
953.599	5618.5
953.904	5570.81
954.209	5523.36
954.513	5551.83
954.818	5552.96
955.122	5500.76
955.426	5486.3
955.731	5380.99
956.035	5437.26
956.339	5387.77
956.643	5415.79
956.948	5344.38
957.252	5327.66
957.556	5364.27
957.86	5288.34
958.163	5313.19
958.467	5263.03
958.771	5220.54
959.075	5245.4
959.378	5159.75
959.682	5179.19
959.985	5154.33
960.289	5103.48
960.592	5058.51
960.896	5075.46
961.199	5010.83
961.502	4980.1
961.805	4990.72
962.108	4948.68
962.411	4908.23
962.714	4891.06
963.017	4872.3
963.32	4933.77
963.623	4896.93
963.926	4876.82
964.228	4830.27
964.531	4787.78
964.833	4849.7
965.136	4790.95
965.438	4793.66
965.741	4710.05
966.043	4707.11
966.345	4689.93
966.648	4645.19
966.95	4715.24
967.252	4608.35
967.554	4585.53
967.856	4607.45
968.158	4542.59
968.46	4545.3
968.761	4520.45
969.063	4563.16
969.365	4476.61
969.666	4511.63
969.968	4385.31
970.269	4399.55
970.571	4405.42
970.872	4384.63
971.174	4360.9
971.475	4319.1
971.776	4340.79
972.077	4255.82
972.378	4264.41
972.679	4247.01
972.98	4245.2
973.281	4210.85
973.582	4197.52
973.883	4178.31
974.183	4140.57
974.484	4150.74
974.785	4133.11
975.085	4125.65
975.386	4123.62
975.686	4070.29
975.986	4004.53
976.287	4058.99
976.587	3983.51
976.887	3979.9
977.187	3998.65
977.487	3941.48
977.787	3943.29
978.087	3902.38
978.387	3913.68
978.687	3905.77
978.987	3866.68
979.286	3849.28
979.586	3834.81
979.885	3813.12
980.185	3767.92
980.484	3773.57
980.784	3792.78
981.083	3741.26
981.382	3739.68
981.682	3715.27
981.981	3739.68
982.28	3684.54
982.579	3643.86
982.878	3694.48
983.177	3651.99
983.475	3621.03
983.774	3555.95
984.073	3582.39
984.372	3526.35
984.67	3548.95
984.969	3541.94
985.267	3543.52
985.566	3505.56
985.864	3466.91
986.162	3486.57
986.461	3510.76
986.759	3438.21
987.057	3429.85
987.355	3436.86
987.653	3376.3
987.951	3421.04
988.249	3383.3
988.547	3361.15
988.844	3353.7
989.142	3314.83
989.44	3284.55
989.737	3272.34
990.035	3262.63
990.332	3242.29
990.63	3245.23
990.927	3240.03
991.224	3213.81
991.521	3189.86
991.819	3173.36
992.116	3153.48
992.413	3123.65
992.71	3117.32
993.006	3069.64
993.303	3103.99
993.6	3093.59
993.897	3040.71
994.193	3035.97
994.49	3000.03
994.787	2991.9
995.083	3011.79
995.379	2991.67
995.676	2961.17
995.972	2939.47
996.268	2960.49
996.565	2911.9
996.861	2903.31
997.157	2924.33
997.453	2894.05
997.749	2861.51
998.044	2836.87
998.34	2819.7
998.636	2771.79
998.932	2838.23
999.227	2779.25
999.523	2791.68
999.818	2746.03
1000.114	2755.07
1000.409	2722.3
1000.704	2681.85
1001	2716.88
1001.295	2705.13
1001.59	2675.07
1001.885	2662.87
1002.18	2622.87
1002.475	2602.08
1002.77	2632.81
1003.065	2569.54
1003.359	2597.56
1003.654	2580.84
1003.949	2576.09
1004.243	2544
1004.538	2495.64
1004.832	2543.55
1005.127	2511.91
1005.421	2462.87
1005.715	2454.96
1006.009	2447.05
1006.304	2421.29
1006.598	2448.64
1006.892	2412.93
1007.186	2424
1007.48	2388.52
1007.773	2347.17
1008.067	2344.01
1008.361	2325.7
1008.655	2310.11
1008.948	2316.21
1009.242	2308.98
1009.535	2251.81
1009.829	2283.44
1010.122	2260.84
1010.415	2249.32
1010.708	2217.68
1011.001	2245.7
1011.295	2198.47
1011.588	2174.07
1011.881	2184.24
1012.173	2147.4
1012.466	2145.37
1012.759	2122.09
1013.052	2150.11
1013.344	2166.16
1013.637	2120.74
1013.93	2113.96
1014.222	2087.52
1014.514	2061.08
1014.807	2043.45
1015.099	1986.5
1015.391	2025.6
1015.683	2028.53
1015.976	2012.26
1016.268	1994.41
1016.56	1945.15
1016.851	1958.25
1017.143	1942.43
1017.435	1938.82
1017.727	1921.19
1018.018	1928.88
1018.31	1919.61
1018.602	1887.97
1018.893	1856.11
1019.185	1859.27
1019.476	1857.24
1019.767	1871.7
1020.058	1850.46
1020.35	1804.81
1020.641	1789.44
1020.932	1781.76
1021.223	1778.15
1021.514	1759.39
1021.804	1732.27
1022.095	1756.45
1022.386	1751.03
1022.677	1695.89
1022.967	1720.07
1023.258	1682.1
1023.548	1671.93
1023.839	1672.84
1024.129	1672.39
1024.419	1665.15
1024.709	1638.26
1025	1644.14
1025.29	1585.16
1025.58	1608.43
1025.87	1610.01
1026.16	1585.83
1026.449	1591.71
1026.739	1559.85
1027.029	1551.71
1027.319	1533.18
1027.608	1538.15
1027.898	1501.77
1028.187	1517.59
1028.477	1504.25
1028.766	1475.55
1029.055	1448.89
1029.344	1458.83
1029.634	1466.52
1029.923	1442.79
1030.212	1417.25
1030.501	1400.98
1030.79	1412.05
1031.078	1431.71
1031.367	1383.81
1031.656	1369.12
1031.945	1358.72
1032.233	1393.75
1032.522	1316.46
1032.81	1335.67
1033.099	1342
1033.387	1320.98
1033.675	1312.85
1033.963	1311.26
1034.251	1303.36
1034.54	1284.37
1034.828	1295.45
1035.116	1263.81
1035.403	1269.68
1035.691	1260.87
1035.979	1238.5
1036.267	1262.68
1036.554	1237.14
1036.842	1230.82
1037.129	1208.67
1037.417	1201.44
1037.704	1192.85
1037.992	1185.62
1038.279	1180.42
1038.566	1185.62
1038.853	1185.62
1039.14	1185.62
