Data from plate_ceramic_FLMS001491_067.txt Node
Date: Tue Feb 07 11:17:08 GMT 2017
User: dcchb
Spectrometer: FLMS00149
Trigger mode: 0
Integration Time (sec): 2.000000E-2
Scans to average: 10
Electric dark correction enabled: true
Nonlinearity correction enabled: false
Boxcar width: 0
XAxis mode: Wavelengths
Number of Pixels in Spectrum: 2048
>>>>>Begin Spectral Data<<<<<
341.393	-9.86
341.776	-9.86
342.16	-9.86
342.543	-46.47
342.927	-77.65
343.31	-56.64
343.693	-64.55
344.077	-55.28
344.46	-60.48
344.843	-44.66
345.226	-50.31
345.61	-43.76
345.993	-22.29
346.376	-15.28
346.759	23.13
347.142	8.9
347.525	41.21
347.908	48.45
348.291	75.79
348.674	94.55
349.057	121.21
349.44	118.05
349.823	130.93
350.206	180.19
350.588	207.54
350.971	229.23
351.354	246.63
351.737	267.87
352.119	275.78
352.502	266.97
352.884	277.37
353.267	302
353.65	316.01
354.032	325.05
354.414	332.05
354.797	338.38
355.179	334.09
355.562	352.17
355.944	349.91
356.326	346.29
356.709	355.78
357.091	372.5
357.473	368.89
357.855	355.1
358.238	367.31
358.62	372.73
359.002	381.54
359.384	354.2
359.766	383.8
360.148	365.5
360.53	359.85
360.912	361.66
361.294	349.45
361.676	365.72
362.057	361.88
362.439	347.42
362.821	356.01
363.203	367.76
363.584	359.85
363.966	363.69
364.348	365.5
364.729	353.97
365.111	367.08
365.493	354.88
365.874	361.66
366.256	357.82
366.637	354.2
367.019	359.62
367.4	359.62
367.781	380.19
368.163	369.11
368.544	365.95
368.925	347.42
369.306	358.04
369.688	367.76
370.069	360.75
370.45	378.15
370.831	362.34
371.212	383.58
371.593	377.93
371.974	356.01
372.355	364.37
372.736	380.64
373.117	383.35
373.498	370.47
373.879	371.83
374.26	381.09
374.641	375.89
375.021	379.96
375.402	389.45
375.783	396.91
376.163	408.44
376.544	396.46
376.925	413.63
377.305	403.92
377.686	394.42
378.066	424.03
378.447	412.96
378.827	411.6
379.208	423.58
379.588	429.68
379.968	430.58
380.349	423.12
380.729	433.75
381.109	434.88
381.489	442.78
381.87	437.81
382.25	437.81
382.63	447.98
383.01	448.43
383.39	447.98
383.77	469
384.15	450.02
384.53	459.28
384.91	440.98
385.29	490.47
385.67	455.21
386.049	481.2
386.429	466.51
386.809	481.88
387.189	494.54
387.568	480.52
387.948	520.75
388.328	504.48
388.707	532.5
389.087	507.19
389.466	512.39
389.846	514.2
390.225	520.75
390.605	517.81
390.984	535.44
391.363	522.78
391.743	530.92
392.122	556.68
392.501	550.35
392.881	555.1
393.26	558.71
393.639	565.27
394.018	572.73
394.397	571.37
394.776	580.86
395.155	580.41
395.534	588.32
395.913	587.19
396.292	589.45
396.671	598.94
397.05	596.23
397.429	648.2
397.808	605.04
398.186	635.77
398.565	642.33
398.944	627.86
399.323	634.19
399.701	634.42
400.08	660.41
400.458	651.37
400.837	645.94
401.215	670.58
401.594	676.9
401.972	703.8
402.351	704.25
402.729	711.48
403.107	727.52
403.486	734.08
403.864	713.06
404.242	733.17
404.62	733.62
404.999	733.85
405.377	742.66
405.755	755.32
406.133	770.91
406.511	806.62
406.889	810.46
407.267	786.28
407.645	809.78
408.023	817.46
408.401	814.53
408.779	827.18
409.156	842.77
409.534	850.91
409.912	869.44
410.29	866.95
410.667	908.31
411.045	906.05
411.422	919.61
411.8	907.63
412.178	941.75
412.555	947.18
412.933	955.99
413.31	957.35
413.687	974.97
414.065	976.33
414.442	995.31
414.819	1023.11
415.197	1028.76
415.574	1039.61
415.951	1040.06
416.328	1054.29
416.705	1061.07
417.082	1089.1
417.46	1123.22
417.837	1087.29
418.214	1096.78
418.591	1127.06
418.967	1141.3
419.344	1153.05
419.721	1152.37
420.098	1139.72
420.475	1172.03
420.852	1167.96
421.228	1211.8
421.605	1220.62
421.982	1248.19
422.358	1238.92
422.735	1267.4
423.111	1257.68
423.488	1261.52
423.864	1292.25
424.241	1287.96
424.617	1334.96
424.994	1303.78
425.37	1351.24
425.746	1361.18
426.123	1381.29
426.499	1376.32
426.875	1395.08
427.251	1416.32
427.627	1432.59
428.003	1486.15
428.379	1507.16
428.756	1484.79
429.132	1522.98
429.507	1541.06
429.883	1545.13
430.259	1602.08
430.635	1598.69
431.011	1605.69
431.387	1621.29
431.763	1661.51
432.138	1666.48
432.514	1671.45
432.89	1689.31
433.265	1746.25
433.641	1761.39
434.016	1789.87
434.392	1806.36
434.767	1821.73
435.143	1869.87
435.518	1922.52
435.894	1899.92
436.269	1913.93
436.644	1958.9
437.02	1962.29
437.395	1970.43
437.77	2003.2
438.145	2035.96
438.52	2030.77
438.895	2082.52
439.271	2074.15
439.646	2121.84
440.021	2141.95
440.395	2139.92
440.77	2146.92
441.145	2146.24
441.52	2196.41
441.895	2216.52
442.27	2187.82
442.645	2245
443.019	2261.95
443.394	2239.12
443.769	2272.12
444.143	2289.29
444.518	2314.37
444.892	2305.33
445.267	2311.89
445.641	2376.07
446.016	2388.72
446.39	2405.9
446.764	2388.04
447.139	2414.26
447.513	2454.48
447.887	2455.84
448.262	2466.69
448.636	2471.21
449.01	2500.13
449.384	2573.8
449.758	2597.98
450.132	2611.54
450.506	2643.18
450.88	2638.43
451.254	2648.38
451.628	2707.58
452.002	2703.74
452.376	2750.07
452.75	2728.83
453.123	2778.99
453.497	2817.64
453.871	2830.97
454.244	2934.47
454.618	2947.8
454.992	2958.43
455.365	2945.32
455.739	3063.73
456.112	3075.71
456.486	3110.96
456.859	3138.99
457.232	3245.2
457.606	3188.7
457.979	3252.2
458.352	3316.83
458.725	3348.02
459.099	3378.75
459.472	3432.99
459.845	3449.26
460.218	3503.04
460.591	3536.26
460.964	3549.37
461.337	3630.95
461.71	3686.09
462.083	3777.61
462.456	3768.12
462.829	3748.69
463.201	3849.02
463.574	3879.3
463.947	3941.9
464.32	4031.84
464.692	4065.29
465.065	4095.12
465.438	4138.73
465.81	4197.49
466.183	4246.53
466.555	4334.21
466.928	4342.8
467.3	4375.11
467.672	4421.66
468.045	4573.98
468.417	4564.94
468.789	4587.76
469.161	4642.9
469.534	4754.31
469.906	4807.42
470.278	4831.14
470.65	4941.65
471.022	5035.21
471.394	5091.48
471.766	5169.21
472.138	5208.31
472.51	5338.93
472.882	5424.35
473.253	5531.69
473.625	5526.95
473.997	5692.82
474.369	5670.44
474.74	5780.05
475.112	5915.64
475.484	5991.57
475.855	6093.71
476.227	6186.36
476.598	6363.76
476.97	6360.37
477.341	6516.3
477.713	6621.83
478.084	6647.59
478.455	6843.07
478.827	6869.73
479.198	7119.45
479.569	7155.15
479.94	7268.82
480.311	7444.41
480.682	7589.72
481.053	7694.12
481.424	7877.17
481.795	7945.64
482.166	8024.73
482.537	8124.62
482.908	8371.84
483.279	8475.34
483.65	8610.71
484.021	8777.26
484.391	8823.81
484.762	8987.19
485.133	9055.67
485.503	9182.67
485.874	9379.73
486.244	9491.59
486.615	9669.89
486.985	9775.87
487.356	9982.2
487.726	10055.64
488.097	10231.68
488.467	10330.21
488.837	10502.18
489.207	10652.91
489.578	10764.77
489.948	10885.9
490.318	10967.25
490.688	11043.64
491.058	11290.64
491.428	11403.63
491.798	11548.93
492.168	11752.54
492.538	11933.33
492.908	11953.22
493.278	12135.36
493.648	12135.36
494.017	12387.33
494.387	12478.63
494.757	12545.29
495.126	12686.08
495.496	12741.67
495.866	12804.49
496.235	13069.8
496.605	13130.59
496.974	13197.93
497.344	13329.45
497.713	13432.73
498.082	13492.61
498.452	13652.38
498.821	13827.52
499.19	13773.51
499.559	13916.78
499.928	14080.17
500.298	14166.94
500.667	14349.09
501.036	14282.87
501.405	14365.81
501.774	14484.22
502.143	14665.69
502.512	14646.71
502.88	14868.39
503.249	14934.83
503.618	14973.7
503.987	15117.65
504.356	15186.58
504.724	15274.49
505.093	15436.29
505.462	15477.87
505.83	15542.05
506.199	15687.36
506.567	15899.55
506.936	15935.71
507.304	16089.38
507.672	16132.09
508.041	16242.37
508.409	16415.7
508.777	16555.36
509.145	16642.13
509.514	16711.06
509.882	16927.1
510.25	16799.64
510.618	17105.4
510.986	17153.98
511.354	17352.17
511.722	17497.7
512.09	17631.03
512.458	17579.74
512.826	17852.04
513.193	17978.82
513.561	18053.62
513.929	18246.38
514.297	18420.17
514.664	18586.71
515.032	18467.4
515.4	18800.72
515.767	18936.76
516.135	18998.23
516.502	18944.22
516.869	19301.95
517.237	19454.26
517.604	19325.9
517.972	19645.44
518.339	19804.08
518.706	19736.29
519.073	19949.84
519.44	20140.35
519.808	20381.47
520.175	20374.46
520.542	20661.46
520.909	20875.92
521.276	20883.38
521.643	20997.72
522.009	21167.66
522.376	21258.51
522.743	21380.99
523.11	21659.63
523.477	21837.7
523.843	21987.53
524.21	22170.12
524.577	22434.52
524.943	22539.15
525.31	22642.65
525.676	22956.54
526.043	22972.14
526.409	23175.97
526.776	23456.64
527.142	23518.34
527.508	23652.8
527.874	23949.51
528.241	24062.95
528.607	24045.55
528.973	24463.17
529.339	24318.54
529.705	24557.63
530.071	24831.75
530.437	25105.41
530.803	25151.51
531.169	25252.98
531.535	25325.29
531.901	25333.2
532.267	25357.84
532.632	25730.26
532.998	25779.52
533.364	25996.46
533.73	26134.54
534.095	26433.29
534.461	26519.16
534.826	26570.91
535.192	26706.95
535.557	26922.31
535.923	26899.94
536.288	26972.93
536.653	27245.02
537.019	27184.68
537.384	27336.99
537.749	27438.91
538.114	27529.08
538.479	27623.31
538.845	27742.18
539.21	27801.84
539.575	27965.23
539.94	28106.46
540.305	28109.63
540.67	28129.51
541.034	28423.97
541.399	28572.89
541.764	28680.23
542.129	28821.7
542.494	28825.77
542.858	28888.59
543.223	28823.96
543.587	29108.02
543.952	29154.57
544.316	29282.7
544.681	29227.34
545.045	29550.95
545.41	29668.68
545.774	29643.15
546.138	29726.76
546.503	29950.71
546.867	30022.35
547.231	30234.54
547.595	30142.8
547.959	30472.05
548.324	30327.87
548.688	30458.27
549.052	30645.83
549.416	30748.65
549.779	30855.09
550.143	30989.55
550.507	31218.92
550.871	31194.74
551.235	31303.22
551.599	31481.06
551.962	31671.34
552.326	31714.96
552.689	31885.35
553.053	31764.67
553.417	31943.2
553.78	32330.08
554.143	32241.04
554.507	32385.22
554.87	32565.56
555.234	32977.97
555.597	32751.77
555.96	32934.81
556.323	33102.72
556.686	33165.31
557.05	33377.96
557.413	33370.05
557.776	33606.43
558.139	33708.35
558.502	33879.65
558.865	33984.05
559.228	34324.15
559.59	34363.02
559.953	34538.61
560.316	34941.99
560.679	34716.23
561.041	35169.1
561.404	35267.86
561.767	35453.16
562.129	35432.83
562.492	35800.27
562.854	35799.37
563.217	35878.24
563.579	36054.28
563.941	36321.84
564.304	36517.09
564.666	36707.37
565.028	36758.21
565.39	36878.89
565.753	37133.57
566.115	37274.58
566.477	37223.29
566.839	37495.82
567.201	37672.54
567.563	37790.96
567.925	38138.29
568.287	37995.92
568.648	38215.35
569.01	38305.97
569.372	38551.84
569.734	38510.48
570.095	38807.43
570.457	38914.77
570.819	39185.95
571.18	38987.76
571.542	39434.53
571.903	39495.09
572.265	39585.71
572.626	39811.02
572.987	39762.43
573.349	39900.73
573.71	40024.34
574.071	40066.15
574.432	40230.89
574.794	40489.64
575.155	40473.82
575.516	40451
575.877	40643.31
576.238	40709.3
576.599	40803.53
576.96	40885.34
577.32	40835.62
577.681	41125.78
578.042	41079.46
578.403	41324.2
578.763	41231.77
579.124	41364.42
579.485	41462.5
579.845	41562.38
580.206	41552.89
580.566	41624.3
580.927	41453.68
581.287	41736.39
581.648	41610.74
582.008	41721.47
582.368	41748.37
582.728	41881.24
583.089	41797.4
583.449	41768.48
583.809	41795.14
584.169	41906.33
584.529	41769.83
584.889	42007.34
585.249	41836.5
585.609	41773.9
585.969	42157.85
586.329	41885.54
586.688	42036.72
587.048	42044.4
587.408	42111.07
587.768	42134.8
588.127	42064.52
588.487	42009.38
588.846	42239.65
589.206	41977.29
589.565	42012.54
589.925	42147.9
590.284	42137.51
590.643	42249.6
591.003	42488.01
591.362	42444.39
591.721	42272.19
592.08	42394
592.44	42403.49
592.799	42424.96
593.158	42295.7
593.517	42427.9
593.876	42386.31
594.235	42279.43
594.593	42427.22
594.952	42571.17
595.311	42392.19
595.67	42638.06
596.029	42776.59
596.387	42688.23
596.746	42797.15
597.104	42517.38
597.463	42666.08
597.822	42828.34
598.18	42749.47
598.538	42699.75
598.897	42923.02
599.255	42674.22
599.613	43233.75
599.972	42832.4
600.33	43031.5
600.688	42915.57
601.046	43128.22
601.404	43185.84
601.762	43077.6
602.12	43339.51
602.478	43210.47
602.836	43179.97
603.194	43191.49
603.552	43144.94
603.91	43050.93
604.268	43278.49
604.625	43254.54
604.983	43457.7
605.341	43221.55
605.698	43407.76
606.056	43563.91
606.413	43488.88
606.771	43798.48
607.128	43753.74
607.485	43627.19
607.843	43683.23
608.2	43765.94
608.557	43961.41
608.914	43747.41
609.272	43898.37
609.629	43983.34
609.986	44130.22
610.343	43904.24
610.7	44306.49
611.057	44215.19
611.414	44335.64
611.771	44339.94
612.127	44353.95
612.484	44432.59
612.841	44568.86
613.198	44366.38
613.554	44487.5
613.911	44718
614.267	44515.75
614.624	44537.9
614.98	44696.31
615.337	44933.59
615.693	44781.73
616.05	44751.9
616.406	45018.34
616.762	44821.96
617.118	44810.21
617.475	44876.42
617.831	45072.35
618.187	44955.74
618.543	44958.45
618.899	45352.11
619.255	45200.03
619.611	45115.73
619.967	45227.37
620.323	45342.4
620.678	45282.74
621.034	45124.1
621.39	45224.88
621.746	45171.78
622.101	45495.16
622.457	45195.96
622.812	45377.42
623.168	45447.7
623.523	45440.47
623.879	45616.51
624.234	45285.45
624.589	45446.12
624.945	45433.47
625.3	45479.57
625.655	45334.94
626.01	45336.75
626.365	45485.67
626.72	45436.18
627.075	45455.39
627.43	45409.96
627.785	45240.48
628.14	45337.65
628.495	45436.4
628.85	45409.29
629.205	45198.9
629.559	45373.13
629.914	45193.02
630.269	45252.23
630.623	45017.21
630.978	44992.8
631.332	45084.55
631.687	45156.86
632.041	44997.32
632.396	45048.17
632.75	44853.59
633.104	44890.88
633.459	44741.06
633.813	44646.14
634.167	44605.24
634.521	44696.31
634.875	44843.43
635.229	44645.92
635.583	44451.35
635.937	44471.01
636.291	44434.85
636.645	44501.29
636.999	44366.38
637.352	44502.87
637.706	44060.62
638.06	44337
638.413	44217
638.767	44040.06
639.121	44183.33
639.474	43870.57
639.828	43942.88
640.181	43948.08
640.534	44021.07
640.888	43906.95
641.241	43624.47
641.594	43733.17
641.947	43776.56
642.301	43800.97
642.654	43756.9
643.007	43706.51
643.36	43683
643.713	43429
644.066	43773.85
644.419	43304.93
644.771	43091.61
645.124	42628.34
645.477	42592.86
645.83	42386.31
646.182	42208.92
646.535	42102.71
646.888	42346.99
647.24	42084.63
647.593	42290.5
647.945	42245.98
648.298	42155.81
648.65	42039.43
649.002	41876.95
649.355	42027
649.707	41862.26
650.059	41991.97
650.411	42448.46
650.763	42565.75
651.115	42840.09
651.467	42662.24
651.819	42615.46
652.171	42676.25
652.523	42525.75
652.875	42570.94
653.227	42273.1
653.578	42589.47
653.93	42530.04
654.282	42458.86
654.633	42235.36
654.985	42415.69
655.337	42421.34
655.688	42373.43
656.039	42214.34
656.391	41985.65
656.742	42149.26
657.094	41976.38
657.445	42226.77
657.796	42105.87
658.147	42071.07
658.498	42056.15
658.849	42005.53
659.2	41961.47
659.551	41995.82
659.902	42038.08
660.253	41908.14
660.604	41966.21
660.955	41866.55
661.306	41961.47
661.656	41740.23
662.007	41896.84
662.358	41856.39
662.708	41672.66
663.059	41759.89
663.409	41590.18
663.76	41713.11
664.11	41679.44
664.461	41643.74
664.811	41587.92
665.161	41586.11
665.511	41502.27
665.862	41590.63
666.212	41806.67
666.562	41740
666.912	41694.58
667.262	41462.72
667.612	41532.1
667.962	41395.61
668.312	41433.8
668.662	41789.95
669.011	41554.25
669.361	41497.3
669.711	41468.82
670.06	41307.25
670.41	41266.12
670.76	41070.19
671.109	41328.72
671.459	41147.7
671.808	41143.86
672.157	41399.45
672.507	40917.88
672.856	41026.12
673.205	41165.1
673.554	41089.63
673.904	41035.84
674.253	41189.96
674.602	41078.78
674.951	40648.06
675.3	40459.59
675.649	41051.43
675.998	41006.92
676.346	40941.16
676.695	41061.15
677.044	40666.81
677.393	40804.21
677.741	40840.37
678.09	40751.78
678.438	40688.28
678.787	40606.7
679.135	40701.84
679.484	40499.36
679.832	40692.12
680.181	40524.89
680.529	40633.82
680.877	40376.2
681.225	40294.17
681.573	40573.71
681.922	40205.13
682.27	40139.59
682.618	40207.84
682.966	40046.49
683.314	40108.63
683.661	40038.35
684.009	39723.11
684.357	39781.86
684.705	39738.93
685.053	39787.06
685.4	39827.51
685.748	39551.14
686.095	39547.29
686.443	39344.13
686.79	39351.59
687.138	39264.59
687.485	39259.62
687.832	39163.12
688.18	39140.07
688.527	38951.38
688.874	38990.92
689.221	38809.01
689.568	38707.09
689.915	38650.82
690.262	38560.65
690.609	38642.23
690.956	38450.37
691.303	38408.57
691.65	38304.39
691.997	38285.63
692.344	37979.43
692.69	38169.7
693.037	38220.1
693.383	37852.87
693.73	37976.26
694.077	37672.54
694.423	37719.09
694.769	37563.16
695.116	37541.24
695.462	37509.15
695.808	37161.82
696.155	37355.03
696.501	37017.87
696.847	37084.99
697.193	36877.99
697.539	36924.09
697.885	36671.44
698.231	36567.03
698.577	36631.66
698.923	36600.48
699.269	36296.31
699.614	36069.87
699.96	36059.48
700.306	36110.32
700.651	35998.69
700.997	35728.41
701.342	35831.91
701.688	35634.63
702.033	35564.8
702.379	35727.05
702.724	35452.49
703.069	35551.92
703.415	35033.29
703.76	35164.36
704.105	35102.89
704.45	34922.56
704.795	34812.5
705.14	34693.64
705.485	34627.87
705.83	34570.93
706.175	34682.56
706.52	34425.39
706.865	34399.63
707.209	34230.15
707.554	34163.25
707.899	34369.12
708.243	34135.46
708.588	34043.26
708.932	33808.91
709.277	33757.16
709.621	33793.09
709.966	33513.33
710.31	33676.49
710.654	33467.91
710.998	33599.2
711.342	33424.52
711.687	33425.42
712.031	33237.63
712.375	33252.32
712.719	33137.52
713.063	33053.23
713.407	33128.48
713.75	32885.32
714.094	33049.16
714.438	32791.09
714.782	32888.71
715.125	32728.26
715.469	32790.41
715.812	32505.67
716.156	32436.52
716.499	32447.82
716.843	32458.89
717.186	32114.27
717.53	32359.01
717.873	32212.35
718.216	32145.91
718.559	32114.95
718.902	31951.56
719.246	31943.65
719.589	31893.94
719.932	31942.75
720.275	31773.26
720.617	31722.64
720.96	31607.84
721.303	31671.57
721.646	31719.02
721.989	31359.03
722.331	31484.23
722.674	31390.45
723.016	31466.15
723.359	31340.05
723.701	31382.99
724.044	31126.95
724.386	30867.3
724.729	31176.21
725.071	30978.03
725.413	30904.36
725.755	30939.84
726.097	30826.84
726.439	30665.04
726.782	30645.83
727.124	30739.62
727.465	30595.66
727.807	30553.86
728.149	30489.68
728.491	30405.61
728.833	30557.93
729.175	30252.4
729.516	30241.32
729.858	30190.25
730.199	30275.9
730.541	30196.8
730.882	30190.48
731.224	30257.14
731.565	30070.48
731.906	30082.01
732.248	30010.37
732.589	29846.76
732.93	29773.31
733.271	29837.94
733.612	29742.81
733.953	29784.84
734.294	29692.64
734.635	29618.74
734.976	29675.91
735.317	29542.13
735.658	29502.59
735.999	29571.06
736.339	29274.34
736.68	29417.16
737.021	29402.93
737.361	29298.98
737.702	29473.21
738.042	29348.69
738.383	29154.35
738.723	29269.15
739.063	29118.19
739.404	29105.76
739.744	29044.29
740.084	28952.54
740.424	29003.16
740.764	28817.63
741.104	29055.59
741.444	28863.28
741.784	28658.09
742.124	28873.68
742.464	28642.04
742.804	28644.3
743.143	28596.39
743.483	28533.57
743.823	28413.57
744.162	28379.45
744.502	28455.38
744.841	28341.26
745.181	28287.7
745.52	28191.43
745.86	28265.1
746.199	28239.57
746.538	28002.51
746.877	28075.5
747.216	28030.31
747.556	27988.73
747.895	27903.08
748.234	27873.02
748.573	27831.22
748.911	27818.34
749.25	27716.42
749.589	27652.01
749.928	27814.27
750.267	27666.48
750.605	27634.39
750.944	27478.23
751.283	27482.07
751.621	27508.97
751.96	27135.19
752.298	27323.21
752.636	27236.88
752.975	27135.64
753.313	26987.17
753.651	27185.13
753.989	26929.55
754.327	27059.03
754.666	26876.21
755.004	26864.69
755.342	26755.77
755.679	26842.32
756.017	26538.37
756.355	26617.01
756.693	26407.3
757.031	26468.77
757.368	26337.02
757.706	26389.67
758.044	26352.84
758.381	26279.85
758.719	26166.18
759.056	26170.47
759.394	25992.17
759.731	25905.17
760.068	25815.45
760.405	25787.88
760.743	25706.75
761.08	25837.82
761.417	25601.67
761.754	25604.38
762.091	25430.15
762.428	25288.69
762.765	25250.95
763.102	25250.49
763.438	25103.15
763.775	25155.13
764.112	25139.99
764.449	25003.27
764.785	24765.76
765.122	24764.63
765.458	24574.58
765.795	24571.42
766.131	24533.45
766.467	24448.48
766.804	24351.31
767.14	24117.19
767.476	24201.71
767.812	24084.42
768.148	24193.8
768.485	23959.91
768.821	23811.89
769.157	23830.64
769.492	23707.03
769.828	23720.37
770.164	23642.85
770.5	23460.48
770.836	23429.3
771.171	23277.21
771.507	23278.79
771.842	23106.37
772.178	23185.69
772.513	22994.51
772.849	22909.09
773.184	22780.5
773.519	22713.39
773.855	22684.69
774.19	22573.05
774.525	22465.03
774.86	22404.02
775.195	22423.22
775.53	22357.69
775.865	22164.93
776.2	22167.64
776.535	21933.29
776.87	21901.2
777.205	21950.02
777.539	21737.59
777.874	21755.22
778.209	21576.47
778.543	21547.99
778.878	21494.21
779.212	21478.16
779.547	21262.12
779.881	21382.57
780.215	21158.62
780.55	21259.41
780.884	21044.05
781.218	20910.5
781.552	20898.52
781.886	20822.81
782.22	20611.97
782.554	20744.17
782.888	20524.52
783.222	20357.97
783.556	20236.16
783.889	20261.7
784.223	20206.33
784.557	20177.86
784.89	20058.77
785.224	19943.06
785.557	19967.7
785.891	19795.95
786.224	19747.59
786.558	19760.24
786.891	19650.42
787.224	19567.03
787.557	19496.97
787.891	19549.85
788.224	19405.22
788.557	19411.1
788.89	19440.7
789.223	19341.72
789.556	19182.63
789.888	19093.14
790.221	19062.18
790.554	18908.97
790.887	18968.63
791.219	18822.41
791.552	18756.43
791.884	18761.63
792.217	18649.99
792.549	18561.18
792.882	18470.11
793.214	18361.86
793.546	18401.18
793.879	18213.84
794.211	18245.03
794.543	18233.96
794.875	18102.43
795.207	18158.93
795.539	18056.11
795.871	18033.06
796.203	17853.85
796.535	17699.28
796.867	17735.44
797.198	17667.87
797.53	17636.46
797.862	17638.27
798.193	17654.54
798.525	17429.46
798.856	17467.42
799.188	17277.37
799.519	17252.74
799.85	17221.78
800.182	17192.4
800.513	17233.3
800.844	16961.9
801.175	17060.43
801.506	17111.27
801.837	16999.86
802.168	16919.19
802.499	16831.05
802.83	16663.83
803.161	16679.19
803.491	16736.82
803.822	16728.91
804.153	16619.99
804.483	16467.67
804.814	16387.45
805.145	16389.26
805.475	16362.37
805.805	16341.8
806.136	16175.93
806.466	16271.07
806.796	16219.32
807.126	16033.79
807.457	16065.65
807.787	16063.39
808.117	15993.34
808.447	15897.07
808.777	15934.58
809.107	15848.71
809.436	15887.35
809.766	15750.18
810.096	15708.37
810.426	15600.58
810.755	15641.93
811.085	15573.46
811.414	15546.34
811.744	15387.02
812.073	15250.53
812.403	15370.3
812.732	15327.14
813.061	15347.48
813.39	15099.35
813.719	15175.28
814.049	15279.23
814.378	15137.99
814.707	15195.84
815.036	15085.79
815.365	15064.32
815.693	15011.22
816.022	14985.45
816.351	14839.47
816.68	14761.5
817.008	14786.14
817.337	14666.14
817.665	14650.77
817.994	14716.76
818.322	14632.24
818.651	14669.53
818.979	14622.98
819.307	14686.48
819.636	14594.73
819.964	14432.02
820.292	14460.95
820.62	14499.36
820.948	14431.8
821.276	14434.51
821.604	14296.88
821.932	14488.97
822.259	14373.49
822.587	14366.71
822.915	14394.51
823.243	14499.14
823.57	14378.24
823.898	14418.01
824.225	14335.53
824.553	14340.72
824.88	14368.52
825.207	14323.1
825.535	14369.42
825.862	14335.3
826.189	14310.44
826.516	14330.56
826.843	14405.36
827.17	14451.91
827.497	14467.95
827.824	14371.23
828.151	14443.77
828.478	14324.45
828.805	14343.66
829.131	14227.28
829.458	14288.52
829.785	14178.47
830.111	14272.25
830.438	14367.16
830.764	14275.19
831.09	14308.86
831.417	14201.29
831.743	14247.39
832.069	14222.76
832.395	14187.06
832.722	14170.33
833.048	14224.57
833.374	14127.17
833.7	14144.8
834.026	14050.79
834.351	14158.36
834.677	14169.66
835.003	14152.71
835.329	14119.94
835.654	14074.97
835.98	14013.73
836.306	14020.96
836.631	14002.65
836.956	14040.17
837.282	13958.81
837.607	13934.18
837.932	13992.94
838.258	13944.12
838.583	14012.82
838.908	13797.46
839.233	13858.48
839.558	13866.61
839.883	13719.27
840.208	13656.67
840.533	13698.48
840.858	13690.8
841.182	13726.96
841.507	13728.09
841.832	13668.43
842.156	13616.68
842.481	13646.73
842.805	13574.19
843.13	13482.44
843.454	13526.06
843.778	13463.69
844.103	13397.92
844.427	13412.39
844.751	13364.93
845.075	13332.84
845.399	13299.4
845.723	13205.16
846.047	13216.69
846.371	13125.84
846.695	13057.14
847.019	13001.78
847.343	12944.6
847.666	12818.28
847.99	12785.29
848.313	12779.18
848.637	12757.04
848.96	12708.23
849.284	12651.5
849.607	12589.58
849.931	12564.5
850.254	12485.18
850.577	12383.04
850.9	12316.37
851.223	12425.97
851.546	12215.58
851.869	12155.02
852.192	12261.46
852.515	12079.32
852.838	12052.88
853.161	12063.5
853.483	11992.99
853.806	11958.41
854.129	11985.98
854.451	11915.7
854.774	11789.38
855.096	11788.25
855.419	11793.67
855.741	11815.14
856.063	11715.71
856.385	11628.48
856.708	11606.33
857.03	11603.85
857.352	11550.52
857.674	11495.38
857.996	11440.24
858.318	11390.97
858.64	11390.75
858.961	11392.78
859.283	11333.12
859.605	11242.95
859.926	11368.37
860.248	11294.7
860.57	11274.36
860.891	11239.56
861.212	11169.73
861.534	11128.38
861.855	11176.29
862.176	11134.03
862.498	11146.46
862.819	11179.45
863.14	11083.41
863.461	11036.86
863.782	10962.96
864.103	10964.09
864.424	10881.38
864.745	10982.17
865.065	10829.63
865.386	10896.97
865.707	10883.19
866.027	10880.7
866.348	10904.2
866.668	10859.91
866.989	10755.51
867.309	10696.75
867.63	10775.62
867.95	10761.38
868.27	10654.49
868.59	10689.07
868.91	10741.95
869.23	10680.48
869.55	10607.26
869.87	10695.85
870.19	10633.93
870.51	10621.05
870.83	10588.28
871.15	10480.71
871.469	10523.2
871.789	10538.79
872.109	10491.33
872.428	10339.47
872.748	10471.22
873.067	10442.3
873.386	10421.51
873.706	10350.32
874.025	10343.32
874.344	10364.56
874.663	10359.36
874.982	10309.42
875.301	10298.35
875.62	10257.67
875.939	10269.19
876.258	10288.85
876.577	10190.1
876.896	10261.96
877.214	10139.93
877.533	10115.75
877.852	10162.53
878.17	10142.19
878.489	10151.91
878.807	10102.19
879.125	10130.67
879.444	10099.03
879.762	10034.85
880.08	10090.89
880.398	9972.93
880.716	10002.76
881.034	9956.89
881.352	9997.11
881.67	9905.36
881.988	9956.89
882.306	9903.78
882.624	9884.57
882.941	9847.51
883.259	9827.17
883.577	9756.89
883.894	9730
884.212	9745.59
884.529	9705.37
884.846	9703.33
885.164	9709.66
885.481	9684.35
885.798	9643.9
886.115	9596.89
886.432	9581.75
886.75	9522.55
887.067	9603.45
887.383	9501.76
887.7	9511.7
888.017	9505.6
888.334	9522.32
888.651	9410.68
888.967	9414.98
889.284	9380.4
889.6	9359.84
889.917	9292.5
890.233	9312.16
890.55	9257.47
890.866	9328.2
891.182	9214.08
891.498	9143.8
891.815	9180.41
892.131	9154.42
892.447	9092.95
892.763	9045.95
893.079	8997.14
893.395	8985.61
893.71	8987.65
894.026	8932.96
894.342	8947.65
894.657	8847.76
894.973	8845.73
895.289	8828.1
895.604	8871.49
895.92	8736.8
896.235	8746.52
896.55	8744.94
896.865	8643.93
897.181	8650.25
897.496	8683.02
897.811	8623.13
898.126	8636.24
898.441	8560.54
898.756	8605.96
899.071	8504.72
899.386	8540.65
899.7	8424.04
900.015	8363.25
900.33	8354.89
900.644	8338.85
900.959	8361.9
901.273	8304.5
901.588	8334.1
901.902	8246.2
902.216	8206.65
902.531	8225.18
902.845	8169.81
903.159	8102.24
903.473	8127.33
903.787	8015.92
904.101	8003.94
904.415	7992.64
904.729	7918.97
905.042	7918.07
905.356	7914
905.67	7846.66
905.984	7889.14
906.297	7880.56
906.611	7794.46
906.924	7760.33
907.237	7773.89
907.551	7745.19
907.864	7686.66
908.177	7701.35
908.491	7654.35
908.804	7672.65
909.117	7592.88
909.43	7511.75
909.743	7467.46
910.056	7459.78
910.368	7462.71
910.681	7398.53
910.994	7357.41
911.307	7392.43
911.619	7306.33
911.932	7255.04
912.244	7211.65
912.557	7223.85
912.869	7189.05
913.181	7147.47
913.494	7128.26
913.806	7157.41
914.118	7097.3
914.43	6993.8
914.742	6998.77
915.054	6980.92
915.366	6942.73
915.678	6900.24
915.99	6836.06
916.302	6841.26
916.613	6838.77
916.925	6823.63
917.236	6789.28
917.548	6772.56
917.859	6768.49
918.171	6763.52
918.482	6701.83
918.794	6676.75
919.105	6643.98
919.416	6537.99
919.727	6539.12
920.038	6563.08
920.349	6510.87
920.66	6466.81
920.971	6491.21
921.282	6446.24
921.593	6375.51
921.903	6373.48
922.214	6305
922.525	6328.05
922.835	6254.61
923.146	6252.35
923.456	6220.03
923.767	6176.87
924.077	6219.58
924.387	6158.79
924.697	6154.95
925.008	6098
925.318	6078.79
925.628	6022.98
925.938	6094.16
926.248	6020.94
926.558	5938.69
926.867	5892.81
927.177	5917.22
927.487	5862.53
927.796	5892.81
928.106	5854.39
928.416	5813.27
928.725	5778.24
929.034	5713.61
929.344	5770.33
929.653	5691.23
929.962	5632.71
930.271	5660.5
930.581	5618.47
930.89	5591.58
931.199	5521.52
931.508	5582.99
931.817	5566.94
932.125	5536.66
932.434	5520.84
932.743	5503.89
933.051	5452.14
933.36	5446.04
933.669	5380.96
933.977	5394.07
934.286	5308.19
934.594	5331.02
934.902	5282.21
935.21	5215.77
935.519	5280.17
935.827	5259.83
936.135	5201.3
936.443	5175.77
936.751	5226.16
937.059	5166.95
937.367	5129.44
937.674	5140.74
937.982	5139.16
938.29	5036.56
938.597	5074.98
938.905	5033.85
939.213	5017.58
939.52	5000.41
939.827	4941.42
940.135	4968.77
940.442	4912.95
940.749	4871.14
941.056	4912.05
941.363	4857.13
941.67	4814.2
941.977	4811.03
942.284	4792.95
942.591	4772.16
942.898	4746.17
943.205	4722.22
943.511	4679.51
943.818	4683.8
944.125	4624.82
944.431	4665.27
944.738	4649.23
945.044	4594.54
945.35	4575.56
945.657	4559.06
945.963	4556.35
946.269	4516.12
946.575	4551.6
946.881	4473.19
947.187	4482
947.493	4459.85
947.799	4406.97
948.105	4434.54
948.41	4370.59
948.716	4364.04
949.022	4377.37
949.327	4413.98
949.633	4325.17
949.938	4319.29
950.244	4338.95
950.549	4247.2
950.854	4278.62
951.16	4266.41
951.465	4245.17
951.77	4204.72
952.075	4211.73
952.38	4195.45
952.685	4173.76
952.99	4067.55
953.294	4082.46
953.599	4126.08
953.904	4053.99
954.209	4020.32
954.513	4034.1
954.818	4038.85
955.122	4000.66
955.426	3961.11
955.731	3949.59
956.035	3958.85
956.339	3938.06
956.643	3888.12
956.948	3890.15
957.252	3862.36
957.556	3853.09
957.86	3812.64
958.163	3837.95
958.467	3806.31
958.771	3767.22
959.075	3779.42
959.378	3731.29
959.682	3778.52
959.985	3712.08
960.289	3690.16
960.592	3687.67
960.896	3690.61
961.199	3688.35
961.502	3643.6
961.805	3610.61
962.108	3616.49
962.411	3590.27
962.714	3537.84
963.017	3584.17
963.32	3543.04
963.623	3522.25
963.926	3545.98
964.228	3522.03
964.531	3492.65
964.833	3500.11
965.136	3489.94
965.438	3453.33
965.741	3417.62
966.043	3426.89
966.345	3393.44
966.648	3368.58
966.95	3373.1
967.252	3364.52
967.554	3325.87
967.856	3313.9
968.158	3331.3
968.46	3305.76
968.761	3294.91
969.063	3250.17
969.365	3292.2
969.666	3278.87
969.968	3221.47
970.269	3213.33
970.571	3214.24
970.872	3203.84
971.174	3162.26
971.475	3175.82
971.776	3172.43
972.077	3137.18
972.378	3120.68
972.679	3095.82
972.98	3117.97
973.281	3091.75
973.582	3046.33
973.883	3076.61
974.183	3034.81
974.484	3053.56
974.785	2972.89
975.085	2994.13
975.386	3000.68
975.686	2978.76
975.986	2955.49
976.287	2959.33
976.587	2926.79
976.887	2920.46
977.187	2925.21
977.487	2898.54
977.787	2866.9
978.087	2868.26
978.387	2866.22
978.687	2840.91
978.987	2805.89
979.286	2809.28
979.586	2829.61
979.885	2808.15
980.185	2782.16
980.484	2788.49
980.784	2746.68
981.083	2742.61
981.382	2774.93
981.682	2741.71
981.981	2701.03
982.28	2697.41
982.579	2676.4
982.878	2689.05
983.177	2662.61
983.475	2699
983.774	2636.17
984.073	2595.04
984.372	2633.01
984.67	2613.35
984.969	2623.07
985.267	2611.32
985.566	2575.38
985.864	2579
986.162	2544.2
986.461	2515.72
986.759	2532.45
987.057	2495.84
987.355	2470.98
987.653	2486.12
987.951	2479.57
988.249	2470.98
988.547	2476.86
988.844	2461.71
989.142	2459.46
989.44	2380.81
989.737	2412.22
990.035	2407.71
990.332	2416.29
990.63	2432.34
990.927	2379.68
991.224	2355.05
991.521	2337.2
991.819	2328.61
992.116	2330.87
992.413	2310.76
992.71	2300.82
993.006	2282.51
993.303	2299.69
993.6	2281.15
993.897	2277.09
994.193	2243.87
994.49	2227.82
994.787	2248.61
995.083	2214.94
995.379	2202.74
995.676	2186.92
995.972	2194.15
996.268	2161.16
996.565	2156.19
996.861	2191.89
997.157	2135.85
997.453	2120.71
997.749	2114.61
998.044	2105.11
998.34	2101.27
998.636	2094.27
998.932	2081.61
999.227	2054.04
999.523	2083.65
999.818	2076.19
1000.114	2034.16
1000.409	2029.86
1000.704	2033.7
1001	1984.21
1001.295	2008.17
1001.59	1972.46
1001.885	1985.34
1002.18	1984.89
1002.475	1972.91
1002.77	1931.33
1003.065	1940.37
1003.359	1943.99
1003.654	1924.55
1003.949	1885.01
1004.243	1877.1
1004.538	1893.37
1004.832	1863.09
1005.127	1886.14
1005.421	1848.62
1005.715	1834.84
1006.009	1875.06
1006.304	1818.34
1006.598	1814.73
1006.892	1822.41
1007.186	1798.46
1007.48	1780.6
1007.773	1783.54
1008.067	1773.82
1008.361	1733.15
1008.655	1749.87
1008.948	1722.53
1009.242	1734.5
1009.535	1705.12
1009.829	1700.38
1010.122	1678.23
1010.415	1693.83
1010.708	1685.01
1011.001	1660.61
1011.295	1638.23
1011.588	1651.57
1011.881	1639.36
1012.173	1626.03
1012.466	1611.12
1012.759	1646.6
1013.052	1603.43
1013.344	1581.29
1013.637	1587.39
1013.93	1573.6
1014.222	1585.13
1014.514	1542.87
1014.807	1566.6
1015.099	1509.42
1015.391	1524.34
1015.683	1499.71
1015.976	1520.95
1016.268	1460.39
1016.56	1494.96
1016.851	1468.52
1017.143	1488.41
1017.435	1448.63
1017.727	1450.44
1018.018	1452.7
1018.31	1454.96
1018.602	1424.68
1018.893	1437.11
1019.185	1412.93
1019.476	1431.46
1019.767	1414.74
1020.058	1364.57
1020.35	1395.3
1020.641	1362.53
1020.932	1331.8
1021.223	1333.61
1021.514	1324.57
1021.804	1308.52
1022.095	1316.66
1022.386	1287.96
1022.677	1269.88
1022.967	1287.06
1023.258	1263.33
1023.548	1289.54
1023.839	1279.37
1024.129	1252.93
1024.419	1257.9
1024.709	1261.07
1025	1275.53
1025.29	1231.46
1025.58	1208.19
1025.87	1213.61
1026.16	1184.01
1026.449	1198.25
1026.739	1199.6
1027.029	1230.56
1027.319	1170
1027.608	1149.21
1027.898	1170.68
1028.187	1152.37
1028.477	1141.52
1028.766	1142.65
1029.055	1141.98
1029.344	1141.98
1029.634	1132.94
1029.923	1100.85
1030.212	1107.85
1030.501	1100.62
1030.79	1101.52
1031.078	1092.71
1031.367	1084.8
1031.656	1075.99
1031.945	1073.05
1032.233	1057.68
1032.522	1056.78
1032.81	1041.87
1033.099	1043.67
1033.387	1029.21
1033.675	1010.91
1033.963	1017.69
1034.251	1038.02
1034.54	1001.19
1034.828	1015.2
1035.116	987.63
1035.403	966.84
1035.691	998.48
1035.979	959.38
1036.267	947.86
1036.554	977.46
1036.842	947.18
1037.129	972.04
1037.417	922.32
1037.704	943.34
1037.992	916.44
1038.279	906.05
1038.566	915.77
1038.853	915.77
1039.14	915.77
