Data from plate_ceramic_FLMS001491_050.txt Node
Date: Tue Feb 07 11:16:51 GMT 2017
User: dcchb
Spectrometer: FLMS00149
Trigger mode: 0
Integration Time (sec): 2.000000E-2
Scans to average: 10
Electric dark correction enabled: true
Nonlinearity correction enabled: false
Boxcar width: 0
XAxis mode: Wavelengths
Number of Pixels in Spectrum: 2048
>>>>>Begin Spectral Data<<<<<
341.393	-14.15
341.776	-14.15
342.16	-14.15
342.543	-65.9
342.927	-70.2
343.31	-59.8
343.693	-69.29
344.077	-67.48
344.46	-59.57
344.843	-42.17
345.226	-50.99
345.61	-32.46
345.993	-23.87
346.376	-6.02
346.759	17.94
347.142	39.41
347.525	32.63
347.908	55
348.291	83.47
348.674	82.12
349.057	101.1
349.44	114.66
349.823	133.19
350.206	157.59
350.588	217.48
350.971	217.71
351.354	219.29
351.737	247.76
352.119	250.7
352.502	263.58
352.884	277.82
353.267	292.51
353.65	301.77
354.032	338.61
354.414	305.39
354.797	341.09
355.179	324.37
355.562	334.99
355.944	319.85
356.326	358.04
356.709	339.28
357.091	341.09
357.473	341.77
357.855	356.23
358.238	368.44
358.62	358.49
359.002	360.53
359.384	369.79
359.766	341.54
360.148	338.15
360.53	374.76
360.912	356.69
361.294	324.82
361.676	361.43
362.057	323.92
362.439	353.75
362.821	343.8
363.203	349.45
363.584	342.45
363.966	337.48
364.348	342.22
364.729	324.37
365.111	343.8
365.493	322.79
365.874	337.25
366.256	356.91
366.637	369.57
367.019	330.02
367.4	344.26
367.781	361.66
368.163	333.86
368.544	342.9
368.925	340.87
369.306	345.16
369.688	350.13
370.069	337.48
370.45	341.54
370.831	345.84
371.212	344.03
371.593	341.54
371.974	344.48
372.355	376.12
372.736	354.88
373.117	353.07
373.498	365.27
373.879	348.1
374.26	343.8
374.641	350.81
375.021	350.13
375.402	359.4
375.783	383.8
376.163	377.25
376.544	370.47
376.925	375.22
377.305	358.49
377.686	384.26
378.066	371.15
378.447	377.7
378.827	364.37
379.208	393.52
379.588	379.51
379.968	396.46
380.349	386.97
380.729	396.46
381.109	398.94
381.489	405.5
381.87	394.2
382.25	410.02
382.63	399.4
383.01	401.43
383.39	411.6
383.77	418.38
384.15	410.02
384.53	424.48
384.91	423.35
385.29	422.22
385.67	431.49
386.049	434.2
386.429	422.67
386.809	430.58
387.189	456.57
387.568	445.04
387.948	465.61
388.328	444.37
388.707	445.5
389.087	472.61
389.466	476.23
389.846	480.98
390.225	477.36
390.605	475.78
390.984	464.03
391.363	486.85
391.743	479.85
392.122	493.18
392.501	496.79
392.881	530.01
393.26	518.04
393.639	514.42
394.018	528.66
394.397	520.3
394.776	535.21
395.155	501.77
395.534	519.62
395.913	530.01
396.292	549
396.671	547.41
397.05	548.77
397.429	567.08
397.808	553.97
398.186	571.14
398.565	589.67
398.944	567.3
399.323	565.27
399.701	579.96
400.08	570.47
400.458	604.59
400.837	610.69
401.215	613.4
401.594	597.58
401.972	599.84
402.351	628.32
402.729	592.16
403.107	616.11
403.486	646.62
403.864	628.54
404.242	637.58
404.62	638.49
404.999	652.05
405.377	658.82
405.755	678.03
406.133	699.5
406.511	693.63
406.889	724.59
407.267	692.27
407.645	699.28
408.023	708.54
408.401	731.36
408.779	733.17
409.156	724.13
409.534	739.95
409.912	765.94
410.29	776.11
410.667	792.83
411.045	791.93
411.422	777.47
411.8	793.96
412.178	850.46
412.555	835.54
412.933	825.37
413.31	843
413.687	858.82
414.065	854.07
414.442	850.68
414.819	880.97
415.197	857.46
415.574	900.4
415.951	911.47
416.328	906.5
416.705	946.27
417.082	926.16
417.46	945.37
417.837	970.91
418.214	953.96
418.591	1001.64
418.967	965.94
419.344	974.3
419.721	1000.74
420.098	1005.93
420.475	983.34
420.852	1030.34
421.228	1026.72
421.605	1027.63
421.982	1045.71
422.358	1054.75
422.735	1073.95
423.111	1089.32
423.488	1103.11
423.864	1082.54
424.241	1126.61
424.617	1122.09
424.994	1145.59
425.37	1143.78
425.746	1161.18
426.123	1184.46
426.499	1168.19
426.875	1197.12
427.251	1238.92
427.627	1247.96
428.003	1223.1
428.379	1278.47
428.756	1312.14
429.132	1297
429.507	1319.37
429.883	1315.3
430.259	1340.16
430.635	1370.44
431.011	1387.39
431.387	1425.81
431.763	1438.24
432.138	1454.96
432.514	1440.27
432.89	1454.96
433.265	1491.8
433.641	1518.69
434.016	1529.76
434.392	1548.07
434.767	1573.83
435.143	1546.48
435.518	1593.94
435.894	1597.1
436.269	1637.33
436.644	1650.44
437.02	1654.28
437.395	1685.24
437.77	1711.9
438.145	1681.85
438.52	1708.29
438.895	1769.08
439.271	1748.51
439.646	1767.95
440.021	1804.33
440.395	1854.73
440.77	1804.78
441.145	1836.42
441.52	1843.88
441.895	1844.78
442.27	1869.64
442.645	1869.19
443.019	1925.91
443.394	1858.11
443.769	1930.66
444.143	1905.35
444.518	1938.11
444.892	1917.32
445.267	1973.14
445.641	1956.19
446.016	2018.11
446.39	2012.24
446.764	2053.36
447.139	2040.94
447.513	2064.44
447.887	2050.2
448.262	2085.91
448.636	2063.31
449.01	2106.02
449.384	2140.59
449.758	2143.31
450.132	2156.19
450.506	2155.73
450.88	2188.95
451.254	2198.67
451.628	2242.96
452.002	2267.14
452.376	2255.17
452.75	2277.09
453.123	2320.7
453.497	2381.49
453.871	2385.11
454.244	2418.1
454.618	2440.02
454.992	2466.01
455.365	2484.77
455.739	2557.98
456.112	2592.11
456.486	2554.37
456.859	2586.46
457.232	2638.43
457.606	2612.45
457.979	2662.61
458.352	2734.93
458.725	2772.22
459.099	2804.53
459.472	2865.55
459.845	2870.07
460.218	2909.84
460.591	2927.47
460.964	2972.44
461.337	3025.32
461.71	3072.77
462.083	3094.69
462.456	3164.97
462.829	3128.82
463.201	3241.13
463.574	3225.99
463.947	3233.45
464.32	3341.92
464.692	3314.35
465.065	3368.58
465.438	3431.18
465.81	3478.19
466.183	3520.22
466.555	3579.43
466.928	3610.16
467.3	3593.21
467.672	3681.34
468.045	3769.25
468.417	3783.94
468.789	3811.96
469.161	3822.58
469.534	3932.86
469.906	3994.33
470.278	4023.26
470.65	4076.36
471.022	4159.07
471.394	4195.23
471.766	4266.64
472.138	4327.88
472.51	4343.02
472.882	4447.65
473.253	4531.04
473.625	4585.5
473.997	4665.95
474.369	4676.8
474.74	4797.7
475.112	4856.45
475.484	4913.63
475.855	5029.78
476.227	5078.37
476.598	5236.56
476.97	5272.26
477.341	5366.72
477.713	5414.86
478.084	5461.41
478.455	5627.96
478.827	5733.95
479.198	5806.71
479.569	5855.52
479.94	6036.54
480.311	6060.26
480.682	6157.66
481.053	6321.05
481.424	6435.85
481.795	6543.42
482.166	6583.41
482.537	6659.57
482.908	6825.89
483.279	6921.26
483.65	7054.36
484.021	7170.29
484.391	7273.11
484.762	7326.22
485.133	7423.84
485.503	7514.92
485.874	7706.77
486.244	7744.74
486.615	7897.73
486.985	7976.82
487.356	8191.96
487.726	8203.03
488.097	8376.59
488.467	8500.2
488.837	8598.95
489.207	8734.09
489.578	8849.12
489.948	8894.99
490.318	9041.88
490.688	9117.13
491.058	9216.57
491.428	9341.08
491.798	9445.49
492.168	9621.53
492.538	9691.81
492.908	9760.05
493.278	9907.17
493.648	9935.19
494.017	10108.29
494.387	10222.64
494.757	10205.47
495.126	10350.32
495.496	10394.61
495.866	10478.23
496.235	10624.21
496.605	10686.81
496.974	10762.74
497.344	10896.52
497.713	10991.43
498.082	11075.05
498.452	11169.96
498.821	11221.94
499.19	11289.05
499.559	11357.07
499.928	11527.69
500.298	11610.17
500.667	11654.47
501.036	11700.12
501.405	11752.54
501.774	11807.01
502.143	11981.46
502.512	11988.47
502.88	12233.44
503.249	12231.4
503.618	12306.43
503.987	12355.69
504.356	12436.82
504.724	12478.17
505.093	12632.29
505.462	12755.23
505.83	12788
506.199	12880.2
506.567	12969.69
506.936	13046.07
507.304	13199.06
507.672	13266.18
508.041	13277.25
508.409	13441.31
508.777	13564.47
509.145	13725.6
509.514	13693.74
509.882	13786.61
510.25	13879.72
510.618	13998.81
510.986	14045.59
511.354	14093.73
511.722	14280.16
512.09	14449.65
512.458	14475.41
512.826	14547.05
513.193	14726.93
513.561	14764.67
513.929	14828.85
514.297	15021.38
514.664	15114.49
515.032	15204.2
515.4	15318.78
515.767	15429.74
516.135	15572.78
516.502	15537.76
516.869	15778.65
517.237	15746.11
517.604	15780.69
517.972	16105.2
518.339	16205.31
518.706	16179.09
519.073	16337.73
519.44	16465.41
519.808	16666.09
520.175	16625.18
520.542	16953.54
520.909	16981.56
521.276	16960.77
521.643	17248.44
522.009	17355.79
522.376	17433.52
522.743	17660.19
523.11	17780.18
523.477	17906.96
523.843	18015.66
524.21	18254.75
524.577	18365.03
524.943	18442.54
525.31	18577.9
525.676	18729.31
526.043	18849.08
526.409	18951
526.776	19130.2
527.142	19292.46
527.508	19354.83
527.874	19584.88
528.241	19676.86
528.607	19746.91
528.973	19926.34
529.339	19947.36
529.705	20045.43
530.071	20259.44
530.437	20377.85
530.803	20606.1
531.169	20643.61
531.535	20613.1
531.901	20762.25
532.267	20835.7
532.632	20981.45
532.998	21067.33
533.364	21289.47
533.73	21292.18
534.095	21472.74
534.461	21634.54
534.826	21729.23
535.192	21757.7
535.557	22003.8
535.923	21938.49
536.288	22134.42
536.653	22182.78
537.019	22145.72
537.384	22376.22
537.749	22301.65
538.114	22484.92
538.479	22556.1
538.845	22645.59
539.21	22679.26
539.575	22872.48
539.94	22832.25
540.305	23065.69
540.67	23027.28
541.034	23190.44
541.399	23274.5
541.764	23338.45
542.129	23426.81
542.494	23506.59
542.858	23543.42
543.223	23640.82
543.587	23820.93
543.952	23847.14
544.316	23902.51
544.681	23858.89
545.045	24098.21
545.41	24257.07
545.774	24321.71
546.138	24336.39
546.503	24342.95
546.867	24308.15
547.231	24640.79
547.595	24633.56
547.959	24681.02
548.324	24641.24
548.688	24833.1
549.052	25065.87
549.416	25052.53
549.779	25106.09
550.143	25198.07
550.507	25412.52
550.871	25551.28
551.235	25462.69
551.599	25681.44
551.962	25722.35
552.326	25854.77
552.689	26046.86
553.053	25890.7
553.417	26190.36
553.78	26384.02
554.143	26309.9
554.507	26440.52
554.87	26577.92
555.234	26922.09
555.597	26662.89
555.96	26719.83
556.323	26938.59
556.686	26971.35
557.05	27283.21
557.413	27353.94
557.776	27404.56
558.139	27564.33
558.502	27633.93
558.865	27789.64
559.228	27901.5
559.59	28044.55
559.953	28112.57
560.316	28457.42
560.679	28292.45
561.041	28546.45
561.404	28717.3
561.767	28877.52
562.129	28824.41
562.492	29267.79
562.854	29153.67
563.217	29317.51
563.579	29344.4
563.941	29605.63
564.304	29712.07
564.666	29877.49
565.028	30016.7
565.39	30121.33
565.753	30315.45
566.115	30360.87
566.477	30508.44
566.839	30604.03
567.201	30758.15
567.563	30738.03
567.925	30998.82
568.287	31062.77
568.648	31051.25
569.01	31375.53
569.372	31489.88
569.734	31422.31
570.095	31723.54
570.457	31733.94
570.819	31795.41
571.18	32007.83
571.542	32165.34
571.903	32114.04
572.265	32372.57
572.626	32379.12
572.987	32356.97
573.349	32602.39
573.71	32631.09
574.071	32758.32
574.432	32952.21
574.794	33005.09
575.155	32986.34
575.516	33013.45
575.877	33186.78
576.238	33261.58
576.599	33358.76
576.96	33327.34
577.32	33476.72
577.681	33505.64
578.042	33629.48
578.403	33593.78
578.763	33721.91
579.124	33778.63
579.485	33954.67
579.845	34054.33
580.206	33973.88
580.566	34033.54
580.927	34106.98
581.287	34099.3
581.648	33965.52
582.008	34134.78
582.368	34083.26
582.728	34142.69
583.089	34114.67
583.449	34187.89
583.809	34245.96
584.169	34357.15
584.529	34146.08
584.889	34528.89
585.249	34295.23
585.609	34266.3
585.969	34469.01
586.329	34322.35
586.688	34524.6
587.048	34342.23
587.408	34219.07
587.768	34389.46
588.127	34345.4
588.487	34363.25
588.846	34605.5
589.206	34427.88
589.565	34344.27
589.925	34479.4
590.284	34346.07
590.643	34429.01
591.003	34596.92
591.362	34697.7
591.721	34606.86
592.08	34618.61
592.44	34851.37
592.799	34694.31
593.158	34590.36
593.517	34529.35
593.876	34666.07
594.235	34632.39
594.593	34625.84
594.952	34808.89
595.311	34678.72
595.67	34683.92
596.029	34989.45
596.387	34989.9
596.746	34983.12
597.104	34825.61
597.463	34985.38
597.822	35022.44
598.18	34927.53
598.538	34954.42
598.897	35072.61
599.255	34999.84
599.613	35389.66
599.972	35208.65
600.33	35208.2
600.688	34967.07
601.046	35157.35
601.404	35345.37
601.762	35329.55
602.12	35373.62
602.478	35450.68
602.836	35393.5
603.194	35374.3
603.552	35299.72
603.91	35335.43
604.268	35500.85
604.625	35357.35
604.983	35525.25
605.341	35389.89
605.698	35539.94
606.056	35694.74
606.413	35487.29
606.771	35716.66
607.128	35734.74
607.485	35671.92
607.843	35719.37
608.2	35831.01
608.557	35917.78
608.914	35929.31
609.272	35951
609.629	36129.3
609.986	36093.37
610.343	35968.4
610.7	36368.17
611.057	36304.44
611.414	36282.52
611.771	36239.81
612.127	36445.68
612.484	36325.23
612.841	36447.49
613.198	36271.45
613.554	36224.67
613.911	36560.48
614.267	36605.9
614.624	36424.89
614.98	36543.53
615.337	36825.56
615.693	36660.82
616.05	36636.86
616.406	36844.77
616.762	36818.33
617.118	36704.88
617.475	36771.1
617.831	36749.4
618.187	36976.51
618.543	36833.69
618.899	37273.68
619.255	36961.82
619.611	37014.25
619.967	37161.82
620.323	37176.28
620.678	37066
621.034	37090.41
621.39	37113.01
621.746	36925.22
622.101	37335.15
622.457	37039.56
622.812	37200.24
623.168	37228.94
623.523	37323.85
623.879	37321.82
624.234	37079.11
624.589	37166.79
624.945	37250.4
625.3	37080.69
625.655	37150.97
626.01	37092.89
626.365	37302.83
626.72	37103.29
627.075	37218.32
627.43	37174.93
627.785	36959.34
628.14	37103.52
628.495	37168.15
628.85	37080.69
629.205	36885.44
629.559	37104.87
629.914	36873.01
630.269	37000.47
630.623	36874.82
630.978	36763.41
631.332	36895.84
631.687	36933.8
632.041	36862.17
632.396	36895.61
632.75	36737.65
633.104	36776.74
633.459	36545.56
633.813	36635.28
634.167	36445
634.521	36600.03
634.875	36564.32
635.229	36493.59
635.583	36236.19
635.937	36383.31
636.291	36238.68
636.645	36353.71
636.999	36373.59
637.352	36354.38
637.706	36148.96
638.06	36153.94
638.413	36071.45
638.767	36010.66
639.121	36176.08
639.474	35907.16
639.828	35910.33
640.181	36065.35
640.534	35916.43
640.888	35794.4
641.241	35602.54
641.594	35603.89
641.947	35883.44
642.301	35584.91
642.654	35727.96
643.007	35677.11
643.36	35582.88
643.713	35525.7
644.066	35522.77
644.419	35273.28
644.771	35161.87
645.124	34679.4
645.477	34666.29
645.83	34523.02
646.182	34285.28
646.535	34233.76
646.888	34398.28
647.24	34177.49
647.593	34395.11
647.945	34283.48
648.298	34058.17
648.65	33923.49
649.002	33909.7
649.355	33983.6
649.707	33912.87
650.059	34159.19
650.411	34447.77
650.763	34424.26
651.115	34789.9
651.467	34722.11
651.819	34793.52
652.171	34457.94
652.523	34576.35
652.875	34535.22
653.227	34333.19
653.578	34667.42
653.93	34520.76
654.282	34370.71
654.633	34297.49
654.985	34289.13
655.337	34408.67
655.688	34250.03
656.039	34456.58
656.391	34111.5
656.742	34198.96
657.094	34148.79
657.445	34268.34
657.796	34127.55
658.147	34107.66
658.498	34074.9
658.849	34140.88
659.2	34071.05
659.551	33989.25
659.902	34145.85
660.253	34060.88
660.604	34115.12
660.955	33845.97
661.306	33996.7
661.656	33850.95
662.007	33928.23
662.358	34023.37
662.708	33721.01
663.059	33935.92
663.409	33670.16
663.76	34060.88
664.11	33800.1
664.461	33769.59
664.811	33799.42
665.161	33740.21
665.511	33752.87
665.862	33667.45
666.212	33834.22
666.562	33721.91
666.912	33801.68
667.262	33671.74
667.612	33511.52
667.962	33683.94
668.312	33588.13
668.662	33742.7
669.011	33635.81
669.361	33567.79
669.711	33447.34
670.06	33469.94
670.41	33430.84
670.76	33351.52
671.109	33440.79
671.459	33395.82
671.808	33347.68
672.157	33335.25
672.507	33161.02
672.856	33030.4
673.205	33229.04
673.554	33352.88
673.904	33328.02
674.253	33373.44
674.602	33210.51
674.951	32768.26
675.3	32660.24
675.649	33203.96
675.998	33165.31
676.346	33037.63
676.695	33167.35
677.044	33001.7
677.393	33053.9
677.741	33036.96
678.09	32967.35
678.438	32845.32
678.787	32933.68
679.135	32863.18
679.484	32730.3
679.832	32915.6
680.181	32818.88
680.529	32791.09
680.877	32563.3
681.225	32485.78
681.573	32732.11
681.922	32525.11
682.27	32418.22
682.618	32518.78
682.966	32477.42
683.314	32458.21
683.661	32420.7
684.009	32194.04
684.357	32204.89
684.705	31969.41
685.053	32057.09
685.4	32165.79
685.748	31756.99
686.095	31914.5
686.443	31756.31
686.79	31653.72
687.138	31643.32
687.485	31738.46
687.832	31559.93
688.18	31591.8
688.527	31434.96
688.874	31378.69
689.221	31242.43
689.568	31335.98
689.915	31133.05
690.262	31123.79
690.609	31123.11
690.956	31093.28
691.303	30976.9
691.65	30905.49
691.997	30779.16
692.344	30686.51
692.69	30629.79
693.037	30787.3
693.383	30480.19
693.73	30619.62
694.077	30470.7
694.423	30409.45
694.769	30267.31
695.116	30248.55
695.462	30196.58
695.808	30011.95
696.155	30025.74
696.501	29757.95
696.847	29666.2
697.193	29584.84
697.539	29674.56
697.885	29539.42
698.231	29308.24
698.577	29328.13
698.923	29301.01
699.269	29083.39
699.614	29004.97
699.96	28958.19
700.306	28929.04
700.651	28875.26
700.997	28910.74
701.342	28654.92
701.688	28607.02
702.033	28424.42
702.379	28472.78
702.724	28527.92
703.069	28454.03
703.415	28165.22
703.76	28125.9
704.105	28186.24
704.45	28179.23
704.795	27865.34
705.14	27891.1
705.485	27850.43
705.83	27605.23
706.175	27800.26
706.52	27611.34
706.865	27657.89
707.209	27543.77
707.554	27429.65
707.899	27400.72
708.243	27388.29
708.588	27345.35
708.932	27095.19
709.277	27167.05
709.621	27150.11
709.966	26968.42
710.31	27089.54
710.654	26932.94
710.998	26804.58
711.342	26751.25
711.687	26764.35
712.031	26572.04
712.375	26514.42
712.719	26563
713.063	26539.73
713.407	26646.39
713.75	26443.23
714.094	26409.33
714.438	26248.21
714.782	26244.59
715.125	26196.46
715.469	26240.3
715.812	25997.14
716.156	25859.97
716.499	26038.72
716.843	26004.6
717.186	25841.21
717.53	25894.32
717.873	25959.85
718.216	25740.65
718.559	25718.05
718.902	25504.27
719.246	25564.61
719.589	25557.15
719.932	25413.65
720.275	25337.5
720.617	25314
720.96	25344.5
721.303	25269.48
721.646	25318.52
721.989	25252.75
722.331	25223.6
722.674	25177.28
723.016	25136.37
723.359	24876.49
723.701	24972.76
724.044	24856.83
724.386	24800.56
724.729	24799.66
725.071	24777.51
725.413	24748.36
725.755	24730.06
726.097	24704.97
726.439	24557.63
726.782	24542.49
727.124	24593.79
727.465	24498.2
727.807	24542.04
728.149	24400.35
728.491	24376.84
728.833	24391.53
729.175	24215.49
729.516	24189.28
729.858	24124.87
730.199	24125.78
730.541	24116.29
730.882	24068.6
731.224	24138.89
731.565	23950.87
731.906	23935.27
732.248	23961.04
732.589	23796.3
732.93	23719.01
733.271	23748.61
733.612	23790.87
733.953	23758.56
734.294	23719.24
734.635	23566.47
734.976	23729.86
735.317	23597.2
735.658	23577.77
735.999	23505.23
736.339	23430.43
736.68	23527.6
737.021	23383.88
737.361	23292.13
737.702	23464.55
738.042	23279.7
738.383	23246.71
738.723	23355.4
739.063	23212.58
739.404	23223.43
739.744	23098.46
740.084	23051.68
740.424	23074.96
740.764	23039.48
741.104	23124.9
741.444	22877
741.784	22907.96
742.124	22983.21
742.464	22838.58
742.804	22819.37
743.143	22753.38
743.483	22787.28
743.823	22630
744.162	22623.67
744.502	22623.44
744.841	22623.67
745.181	22638.81
745.52	22481.98
745.86	22426.84
746.199	22419.61
746.538	22399.72
746.877	22383.45
747.216	22366.28
747.556	22301.87
747.895	22308.88
748.234	22163.8
748.573	22061.88
748.911	22061.88
749.25	22099.39
749.589	21994.31
749.928	22034.31
750.267	22019.39
750.605	22090.58
750.944	21873.63
751.283	21810.58
751.621	21843.13
751.96	21723.13
752.298	21678.16
752.636	21659.85
752.975	21487.43
753.313	21531.95
753.651	21619.86
753.989	21537.15
754.327	21500.08
754.666	21233.88
755.004	21386.87
755.342	21331.05
755.679	21252.86
756.017	21108.23
756.355	21115.69
756.693	21076.37
757.031	20960.66
757.368	21035.46
757.706	20899.87
758.044	20866.43
758.381	20839.54
758.719	20796.37
759.056	20825.53
759.394	20684.74
759.731	20527.45
760.068	20516.38
760.405	20389.38
760.743	20314.8
761.08	20485.65
761.417	20364.75
761.754	20185.99
762.091	20286.11
762.428	20079.78
762.765	19909.62
763.102	20010.86
763.438	19934.25
763.775	19747.59
764.112	19912.1
764.449	19951.88
764.785	19695.61
765.122	19632.34
765.458	19535.62
765.795	19510.76
766.131	19419.69
766.467	19367.03
766.804	19334.49
767.14	19225.79
767.476	19258.79
767.812	19132.92
768.148	19124.78
768.485	18970.43
768.821	18917.78
769.157	18800.95
769.492	18873.94
769.828	18746.94
770.164	18635.75
770.5	18587.17
770.836	18496.77
771.171	18406.15
771.507	18396.66
771.842	18309.66
772.178	18266.27
772.513	18333.61
772.849	18122.55
773.184	17972.95
773.519	18087.97
773.855	17959.39
774.19	17756
774.525	17890.24
774.86	17849.33
775.195	17767.75
775.53	17684.37
775.865	17509.68
776.2	17393.07
776.535	17352.62
776.87	17421.32
777.205	17308.1
777.539	17181.78
777.874	17230.14
778.209	17034.44
778.543	17003.48
778.878	16946.76
779.212	16843.03
779.547	16812.52
779.881	16754.67
780.215	16689.82
780.55	16730.49
780.884	16539.99
781.218	16544.73
781.552	16533.44
781.886	16450.05
782.22	16305.87
782.554	16274.91
782.888	16185.2
783.222	16120.11
783.556	16147
783.889	16020
784.223	15866.11
784.557	15883.06
784.89	15963.05
785.224	15787.69
785.557	15761.25
785.891	15637.41
786.224	15704.98
786.558	15558.77
786.891	15446.23
787.224	15372.79
787.557	15342.51
787.891	15354.94
788.224	15379.12
788.557	15356.52
788.89	15189.29
789.223	15257.99
789.556	15078.33
789.888	15028.39
790.221	14932.12
790.554	14886.47
790.887	14856.19
791.219	14795.85
791.552	14724.67
791.884	14628.85
792.217	14604.45
792.549	14518.8
792.882	14477.67
793.214	14425.69
793.546	14499.14
793.879	14420.5
794.211	14284.45
794.543	14280.39
794.875	14201.07
795.207	14240.16
795.539	14160.16
795.871	14208.52
796.203	14013.95
796.535	13968.08
796.867	13999.49
797.198	13912.94
797.53	13898.48
797.862	13790.68
798.193	13846.95
798.525	13703
798.856	13794.07
799.188	13581.65
799.519	13514.53
799.85	13410.58
800.182	13467.08
800.513	13467.08
800.844	13360.41
801.175	13415.55
801.506	13455.32
801.837	13384.14
802.168	13347.76
802.499	13161.32
802.83	13206.07
803.161	13067.99
803.491	13147.08
803.822	13072.74
804.153	12981.21
804.483	12876.81
804.814	12769.01
805.145	12817.37
805.475	12738.73
805.805	12717.26
806.136	12723.14
806.466	12802.46
806.796	12784.38
807.126	12587.55
807.457	12597.95
807.787	12597.27
808.117	12526.76
808.447	12383.94
808.777	12449.02
809.107	12395.92
809.436	12371.28
809.766	12355.24
810.096	12336.48
810.426	12332.87
810.755	12357.05
811.085	12215.81
811.414	12195.47
811.744	12058.07
812.073	12163.38
812.403	12105.76
812.732	11968.81
813.061	12050.16
813.39	11987.79
813.719	11977.17
814.049	11975.59
814.378	11872.31
814.707	11923.16
815.036	11770.62
815.365	11801.13
815.693	11651.08
816.022	11726.33
816.351	11697.18
816.68	11615.15
817.008	11662.83
817.337	11634.81
817.665	11541.02
817.994	11553.23
818.322	11557.29
818.651	11469.16
818.979	11391.2
819.307	11490.86
819.636	11392.1
819.964	11339.22
820.292	11457.18
820.62	11394.59
820.948	11286.79
821.276	11357.07
821.604	11308.04
821.932	11295.38
822.259	11264.65
822.587	11319.79
822.915	11205.67
823.243	11272.56
823.57	11248.6
823.898	11275.49
824.225	11182.84
824.553	11235.04
824.88	11235.04
825.207	11279.11
825.535	11219
825.862	11214.71
826.189	11199.11
826.516	11255.83
826.843	11317.53
827.17	11232.78
827.497	11242.5
827.824	11228.04
828.151	11254.93
828.478	11195.95
828.805	11203.18
829.131	11211.54
829.458	11173.35
829.785	11102.62
830.111	11178.32
830.438	11165.67
830.764	11097.87
831.09	11218.09
831.417	11087.48
831.743	11181.26
832.069	11129.96
832.395	11035.27
832.722	11137.19
833.048	11064.2
833.374	11094.93
833.7	11022.85
834.026	11094.71
834.351	11048.61
834.677	11083.86
835.003	11087.25
835.329	11014.94
835.654	11020.81
835.98	10957.54
836.306	10959.8
836.631	10891.55
836.956	10981.72
837.282	10941.04
837.607	10906.46
837.932	10839.35
838.258	10815.17
838.583	10817.88
838.908	10792.8
839.233	10781.72
839.558	10733.59
839.883	10725.9
840.208	10689.75
840.533	10737.43
840.858	10751.44
841.182	10691.1
841.507	10700.14
841.832	10658.79
842.156	10607.49
842.481	10618.79
842.805	10563.2
843.13	10541.28
843.454	10473.93
843.778	10430.54
844.103	10452.01
844.427	10416.31
844.751	10523.2
845.075	10407.49
845.399	10354.39
845.723	10300.83
846.047	10328.4
846.371	10188.74
846.695	10170.89
847.019	10158.91
847.343	10037.56
847.666	9982.87
847.99	9992.36
848.313	9980.84
848.637	9966.15
848.96	9913.5
849.284	9860.62
849.607	9837.57
849.931	9811.13
850.254	9707.63
850.577	9654.75
850.9	9636.67
851.223	9533.62
851.546	9591.02
851.869	9476.45
852.192	9530.91
852.515	9402.32
852.838	9447.07
853.161	9419.95
853.483	9335.21
853.806	9341.53
854.129	9312.83
854.451	9226.73
854.774	9207.07
855.096	9119.17
855.419	9181.54
855.741	9185.38
856.063	9079.85
856.385	9076.91
856.708	9024.71
857.03	9028.77
857.352	8985.84
857.674	8985.84
857.996	8941.32
858.318	8923.69
858.64	8921.43
858.961	8821.32
859.283	8802.57
859.605	8761.21
859.926	8807.99
860.248	8757.14
860.57	8730.48
860.891	8726.86
861.212	8658.39
861.534	8699.52
861.855	8626.52
862.176	8739.97
862.498	8645.28
862.819	8620.88
863.14	8605.51
863.461	8564.61
863.782	8579.07
864.103	8556.24
864.424	8533.42
864.745	8490.26
865.065	8458.85
865.386	8422.24
865.707	8394.67
866.027	8438.96
866.348	8421.11
866.668	8409.58
866.989	8315.57
867.309	8392.86
867.63	8333.42
867.95	8304.27
868.27	8248.68
868.59	8279.87
868.91	8265.63
869.23	8244.16
869.55	8273.77
869.87	8311.96
870.19	8266.31
870.51	8269.47
870.83	8214.33
871.15	8191.06
871.469	8176.14
871.789	8210.72
872.109	8134.79
872.428	8124.62
872.748	8100.44
873.067	8146.76
873.386	8076.03
873.706	8075.35
874.025	8032.42
874.344	7981.57
874.663	8070.16
874.982	8023.38
875.301	8010.72
875.62	8007.78
875.939	8012.3
876.258	7955.58
876.577	7993.32
876.896	7837.39
877.214	7863.83
877.533	7913.77
877.852	7997.61
878.17	7901.57
878.489	7888.46
878.807	7828.13
879.125	7882.14
879.444	7807.79
879.762	7782.93
880.08	7765.98
880.398	7790.84
880.716	7764.17
881.034	7740.45
881.352	7746.77
881.67	7733.89
881.988	7693.44
882.306	7709.49
882.624	7649.6
882.941	7644.4
883.259	7583.61
883.577	7592.65
883.894	7566.89
884.212	7556.5
884.529	7555.59
884.846	7528.25
885.164	7573.44
885.481	7517.63
885.798	7503.16
886.115	7401.47
886.432	7385.43
886.75	7386.56
887.067	7427.69
887.383	7362.38
887.7	7349.27
888.017	7326.22
888.334	7372.77
888.651	7297.52
888.967	7300.23
889.284	7219.56
889.6	7245.77
889.917	7174.81
890.233	7241.25
890.55	7217.52
890.866	7197.86
891.182	7178.65
891.498	7107.69
891.815	7125.1
892.131	7085.32
892.447	7102.27
892.763	6991.77
893.079	6993.57
893.395	6979.11
893.71	6999.67
894.026	6958.09
894.342	6937.3
894.657	6870.64
894.973	6896.85
895.289	6911.09
895.604	6879.68
895.92	6769.4
896.235	6762.39
896.55	6757.2
896.865	6770.75
897.181	6754.26
897.496	6666.35
897.811	6715.84
898.126	6637.88
898.441	6653.02
898.756	6603.75
899.071	6571.89
899.386	6554.04
899.7	6532.79
900.015	6524.66
900.33	6450.31
900.644	6527.14
900.959	6510.87
901.273	6423.19
901.588	6443.08
901.902	6362.18
902.216	6365.12
902.531	6347.49
902.845	6338.45
903.159	6229.53
903.473	6230.43
903.787	6283.76
904.101	6178.91
904.415	6217.77
904.729	6215.74
905.042	6166.02
905.356	6094.61
905.67	6096.65
905.984	6111.11
906.297	6100.72
906.611	6019.81
906.924	6029.08
907.237	6026.82
907.551	5929.19
907.864	5953.6
908.177	5937.56
908.491	5968.29
908.804	5875.18
909.117	5822.08
909.43	5841.06
909.743	5758.35
910.056	5834.06
910.368	5778.46
910.681	5763.1
910.994	5717.9
911.307	5679.48
911.619	5659.82
911.932	5668.86
912.244	5648.98
912.557	5650.33
912.869	5577.57
913.181	5554.06
913.494	5532.14
913.806	5517.91
914.118	5483.56
914.43	5454.18
914.742	5419.15
915.054	5392.71
915.366	5375.08
915.678	5346.61
915.99	5350.68
916.302	5330.34
916.613	5315.88
916.925	5311.81
917.236	5231.36
917.548	5244.01
917.859	5216.67
918.171	5200.85
918.482	5131.93
918.794	5166.73
919.105	5161.3
919.416	5105.04
919.727	5090.57
920.038	5072.95
920.349	5057.35
920.66	4968.09
920.971	5044.47
921.282	4913.18
921.593	4932.16
921.903	4892.16
922.214	4908.88
922.525	4936.68
922.835	4903.46
923.146	4824.82
923.456	4811.71
923.767	4814.42
924.077	4776.91
924.387	4847.87
924.697	4750.92
925.008	4761.32
925.318	4758.38
925.628	4712.05
925.938	4716.12
926.248	4688.1
926.558	4624.37
926.867	4651.94
927.177	4585.5
927.487	4579.85
927.796	4547.76
928.106	4522
928.416	4532.62
928.725	4507.99
929.034	4458.5
929.344	4475
929.653	4482.23
929.962	4432.96
930.271	4413.75
930.581	4415.34
930.89	4421.21
931.199	4323.59
931.508	4337.37
931.817	4319.29
932.125	4276.58
932.434	4253.98
932.743	4254.89
933.051	4230.71
933.36	4249.92
933.669	4194.78
933.977	4168.56
934.286	4171.05
934.594	4162.01
934.902	4070.71
935.21	4062.12
935.519	4119.3
935.827	4129.92
936.135	4066.19
936.443	4045.18
936.751	4024.16
937.059	4000.66
937.367	3991.84
937.674	3974.67
937.982	3938.74
938.29	3958.17
938.597	3950.04
938.905	3885.63
939.213	3854.67
939.52	3835.69
939.827	3889.02
940.135	3872.53
940.442	3879.3
940.749	3843.83
941.056	3810.83
941.363	3809.93
941.67	3748.01
941.977	3746.88
942.284	3724.51
942.591	3708.46
942.898	3706.65
943.205	3714.34
943.511	3679.54
943.818	3692.19
944.125	3647.45
944.431	3650.84
944.738	3611.74
945.044	3620.55
945.35	3578.97
945.657	3552.76
945.963	3557.51
946.269	3519.54
946.575	3522.03
946.881	3494.46
947.187	3470.5
947.493	3454.46
947.799	3451.52
948.105	3438.86
948.41	3425.98
948.716	3404.06
949.022	3376.72
949.327	3388.7
949.633	3378.98
949.938	3338.08
950.244	3341.47
950.549	3337.4
950.854	3304.86
951.16	3279.32
951.465	3281.35
951.77	3270.28
952.075	3238.42
952.38	3244.52
952.685	3233.22
952.99	3171.3
953.294	3206.78
953.599	3228.25
953.904	3173.11
954.209	3111.19
954.513	3138.08
954.818	3118.65
955.122	3121.81
955.426	3118.65
955.731	3075.03
956.035	3102.6
956.339	3059.67
956.643	3073.22
956.948	3003.17
957.252	2992.1
957.556	2996.39
957.86	2985.54
958.163	2992.55
958.467	2968.82
958.771	2976.96
959.075	2937.18
959.378	2940.12
959.682	2965.2
959.985	2906.9
960.289	2930.63
960.592	2920.23
960.896	2863.51
961.199	2871.2
961.502	2861.7
961.805	2855.83
962.108	2847.92
962.411	2838.2
962.714	2820.58
963.017	2780.8
963.32	2779.22
963.623	2771.99
963.926	2769.96
964.228	2743.52
964.531	2773.35
964.833	2739.9
965.136	2663.97
965.438	2670.75
965.741	2637.53
966.043	2694.93
966.345	2668.94
966.648	2629.62
966.95	2633.69
967.252	2600.92
967.554	2604.31
967.856	2611.32
968.158	2595.5
968.46	2603.86
968.761	2582.84
969.063	2552.33
969.365	2545.55
969.666	2541.71
969.968	2503.75
970.269	2511.88
970.571	2514.82
970.872	2485.9
971.174	2460.13
971.475	2468.49
971.776	2466.91
972.077	2460.13
972.378	2418.78
972.679	2414.71
972.98	2423.98
973.281	2431.89
973.582	2386.69
973.883	2409.74
974.183	2378.33
974.484	2392.11
974.785	2377.42
975.085	2341.72
975.386	2389.17
975.686	2335.16
975.986	2329.06
976.287	2336.75
976.587	2298.1
976.887	2308.05
977.187	2297.65
977.487	2303.98
977.787	2251.1
978.087	2249.29
978.387	2272.57
978.687	2226.01
978.987	2230.99
979.286	2201.83
979.586	2240.93
979.885	2198.9
980.185	2164.1
980.484	2157.99
980.784	2164.32
981.083	2160.48
981.382	2172.91
981.682	2145.57
981.981	2149.41
982.28	2089.3
982.579	2119.8
982.878	2129.29
983.177	2107.6
983.475	2095.62
983.774	2033.7
984.073	2073.7
984.372	2070.99
984.67	2069.63
984.969	2062.63
985.267	2040.03
985.566	2051.78
985.864	2004.33
986.162	2035.29
986.461	1998.22
986.759	1967.26
987.057	1987.6
987.355	1972.24
987.653	1965.68
987.951	1970.2
988.249	1957.32
988.547	1956.42
988.844	1903.76
989.142	1902.41
989.44	1921.16
989.737	1915.29
990.035	1891.79
990.332	1891.33
990.63	1857.21
990.927	1863.76
991.224	1862.86
991.521	1873.26
991.819	1852.47
992.116	1836.65
992.413	1829.19
992.71	1795.97
993.006	1792.81
993.303	1820.6
993.6	1800.94
993.897	1802.3
994.193	1799.13
994.49	1796.87
994.787	1777.67
995.083	1745.8
995.379	1736.08
995.676	1731.79
995.972	1727.5
996.268	1709.64
996.565	1715.52
996.861	1709.42
997.157	1703.77
997.453	1703.54
997.749	1674.17
998.044	1678.46
998.34	1689.98
998.636	1661.06
998.932	1628.74
999.227	1643.43
999.523	1612.25
999.818	1599.59
1000.114	1613.6
1000.409	1597.78
1000.704	1597.1
1001	1588.29
1001.295	1580.38
1001.59	1561.17
1001.885	1573.6
1002.18	1516.66
1002.475	1545.58
1002.77	1566.82
1003.065	1552.59
1003.359	1563.43
1003.654	1529.54
1003.949	1498.58
1004.243	1502.42
1004.538	1468.97
1004.832	1489.76
1005.127	1487.96
1005.421	1472.59
1005.715	1508.75
1006.009	1470.33
1006.304	1470.1
1006.598	1445.92
1006.892	1461.29
1007.186	1432.59
1007.48	1435.98
1007.773	1391.91
1008.067	1414.96
1008.361	1400.5
1008.655	1401.63
1008.948	1379.71
1009.242	1400.73
1009.535	1376.09
1009.829	1350.78
1010.122	1347.62
1010.415	1339.48
1010.708	1332.93
1011.001	1317.11
1011.295	1332.71
1011.588	1322.99
1011.881	1302.2
1012.173	1284.12
1012.466	1294.97
1012.759	1304.68
1013.052	1296.77
1013.344	1298.58
1013.637	1270.11
1013.93	1247.96
1014.222	1254.06
1014.514	1236.66
1014.807	1255.42
1015.099	1233.72
1015.391	1260.16
1015.683	1256.32
1015.976	1220.62
1016.268	1184.23
1016.56	1221.97
1016.851	1210.9
1017.143	1174.97
1017.435	1176.78
1017.727	1159.38
1018.018	1185.14
1018.31	1184.69
1018.602	1169.55
1018.893	1153.05
1019.185	1132.94
1019.476	1126.83
1019.767	1129.55
1020.058	1118.93
1020.35	1110.56
1020.641	1126.61
1020.932	1073.95
1021.223	1108.98
1021.514	1102.88
1021.804	1054.97
1022.095	1050.9
1022.386	1082.09
1022.677	1059.04
1022.967	1054.07
1023.258	1054.75
1023.548	1032.6
1023.839	1029.66
1024.129	1035.54
1024.419	1029.89
1024.709	1040.28
1025	1011.36
1025.29	1015.65
1025.58	987.4
1025.87	1008.19
1026.16	1015.65
1026.449	973.17
1026.739	974.97
1027.029	950.79
1027.319	972.49
1027.608	962.55
1027.898	961.19
1028.187	956.9
1028.477	954.41
1028.766	948.76
1029.055	935.2
1029.344	915.77
1029.634	937.69
1029.923	904.24
1030.212	907.63
1030.501	895.2
1030.79	887.75
1031.078	895.65
1031.367	878.93
1031.656	887.97
1031.945	889.55
1032.233	867.41
1032.522	877.35
1032.81	890.23
1033.099	840.97
1033.387	842.77
1033.675	877.58
1033.963	843.23
1034.251	843.45
1034.54	832.38
1034.828	804.13
1035.116	835.09
1035.403	838.03
1035.691	798.48
1035.979	810.68
1036.267	821.98
1036.554	802.32
1036.842	794.19
1037.129	783.12
1037.417	780.4
1037.704	799.61
1037.992	770.91
1038.279	795.32
1038.566	756.9
1038.853	756.9
1039.14	756.9
