Data from plate_ceramic_FLMS001491_098.txt Node
Date: Tue Feb 07 11:17:35 GMT 2017
User: dcchb
Spectrometer: FLMS00149
Trigger mode: 0
Integration Time (sec): 2.000000E-2
Scans to average: 10
Electric dark correction enabled: true
Nonlinearity correction enabled: false
Boxcar width: 0
XAxis mode: Wavelengths
Number of Pixels in Spectrum: 2048
>>>>>Begin Spectral Data<<<<<
341.393	-5.71
341.776	-5.71
342.16	-5.71
342.543	-60.39
342.927	-65.59
343.31	-59.04
343.693	-83.67
344.077	-81.86
344.46	-67.4
344.843	-36.67
345.226	-37.8
345.61	-31.92
345.993	-12.71
346.376	-17.46
346.759	11.02
347.142	22.54
347.525	34.52
347.908	62.09
348.291	79.94
348.674	105.48
349.057	112.93
349.44	112.48
349.823	135.08
350.206	166.27
350.588	232.93
350.971	229.32
351.354	227.51
351.737	262.99
352.119	260.28
352.502	274.51
352.884	288.3
353.267	312.03
353.65	319.03
354.032	315.87
354.414	336.88
354.797	317.9
355.179	331.01
355.562	338.69
355.944	355.41
356.326	334.62
356.709	368.07
357.091	345.02
357.473	374.62
357.855	397
358.238	355.19
358.62	359.03
359.002	362.42
359.384	365.58
359.766	376.43
360.148	377.33
360.53	336.66
360.912	350.44
361.294	366.71
361.676	366.04
362.057	367.84
362.439	356.77
362.821	383.44
363.203	371.46
363.584	366.49
363.966	369.88
364.348	351.8
364.729	353.15
365.111	361.74
365.493	340.5
365.874	360.61
366.256	357.67
366.637	357
367.019	350.67
367.4	359.71
367.781	345.47
368.163	349.31
368.544	352.7
368.925	380.72
369.306	348.86
369.688	353.83
370.069	382.08
370.45	370.56
370.831	382.98
371.212	369.2
371.593	362.19
371.974	361.97
372.355	358.58
372.736	392.25
373.117	391.8
373.498	360.84
373.879	374.85
374.26	344.34
374.641	357.67
375.021	375.07
375.402	382.08
375.783	375.07
376.163	401.74
376.544	410.55
376.925	403.55
377.305	393.38
377.686	391.12
378.066	398.58
378.447	385.7
378.827	415.07
379.208	446.49
379.588	411.23
379.968	416.2
380.349	418.92
380.729	404
381.109	416.66
381.489	419.59
381.87	438.12
382.25	427.05
382.63	427.28
383.01	415.98
383.39	447.39
383.77	446.03
384.15	458.24
384.53	447.16
384.91	462.08
385.29	456.2
385.67	489.87
386.049	464.79
386.429	483.77
386.809	499.59
387.189	464.79
387.568	478.8
387.948	475.86
388.328	487.16
388.707	485.13
389.087	516.31
389.466	531.23
389.846	518.8
390.225	506.6
390.605	515.86
390.984	518.57
391.363	539.36
391.743	526.71
392.122	542.75
392.501	542.3
392.881	552.7
393.26	567.16
393.639	559.02
394.018	551.34
394.397	577.78
394.776	570.1
395.155	586.59
395.534	585.46
395.913	589.08
396.292	595.18
396.671	591.57
397.05	597.67
397.429	613.26
397.808	621.85
398.186	612.36
398.565	617.78
398.944	645.12
399.323	629.08
399.701	648.51
400.08	655.52
400.458	653.49
400.837	670.21
401.215	670.21
401.594	688.96
401.972	686.25
402.351	685.8
402.729	691
403.107	709.53
403.486	729.64
403.864	711.56
404.242	704.33
404.62	730.55
404.999	728.96
405.377	736.87
405.755	756.31
406.133	743.2
406.511	752.01
406.889	787.95
407.267	788.17
407.645	794.27
408.023	811
408.401	817.78
408.779	823.2
409.156	818.68
409.534	848.28
409.912	870.43
410.29	863.2
410.667	876.3
411.045	902.07
411.422	888.51
411.8	918.56
412.178	899.81
412.555	948.17
412.933	954.72
413.31	968.51
413.687	964.66
414.065	980.48
414.442	1002.85
414.819	989.3
415.197	1004.44
415.574	1017.32
415.951	1022.74
416.328	1053.7
416.705	1083.76
417.082	1069.07
417.46	1071.33
417.837	1082.85
418.214	1085.11
418.591	1112.23
418.967	1112.91
419.344	1133.25
419.721	1120.14
420.098	1129.86
420.475	1180.7
420.852	1184.32
421.228	1181.16
421.605	1211.44
421.982	1182.29
422.358	1208.73
422.735	1215.05
423.111	1249.18
423.488	1258.89
423.864	1253.92
424.241	1278.33
424.617	1309.06
424.994	1306.35
425.37	1294.37
425.746	1350.19
426.123	1359.23
426.499	1324.2
426.875	1361.72
427.251	1399.68
427.627	1426.8
428.003	1421.83
428.379	1474.71
428.756	1480.81
429.132	1498.89
429.507	1523.07
429.883	1535.04
430.259	1575.95
430.635	1573.46
431.011	1577.98
431.387	1626.79
431.763	1646.68
432.138	1636.28
432.514	1676.28
432.89	1689.16
433.265	1728.03
433.641	1721.93
434.016	1774.59
434.392	1774.59
434.767	1821.14
435.143	1836.28
435.518	1870.63
435.894	1859.1
436.269	1898.42
436.644	1921.02
437.02	1938.42
437.395	1924.41
437.77	1979.78
438.145	1978.42
438.52	2034.24
438.895	2046.9
439.271	2065.65
439.646	2073.11
440.021	2095.93
440.395	2107.23
440.77	2095.26
441.145	2114.46
441.52	2144.75
441.895	2175.03
442.27	2193.56
442.645	2186.33
443.019	2258.42
443.394	2250.73
443.769	2285.53
444.143	2226.1
444.518	2320.33
444.892	2295.93
445.267	2293.67
445.641	2356.04
446.016	2370.73
446.39	2384.51
446.764	2373.89
447.139	2381.8
447.513	2410.5
447.887	2414.57
448.262	2413.89
448.636	2461.12
449.01	2506.32
449.384	2559.2
449.758	2495.02
450.132	2557.62
450.506	2541.57
450.88	2589.93
451.254	2623.15
451.628	2641.23
452.002	2685.07
452.376	2679.65
452.75	2714.22
453.123	2745.41
453.497	2774.11
453.871	2807.33
454.244	2876.7
454.618	2870.15
454.992	2888.91
455.365	2912.41
455.739	2999.64
456.112	3020.66
456.486	3036.02
456.859	3048.68
457.232	3146.75
457.606	3141.56
457.979	3176.58
458.352	3288.44
458.725	3337.48
459.099	3338.39
459.472	3369.12
459.845	3386.52
460.218	3436.24
460.591	3472.62
460.964	3535.22
461.337	3552.84
461.71	3582.45
462.083	3676.01
462.456	3660.86
462.829	3734.99
463.201	3754.42
463.574	3761.43
463.947	3840.29
464.32	3921.65
464.692	3997.13
465.065	4002.55
465.438	4065.15
465.81	4101.98
466.183	4179.95
466.555	4252.04
466.928	4295.42
467.3	4310.56
467.672	4346.04
468.045	4459.94
468.417	4486.15
468.789	4504.91
469.161	4601.18
469.534	4681.63
469.906	4737.22
470.278	4789.42
470.65	4855.64
471.022	4938.57
471.394	5038.91
471.766	5099.02
472.138	5160.71
472.51	5243.42
472.882	5313.25
473.253	5401.16
473.625	5432.57
473.997	5635.73
474.369	5609.74
474.74	5656.29
475.112	5820.13
475.484	5907.36
475.855	5990.97
476.227	6072.78
476.598	6223.96
476.97	6295.37
477.341	6475.25
477.713	6515.48
478.084	6564.06
478.455	6756.38
478.827	6794.57
479.198	7014
479.569	7017.39
479.94	7230.04
480.311	7279.75
480.682	7417.6
481.053	7614.88
481.424	7702.57
481.795	7763.81
482.166	7935.1
482.537	8022.78
482.908	8255.32
483.279	8324.02
483.65	8489.21
484.021	8626.16
484.391	8717.68
484.762	8828.19
485.133	8885.13
485.503	9004.9
485.874	9215.75
486.244	9257.1
486.615	9436.31
486.985	9645.34
487.356	9802.62
487.726	9840.14
488.097	10062.96
488.467	10103.41
488.837	10287.13
489.207	10460.69
489.578	10617.52
489.948	10652.09
490.318	10838.98
490.688	10876.49
491.058	11028.35
491.428	11208.24
491.798	11275.35
492.168	11555.35
492.538	11612.97
492.908	11698.39
493.278	11886.86
493.648	11966.63
494.017	12156.01
494.387	12244.82
494.757	12354.42
495.126	12380.63
495.496	12541.76
495.866	12653.17
496.235	12760.06
496.605	12870.11
496.974	13012.26
497.344	13094.51
497.713	13164.8
498.082	13271.91
498.452	13397.33
498.821	13504
499.19	13531.79
499.559	13733.59
499.928	13791.22
500.298	13954.15
500.667	14052.91
501.036	14011.55
501.405	14161.83
501.774	14256.74
502.143	14444.76
502.512	14492.9
502.88	14625.32
503.249	14548.49
503.618	14826.9
503.987	14903.28
504.356	15020.57
504.724	15023.73
505.093	15104.18
505.462	15219.66
505.83	15301.01
506.199	15492.87
506.567	15654.45
506.936	15680.89
507.304	15860.54
507.672	15940.09
508.041	16028.45
508.409	16203.36
508.777	16310.93
509.145	16305.96
509.514	16421.21
509.882	16539.85
510.25	16675.66
510.618	16841.99
510.986	16874.98
511.354	17080.62
511.722	17274.74
512.09	17418.02
512.458	17352.71
512.826	17567.39
513.193	17716.54
513.561	17712.47
513.929	17893.26
514.297	18009.19
514.664	18176.87
515.032	18305.9
515.4	18543.64
515.767	18571.88
516.135	18679.45
516.502	18661.15
516.869	18914.7
517.237	19067.24
517.604	18993.57
517.972	19334.12
518.339	19422.03
518.706	19432.43
519.073	19556.94
519.44	19803.94
519.808	20045.97
520.175	20069.47
520.542	20380.65
520.909	20397.15
521.276	20428.33
521.643	20596.69
522.009	20892.73
522.376	20954.87
522.743	21092.27
523.11	21405.71
523.477	21539.72
523.843	21659.26
524.21	21919.82
524.577	22071
524.943	22256.99
525.31	22255.4
525.676	22503.76
526.043	22582.17
526.409	22682.96
526.776	23108.26
527.142	23193.23
527.508	23350.06
527.874	23477.29
528.241	23642.49
528.607	23735.59
528.973	23910.95
529.339	23986.43
529.705	24207.44
530.071	24522.69
530.437	24617.38
530.803	24740.54
531.169	24966.29
531.535	24872.74
531.901	24938.04
532.267	25033.86
532.632	25380.52
532.998	25415.77
533.364	25551.36
533.73	25634.52
534.095	25891.69
534.461	26026.15
534.826	26166.49
535.192	26258.01
535.557	26412.13
535.923	26387.95
536.288	26633.14
536.653	26681.5
537.019	26642.86
537.384	26822.97
537.749	26921.5
538.114	27046.46
538.479	27101.38
538.845	27275.16
539.21	27316.29
539.575	27443.97
539.94	27572.78
540.305	27629.05
540.67	27729.84
541.034	27948.81
541.399	28074.91
541.764	28086.21
542.129	28116.04
542.494	28285.3
542.858	28358.75
543.223	28494.11
543.587	28632.64
543.952	28736.59
544.316	28690.49
544.681	28823.82
545.045	28923.25
545.41	29176.35
545.774	29198.05
546.138	29362.56
546.503	29321.88
546.867	29594.19
547.231	29782.44
547.595	29743.57
547.959	29842.32
548.324	29849.78
548.688	29958.03
549.052	30095.2
549.416	30184.91
549.779	30231.01
550.143	30360.05
550.507	30581.74
550.871	30756.42
551.235	30822.18
551.599	30986.7
551.962	30978.79
552.326	31185.11
552.689	31366.58
553.053	31306.01
553.417	31322.28
553.78	31757.07
554.143	31699.22
554.507	31862.38
554.87	31925.43
555.234	32371.3
555.597	32101.92
555.96	32309.38
556.323	32521.8
556.686	32598.86
557.05	32741.68
557.413	32860.1
557.776	33044.27
558.139	33325.39
558.502	33338.5
558.865	33415.56
559.228	33796.12
559.59	33724.93
559.953	33803.12
560.316	34219.38
560.679	34209.67
561.041	34447.63
561.404	34582.09
561.767	34732.82
562.129	34693.04
562.492	35127.38
562.854	35232.92
563.217	35188.85
563.579	35441.5
563.941	35706.12
564.304	35817.53
564.666	36054.59
565.028	36156.73
565.39	36246.67
565.753	36459.55
566.115	36680.56
566.477	36643.05
566.839	36821.12
567.201	37042.13
567.563	37045.52
567.925	37210.72
568.287	37333.65
568.648	37429.47
569.01	37781.77
569.372	38069.9
569.734	37778.84
570.095	38112.16
570.457	38374.53
570.819	38357.8
571.18	38493.62
571.542	38699.72
571.903	38777
572.265	38931.12
572.626	38877.11
572.987	39041.85
573.349	39127.5
573.71	39373.15
574.071	39345.58
574.432	39475.29
574.794	39789.86
575.155	39764.1
575.516	39687.94
575.877	39877.99
576.238	39945.79
576.599	40158.44
576.96	40127.7
577.32	40158.66
577.681	40272.56
578.042	40468.71
578.403	40460.12
578.763	40484.53
579.124	40604.75
579.485	40701.25
579.845	40814.69
580.206	40755.71
580.566	40778.08
580.927	40863.73
581.287	40904.18
581.648	40812.88
582.008	40855.59
582.368	40889.26
582.728	40945.08
583.089	41028.24
583.449	41095.36
583.809	41025.53
584.169	41246.54
584.529	41041.8
584.889	41313.21
585.249	41121.8
585.609	41123.83
585.969	41402.24
586.329	41077.06
586.688	41280.89
587.048	41304.39
587.408	41149.14
587.768	41161.8
588.127	41188.69
588.487	41172.42
588.846	41578.96
589.206	41231.85
589.565	41252.42
589.925	41449.48
590.284	41401.11
590.643	41586.19
591.003	41455.8
591.362	41642.01
591.721	41526.31
592.08	41590.49
592.44	41694.67
592.799	41693.76
593.158	41566.53
593.517	41664.38
593.876	41600.88
594.235	41635.23
594.593	41758.85
594.952	41876.36
595.311	41640.43
595.67	41713.2
596.029	41789.81
596.387	41903.02
596.746	41923.59
597.104	41794.1
597.463	41942.57
597.822	42041.32
598.18	41805.85
598.538	41879.97
598.897	42085.84
599.255	41787.09
599.613	42372.61
599.972	42059.18
600.33	42241.54
600.688	42189.57
601.046	42254.43
601.404	42401.31
601.762	42251.94
602.12	42493.52
602.478	42455.55
602.836	42465.72
603.194	42303.92
603.552	42420.75
603.91	42284.48
604.268	42608.31
604.625	42615.32
604.983	42633.85
605.341	42545.72
605.698	42864.81
606.056	42869.55
606.413	42787.97
606.771	42895.09
607.128	42938.02
607.485	42775.09
607.843	42814.41
608.2	43006.27
608.557	43142.54
608.914	43024.12
609.272	43336.66
609.629	43186.38
609.986	43492.36
610.343	43260.95
610.7	43564.67
611.057	43315.87
611.414	43409.65
611.771	43435.86
612.127	43396.77
612.484	43542.75
612.841	43820.94
613.198	43588.85
613.554	43592.7
613.911	43805.35
614.267	43772.58
614.624	43671.79
614.98	43901.61
615.337	43993.36
615.693	43951.78
616.05	43992.23
616.406	44114.26
616.762	44003.53
617.118	43928.05
617.475	44038.79
617.831	44129.18
618.187	44101.83
618.543	44173.47
618.899	44514.93
619.255	44301.83
619.611	44244.43
619.967	44506.57
620.323	44531.2
620.678	44222.74
621.034	44371.88
621.39	44395.16
621.746	44352.22
622.101	44779.33
622.457	44514.71
622.812	44608.71
623.168	44608.04
623.523	44537.98
623.879	44547.47
624.234	44493.24
624.589	44514.03
624.945	44576.17
625.3	44548.6
625.655	44500.24
626.01	44532.11
626.365	44598.77
626.72	44594.03
627.075	44463.41
627.43	44509.28
627.785	44395.16
628.14	44507.25
628.495	44488.94
628.85	44469.96
629.205	44323.98
629.559	44566.46
629.914	44344.09
630.269	44317.42
630.623	44273.13
630.978	44219.12
631.332	44546.57
631.687	44275.39
632.041	44315.84
632.396	44150.87
632.75	44055.28
633.104	44086.47
633.459	43851.45
633.813	43819.36
634.167	44024.77
634.521	43912.91
634.875	44014.83
635.229	43795.18
635.583	43408.29
635.937	43697.55
636.291	43645.58
636.645	43519.7
636.999	43475.86
637.352	43505.24
637.706	43402.64
638.06	43490.78
638.413	43341.85
638.767	43288.75
639.121	43394.28
639.474	43107.28
639.828	43198.13
640.181	43209.65
640.534	43210.78
640.888	43018.02
641.241	42783.45
641.594	42928.76
641.947	43000.85
642.301	42865.94
642.654	42921.3
643.007	43042.2
643.36	42872.94
643.713	42795.88
644.066	42906.16
644.419	42507.3
644.771	42255.1
645.124	42048.1
645.477	41876.58
645.83	41686.31
646.182	41369.7
646.535	41466.65
646.888	41564.95
647.24	41331.51
647.593	41665.29
647.945	41461
648.298	41227.56
648.65	41122.03
649.002	40952.77
649.355	41073.44
649.707	41039.54
650.059	41176.71
650.411	41732.18
650.763	41628.23
651.115	42105.96
651.467	41907.99
651.819	41919.52
652.171	41819.18
652.523	41737.15
652.875	41626.87
653.227	41573.99
653.578	41777.83
653.93	41706.19
654.282	41492.86
654.633	41386.43
654.985	41520.21
655.337	41532.86
655.688	41507.33
656.039	41486.54
656.391	41233.89
656.742	41218.75
657.094	41302.13
657.445	41432.53
657.796	41249.03
658.147	41253.55
658.498	41122.03
658.849	41184.62
659.2	41150.73
659.551	41047
659.902	41115.7
660.253	41085.19
660.604	41073.67
660.955	40855.37
661.306	41084.74
661.656	41056.49
662.007	40855.82
662.358	40904.4
662.708	40854.91
663.059	40858.08
663.409	40698.99
663.76	40754.13
664.11	40836.38
664.461	40778.98
664.811	40905.76
665.161	40840.45
665.511	40692.88
665.862	40672.77
666.212	40832.99
666.562	40953.44
666.912	40779.44
667.262	40833.9
667.612	40735.6
667.962	40732.66
668.312	40704.64
668.662	40970.84
669.011	40653.56
669.361	40674.35
669.711	40678.42
670.06	40560.91
670.41	40442.5
670.76	40424.87
671.109	40416.06
671.459	40455.6
671.808	40249.51
672.157	40554.58
672.507	40410.63
672.856	40410.86
673.205	40317.98
673.554	40337.41
673.904	40197.3
674.253	40430.52
674.602	40363.4
674.951	39772.68
675.3	39474.84
675.649	40090.19
675.998	40073.24
676.346	39923.41
676.695	40108.49
677.044	39927.26
677.393	39929.06
677.741	40158.21
678.09	39936.29
678.438	39895.17
678.787	39933.81
679.135	39934.94
679.484	39773.59
679.832	39932.45
680.181	39584.44
680.529	39782.63
680.877	39663.99
681.225	39454.05
681.573	39756.19
681.922	39486.59
682.27	39364.33
682.618	39460.6
682.966	39315.52
683.314	39325.92
683.661	39135.41
684.009	38947.62
684.357	38927.73
684.705	38896.77
685.053	38929.54
685.4	38953.72
685.748	38800.05
686.095	38671.7
686.443	38500.63
686.79	38409.1
687.138	38429.44
687.485	38583.56
687.832	38287.75
688.18	38461.53
688.527	38358.93
688.874	38154.42
689.221	37956.46
689.568	37956.91
689.915	37831.27
690.262	37984.71
690.609	37919.4
690.956	37819.29
691.303	37711.95
691.65	37588.33
691.997	37541.78
692.344	37323.48
692.69	37201.9
693.037	37307.44
693.383	36964.62
693.73	37109.48
694.077	36844.62
694.423	36957.39
694.769	36913.55
695.116	36866.32
695.462	36743.84
695.808	36601.69
696.155	36562.37
696.501	36194.47
696.847	36337.97
697.193	35903.63
697.539	36298.88
697.885	35911.77
698.231	35776.4
698.577	35872.9
698.923	35765.33
699.269	35438.11
699.614	35201.5
699.96	35252.8
700.306	35418
700.651	35328.28
700.997	35166.7
701.342	35123.54
701.688	35013.49
702.033	34826.37
702.379	34785.47
702.724	34726.94
703.069	34742.08
703.415	34326.95
703.76	34409.89
704.105	34432.03
704.45	34197.46
704.795	34037.01
705.14	33933.74
705.485	33977.58
705.83	33937.13
706.175	33876.11
706.52	33812.16
706.865	33699.4
707.209	33583.69
707.554	33528.33
707.899	33594.09
708.243	33378.05
708.588	33248.33
708.932	33196.36
709.277	33111.84
709.621	33084.5
709.966	32935.8
710.31	32948.91
710.654	32743.04
710.998	32805.86
711.342	32789.14
711.687	32706.65
712.031	32526.09
712.375	32368.58
712.719	32430.28
713.063	32503.5
713.407	32429.15
713.75	32272.99
714.094	32266.44
714.438	32166.1
714.782	32158.42
715.125	32093.34
715.469	32176.05
715.812	31916.17
716.156	31789.84
716.499	31639.56
716.843	31657.64
717.186	31534.48
717.53	31745.55
717.873	31601.37
718.216	31599.11
718.559	31392.11
718.902	31217.2
719.246	31397.54
719.589	31227.82
719.932	31153.02
720.275	31062.18
720.617	31086.81
720.96	30953.93
721.303	30934.95
721.646	30960.94
721.989	30744.67
722.331	30874.16
722.674	30741.96
723.016	30841.39
723.359	30653.37
723.701	30603.43
724.044	30450.44
724.386	30412.93
724.729	30434.17
725.071	30319.6
725.413	30289.32
725.755	30270.11
726.097	30176.1
726.439	30015.2
726.782	29998.02
727.124	30159.6
727.465	29918.93
727.807	29911.7
728.149	29779.73
728.491	29751.48
728.833	29892.04
729.175	29745.6
729.516	29611.59
729.858	29508.77
730.199	29639.84
730.541	29628.32
730.882	29409.34
731.224	29655.66
731.565	29409.57
731.906	29361.66
732.248	29297.25
732.589	29215.45
732.93	29074.89
733.271	29158.72
733.612	29102.91
733.953	29166.63
734.294	29013.64
734.635	29020.65
734.976	29025.85
735.317	28913.76
735.658	28913.08
735.999	28922.57
736.339	28804.61
736.68	28909.47
737.021	28669.02
737.361	28638.51
737.702	28800.32
738.042	28581.11
738.383	28546.31
738.723	28689.13
739.063	28519.65
739.404	28462.02
739.744	28353.32
740.084	28267.22
740.424	28466.54
740.764	28319.65
741.104	28466.31
741.444	28189.71
741.784	28089.37
742.124	28142.71
742.464	28044.4
742.804	28027.46
743.143	27932.09
743.483	28007.79
743.823	27851.87
744.162	27802.83
744.502	27859.78
744.841	27656.17
745.181	27693.68
745.52	27668.82
745.86	27607.58
746.199	27511.76
746.538	27519.9
746.877	27501.59
747.216	27464.76
747.556	27374.59
747.895	27349.05
748.234	27243.97
748.573	27173.47
748.911	27130.98
749.25	27207.36
749.589	26957.2
749.928	27126.46
750.267	27150.64
750.605	26971.66
750.944	26865.9
751.283	26762.18
751.621	26832.01
751.96	26624.78
752.298	26531.9
752.636	26691.67
752.975	26456.65
753.313	26427.27
753.651	26541.17
753.989	26340.04
754.327	26381.62
754.666	26210.1
755.004	26254.17
755.342	26226.6
755.679	26130.78
756.017	26016.21
756.355	26011.46
756.693	25901.41
757.031	25772.83
757.368	25612.6
757.706	25801.3
758.044	25638.82
758.381	25719.95
758.719	25547.75
759.056	25527.18
759.394	25372.84
759.731	25188.89
760.068	25249.9
760.405	25186.4
760.743	25106.18
761.08	24986.18
761.417	24927.42
761.754	24933.3
762.091	24992.73
762.428	24722.68
762.765	24634.55
763.102	24680.42
763.438	24618.96
763.775	24441.56
764.112	24532.18
764.449	24449.47
764.785	24234.79
765.122	24072.98
765.458	24005.64
765.795	23987.56
766.131	23928.58
766.467	23747.79
766.804	23731.52
767.14	23516.84
767.476	23657.17
767.812	23531.08
768.148	23655.14
768.485	23343.06
768.821	23277.3
769.157	23277.07
769.492	23248.15
769.828	23208.6
770.164	22926.12
770.5	22875.05
770.836	22873.47
771.171	22662.17
771.507	22770.64
771.842	22574.49
772.178	22601.84
772.513	22468.28
772.849	22384.67
773.184	22280.71
773.519	22242.07
773.855	22098.8
774.19	22077.1
774.525	21974.28
774.86	21981.74
775.195	21872.36
775.53	21855.41
775.865	21673.27
776.2	21560.05
776.535	21478.7
776.87	21354.64
777.205	21402.09
777.539	21292.94
777.874	21281.64
778.209	21123.46
778.543	21075.77
778.878	20873.74
779.212	20833.29
779.547	20760.08
779.881	20811.37
780.215	20684.37
780.55	20651.6
780.884	20500.65
781.218	20468.56
781.552	20563.02
781.886	20370.93
782.22	20272.63
782.554	20166.87
782.888	20008.23
783.222	19956.03
783.556	19887.56
783.889	19882.36
784.223	19747.9
784.557	19737.73
784.89	19625.87
785.224	19556.49
785.557	19477.4
785.891	19350.85
786.224	19355.82
786.558	19292.32
786.891	19104.98
787.224	19160.34
787.557	19156.95
787.891	19045.09
788.224	18976.17
788.557	18922.38
788.89	18829.05
789.223	18881.03
789.556	18598.32
789.888	18637.65
790.221	18483.07
790.554	18447.82
790.887	18462.51
791.219	18313.59
791.552	18401.72
791.884	18117.43
792.217	18107.49
792.549	18106.59
792.882	17990.2
793.214	17790.21
793.546	17849.64
793.879	17761.28
794.211	17636.32
794.543	17753.6
794.875	17671.34
795.207	17721.06
795.539	17584.57
795.871	17634.06
796.203	17407.17
796.535	17348.19
796.867	17250.79
797.198	17260.96
797.53	17232.48
797.862	17145.03
798.193	17102.32
798.525	17045.6
798.856	17043.34
799.188	16876.34
799.519	16846.73
799.85	16744.59
800.182	16828.43
800.513	16690.35
800.844	16597.47
801.175	16612.84
801.506	16600.64
801.837	16557.25
802.168	16520.87
802.499	16385.05
802.83	16347.76
803.161	16306.41
803.491	16328.55
803.822	16271.38
804.153	16192.29
804.483	16005.4
804.814	15929.24
805.145	15921.56
805.475	16013.76
805.805	16003.14
806.136	15946.87
806.466	15891.73
806.796	15824.84
807.126	15775.12
807.457	15710.04
807.787	15672.53
808.117	15555.24
808.447	15559.99
808.777	15477.95
809.107	15420.33
809.436	15407.45
809.766	15414.45
810.096	15269.6
810.426	15292.2
810.755	15284.29
811.085	15194.8
811.414	15124.97
811.744	15040.68
812.073	14980.57
812.403	14986.89
812.732	14878.2
813.061	14950.96
813.39	14799.78
813.719	14782.15
814.049	14961.36
814.378	14779.89
814.707	14760.46
815.036	14748.71
815.365	14609.73
815.693	14521.37
816.022	14593.91
816.351	14458.32
816.68	14442.95
817.008	14487.25
817.337	14411.77
817.665	14390.3
817.994	14305.33
818.322	14353.01
818.651	14301.71
818.979	14246.12
819.307	14318.89
819.636	14193.02
819.964	14078.67
820.292	14197.99
820.62	14044.55
820.948	14060.59
821.276	14131.32
821.604	14076.64
821.932	14158.89
822.259	14093.58
822.587	14072.34
822.915	14081.16
823.243	14100.82
823.57	14028.28
823.898	13972.01
824.225	13950.99
824.553	13981.72
824.88	13803.87
825.207	13899.24
825.535	13979.91
825.862	13993.02
826.189	13966.81
826.516	14088.61
826.843	14057.43
827.17	14036.64
827.497	14028.05
827.824	14038.9
828.151	14028.73
828.478	13954.38
828.805	14029.18
829.131	13911.44
829.458	13942.18
829.785	13867.6
830.111	13932.46
830.438	13930.2
830.764	13930.42
831.09	14008.61
831.417	13826.02
831.743	13880.03
832.069	13889.52
832.395	13781.28
832.722	13785.57
833.048	13791.22
833.374	13788.96
833.7	13791.67
834.026	13715.74
834.351	13829.18
834.677	13792.35
835.003	13740.83
835.329	13764.55
835.654	13681.17
835.98	13653.37
836.306	13705.8
836.631	13605.69
836.956	13592.81
837.282	13650.66
837.607	13620.83
837.932	13559.59
838.258	13536.31
838.583	13529.53
838.908	13485.69
839.233	13445.47
839.558	13457.89
839.883	13466.48
840.208	13336.99
840.533	13407.27
840.858	13349.2
841.182	13410.44
841.507	13367.95
841.832	13252.02
842.156	13400.72
842.481	13255.41
842.805	13229.65
843.13	13214.06
843.454	13176.32
843.778	13130.22
844.103	13174.06
844.427	13054.74
844.751	13026.95
845.075	13049.54
845.399	13065.14
845.723	12851.81
846.047	12882.77
846.371	12760.96
846.695	12783.34
847.019	12686.62
847.343	12547.64
847.666	12553.06
847.99	12504.02
848.313	12411.37
848.637	12371.82
848.96	12424.25
849.284	12306.96
849.607	12285.04
849.931	12224.71
850.254	12075.78
850.577	12026.52
850.9	11934.77
851.223	12009.57
851.546	11857.03
851.869	11827.88
852.192	11862.23
852.515	11815.45
852.838	11856.35
853.161	11770.26
853.483	11648.22
853.806	11547.66
854.129	11656.36
854.451	11609.36
854.774	11559.41
855.096	11499.08
855.419	11537.72
855.741	11503.14
856.063	11410.72
856.385	11310.15
856.708	11232.42
857.03	11233.09
857.352	11325.3
857.674	11215.69
857.996	11184.73
858.318	11065.87
858.64	11120.78
858.961	11097.05
859.283	11047.11
859.605	10944.51
859.926	10989.26
860.248	10930.73
860.57	10943.61
860.891	10977.51
861.212	10852.77
861.534	10781.81
861.855	10925.53
862.176	10894.8
862.498	10870.62
862.819	10862.48
863.14	10817.29
863.461	10711.98
863.782	10688.25
864.103	10667.46
864.424	10656.39
864.745	10725.31
865.065	10626.33
865.386	10613.68
865.707	10598.76
866.027	10583.39
866.348	10500.91
866.668	10575.71
866.989	10525.77
867.309	10487.35
867.63	10460.46
867.95	10440.57
868.27	10369.84
868.59	10437.41
868.91	10398.99
869.23	10368.71
869.55	10267.24
869.87	10360.8
870.19	10362.16
870.51	10317.64
870.83	10327.81
871.15	10206.68
871.469	10182.95
871.789	10274.7
872.109	10187.92
872.428	10207.13
872.748	10182.95
873.067	10173.01
873.386	10112.22
873.706	10140.02
874.025	10112.67
874.344	10039.23
874.663	10049.62
874.982	10034.93
875.301	10054.59
875.62	9987.25
875.939	9961.94
876.258	10015.05
876.577	9906.58
876.896	9938.21
877.214	9918.33
877.533	9893.02
877.852	9871.55
878.17	9921.26
878.489	9882.85
878.807	9823.87
879.125	9800.82
879.444	9823.41
879.762	9820.93
880.08	9785.22
880.398	9752.23
880.716	9720.59
881.034	9711.33
881.352	9700.48
881.67	9703.42
881.988	9678.56
882.306	9635.62
882.624	9605.34
882.941	9626.81
883.259	9514.27
883.577	9598.34
883.894	9546.36
884.212	9603.08
884.529	9496.42
884.846	9482.18
885.164	9441.5
885.481	9490.77
885.798	9431.11
886.115	9368.28
886.432	9376.42
886.75	9365.57
887.067	9330.77
887.383	9304.11
887.7	9327.38
888.017	9359.25
888.334	9321.28
888.651	9233.83
888.967	9208.74
889.284	9159.02
889.6	9100.95
889.917	9089.42
890.233	9084.45
890.55	9120.61
890.866	9032.7
891.182	9044.68
891.498	8937.11
891.815	8879.94
892.131	8844.91
892.447	8848.07
892.763	8822.08
893.079	8921.97
893.395	8828.41
893.71	8794.51
894.026	8727.17
894.342	8717.68
894.657	8655.08
894.973	8694.18
895.289	8615.54
895.604	8615.54
895.92	8523.79
896.235	8540.96
896.55	8537.35
896.865	8484.47
897.181	8462.32
897.496	8442.21
897.811	8400.63
898.126	8445.15
898.441	8426.61
898.756	8381.42
899.071	8286.05
899.386	8297.35
899.7	8317.69
900.015	8278.14
900.33	8206.28
900.644	8219.61
900.959	8160.86
901.273	8144.59
901.588	8124.02
901.902	8092.16
902.216	7960.64
902.531	8007.87
902.845	7917.25
903.159	7909.57
903.473	7894.2
903.787	7794.31
904.101	7775.78
904.415	7812.17
904.729	7765.62
905.042	7642.91
905.356	7717.71
905.67	7729.91
905.984	7686.3
906.297	7679.06
906.611	7627.54
906.924	7540.99
907.237	7515.68
907.551	7486.98
907.864	7493.98
908.177	7428
908.491	7479.97
908.804	7400.65
909.117	7306.19
909.43	7341.45
909.743	7270.94
910.056	7300.77
910.368	7265.74
910.681	7199.53
910.994	7203.14
911.307	7150.94
911.619	7086.31
911.932	7105.07
912.244	7090.15
912.557	7058.97
912.869	6997.05
913.181	6972.87
913.494	6987.78
913.806	6913.66
914.118	6907.78
914.43	6866.88
914.742	6813.55
915.054	6812.19
915.366	6814.23
915.678	6735.59
915.99	6759.99
916.302	6719.77
916.613	6643.61
916.925	6649.49
917.236	6663.72
917.548	6584.86
917.859	6669.37
918.171	6516.16
918.482	6522.71
918.794	6414.01
919.105	6426.44
919.416	6431.86
919.727	6377.4
920.038	6365.88
920.349	6351.41
920.66	6329.27
920.971	6267.58
921.282	6282.72
921.593	6281.36
921.903	6242.04
922.214	6187.8
922.525	6153
922.835	6138.09
923.146	6091.76
923.456	6047.69
923.767	6068.48
924.077	6033.91
924.387	5965.21
924.697	5951.2
925.008	5948.26
925.318	5941.48
925.628	5899.68
925.938	5967.24
926.248	5834.14
926.558	5821.03
926.867	5793.01
927.177	5764.99
927.487	5746.23
927.796	5726.35
928.106	5705.78
928.416	5689.96
928.725	5667.14
929.034	5619.91
929.344	5652.45
929.653	5628.04
929.962	5520.7
930.271	5540.81
930.581	5502.4
930.89	5472.12
931.199	5407.26
931.508	5435.73
931.817	5405
932.125	5336.75
932.434	5333.81
932.743	5336.53
933.051	5327.71
933.36	5278.22
933.669	5281.16
933.977	5275.96
934.286	5241.39
934.594	5193.03
934.902	5161.62
935.21	5180.37
935.519	5184.67
935.827	5120.49
936.135	5070.77
936.443	5091.34
936.751	5053.82
937.059	4969.08
937.367	4947.38
937.674	4964.33
937.982	4966.59
938.29	4934.05
938.597	5013.6
938.905	4906.71
939.213	4878.46
939.52	4884.33
939.827	4882.75
940.135	4809.53
940.442	4800.72
940.749	4797.56
941.056	4760.95
941.363	4734.96
941.67	4739.93
941.977	4733.6
942.284	4716.66
942.591	4642.31
942.898	4618.58
943.205	4675.53
943.511	4620.84
943.818	4600.73
944.125	4590.56
944.431	4583.1
944.738	4500.62
945.044	4511.01
945.35	4449.77
945.657	4473.05
945.963	4446.61
946.269	4419.49
946.575	4404.57
946.881	4401.64
947.187	4353.95
947.493	4327.97
947.799	4318.47
948.105	4285.93
948.41	4286.38
948.716	4285.48
949.022	4274.63
949.327	4236.44
949.633	4234.41
949.938	4222.88
950.244	4205.93
950.549	4174.3
950.854	4177.69
951.16	4140.85
951.465	4113.28
951.77	4132.04
952.075	4084.58
952.38	4072.83
952.685	4060.4
952.99	4029.89
953.294	4007.52
953.599	3959.61
953.904	4007.3
954.209	3937.02
954.513	3944.47
954.818	3919.84
955.122	3912.38
955.426	3876.23
955.731	3918.71
956.035	3849.79
956.339	3827.41
956.643	3875.55
956.948	3816.34
957.252	3762.78
957.556	3742.9
957.86	3760.97
958.163	3774.53
958.467	3713.52
958.771	3709.68
959.075	3692.5
959.378	3654.08
959.682	3670.58
959.985	3635.55
960.289	3590.13
960.592	3595.1
960.896	3605.5
961.199	3560.98
961.502	3567.76
961.805	3526.18
962.108	3535.9
962.411	3455.67
962.714	3523.01
963.017	3480.3
963.32	3449.8
963.623	3427.42
963.926	3446.41
964.228	3436.69
964.531	3416.8
964.833	3403.92
965.136	3361.89
965.438	3370.25
965.741	3377.48
966.043	3363.92
966.345	3309.24
966.648	3357.82
966.95	3273.08
967.252	3223.14
967.554	3246.41
967.856	3251.84
968.158	3243.7
968.46	3250.48
968.761	3217.03
969.063	3186.07
969.365	3204.61
969.666	3184.72
969.968	3160.76
970.269	3142.46
970.571	3151.73
970.872	3135.45
971.174	3095
971.475	3072.18
971.776	3078.28
972.077	3065.85
972.378	3049.81
972.679	3052.52
972.98	3022.91
973.281	3004.61
973.582	2978.62
973.883	2994.67
974.183	2972.07
974.484	2929.36
974.785	2945.4
975.085	2932.07
975.386	2913.54
975.686	2926.87
975.986	2887.55
976.287	2880.77
976.587	2824.5
976.887	2833.77
977.187	2860.66
977.487	2836.71
977.787	2799.64
978.087	2801.45
978.387	2781.34
978.687	2751.96
978.987	2775.01
979.286	2768.01
979.586	2772.53
979.885	2739.53
980.185	2720.78
980.484	2721.23
980.784	2667.67
981.083	2672.64
981.382	2679.42
981.682	2676.48
981.981	2655.47
982.28	2664.51
982.579	2603.72
982.878	2584.28
983.177	2580.67
983.475	2617.05
983.774	2590.61
984.073	2562.81
984.372	2600.55
984.67	2563.72
984.969	2564.85
985.267	2508.35
985.566	2519.2
985.864	2535.02
986.162	2483.95
986.461	2496.15
986.759	2481.69
987.057	2434.68
987.355	2481.46
987.653	2402.14
987.951	2436.49
988.249	2414.8
988.547	2411.86
988.844	2423.16
989.142	2397.39
989.44	2353.33
989.737	2356.49
990.035	2328.47
990.332	2333.67
990.63	2339.77
990.927	2334.8
991.224	2288.7
991.521	2291.41
991.819	2269.49
992.116	2298.64
992.413	2237.85
992.71	2244.18
993.006	2222.94
993.303	2216.16
993.6	2220.22
993.897	2203.73
994.193	2174.58
994.49	2197.63
994.787	2191.52
995.083	2141.81
995.379	2177.51
995.676	2143.16
995.972	2148.14
996.268	2129.15
996.565	2128.7
996.861	2125.09
997.157	2091.87
997.453	2100
997.749	2088.02
998.044	2063.39
998.34	2051.87
998.636	2061.58
998.932	2048.7
999.227	2029.49
999.523	1997.63
999.818	2027.69
1000.114	1991.08
1000.409	1964.19
1000.704	1972.55
1001	1955.82
1001.295	1957.18
1001.59	1921.7
1001.885	1968.71
1002.18	1902.04
1002.475	1928.71
1002.77	1904.3
1003.065	1893.91
1003.359	1898.42
1003.654	1881.48
1003.949	1887.35
1004.243	1851.42
1004.538	1862.27
1004.832	1835.83
1005.127	1841.7
1005.421	1800.57
1005.715	1801.48
1006.009	1821.82
1006.304	1782.5
1006.598	1810.74
1006.892	1761.48
1007.186	1748.37
1007.48	1706.79
1007.773	1712.89
1008.067	1716.51
1008.361	1705.21
1008.655	1728.49
1008.948	1722.38
1009.242	1715.15
1009.535	1659.79
1009.829	1683.74
1010.122	1650.52
1010.415	1654.14
1010.708	1637.64
1011.001	1621.6
1011.295	1637.64
1011.588	1598.09
1011.881	1584.99
1012.173	1583.4
1012.466	1614.14
1012.759	1601.03
1013.052	1597.64
1013.344	1575.95
1013.637	1551.54
1013.93	1535.04
1014.222	1533.01
1014.514	1507.7
1014.807	1520.81
1015.099	1488.27
1015.391	1489.4
1015.683	1488.94
1015.976	1474.03
1016.268	1444.88
1016.56	1478.1
1016.851	1460.7
1017.143	1442.84
1017.435	1453.69
1017.727	1409.62
1018.018	1417.76
1018.31	1413.92
1018.602	1386.8
1018.893	1382.05
1019.185	1375.27
1019.476	1358.1
1019.767	1390.64
1020.058	1359.91
1020.35	1348.16
1020.641	1351.09
1020.932	1304.54
1021.223	1323.75
1021.514	1300.02
1021.804	1288.5
1022.095	1319.23
1022.386	1299.34
1022.677	1256.86
1022.967	1272
1023.258	1287.14
1023.548	1244.66
1023.839	1281.49
1024.129	1227.71
1024.419	1207.6
1024.709	1220.02
1025	1217.09
1025.29	1220.02
1025.58	1208.05
1025.87	1196.3
1026.16	1205.11
1026.449	1193.36
1026.739	1195.62
1027.029	1170.99
1027.319	1154.72
1027.608	1140.03
1027.898	1139.12
1028.187	1163.3
1028.477	1109.74
1028.766	1115.85
1029.055	1139.57
1029.344	1109.97
1029.634	1103.42
1029.923	1096.19
1030.212	1090.76
1030.501	1088.28
1030.79	1078.11
1031.078	1063.19
1031.367	1062.97
1031.656	1054.83
1031.945	1027.71
1032.233	1048.28
1032.522	1035.17
1032.81	1034.49
1033.099	1006.92
1033.387	1026.81
1033.675	991.1
1033.963	999.47
1034.251	981.61
1034.54	969.64
1034.828	992.23
1035.116	965.79
1035.403	963.99
1035.691	970.77
1035.979	962.63
1036.267	947.49
1036.554	934.61
1036.842	928.73
1037.129	929.86
1037.417	924.44
1037.704	922.63
1037.992	909.75
1038.279	914.72
1038.566	910.65
1038.853	910.65
1039.14	910.65
