Data from plate_porcelain_FLMS001491_093.txt Node
Date: Tue Feb 07 11:20:13 GMT 2017
User: dcchb
Spectrometer: FLMS00149
Trigger mode: 0
Integration Time (sec): 2.000000E-2
Scans to average: 10
Electric dark correction enabled: true
Nonlinearity correction enabled: false
Boxcar width: 0
XAxis mode: Wavelengths
Number of Pixels in Spectrum: 2048
>>>>>Begin Spectral Data<<<<<
341.393	-11.48
341.776	-11.48
342.16	-11.48
342.543	-43.12
342.927	-65.94
343.31	-62.1
343.693	-70.24
344.077	-63.23
344.46	-69.11
344.843	-41.76
345.226	-42.67
345.61	-18.04
345.993	-20.97
346.376	-9.45
346.759	22.64
347.142	15.86
347.525	41.17
347.908	62.19
348.291	71.68
348.674	84.11
349.057	99.93
349.44	122.3
349.823	136.76
350.206	169.76
350.588	245.01
350.971	256.76
351.354	271.45
351.737	267.83
352.119	264.44
352.502	289.3
352.884	313.93
353.267	333.14
353.65	332.46
354.032	347.15
354.414	353.93
354.797	357.77
355.179	379.69
355.562	383.99
355.944	362.52
356.326	368.62
356.709	369.52
357.091	376.98
357.473	385.34
357.855	396.42
358.238	420.6
358.62	416.08
359.002	391.67
359.384	395.29
359.766	396.42
360.148	395.74
360.53	402.74
360.912	389.41
361.294	417.21
361.676	386.47
362.057	391.67
362.439	387.6
362.821	398.68
363.203	401.84
363.584	388.73
363.966	374.5
364.348	407.94
364.729	400.26
365.111	416.3
365.493	390.54
365.874	404.1
366.256	399.81
366.637	383.99
367.019	391.44
367.4	409.75
367.781	396.42
368.163	397.55
368.544	405.91
368.925	405.68
369.306	408.39
369.688	422.86
370.069	400.48
370.45	426.25
370.831	406.13
371.212	428.96
371.593	435.51
371.974	441.84
372.355	434.61
372.736	433.25
373.117	436.42
373.498	443.19
373.879	430.09
374.26	405.68
374.641	416.53
375.021	432.8
375.402	439.8
375.783	439.35
376.163	468.5
376.544	468.5
376.925	464.89
377.305	457.66
377.686	456.53
378.066	474.38
378.447	482.52
378.827	491.1
379.208	465.11
379.588	510.31
379.968	502.85
380.349	487.71
380.729	490.65
381.109	522.06
381.489	538.33
381.87	506.7
382.25	525.68
382.63	521.16
383.01	540.59
383.39	528.39
383.77	544.43
384.15	547.6
384.53	574.04
384.91	546.24
385.29	566.13
385.67	566.81
386.049	590.08
386.429	583.98
386.809	571.33
387.189	598.67
387.568	599.12
387.948	623.98
388.328	595.28
388.707	605.22
389.087	618.56
389.466	636.18
389.846	634.6
390.225	642.06
390.605	673.02
390.984	656.75
391.363	681.61
391.743	677.54
392.122	678.22
392.501	698.56
392.881	706.46
393.26	708.72
393.639	727.25
394.018	728.61
394.397	728.16
394.776	740.14
395.155	766.12
395.534	765.67
395.913	759.12
396.292	786.69
396.671	760.02
397.05	786.69
397.429	786.91
397.808	810.19
398.186	805.9
398.565	827.14
398.944	837.31
399.323	844.31
399.701	833.69
400.08	841.15
400.458	849.06
400.837	881.15
401.215	908.04
401.594	902.39
401.972	915.5
402.351	911.66
402.729	908.95
403.107	945.78
403.486	945.55
403.864	964.54
404.242	945.1
404.62	963.41
404.999	995.04
405.377	1001.15
405.755	1021.71
406.133	1028.26
406.511	1041.6
406.889	1056.74
407.267	1068.49
407.645	1106
408.023	1113.01
408.401	1119.33
408.779	1122.5
409.156	1146.68
409.534	1124.98
409.912	1184.19
410.29	1195.94
410.667	1186.45
411.045	1218.77
411.422	1266.45
411.8	1280.01
412.178	1294.02
412.555	1301.03
412.933	1294.7
413.31	1329.5
413.687	1339.67
414.065	1357.29
414.442	1417.63
414.819	1416.73
415.197	1397.75
415.574	1417.41
415.951	1470.06
416.328	1489.04
416.705	1487.69
417.082	1482.72
417.46	1503.05
417.837	1542.37
418.214	1545.54
418.591	1541.7
418.967	1570.62
419.344	1601.58
419.721	1623.95
420.098	1609.04
420.475	1640.45
420.852	1663.5
421.228	1669.38
421.605	1694.69
421.982	1705.99
422.358	1717.29
422.735	1751.86
423.111	1783.72
423.488	1779.2
423.864	1784.18
424.241	1850.84
424.617	1836.38
424.994	1861.91
425.37	1915.92
425.746	1898.3
426.123	1934.91
426.499	1955.25
426.875	2000.67
427.251	2048.12
427.627	2072.3
428.003	2078.18
428.379	2119.76
428.756	2165.86
429.132	2166.09
429.507	2215.8
429.883	2242.24
430.259	2236.37
430.635	2253.99
431.011	2327.44
431.387	2384.16
431.763	2403.59
432.138	2392.07
432.514	2445.4
432.89	2505.97
433.265	2494.44
433.641	2588
434.016	2583.48
434.392	2652.85
434.767	2686.53
435.143	2686.3
435.518	2674.1
435.894	2720.42
436.269	2787.09
436.644	2799.29
437.02	2853.3
437.395	2881.55
437.77	2934.88
438.145	2999.74
438.52	2957.93
438.895	3058.27
439.271	3049.68
439.646	3111.37
440.021	3150.69
440.395	3150.24
440.77	3153.18
441.145	3198.83
441.52	3228.66
441.895	3284.25
442.27	3301.42
442.645	3243.12
443.019	3318.37
443.394	3335.77
443.769	3422.78
444.143	3366.28
444.518	3397.02
444.892	3406.05
445.267	3501.87
445.641	3534.86
446.016	3515.43
446.39	3559.72
446.764	3619.38
447.139	3568.31
447.513	3639.95
447.887	3649.44
448.262	3683.79
448.636	3695.09
449.01	3777.8
449.384	3787.74
449.758	3830.22
450.132	3871.13
450.506	3872.03
450.88	3900.05
451.254	3961.75
451.628	4032.03
452.002	4098.69
452.376	4103.44
452.75	4127.17
453.123	4182.98
453.497	4284.68
453.871	4267.95
454.244	4322.64
454.618	4418.46
454.992	4426.59
455.365	4436.08
455.739	4581.39
456.112	4648.28
456.486	4655.06
456.859	4771.89
457.232	4819.35
457.606	4831.55
457.979	4891.21
458.352	5009.85
458.725	5057.76
459.099	5077.2
459.472	5161.71
459.845	5229.74
460.218	5295.5
460.591	5342.05
460.964	5386.34
461.337	5532.33
461.71	5605.77
462.083	5690.97
462.456	5676.73
462.829	5718.76
463.201	5832.21
463.574	5838.08
463.947	5947.68
464.32	6053.89
464.692	6168.69
465.065	6210.27
465.438	6298.86
465.81	6338.63
466.183	6473.54
466.555	6642.81
466.928	6635.12
467.3	6674.44
467.672	6737.94
468.045	6900.43
468.417	6977.03
468.789	7023.59
469.161	7120.99
469.534	7231.04
469.906	7423.35
470.278	7446.63
470.65	7591.03
471.022	7728.2
471.394	7868.99
471.766	7962.77
472.138	8069.66
472.51	8169.09
472.882	8312.82
473.253	8406.6
473.625	8579.25
473.997	8749.19
474.369	8850.21
474.74	8903.31
475.112	9031.67
475.484	9194.6
475.855	9445.9
476.227	9546.46
476.598	9757.3
476.97	9833.91
477.341	10117.74
477.713	10227.57
478.084	10249.49
478.455	10581.23
478.827	10653.55
479.198	10936.48
479.569	10938.74
479.94	11265.96
480.311	11384.83
480.682	11747.98
481.053	11981.87
481.424	12177.58
481.795	12298.7
482.166	12447.4
482.537	12596.55
482.908	12914.05
483.279	13047.83
483.65	13288.73
484.021	13537.09
484.391	13762.84
484.762	13924.2
485.133	13917.19
485.503	14276.73
485.874	14581.13
486.244	14643.95
486.615	14946.32
486.985	15163.26
487.356	15544.94
487.726	15591.95
488.097	15826.52
488.467	15971.6
488.837	16368.65
489.207	16548.76
489.578	16747.62
489.948	16852.25
490.318	17154.39
490.688	17328.4
491.058	17479.13
491.428	17792.34
491.798	17888.61
492.168	18286.79
492.538	18401.37
492.908	18597.97
493.278	18918.41
493.648	18918.87
494.017	19167.67
494.387	19345.52
494.757	19525.63
495.126	19844.94
495.496	19749.81
495.866	20027.31
496.235	20307.08
496.605	20436.57
496.974	20601.31
497.344	20807.18
497.713	20992.48
498.082	21161.52
498.452	21363.1
498.821	21464.79
499.19	21509.08
499.559	21721.28
499.928	21896.19
500.298	22041.04
500.667	22303.41
501.036	22144.32
501.405	22505.89
501.774	22657.07
502.143	22826.33
502.512	22892.55
502.88	23252.09
503.249	23288.7
503.618	23412.08
503.987	23579.08
504.356	23781.34
504.724	23751.96
505.093	24005.29
505.462	24087.77
505.83	24250.7
506.199	24484.6
506.567	24754.65
506.936	24732.5
507.304	25135.65
507.672	25227.63
508.041	25369.09
508.409	25581.29
508.777	25773.38
509.145	26050.43
509.514	26104.89
509.882	26159.58
510.25	26338.78
510.618	26597.08
510.986	26720.47
511.354	27021.25
511.722	27193.23
512.09	27413.78
512.458	27417.17
512.826	27661.69
513.193	27881.34
513.561	27989.81
513.929	28397.26
514.297	28588.44
514.664	28733.07
515.032	28878.83
515.4	29177.35
515.767	29332.83
516.135	29492.83
516.502	29320.85
516.869	29940.27
517.237	30056.88
517.604	30126.03
517.972	30480.82
518.339	30724.66
518.706	30805.56
519.073	30990.87
519.44	31164.87
519.808	31684.63
520.175	31541.81
520.542	32029.03
520.909	32241.23
521.276	32311.28
521.643	32553.31
522.009	32860.42
522.376	33073.75
522.743	33289.79
523.11	33692.49
523.477	33916.44
523.843	34108.98
524.21	34435.97
524.577	34803.87
524.943	34882.29
525.31	35116.86
525.676	35527.47
526.043	35767.69
526.409	35921.13
526.776	36244.74
527.142	36396.6
527.508	36716.82
527.874	36848.79
528.241	37240.65
528.607	37159.29
528.973	37761.99
529.339	37634.99
529.705	38111.13
530.071	38258.92
530.437	38468.18
530.803	38872.47
531.169	39036.3
531.535	38921.28
531.901	39064.1
532.267	39480.13
532.632	39599.68
532.998	39882.38
533.364	40104.52
533.73	40250.74
534.095	40652.98
534.461	40667.22
534.826	40941.79
535.192	41032.41
535.557	41355.57
535.923	41348.33
536.288	41483.02
536.653	41690.7
537.019	41730.24
537.384	41791.26
537.749	42079.84
538.114	42103.57
538.479	42336.33
538.845	42573.16
539.21	42482.09
539.575	42707.85
539.94	42842.76
540.305	43141.05
540.67	43146.03
541.034	43373.14
541.399	43609.07
541.764	43703.07
542.129	43701.49
542.494	43898.55
542.858	44113.23
543.223	44028.94
543.587	44335.15
543.952	44442.49
544.316	44550.28
544.681	44670.73
545.045	44948.01
545.41	45000.44
545.774	45202.92
546.138	45127.9
546.503	45406.76
546.867	45371.28
547.231	45741.44
547.595	45707.77
547.959	45913.64
548.324	46070.7
548.688	46190.24
549.052	46244.93
549.416	46432.04
549.779	46565.37
550.143	46675.2
550.507	46914.29
550.871	47075.64
551.235	47008.75
551.599	47352.47
551.962	47434.95
552.326	47602.18
552.689	47660.48
553.053	47605.34
553.417	47850.54
553.78	48255.72
554.143	48243.75
554.507	48412.33
554.87	48542.27
555.234	48892.99
555.597	48773
555.96	48950.17
556.323	49112.2
556.686	49234.23
557.05	49546.31
557.413	49553.32
557.776	49600.09
558.139	49967.54
558.502	50000.08
558.865	50146.52
559.228	50357.14
559.59	50443.69
559.953	50424.93
560.316	50840.29
560.679	50954.86
561.041	51137.23
561.404	51231.01
561.767	51457.22
562.129	51364.79
562.492	51781.28
562.854	51700.38
563.217	51825.35
563.579	51971.11
563.941	52238.89
564.304	52345.78
564.666	52497.87
565.028	52607.47
565.39	52678.43
565.753	52874.81
566.115	52909.84
566.477	53155.48
566.839	53180.56
567.201	53369.49
567.563	53371.07
567.925	53642.93
568.287	53663.26
568.648	53759.98
569.01	53936.7
569.372	54057.15
569.734	53992.97
570.095	54262.34
570.457	54318.84
570.819	54310.03
571.18	54393.19
571.542	54577.14
571.903	54646.97
572.265	54792.5
572.626	54822.78
572.987	54884.7
573.349	54952.27
573.71	55124.92
574.071	55157.91
574.432	55192.04
574.794	55452.82
575.155	55345.48
575.516	55338.25
575.877	55429.09
576.238	55544.34
576.599	55699.14
576.96	55648.75
577.32	55597.45
577.681	55781.4
578.042	55865.01
578.403	55933.03
578.763	55884.9
579.124	55947.72
579.485	56065.69
579.845	56124.89
580.206	56076.08
580.566	56091
580.927	56186.14
581.287	56282.63
581.648	56156.53
582.008	56305.68
582.368	56237.43
582.728	56284.44
583.089	56243.08
583.449	56255.06
583.809	56269.98
584.169	56357.88
584.529	56301.61
584.889	56485.34
585.249	56221.61
585.609	56305.45
585.969	56382.97
586.329	56349.07
586.688	56335.28
587.048	56342.06
587.408	56404.66
587.768	56367.37
588.127	56336.64
588.487	56222.74
588.846	56506.35
589.206	56369.63
589.565	56358.79
589.925	56505.9
590.284	56408.5
590.643	56506.13
591.003	56497.77
591.362	56553.13
591.721	56515.17
592.08	56472.23
592.44	56588.84
592.799	56616.63
593.158	56621.15
593.517	56592.68
593.876	56581.83
594.235	56521.49
594.593	56597.42
594.952	56664.54
595.311	56587.93
595.67	56617.31
596.029	56726.69
596.387	56730.08
596.746	56770.75
597.104	56740.7
597.463	56692.79
597.822	56877.19
598.18	56698.66
598.538	56680.13
598.897	56954.48
599.255	56629.97
599.613	57050.29
599.972	56833.12
600.33	56958.09
600.688	56893.24
601.046	56966.91
601.404	57073.12
601.762	56977.08
602.12	57125.09
602.478	57089.84
602.836	57142.49
603.194	56968.49
603.552	57004.65
603.91	56919
604.268	57187.47
604.625	57101.14
604.983	57205.77
605.341	57055.94
605.698	57212.32
606.056	57288.48
606.413	57189.95
606.771	57316.95
607.128	57366.67
607.485	57284.41
607.843	57293.68
608.2	57442.15
608.557	57577.06
608.914	57394.24
609.272	57549.04
609.629	57622.71
609.986	57667.23
610.343	57500.9
610.7	57773.44
611.057	57686.44
611.414	57700.9
611.771	57699.99
612.127	57767.34
612.484	57843.27
612.841	57795.81
613.198	57825.41
613.554	57832.65
613.911	57964.62
614.267	57913.77
614.624	57869.03
614.98	57928.91
615.337	58097.95
615.693	58038.52
616.05	57946.09
616.406	58091.4
616.762	58025.41
617.118	58051.62
617.475	58057.72
617.831	58172.52
618.187	58131.17
618.543	58150.15
618.899	58289.81
619.255	58231.51
619.611	58247.78
619.967	58308.11
620.323	58441.9
620.678	58290.94
621.034	58231.96
621.39	58247.32
621.746	58192.64
622.101	58477.83
622.457	58190.38
622.812	58270.6
623.168	58377.49
623.523	58364.16
623.879	58386.76
624.234	58259.98
624.589	58347.89
624.945	58360.77
625.3	58384.27
625.655	58347.21
626.01	58351.05
626.365	58392.86
626.72	58369.81
627.075	58281.45
627.43	58346.08
627.785	58231.51
628.14	58199.42
628.495	58279.41
628.85	58221.56
629.205	58126.65
629.559	58267.21
629.914	58161.22
630.269	58233.54
630.623	58115.8
630.978	58143.15
631.332	58193.54
631.687	58207.33
632.041	58138.63
632.396	58183.82
632.75	58024.96
633.104	57982.7
633.459	57963.94
633.813	57919.65
634.167	57960.55
634.521	57958.74
634.875	58030.61
635.229	57855.92
635.583	57740.45
635.937	57752.42
636.291	57739.32
636.645	57752.65
636.999	57622.48
637.352	57747.68
637.706	57599.21
638.06	57761.91
638.413	57592.2
638.767	57558.75
639.121	57569.38
639.474	57407.57
639.828	57496.38
640.181	57474.01
640.534	57431.07
640.888	57360.34
641.241	57227.69
641.594	57220.23
641.947	57371.64
642.301	57220.46
642.654	57305.88
643.007	57228.59
643.36	57213.91
643.713	57129.61
644.066	57239.67
644.419	57085.1
644.771	56910.41
645.124	56695.27
645.477	56592.23
645.83	56412.8
646.182	56341.61
646.535	56190.88
646.888	56274.72
647.24	56179.13
647.593	56309.07
647.945	56135.52
648.298	56010.32
648.65	55975.07
649.002	55951.11
649.355	56071.56
649.707	55978.23
650.059	56113.82
650.411	56428.62
650.763	56412.34
651.115	56603.98
651.467	56526.47
651.819	56476.07
652.171	56497.54
652.523	56377.32
652.875	56405.11
653.227	56220.71
653.578	56469.07
653.93	56388.39
654.282	56230.43
654.633	56200.82
654.985	56257.77
655.337	56134.84
655.688	56210.99
656.039	56299.8
656.391	56040.6
656.742	56145.46
657.094	56147.49
657.445	56201.05
657.796	56170.77
658.147	56055.97
658.498	56023.65
658.849	56115.4
659.2	56116.31
659.551	55981.85
659.902	56100.49
660.253	55991.34
660.604	56050.55
660.955	55903.88
661.306	55991.79
661.656	55912.7
662.007	55935.07
662.358	55895.3
662.708	55937.55
663.059	55840.16
663.409	55686.94
663.76	55858.91
664.11	55850.55
664.461	55835.41
664.811	55817.78
665.161	55801.96
665.511	55784.79
665.862	55733.49
666.212	55864.56
666.562	55794.51
666.912	55768.75
667.262	55724.45
667.612	55742.76
667.962	55746.6
668.312	55679.03
668.662	55820.95
669.011	55702.53
669.361	55732.81
669.711	55602.65
670.06	55626.83
670.41	55580.5
670.76	55552.03
671.109	55586.38
671.459	55623.89
671.808	55536.21
672.157	55611.01
672.507	55367.17
672.856	55405.37
673.205	55432.71
673.554	55569.43
673.904	55390.45
674.253	55580.73
674.602	55388.87
674.951	55075.2
675.3	54897.81
675.649	55303.9
675.998	55231.81
676.346	55237.46
676.695	55336.67
677.044	55121.3
677.393	55325.14
677.741	55268.42
678.09	55171.93
678.438	55161.08
678.787	55209.66
679.135	55206.27
679.484	55058.93
679.832	55061.42
680.181	54874.08
680.529	55006.28
680.877	54933.06
681.225	54893.74
681.573	55055.32
681.922	54880.18
682.27	54750.92
682.618	54726.96
682.966	54647.65
683.314	54642.67
683.661	54566.07
684.009	54432.74
684.357	54360.87
684.705	54427.76
685.053	54415.79
685.4	54368.33
685.748	54196.58
686.095	54169.47
686.443	54021.67
686.79	53988.23
687.138	54046.08
687.485	54004.5
687.832	53816.93
688.18	53927.44
688.527	53813.77
688.874	53728.12
689.221	53616.49
689.568	53565.19
689.915	53523.61
690.262	53576.71
690.609	53399.54
690.956	53330.84
691.303	53216.72
691.65	53188.47
691.997	53145.54
692.344	52975.82
692.69	52971.08
693.037	53098.99
693.383	52727.92
693.73	52904.41
694.077	52637.75
694.423	52510.3
694.769	52499
695.116	52499.45
695.462	52376.07
695.808	52308.05
696.155	52321.38
696.501	52075.28
696.847	52158.67
697.193	51816.98
697.539	51968.17
697.885	51811.11
698.231	51609.31
698.577	51671.23
698.923	51635.07
699.269	51517.78
699.614	51192.82
699.96	51188.3
700.306	51176.55
700.651	51200.05
700.997	50995.54
701.342	50850
701.688	50915.54
702.033	50690.01
702.379	50698.82
702.724	50507.64
703.069	50570.01
703.415	50191.04
703.76	50316.46
704.105	50104.71
704.45	50092.06
704.795	49941.78
705.14	49786.3
705.485	49817.04
705.83	49651.84
706.175	49771.39
706.52	49568.23
706.865	49492.75
707.209	49529.81
707.554	49353.55
707.899	49418.4
708.243	49129.15
708.588	49126.66
708.932	48840.57
709.277	48813
709.621	48867.46
709.966	48562.16
710.31	48742.49
710.654	48261.15
710.998	48442.84
711.342	48414.14
711.687	48261.15
712.031	48058.89
712.375	47976.63
712.719	48027.48
713.063	47850.76
713.407	47990.87
713.75	47734.38
714.094	47744.55
714.438	47503.43
714.782	47656.87
715.125	47326.26
715.469	47582.29
715.812	47325.13
716.156	47061.4
716.499	46962.65
716.843	47015.98
717.186	46801.75
717.53	47037.9
717.873	46917.23
718.216	46930.11
718.559	46750.45
718.902	46706.38
719.246	46653.28
719.589	46466.39
719.932	46368.99
720.275	46406.51
720.617	46314.53
720.96	46221.88
721.303	46121.54
721.646	46219.84
721.989	45851.27
722.331	46056.91
722.674	45982.34
723.016	45888.33
723.359	45889.46
723.701	45813.08
724.044	45462.8
724.386	45366.99
724.729	45430.03
725.071	45379.41
725.413	45294.9
725.755	45268.46
726.097	45117.95
726.439	44869.6
726.782	45093.32
727.124	45109.14
727.465	44881.35
727.807	44723.84
728.149	44598.19
728.491	44636.83
728.833	44679.77
729.175	44708.25
729.516	44478.42
729.858	44367.69
730.199	44448.37
730.541	44266.9
730.882	44237.75
731.224	44417.63
731.565	44122.95
731.906	44015.61
732.248	44158.66
732.589	43852.67
732.93	43830.98
733.271	43805.67
733.612	43873.47
733.953	43815.39
734.294	43561.16
734.635	43504.21
734.976	43605.22
735.317	43268.28
735.658	43336.98
735.999	43281.16
736.339	43148.51
736.68	43241.17
737.021	43129.08
737.361	42914.39
737.702	43159.59
738.042	42898.35
738.383	42825.36
738.723	42870.78
739.063	42751.23
739.404	42777.9
739.744	42653.38
740.084	42421.07
740.424	42567.28
740.764	42486.61
741.104	42392.15
741.444	42236.9
741.784	41995.32
742.124	42067.64
742.464	42140.4
742.804	41956
743.143	42040.97
743.483	41965.04
743.823	41752.16
744.162	41724.59
744.502	41510.59
744.841	41570.02
745.181	41771.37
745.52	41619.96
745.86	41554.66
746.199	41454.32
746.538	41307.2
746.877	41392.85
747.216	41354.89
747.556	41081.67
747.895	41123.48
748.234	41055.69
748.573	40961.68
748.911	40687.79
749.25	40798.97
749.589	40671.97
749.928	40704.73
750.267	40658.41
750.605	40510.62
750.944	40342.48
751.283	40288.25
751.621	40373.67
751.96	40111.76
752.298	40144.52
752.636	40139.78
752.975	39918.54
753.313	39873.34
753.651	39640.36
753.989	39609.85
754.327	39481.94
754.666	39338.22
755.004	39445.78
755.342	39471.09
755.679	39369.4
756.017	39196.07
756.355	39278.11
756.693	38946.81
757.031	39070.65
757.368	38767.61
757.706	38612.81
758.044	38597.9
758.381	38648.29
758.719	38333.5
759.056	38560.38
759.394	38229.32
759.731	38129.66
760.068	38034.07
760.405	37772.83
760.743	37687.64
761.08	37738.26
761.417	37630.24
761.754	37434.09
762.091	37461.88
762.428	37314.77
762.765	37049.01
763.102	37285.39
763.438	37059.18
763.775	36905.74
764.112	36814.89
764.449	36794.78
764.785	36386.66
765.122	36335.81
765.458	36195.25
765.795	36116.61
766.131	36127
766.467	36063.27
766.804	35790.74
767.14	35614.47
767.476	35690.63
767.812	35287.7
768.148	35534.02
768.485	35216.97
768.821	35039.8
769.157	35119.57
769.492	35061.95
769.828	34877.32
770.164	34558.23
770.5	34601.39
770.836	34563.43
771.171	34273.94
771.507	34236.43
771.842	33924.12
772.178	34119.6
772.513	33981.52
772.849	33793.73
773.184	33667.63
773.519	33667.41
773.855	33499.73
774.19	33242.11
774.525	33172.05
774.86	33015.9
775.195	33014.32
775.53	32929.8
775.865	32707.88
776.2	32647.09
776.535	32304.28
776.87	32514.89
777.205	32233.55
777.539	32198.07
777.874	32194.9
778.209	31842.59
778.543	31732.54
778.878	31672.66
779.212	31715.14
779.547	31414.58
779.881	31417.52
780.215	31226.57
780.55	31357.86
780.884	31084.87
781.218	31035.38
781.552	30966.23
781.886	30810.53
782.22	30571.22
782.554	30486.92
782.888	30211.68
783.222	30142.75
783.556	30019.37
783.889	30076.54
784.223	29831.57
784.557	29819.37
784.89	29762.88
785.224	29563.11
785.557	29323.57
785.891	29375.09
786.224	29290.8
786.558	29248.09
786.891	28929.23
787.224	28857.36
787.557	28758.16
787.891	28718.61
788.224	28734.2
788.557	28617.14
788.89	28507.09
789.223	28532.17
789.556	28278.17
789.888	28245.85
790.221	28108.23
790.554	27862.81
790.887	27762.7
791.219	27691.52
791.552	27576.04
791.884	27491.07
792.217	27441.13
792.549	27361.58
792.882	27102.15
793.214	27102.15
793.546	27102.83
793.879	26845.89
794.211	26710.53
794.543	26711.66
794.875	26630.75
795.207	26740.13
795.539	26591.66
795.871	26578.78
796.203	26246.58
796.535	26250.2
796.867	26261.05
797.198	26100.15
797.53	25922.98
797.862	25808.63
798.193	25982.64
798.525	25823.09
798.856	25826.93
799.188	25399.6
799.519	25427.62
799.85	25289.55
800.182	25387.17
800.513	25317.79
800.844	25039.16
801.175	25203.45
801.506	25166.61
801.837	24973.17
802.168	24923.23
802.499	24894.08
802.83	24716.91
803.161	24663.35
803.491	24544.93
803.822	24641.43
804.153	24431.04
804.483	24275.56
804.814	24186.98
805.145	24209.12
805.475	24167.09
805.805	23930.71
806.136	24031.27
806.466	24086.19
806.796	23921.22
807.126	23693.43
807.457	23714
807.787	23678.97
808.117	23671.28
808.447	23342.93
808.777	23512.87
809.107	23453.89
809.436	23341.35
809.766	23315.14
810.096	23230.62
810.426	23118.98
810.755	23085.76
811.085	23014.58
811.414	22930.06
811.744	22916.95
812.073	22883.73
812.403	22650.29
812.732	22562.16
813.061	22576.62
813.39	22368.49
813.719	22474.03
814.049	22602.84
814.378	22410.98
814.707	22203.53
815.036	22233.13
815.365	22163.53
815.693	22037.43
816.022	21963.98
816.351	21913.14
816.68	21814.84
817.008	21885.79
817.337	21705.69
817.665	21777.1
817.994	21667.5
818.322	21671.79
818.651	21544.33
818.979	21380.5
819.307	21587.5
819.636	21464.34
819.964	21335.53
820.292	21460.04
820.62	21303.66
820.948	21270.9
821.276	21345.02
821.604	21290.78
821.932	21301.86
822.259	21386.6
822.587	21266.15
822.915	21273.83
823.243	21282.87
823.57	21102.76
823.898	21121.97
824.225	21077.91
824.553	21125.81
824.88	21111.13
825.207	21148.86
825.535	21080.62
825.862	21138.92
826.189	21093.27
826.516	21277
826.843	21272.7
827.17	21255.75
827.497	21248.75
827.824	21182.99
828.151	21279.03
828.478	21234.51
828.805	21183.44
829.131	21061.86
829.458	21128.53
829.785	21100.73
830.111	21138.02
830.438	21161.29
830.764	21082.2
831.09	21104.12
831.417	20958.36
831.743	21041.3
832.069	20952.71
832.395	20962.66
832.722	20920.17
833.048	20902.77
833.374	20935.99
833.7	20838.14
834.026	20918.81
834.351	20853.51
834.677	20853.96
835.003	20942.09
835.329	20849.89
835.654	20852.6
835.98	20648.09
836.306	20720.63
836.631	20671.36
836.956	20644.92
837.282	20767.18
837.607	20615.32
837.932	20570.35
838.258	20657.13
838.583	20547.3
838.908	20392.05
839.233	20489.9
839.558	20375.33
839.883	20343.46
840.208	20246.97
840.533	20330.81
840.858	20273.63
841.182	20269.11
841.507	20157.48
841.832	20160.42
842.156	20086.97
842.481	20036.58
842.805	19954.32
843.13	20017.37
843.454	19943.92
843.778	19708.45
844.103	19768.11
844.427	19734.66
844.751	19774.44
845.075	19724.72
845.399	19540.55
845.723	19539.19
846.047	19514.33
846.371	19312.98
846.695	19330.83
847.019	19128.35
847.343	19012.2
847.666	18903.27
847.99	18905.08
848.313	18884.52
848.637	18802.03
848.96	18652.89
849.284	18674.81
849.607	18536.28
849.931	18497.64
850.254	18451.08
850.577	18380.58
850.9	18219.68
851.223	18205.44
851.546	18133.8
851.869	18047.03
852.192	18085.44
852.515	17952.34
852.838	17810.87
853.161	17884.54
853.483	17756.19
853.806	17639.8
854.129	17666.92
854.451	17468.28
854.774	17418.34
855.096	17412.01
855.419	17301.06
855.741	17232.13
856.063	17232.13
856.385	17137.22
856.708	17124.56
857.03	16980.16
857.352	17077.56
857.674	17032.59
857.996	16880.95
858.318	16725.25
858.64	16833.05
858.961	16683.45
859.283	16624.46
859.605	16532.72
859.926	16725.7
860.248	16590.11
860.57	16568.65
860.891	16455.43
861.212	16308.09
861.534	16366.17
861.855	16405.94
862.176	16368.43
862.498	16402.32
862.819	16266.73
863.14	16209.33
863.461	16117.81
863.782	16170.01
864.103	16198.26
864.424	16150.58
864.745	16095.66
865.065	16093.4
865.386	15974.09
865.707	15912.17
866.027	16012.28
866.348	15971.15
866.668	16021.54
866.989	15899.51
867.309	15770.93
867.63	15775.22
867.95	15748.78
868.27	15670.59
868.59	15745.17
868.91	15673.08
869.23	15589.01
869.55	15664.72
869.87	15746.97
870.19	15591.95
870.51	15614.32
870.83	15663.36
871.15	15439.86
871.469	15422.24
871.789	15426.3
872.109	15389.92
872.428	15452.52
872.748	15335.23
873.067	15343.59
873.386	15354.44
873.706	15366.42
874.025	15182.24
874.344	15196.93
874.663	15210.94
874.982	15143.82
875.301	15127.78
875.62	15072.41
875.939	15017.27
876.258	15116.71
876.577	14966.88
876.896	15075.13
877.214	14936.37
877.533	14987.9
877.852	14977.73
878.17	14883.04
878.489	14977.28
878.807	14848.69
879.125	14771.86
879.444	14895.02
879.762	14816.15
880.08	14764.63
880.398	14748.13
880.716	14772.54
881.034	14715.14
881.352	14719.43
881.67	14579.55
881.988	14590.85
882.306	14585.87
882.624	14586.1
882.941	14480.57
883.259	14350.63
883.577	14378.65
883.894	14319.21
884.212	14358.08
884.529	14310.4
884.846	14232.21
885.164	14202.15
885.481	14153.12
885.798	14173.91
886.115	14073.8
886.432	14047.58
886.75	13984.31
887.067	14096.85
887.383	13969.39
887.7	13976.85
888.017	13953.8
888.334	13918.55
888.651	13905.21
888.967	13792.67
889.284	13762.62
889.6	13784.31
889.917	13629.06
890.233	13655.05
890.55	13642.17
890.866	13662.96
891.182	13538.9
891.498	13536.86
891.815	13389.29
892.131	13351.1
892.447	13385.91
892.763	13266.59
893.079	13272.01
893.395	13230.65
893.71	13297.55
894.026	13154.05
894.342	13201.96
894.657	13071.11
894.973	13073.82
895.289	13060.26
895.604	12970.32
895.92	12868.63
896.235	12874.28
896.55	12824.79
896.865	12855.3
897.181	12812.81
897.496	12740.72
897.811	12721.52
898.126	12735.53
898.441	12555.19
898.756	12640.39
899.071	12512.93
899.386	12580.05
899.7	12428.42
900.015	12316.55
900.33	12206.05
900.644	12283.34
900.959	12279.95
901.273	12180.74
901.588	12157.91
901.902	12079.5
902.216	11978.26
902.531	11997.47
902.845	11967.64
903.159	11942.1
903.473	11785.5
903.787	11812.39
904.101	11715.44
904.415	11743.01
904.729	11690.58
905.042	11648.1
905.356	11568.78
905.67	11622.11
905.984	11533.98
906.297	11493.98
906.611	11440.65
906.924	11351.83
907.237	11382.12
907.551	11313.64
907.864	11327.2
908.177	11279.29
908.491	11223.48
908.804	11077.94
909.117	11013.09
909.43	11015.35
909.743	10984.39
910.056	10952.07
910.368	10885.18
910.681	10831.62
910.994	10806.31
911.307	10744.17
911.619	10692.42
911.932	10715.24
912.244	10638.63
912.557	10594.34
912.869	10527.45
913.181	10424.85
913.494	10498.52
913.806	10392.99
914.118	10371.07
914.43	10352.76
914.742	10306.44
915.054	10308.25
915.366	10228.25
915.678	10213.79
915.99	10130.85
916.302	10043.85
916.613	10025.54
916.925	9974.47
917.236	9942.38
917.548	9870.97
917.859	9873.91
918.171	9862.83
918.482	9768.37
918.794	9710.3
919.105	9710.75
919.416	9602.5
919.727	9591.43
920.038	9600.69
920.349	9564.54
920.66	9460.36
920.971	9398.21
921.282	9403.41
921.593	9360.47
921.903	9298.33
922.214	9254.26
922.525	9193.02
922.835	9185.56
923.146	9110.76
923.456	9140.37
923.767	9117.99
924.077	9082.52
924.387	8988.28
924.697	8936.08
925.008	8881.62
925.318	8849.53
925.628	8879.36
925.938	8783.77
926.248	8721.62
926.558	8690.89
926.867	8687.5
927.177	8614.96
927.487	8572.02
927.796	8550.33
928.106	8523.43
928.416	8436.88
928.725	8444.11
929.034	8390.78
929.344	8410.44
929.653	8378.35
929.962	8339.94
930.271	8307.39
930.581	8211.58
930.89	8196.66
931.199	8152.37
931.508	8163.22
931.817	8120.28
932.125	8059.49
932.434	8017.23
932.743	8001.87
933.051	7987.63
933.36	7926.16
933.669	7851.59
933.977	7859.72
934.286	7859.27
934.594	7743.79
934.902	7655.21
935.21	7684.81
935.519	7691.14
935.827	7653.85
936.135	7570.69
936.443	7608.66
936.751	7460.41
937.059	7477.81
937.367	7378.38
937.674	7447.08
937.982	7396.91
938.29	7338.61
938.597	7366.63
938.905	7290.47
939.213	7226.97
939.52	7229.23
939.827	7242.79
940.135	7140.87
940.442	7117.82
940.749	7085.05
941.056	7112.62
941.363	7076.24
941.67	7020.65
941.977	6939.07
942.284	6913.98
942.591	6944.94
942.898	6857.49
943.205	6857.04
943.511	6797.15
943.818	6808.68
944.125	6739.98
944.431	6666.76
944.738	6716.25
945.044	6714.89
945.35	6666.99
945.657	6547.44
945.963	6596.93
946.269	6515.13
946.575	6611.62
946.881	6467.44
947.187	6458.86
947.493	6443.26
947.799	6407.33
948.105	6376.82
948.41	6338.63
948.716	6341.57
949.022	6254.34
949.327	6247.79
949.633	6208.47
949.938	6183.38
950.244	6226.77
950.549	6113.33
950.854	6137.73
951.16	6067
951.465	6016.38
951.77	6041.24
952.075	6042.14
952.38	6005.99
952.685	6029.26
952.99	5940.68
953.294	5881.02
953.599	5855.03
953.904	5841.02
954.209	5813.9
954.513	5769.83
954.818	5764.18
955.122	5774.13
955.426	5714.02
955.731	5680.34
956.035	5643.74
956.339	5637.18
956.643	5631.98
956.948	5587.47
957.252	5546.79
957.556	5541.59
957.86	5532.33
958.163	5524.64
958.467	5474.47
958.771	5492.33
959.075	5442.61
959.378	5408.04
959.682	5430.18
959.985	5380.47
960.289	5354.25
960.592	5302.28
960.896	5272.45
961.199	5297.76
961.502	5283.07
961.805	5194.93
962.108	5143.18
962.411	5163.52
962.714	5161.26
963.017	5104.99
963.32	5104.99
963.623	5077.2
963.926	5072
964.228	5070.64
964.531	5043.53
964.833	5038.1
965.136	5013.92
965.438	5026.58
965.741	4956.97
966.043	4899.35
966.345	4906.35
966.648	4846.69
966.95	4872.23
967.252	4829.29
967.554	4846.47
967.856	4819.8
968.158	4769.86
968.46	4703.42
968.761	4686.92
969.063	4698.45
969.365	4655.51
969.666	4649.64
969.968	4603.99
970.269	4598.79
970.571	4554.95
970.872	4593.37
971.174	4558.34
971.475	4478.57
971.776	4532.58
972.077	4468.85
972.378	4467.04
972.679	4447.16
972.98	4402.19
973.281	4420.72
973.582	4389.08
973.883	4358.12
974.183	4348.63
974.484	4355.18
974.785	4311.57
975.085	4286.71
975.386	4274.73
975.686	4294.62
975.986	4209.65
976.287	4200.84
976.587	4161.74
976.887	4146.6
977.187	4159.71
977.487	4151.12
977.787	4116.77
978.087	4041.07
978.387	4061.63
978.687	4003.1
978.987	4034.51
979.286	4001.29
979.586	4006.04
979.885	3981.18
980.185	3952.71
980.484	3904.8
980.784	3912.93
981.083	3906.83
981.382	3848.53
981.682	3864.8
981.981	3873.39
982.28	3856.44
982.579	3807.17
982.878	3806.27
983.177	3778.93
983.475	3752.94
983.774	3707.52
984.073	3701.87
984.372	3704.35
984.67	3679.72
984.969	3702.54
985.267	3654.41
985.566	3659.38
985.864	3637.23
986.162	3630
986.461	3595.88
986.759	3572.6
987.057	3565.6
987.355	3521.31
987.653	3567.18
987.951	3515.2
988.249	3493.06
988.547	3491.48
988.844	3463.68
989.142	3474.08
989.44	3405.38
989.737	3443.79
990.035	3373.06
990.332	3359.73
990.63	3406.28
990.927	3361.54
991.224	3335.32
991.521	3328.99
991.819	3300.97
992.116	3288.54
992.413	3269.79
992.71	3251.48
993.006	3256.23
993.303	3216.23
993.6	3244.93
993.897	3201.31
994.193	3182.33
994.49	3173.52
994.787	3159.51
995.083	3131.03
995.379	3082.9
995.676	3087.42
995.972	3074.99
996.268	3077.02
996.565	3027.08
996.861	3015.56
997.157	3030.02
997.453	3017.59
997.749	2950.02
998.044	2946.86
998.34	2931.04
998.636	2916.8
998.932	2892.17
999.227	2917.71
999.523	2921.77
999.818	2853.53
1000.114	2836.35
1000.409	2847.2
1000.704	2813.08
1001	2825.73
1001.295	2824.15
1001.59	2787.99
1001.885	2763.59
1002.18	2732.85
1002.475	2757.48
1002.77	2717.71
1003.065	2679.52
1003.359	2693.98
1003.654	2695.11
1003.949	2642.23
1004.243	2687.43
1004.538	2660.76
1004.832	2592.74
1005.127	2618.05
1005.421	2568.11
1005.715	2566.53
1006.009	2540.54
1006.304	2548.9
1006.598	2520.65
1006.892	2513.87
1007.186	2490.15
1007.48	2430.49
1007.773	2460.99
1008.067	2505.97
1008.361	2428.68
1008.655	2416.7
1008.948	2419.64
1009.242	2393.88
1009.535	2374.67
1009.829	2344.61
1010.122	2331.28
1010.415	2363.14
1010.708	2336.48
1011.001	2308.68
1011.295	2290.83
1011.588	2301.22
1011.881	2266.2
1012.173	2225.52
1012.466	2233.43
1012.759	2246.09
1013.052	2182.81
1013.344	2208.8
1013.637	2186.65
1013.93	2180.55
1014.222	2155.47
1014.514	2155.47
1014.807	2083.15
1015.099	2139.65
1015.391	2108.01
1015.683	2079.08
1015.976	2076.82
1016.268	2067.33
1016.56	2059.88
1016.851	2065.3
1017.143	2062.81
1017.435	2003.15
1017.727	2009.03
1018.018	1980.56
1018.31	1934.45
1018.602	1982.59
1018.893	1916.38
1019.185	1937.39
1019.476	1925.19
1019.767	1933.78
1020.058	1881.8
1020.35	1884.29
1020.641	1854.46
1020.932	1857.17
1021.223	1829.82
1021.514	1819.66
1021.804	1838.19
1022.095	1793.89
1022.386	1811.97
1022.677	1761.8
1022.967	1781.92
1023.258	1784.63
1023.548	1736.95
1023.839	1735.82
1024.129	1728.58
1024.419	1738.75
1024.709	1663.73
1025	1682.03
1025.29	1675.93
1025.58	1634.12
1025.87	1650.62
1026.16	1625.99
1026.449	1618.08
1026.739	1620.11
1027.029	1615.59
1027.319	1584.41
1027.608	1561.36
1027.898	1559.78
1028.187	1533.11
1028.477	1541.47
1028.766	1538.53
1029.055	1508.25
1029.344	1524.75
1029.634	1531.98
1029.923	1497.4
1030.212	1483.39
1030.501	1474.81
1030.79	1446.33
1031.078	1428.48
1031.367	1468.93
1031.656	1449.04
1031.945	1448.37
1032.233	1407.69
1032.522	1406.79
1032.81	1404.98
1033.099	1385.99
1033.387	1371.31
1033.675	1343.51
1033.963	1359.1
1034.251	1358.42
1034.54	1337.63
1034.828	1327.47
1035.116	1314.36
1035.403	1303.06
1035.691	1311.19
1035.979	1287.92
1036.267	1283.62
1036.554	1258.99
1036.842	1256.28
1037.129	1258.77
1037.417	1257.18
1037.704	1235.72
1037.992	1236.17
1038.279	1213.57
1038.566	1188.94
1038.853	1188.94
1039.14	1188.94
