Data from plate_ceramic_FLMS001491_090.txt Node
Date: Tue Feb 07 11:17:26 GMT 2017
User: dcchb
Spectrometer: FLMS00149
Trigger mode: 0
Integration Time (sec): 2.000000E-2
Scans to average: 10
Electric dark correction enabled: true
Nonlinearity correction enabled: false
Boxcar width: 0
XAxis mode: Wavelengths
Number of Pixels in Spectrum: 2048
>>>>>Begin Spectral Data<<<<<
341.393	-20.35
341.776	-20.35
342.16	-20.35
342.543	-42.5
342.927	-69.39
343.31	-76.4
343.693	-67.58
344.077	-59.45
344.46	-54.93
344.843	-64.42
345.226	-43.18
345.61	-21.03
345.993	-15.15
346.376	-12.9
346.759	2.25
347.142	12.41
347.525	55.35
347.908	48.57
348.291	88.57
348.674	95.12
349.057	112.75
349.44	119.3
349.823	156.82
350.206	167.44
350.588	241.11
350.971	219.64
351.354	261.45
351.737	247.66
352.119	272.75
352.502	277.04
352.884	283.59
353.267	294.67
353.65	293.31
354.032	299.64
354.414	335.8
354.797	333.08
355.179	346.87
355.562	342.58
355.944	350.71
356.326	364.5
356.709	343.25
357.091	363.37
357.473	345.29
357.855	364.27
358.238	349.13
358.62	368.34
359.002	357.72
359.384	368.79
359.766	368.79
360.148	375.34
360.53	362.24
360.912	337.83
361.294	368.56
361.676	362.24
362.057	351.62
362.439	358.62
362.821	362.91
363.203	354.33
363.584	349.13
363.966	338.51
364.348	349.81
364.729	370.6
365.111	339.19
365.493	339.41
365.874	354.1
366.256	366.3
366.637	331.95
367.019	357.49
367.4	346.42
367.781	361.33
368.163	357.04
368.544	344.84
368.925	355
369.306	341.9
369.688	353.42
370.069	359.75
370.45	350.49
370.831	344.38
371.212	359.52
371.593	355.23
371.974	385.06
372.355	351.62
372.736	344.84
373.117	369.02
373.498	373.99
373.879	351.16
374.26	366.76
374.641	371.95
375.021	363.59
375.402	401.11
375.783	392.74
376.163	381.44
376.544	394.1
376.925	381.22
377.305	381.44
377.686	381.22
378.066	375.12
378.447	400.2
378.827	396.36
379.208	399.98
379.588	386.64
379.968	395.68
380.349	386.87
380.729	402.91
381.109	432.52
381.489	407.43
381.87	414.21
382.25	399.07
382.63	410.37
383.01	414.66
383.39	444.49
383.77	408.56
384.15	423.48
384.53	420.09
384.91	462.12
385.29	440.43
385.67	452.86
386.049	458.5
386.429	460.76
386.809	472.06
387.189	480.2
387.568	481.33
387.948	457.37
388.328	458.5
388.707	484.04
389.087	474.1
389.466	497.37
389.846	493.31
390.225	499.41
390.605	496.24
390.984	505.51
391.363	504.83
391.743	488.33
392.122	516.58
392.501	508.67
392.881	535.11
393.26	530.82
393.639	527.2
394.018	531.27
394.397	499.41
394.776	538.73
395.155	555.23
395.534	533.31
395.913	524.04
396.292	582.34
396.671	550.03
397.05	554.1
397.429	596.58
397.808	551.84
398.186	578.28
398.565	585.28
398.944	580.99
399.323	590.25
399.701	610.59
400.08	610.37
400.458	620.31
400.837	619.86
401.215	627.54
401.594	627.54
401.972	625.96
402.351	664.6
402.729	635.22
403.107	643.81
403.486	650.82
403.864	649.91
404.242	701.66
404.62	703.7
404.999	696.92
405.377	689.01
405.755	687.65
406.133	710.93
406.511	712.06
406.889	706.41
407.267	722.9
407.645	730.59
408.023	738.95
408.401	736.69
408.779	770.81
409.156	769.46
409.534	790.02
409.912	776.91
410.29	812.39
410.667	803.58
411.045	817.14
411.422	825.5
411.8	831.38
412.178	842.22
412.555	866.4
412.933	871.83
413.31	893.52
413.687	887.65
414.065	888.78
414.442	900.75
414.819	950.47
415.197	956.57
415.574	928.55
415.951	945.95
416.328	931.03
416.705	962.9
417.082	975.78
417.46	1012.61
417.837	965.38
418.214	1028.43
418.591	1030.92
418.967	1014.65
419.344	1039.96
419.721	1045.83
420.098	1046.51
420.475	1039.28
420.852	1080.86
421.228	1105.72
421.605	1079.51
421.982	1092.39
422.358	1128.32
422.735	1120.41
423.111	1146.62
423.488	1138.04
423.864	1172.61
424.241	1175.1
424.617	1178.94
424.994	1178.26
425.37	1213.51
425.746	1201.08
426.123	1226.39
426.499	1244.02
426.875	1272.04
427.251	1288.99
427.627	1290.57
428.003	1314.75
428.379	1318.14
428.756	1325.37
429.132	1382.32
429.507	1374.41
429.883	1415.54
430.259	1424.36
430.635	1429.1
431.011	1438.82
431.387	1463.9
431.763	1490.34
432.138	1496.22
432.514	1549.32
432.89	1541.41
433.265	1543.67
433.641	1571.92
434.016	1588.64
434.392	1609.66
434.767	1634.97
435.143	1622.54
435.518	1638.59
435.894	1680.39
436.269	1679.72
436.644	1702.31
437.02	1716.55
437.395	1733.05
437.77	1791.35
438.145	1788.19
438.52	1788.87
438.895	1799.26
439.271	1804.01
439.646	1878.58
440.021	1860.95
440.395	1882.42
440.77	1874.74
441.145	1896.43
441.52	1929.88
441.895	1942.53
442.27	1949.54
442.645	1959.26
443.019	2005.58
443.394	1999.03
443.769	2017.11
444.143	1975.75
444.518	2034.51
444.892	2049.2
445.267	2046.03
445.641	2053.72
446.016	2052.36
446.39	2108.18
446.764	2109.53
447.139	2095.98
447.513	2159.48
447.887	2169.65
448.262	2180.04
448.636	2203.54
449.01	2222.07
449.384	2267.72
449.758	2230.44
450.132	2262.07
450.506	2283.54
450.88	2299.13
451.254	2315.18
451.628	2373.03
452.002	2395.86
452.376	2401.73
452.75	2401.96
453.123	2395.4
453.497	2475.18
453.871	2504.55
454.244	2549.07
454.618	2552.46
454.992	2584.1
455.365	2584.55
455.739	2697.09
456.112	2678.79
456.486	2674.27
456.859	2694.38
457.232	2781.83
457.606	2785.9
457.979	2811.44
458.352	2895.05
458.725	2916.52
459.099	2935.95
459.472	2986.8
459.845	3005.56
460.218	3052.56
460.591	3078.55
460.964	3094.14
461.337	3150.64
461.71	3217.75
462.083	3231.09
462.456	3247.36
462.829	3257.75
463.201	3334.59
463.574	3352.44
463.947	3396.51
464.32	3480.8
464.692	3523.28
465.065	3539.33
465.438	3570.06
465.81	3655.03
466.183	3628.82
466.555	3697.74
466.928	3763.05
467.3	3808.93
467.672	3825.87
468.045	3912.2
468.417	3973.21
468.789	3975.93
469.161	4052.31
469.534	4064.06
469.906	4196.49
470.278	4205.07
470.65	4241.68
471.022	4319.65
471.394	4411.62
471.766	4457.5
472.138	4523.71
472.51	4605.29
472.882	4699.98
473.253	4695.46
473.625	4857.94
473.997	4848.45
474.369	4928.22
474.74	4965.05
475.112	5055.22
475.484	5146.29
475.855	5284.59
476.227	5276.23
476.598	5442.33
476.97	5471.48
477.341	5607.97
477.713	5711.47
478.084	5704.24
478.455	5847.06
478.827	5921.64
479.198	6076.89
479.569	6137.68
479.94	6353.49
480.311	6385.13
480.682	6469.65
481.053	6629.19
481.424	6727.49
481.795	6879.35
482.166	6888.62
482.537	6959.8
482.908	7153.7
483.279	7270.53
483.65	7354.14
484.021	7533.35
484.391	7672.55
484.762	7654.93
485.133	7749.61
485.503	7869.16
485.874	8044.29
486.244	8123.61
486.615	8263.72
486.985	8375.81
487.356	8511.17
487.726	8572.42
488.097	8787.33
488.467	8830.49
488.837	8949.58
489.207	9098.05
489.578	9172.85
489.948	9348.21
490.318	9424.82
490.688	9516.12
491.058	9692.84
491.428	9743.91
491.798	9813.74
492.168	10061.64
492.538	10108.42
492.908	10228.64
493.278	10464.57
493.648	10349.09
494.017	10580.72
494.387	10593.83
494.757	10674.06
495.126	10843.77
495.496	10889.42
495.866	10991.79
496.235	11065.23
496.605	11156.53
496.974	11290.31
497.344	11398.33
497.713	11419.12
498.082	11554.48
498.452	11608.27
498.821	11721.94
499.19	11791.54
499.559	11954.47
499.928	11952.89
500.298	12061.14
500.667	12272.43
501.036	12236.05
501.405	12377.29
501.774	12391.75
502.143	12475.59
502.512	12533.44
502.88	12642.37
503.249	12663.16
503.618	12796.49
503.987	12897.27
504.356	12948.35
504.724	12989.47
505.093	13108.57
505.462	13166.65
505.83	13259.3
506.199	13429.46
506.567	13659.06
506.936	13595.11
507.304	13760.3
507.672	13765.05
508.041	13945.83
508.409	13903.58
508.777	14086.17
509.145	14262.44
509.514	14295.88
509.882	14317.35
510.25	14443.9
510.618	14589.21
510.986	14636.21
511.354	14740.39
511.722	14878.24
512.09	15006.14
512.458	15039.14
512.826	15150.77
513.193	15261.28
513.561	15327.04
513.929	15505.57
514.297	15628.05
514.664	15800.93
515.032	15819.68
515.4	15941.26
515.767	16030.07
516.135	16057.42
516.502	16024.88
516.869	16430.06
517.237	16443.17
517.604	16508.93
517.972	16710.73
518.339	16919.09
518.706	16808.13
519.073	16938.98
519.44	17008.35
519.808	17386.87
520.175	17347.55
520.542	17485.63
520.909	17654.66
521.276	17804.04
521.643	17933.53
522.009	18123.8
522.376	18180.98
522.743	18314.76
523.11	18510.23
523.477	18650.79
523.843	18687.86
524.21	18951.35
524.577	19060.73
524.943	19137.56
525.31	19293.72
525.676	19516.31
526.043	19693.03
526.409	19794.72
526.776	19921.27
527.142	19982.74
527.508	20247.82
527.874	20231.09
528.241	20426.57
528.607	20508.83
528.973	20680.35
529.339	20710.4
529.705	20851.87
530.071	21130.73
530.437	21161.46
530.803	21267.45
531.169	21460.21
531.535	21527.78
531.901	21690.49
532.267	21759.87
532.632	21890.48
532.998	22087.99
533.364	22146.97
533.73	22173.41
534.095	22282.79
534.461	22459.73
534.826	22588.77
535.192	22793.06
535.557	22879.61
535.923	22905.37
536.288	23010.91
536.653	23093.84
537.019	23053.84
537.384	23166.83
537.749	23300.62
538.114	23387.17
538.479	23333.61
538.845	23383.1
539.21	23560.04
539.575	23667.39
539.94	23810.43
540.305	23941.05
540.67	23837.78
541.034	24004.55
541.399	24169.07
541.764	24269.63
542.129	24308.05
542.494	24492.45
542.858	24577.42
543.223	24472.56
543.587	24791.65
543.952	24741.71
544.316	24896.51
544.681	24921.82
545.045	25016.96
545.41	25105.77
545.774	25209.94
546.138	25202.71
546.503	25360.22
546.867	25418.75
547.231	25569.71
547.595	25684.06
547.959	25818.74
548.324	25847.44
548.688	25995.23
549.052	26059.19
549.416	26213.76
549.779	26206.08
550.143	26275.68
550.507	26487.65
550.871	26550.7
551.235	26606.74
551.599	26824.14
551.962	26847.87
552.326	26814.2
552.689	27057.81
553.053	26957.92
553.417	27049.22
553.78	27486.49
554.143	27432.94
554.507	27536.44
554.87	27647.62
555.234	27869.08
555.597	27884.22
555.96	27921.96
556.323	28182.52
556.686	28234.95
557.05	28503.19
557.413	28496.19
557.776	28552.68
558.139	28735.95
558.502	28829.51
558.865	28901.6
559.228	29137.07
559.59	29291.19
559.953	29317.86
560.316	29514.69
560.679	29639.88
561.041	29782.03
561.404	29986.99
561.767	30154.9
562.129	30222.02
562.492	30451.16
562.854	30488
563.217	30650.48
563.579	30635.79
563.941	30939.74
564.304	31098.15
564.666	31232.61
565.028	31198.26
565.39	31302.21
565.753	31491.14
566.115	31647.06
566.477	31701.98
566.839	31846.83
567.201	32171.57
567.563	32207.27
567.925	32345.35
568.287	32397.55
568.648	32537.66
569.01	32743.98
569.372	32764.32
569.734	32792.57
570.095	33024.43
570.457	33180.58
570.819	33331.09
571.18	33326.57
571.542	33488.6
571.903	33629.61
572.265	33813.56
572.626	33777.85
572.987	33954.8
573.349	34107.79
573.71	34211.52
574.071	34274.79
574.432	34441.34
574.794	34657.61
575.155	34622.58
575.516	34506.65
575.877	34465.52
576.238	34805.85
576.599	34902.57
576.96	34997.94
577.32	35051.95
577.681	35092.85
578.042	35156.8
578.403	35174.65
578.763	35287.42
579.124	35327.64
579.485	35489.9
579.845	35584.36
580.206	35559.95
580.566	35522.22
580.927	35661.2
581.287	35785.71
581.648	35446.96
582.008	35708.88
582.368	35620.29
582.728	35862.55
583.089	35801.76
583.449	35773.28
583.809	35945.26
584.169	36020.96
584.529	35768.08
584.889	36174.4
585.249	35955.88
585.609	35840.85
585.969	36144.35
586.329	36016.89
586.688	36128.53
587.048	36019.83
587.408	35918.36
587.768	35948.87
588.127	35978.25
588.487	35873.17
588.846	36292.36
589.206	36042.2
589.565	36072.48
589.925	36087.4
590.284	36043.78
590.643	36204.91
591.003	36344.57
591.362	36328.75
591.721	36238.13
592.08	36258.92
592.44	36357.67
592.799	36426.15
593.158	36360.16
593.517	36261.18
593.876	36426.82
594.235	36432.02
594.593	36311.57
594.952	36413.27
595.311	36359.26
595.67	36478.8
596.029	36634.05
596.387	36658.91
596.746	36792.24
597.104	36449.87
597.463	36465.92
597.822	36668.63
598.18	36708.4
598.538	36560.38
598.897	36875.4
599.255	36553.38
599.613	37175.73
599.972	36763.09
600.33	36902.07
600.688	36812.13
601.046	36963.08
601.404	36973.7
601.762	36949.75
602.12	37139.35
602.478	37124.66
602.836	37166.01
603.194	36948.62
603.552	37174.6
603.91	37040.59
604.268	37248.27
604.625	37096.19
604.983	37317.2
605.341	37031.78
605.698	37309.06
606.056	37482.39
606.413	37504.08
606.771	37428.38
607.128	37429.51
607.485	37384.54
607.843	37526.91
608.2	37618.66
608.557	37757.41
608.914	37493.46
609.272	37709.05
609.629	37930.97
609.986	38017.52
610.343	37872.89
610.7	38160.11
611.057	38109.72
611.414	38044.41
611.771	38040.34
612.127	38302.26
612.484	38144.75
612.841	38268.81
613.198	38188.36
613.554	38181.58
613.911	38379.32
614.267	38461.35
614.624	38291.86
614.98	38371.41
615.337	38632.42
615.693	38676.03
616.05	38577.28
616.406	38717.61
616.762	38538.63
617.118	38580.21
617.475	38563.04
617.831	38650.04
618.187	38668.12
618.543	38734.79
618.899	38883.48
619.255	38805.07
619.611	38736.59
619.967	38963.48
620.323	38934.1
620.678	38885.07
621.034	38771.85
621.39	38749.93
621.746	38846.65
622.101	39268.56
622.457	38977.49
622.812	38936.14
623.168	39255.68
623.523	39052.52
623.879	39183.81
624.234	38970.03
624.589	39211.61
624.945	39050.94
625.3	39131.61
625.655	39103.36
626.01	39129.13
626.365	39036.7
626.72	39009.36
627.075	38994.67
627.43	38983.37
627.785	38940.88
628.14	39013.42
628.495	38993.08
628.85	38926.87
629.205	38824.05
629.559	39097.71
629.914	38983.37
630.269	38923.48
630.623	38756.93
630.978	38726.43
631.332	38861.34
631.687	38809.81
632.041	38565.3
632.396	38610.95
632.75	38572.08
633.104	38673.55
633.459	38447.11
633.813	38412.08
634.167	38488.47
634.521	38404.4
634.875	38501.8
635.229	38366.89
635.583	38215.7
635.937	38224.74
636.291	38253.22
636.645	38251.64
636.999	38182.48
637.352	38202.15
637.706	37930.29
638.06	38086.67
638.413	37961.02
638.767	37846
639.121	38040.34
639.474	37666.34
639.828	37654.81
640.181	37834.92
640.534	37820.91
640.888	37573.01
641.241	37521.03
641.594	37685.77
641.947	37644.87
642.301	37464.09
642.654	37473.58
643.007	37523.07
643.36	37494.37
643.713	37285.33
644.066	37569.85
644.419	37323.98
644.771	36909.07
645.124	36478.57
645.477	36576.2
645.83	36259.37
646.182	36147.51
646.535	36095.53
646.888	36223.44
647.24	35965.59
647.593	36226.38
647.945	36159.26
648.298	36060.96
648.65	35875.2
649.002	35909.78
649.355	35881.98
649.707	35866.61
650.059	35949.32
650.411	36404.68
650.763	36360.39
651.115	36708.17
651.467	36436.77
651.819	36604
652.171	36561.28
652.523	36389.76
652.875	36379.82
653.227	36284
653.578	36473.83
653.93	36309.77
654.282	36364.45
654.633	36097.34
654.985	36323.78
655.337	36309.77
655.688	36164.01
656.039	36336.21
656.391	35977.34
656.742	36092.6
657.094	35932.15
657.445	36187.96
657.796	36025.93
658.147	36067.96
658.498	35957.68
658.849	36106.61
659.2	35937.57
659.551	35703.91
659.902	36053.28
660.253	35874.3
660.604	35887.4
660.955	35771.93
661.306	35827.29
661.656	35776.67
662.007	35794.75
662.358	35834.52
662.708	35737.35
663.059	35786.16
663.409	35441.54
663.76	35763.79
664.11	35718.14
664.461	35627.07
664.811	35839.5
665.161	35729.22
665.511	35574.42
665.862	35724.02
666.212	35651.7
666.562	35740.29
666.912	35720.85
667.262	35642.21
667.612	35531.71
667.962	35468.43
668.312	35369
668.662	35472.27
669.011	35562.44
669.361	35328.32
669.711	35385.04
670.06	35434.99
670.41	35307.08
670.76	35142.11
671.109	35390.02
671.459	35407.19
671.808	35183.47
672.157	35252.62
672.507	35032.96
672.856	34968.78
673.205	35101.66
673.554	35138.27
673.904	35023.02
674.253	35267.31
674.602	35159.74
674.951	34731.28
675.3	34511.85
675.649	34968.33
675.998	35065.05
676.346	34925.85
676.695	35194.54
677.044	34807.21
677.393	34898.5
677.741	35048.1
678.09	34860.54
678.438	34688.11
678.787	34758.62
679.135	34800.2
679.484	34624.84
679.832	34873.19
680.181	34507.1
680.529	34593.43
680.877	34489.93
681.225	34510.26
681.573	34647.21
681.922	34448.12
682.27	34308.46
682.618	34271.4
682.966	34299.42
683.314	34298.07
683.661	34221.68
684.009	33991.41
684.357	33939.66
684.705	33976.27
685.053	33807.68
685.4	33935.36
685.748	33825.99
686.095	33791.87
686.443	33632.32
686.79	33473.68
687.138	33586.45
687.485	33505.77
687.832	33267.13
688.18	33362.5
688.527	33282.73
688.874	33258.77
689.221	33149.85
689.568	33101.71
689.915	33042.05
690.262	32957.09
690.609	32901.27
690.956	32860.14
691.303	32795.06
691.65	32710.31
691.997	32678
692.344	32424.9
692.69	32442.3
693.037	32447.27
693.383	32217.22
693.73	32367.95
694.077	32059.03
694.423	32037.79
694.769	32032.82
695.116	31995.98
695.462	31954.85
695.808	31722.77
696.155	31733.61
696.501	31428.99
696.847	31511.7
697.193	31344.02
697.539	31572.26
697.885	31137.92
698.231	31222.44
698.577	31127.98
698.923	31054.31
699.269	30764.6
699.614	30871.04
699.96	30624.72
700.306	30807.76
700.651	30554.89
700.997	30608.67
701.342	30472.18
701.688	30550.14
702.033	30200.77
702.379	30266.53
702.724	30167.1
703.069	30181.11
703.415	29839.65
703.76	29933.44
704.105	29909.48
704.45	29881.69
704.795	29681.47
705.14	29603.73
705.485	29508.36
705.83	29478.08
706.175	29443.28
706.52	29483.05
706.865	29329.84
707.209	29232.89
707.554	29094.59
707.899	29137.98
708.243	29008.71
708.588	29050.75
708.932	28825.22
709.277	28675.16
709.621	28804.43
709.966	28696.18
710.31	28747.93
710.654	28550.87
710.998	28572.57
711.342	28429.97
711.687	28366.7
712.031	28232.92
712.375	28212.35
712.719	28223.65
713.063	28165.57
713.407	28181.39
713.75	28034.5
714.094	28085.58
714.438	27893.49
714.782	27914.51
715.125	27834.96
715.469	27852.59
715.812	27690.56
716.156	27470.45
716.499	27578.92
716.843	27634.06
717.186	27382.32
717.53	27625.25
717.873	27493.05
718.216	27348.87
718.559	27297.12
718.902	27243.79
719.246	27169.21
719.589	27055.77
719.932	26916.57
720.275	26987.98
720.617	27024.81
720.96	26907.07
721.303	26766.06
721.646	26779.39
721.989	26726.06
722.331	26754.76
722.674	26538.27
723.016	26734.88
723.359	26667.99
723.701	26517.48
724.044	26402.68
724.386	26403.81
724.729	26366.75
725.071	26346.64
725.413	26317.49
725.755	26338.28
726.097	26148
726.439	26041.56
726.782	26089.02
727.124	26204.95
727.465	26075.23
727.807	25981.68
728.149	25859.42
728.491	25855.13
728.833	25820.78
729.175	25727.67
729.516	25779.87
729.858	25762.47
730.199	25816.03
730.541	25636.15
730.882	25512.54
731.224	25844.73
731.565	25537.39
731.906	25601.8
732.248	25511.41
732.589	25362.93
732.93	25365.19
733.271	25299.21
733.612	25265.08
733.953	25352.31
734.294	25167.01
734.635	25170.4
734.976	25240.68
735.317	25025.54
735.658	25186.89
735.999	25165.43
736.339	24940.35
736.68	25072.09
737.021	24936.96
737.361	24815.6
737.702	25024.19
738.042	24808.83
738.383	24759.11
738.723	24820.8
739.063	24771.54
739.404	24824.42
739.744	24613.8
740.084	24596.85
740.424	24627.36
740.764	24513.92
741.104	24666.23
741.444	24465.11
741.784	24377.88
742.124	24475.05
742.464	24354.6
742.804	24360.02
743.143	24241.83
743.483	24280.7
743.823	24139.69
744.162	24171.55
744.502	24130.2
744.841	24012.46
745.181	24040.48
745.52	23980.15
745.86	23875.52
746.199	23952.8
746.538	23846.36
746.877	23947.15
747.216	23791.9
747.556	23758.23
747.895	23725.01
748.234	23611.12
748.573	23519.14
748.911	23681.17
749.25	23589.42
749.589	23541.06
749.928	23453.15
750.267	23398.01
750.605	23334.06
750.944	23220.84
751.283	23178.81
751.621	23298.58
751.96	23109.43
752.298	23052.26
752.636	23155.08
752.975	22934.52
753.313	22911.02
753.651	23062.43
753.989	22904.24
754.327	22834.87
754.666	22667.41
755.004	22839.61
755.342	22734.53
755.679	22739.73
756.017	22538.6
756.355	22618.15
756.693	22476.68
757.031	22586.74
757.368	22365.73
757.706	22294.77
758.044	22337.48
758.381	22293.64
758.719	22196.01
759.056	22342.68
759.394	22171.38
759.731	21942.46
760.068	21872.63
760.405	21909.47
760.743	21760.54
761.08	21865.17
761.417	21671.73
761.754	21617.27
762.091	21606.2
762.428	21485.52
762.765	21371.63
763.102	21591.28
763.438	21380.67
763.775	21155.81
764.112	21279.43
764.449	21369.59
764.785	21154.91
765.122	21033.78
765.458	20845.77
765.795	20897.29
766.131	20949.72
766.467	20820
766.804	20612.1
767.14	20511.08
767.476	20578.88
767.812	20455.27
768.148	20435.83
768.485	20460.69
768.821	20194.26
769.157	20155.84
769.492	20046.01
769.828	20035.62
770.164	19911.55
770.5	19969.63
770.836	19950.65
771.171	19761.5
771.507	19838.56
771.842	19648.96
772.178	19652.35
772.513	19613.26
772.849	19418.68
773.184	19415.97
773.519	19352.25
773.855	19184.11
774.19	19153.38
774.525	19040.16
774.86	19135.53
775.195	19081.07
775.53	18876.1
775.865	18885.59
776.2	18721.98
776.535	18578.25
776.87	18558.37
777.205	18524.24
777.539	18400.18
777.874	18466.84
778.209	18304.14
778.543	18266.62
778.878	18141.88
779.212	18099.17
779.547	17979.4
779.881	18042.22
780.215	17944.15
780.55	18018.95
780.884	17837.48
781.218	17801.1
781.552	17728.33
781.886	17611.95
782.22	17608.79
782.554	17512.29
782.888	17369.47
783.222	17218.52
783.556	17192.98
783.889	17213.09
784.223	17099.2
784.557	17109.37
784.89	17071.18
785.224	16978.75
785.557	16879.54
785.891	16883.38
786.224	16719.55
786.558	16759.09
786.891	16606.33
787.224	16579.21
787.557	16611.98
787.891	16446.33
788.224	16510.29
788.557	16396.16
788.89	16390.97
789.223	16320.91
789.556	16307.13
789.888	16202.5
790.221	16062.61
790.554	15950.98
790.887	15932
791.219	15882.51
791.552	15838.67
791.884	15835.05
792.217	15804.77
792.549	15688.39
792.882	15627.37
793.214	15464.21
793.546	15547.37
793.879	15448.85
794.211	15357.77
794.543	15404.55
794.875	15343.09
795.207	15390.77
795.539	15239.13
795.871	15245.01
796.203	15120.72
796.535	15057.22
796.867	14985.81
797.198	14972.25
797.53	14969.31
797.862	14861.97
798.193	14858.58
798.525	14791.69
798.856	14817
799.188	14587.85
799.519	14670.33
799.85	14591.47
800.182	14605.48
800.513	14540.39
800.844	14428.53
801.175	14462.43
801.506	14434.18
801.837	14317.35
802.168	14274.86
802.499	14164.59
802.83	14139.73
803.161	14300.63
803.491	14130.91
803.822	14137.24
804.153	13971.82
804.483	13926.63
804.814	13872.39
805.145	13904.71
805.475	13830.36
805.805	13828.77
806.136	13813.18
806.466	13801.2
806.796	13749
807.126	13628.1
807.457	13552.17
807.787	13593.53
808.117	13537.93
808.447	13520.76
808.777	13448.22
809.107	13364.15
809.436	13478.95
809.766	13377.94
810.096	13295
810.426	13273.31
810.755	13264.5
811.085	13257.26
811.414	13119.41
811.744	13073.09
812.073	13017.04
812.403	13067.89
812.732	12952.87
813.061	12878.52
813.39	12874.45
813.719	12789.48
814.049	12888.46
814.378	12871.74
814.707	12745.41
815.036	12727.79
815.365	12677.84
815.693	12623.16
816.022	12654.79
816.351	12610.5
816.68	12536.83
817.008	12606.89
817.337	12517.62
817.665	12449.83
817.994	12481.92
818.322	12384.97
818.651	12311.75
818.979	12355.14
819.307	12412.09
819.636	12341.81
819.964	12312.88
820.292	12285.09
820.62	12326.89
820.948	12240.34
821.276	12279.89
821.604	12156.05
821.932	12207.35
822.259	12203.73
822.587	12204.86
822.915	12242.6
823.243	12225.43
823.57	12200.8
823.898	12086.45
824.225	12050.29
824.553	12177.52
824.88	12126.45
825.207	12158.08
825.535	12106.56
825.862	12170.29
826.189	12016.62
826.516	12098.2
826.843	12211.42
827.17	12108.37
827.497	12254.13
827.824	12114.92
828.151	12198.31
828.478	12083.96
828.805	12120.8
829.131	12076.05
829.458	12095.26
829.785	11993.34
830.111	12058.88
830.438	12095.04
830.764	12049.39
831.09	12110.63
831.417	12037.41
831.743	12023.85
832.069	12083.06
832.395	11982.27
832.722	11997.41
833.048	12030.4
833.374	12057.07
833.7	11877.41
834.026	12000.57
834.351	11980.24
834.677	11936.85
835.003	12043.74
835.329	12009.16
835.654	11902.27
835.98	11883.52
836.306	11915.83
836.631	11894.36
836.956	11832.44
837.282	11901.59
837.607	11839.45
837.932	11750.64
838.258	11707.02
838.583	11766.68
838.908	11686.23
839.233	11759.22
839.558	11611.88
839.883	11621.15
840.208	11657.76
840.533	11610.3
840.858	11628.38
841.182	11590.64
841.507	11576.63
841.832	11523.98
842.156	11542.51
842.481	11461.38
842.805	11443.53
843.13	11399.69
843.454	11383.42
843.778	11376.18
844.103	11355.62
844.427	11305.68
844.751	11255.96
845.075	11270.65
845.399	11166.02
845.723	11190.2
846.047	11145.23
846.371	11025.91
846.695	11141.61
847.019	10981.39
847.343	10945.91
847.666	10924.67
847.99	10853.49
848.313	10855.52
848.637	10794.96
848.96	10800.61
849.284	10687.84
849.607	10580.5
849.931	10642.42
850.254	10573.27
850.577	10484.46
850.9	10440.84
851.223	10468.19
851.546	10428.64
851.869	10392.93
852.192	10387.96
852.515	10316.55
852.838	10239.94
853.161	10212.37
853.483	10156.55
853.806	10061.87
854.129	10088.99
854.451	10091.92
854.774	10011.47
855.096	9935.09
855.419	9918.82
855.741	9957.69
856.063	9941.42
856.385	9863.23
856.708	9870.69
857.03	9872.27
857.352	9798.37
857.674	9762.67
857.996	9720.86
858.318	9607.64
858.64	9594.08
858.961	9598.83
859.283	9539.4
859.605	9547.31
859.926	9634.76
860.248	9492.39
860.57	9468.66
860.891	9512.96
861.212	9463.24
861.534	9412.17
861.855	9354.99
862.176	9402
862.498	9401.77
862.819	9380.08
863.14	9325.84
863.461	9396.8
863.782	9304.83
864.103	9292.85
864.424	9259.18
864.745	9206.98
865.065	9185.28
865.386	9209.24
865.707	9212.4
866.027	9180.76
866.348	9090.37
866.668	9118.62
866.989	9146.64
867.309	9109.8
867.63	9072.29
867.95	9043.14
868.27	9014.21
868.59	9024.83
868.91	9018.28
869.23	9019.18
869.55	8900.54
869.87	8975.8
870.19	8996.59
870.51	9021.22
870.83	8959.07
871.15	8898.73
871.469	8881.33
871.789	8889.47
872.109	8896.02
872.428	8845.63
872.748	8888.79
873.067	8911.39
873.386	8854.44
873.706	8848.79
874.025	8842.01
874.344	8731.51
874.663	8768.34
874.982	8754.56
875.301	8758.85
875.62	8708.46
875.939	8714.33
876.258	8715.24
876.577	8637.05
876.896	8634.34
877.214	8598.18
877.533	8630.72
877.852	8583.71
878.17	8582.59
878.489	8530.16
878.807	8631.17
879.125	8525.86
879.444	8528.58
879.762	8466.43
880.08	8454.45
880.398	8495.81
880.716	8431.63
881.034	8400.89
881.352	8405.64
881.67	8385.75
881.988	8437.5
882.306	8420.78
882.624	8365.64
882.941	8278.19
883.259	8319.99
883.577	8305.76
883.894	8288.13
884.212	8272.31
884.529	8297.17
884.846	8246.55
885.164	8285.19
885.481	8130.17
885.798	8198.19
886.115	8121.13
886.432	8077.74
886.75	8120.68
887.067	8034.58
887.383	8097.17
887.7	8048.14
888.017	8003.62
888.334	8076.38
888.651	8044.75
888.967	7970.4
889.284	7945.31
889.6	7979.21
889.917	7899.67
890.233	7880.91
890.55	7871.64
890.866	7843.4
891.182	7856.73
891.498	7797.75
891.815	7717.75
892.131	7749.61
892.447	7730.63
892.763	7677.98
893.079	7621.93
893.395	7547.36
893.71	7635.72
894.026	7647.02
894.342	7567.7
894.657	7536.74
894.973	7593.68
895.289	7488.15
895.604	7594.59
895.92	7469.39
896.235	7464.65
896.55	7429.4
896.865	7363.18
897.181	7359.11
897.496	7244.09
897.811	7289.06
898.126	7249.29
898.441	7186.92
898.756	7247.7
899.071	7195.28
899.386	7145.33
899.7	7181.72
900.015	7115.5
900.33	7053.13
900.644	7111.89
900.959	7062.17
901.273	7095.84
901.588	6980.59
901.902	7015.39
902.216	6981.5
902.531	6936.3
902.845	6929.97
903.159	6868.05
903.473	6821.73
903.787	6819.24
904.101	6761.62
904.415	6766.36
904.729	6750.54
905.042	6809.75
905.356	6694.73
905.67	6690.66
905.984	6676.65
906.297	6659.25
906.611	6593.71
906.924	6587.61
907.237	6543.99
907.551	6520.27
907.864	6529.98
908.177	6460.15
908.491	6448.86
908.804	6420.38
909.117	6381.29
909.43	6356.43
909.743	6322.98
910.056	6320.27
910.368	6301.52
910.681	6264.23
910.994	6247.28
911.307	6215.64
911.619	6176.55
911.932	6198.01
912.244	6111.24
912.557	6153.27
912.869	6081.86
913.181	6058.81
913.494	6130.67
913.806	5972.26
914.118	5974.97
914.43	5921.86
914.742	5920.06
915.054	5941.75
915.366	5904.92
915.678	5876.67
915.99	5858.14
916.302	5796.22
916.613	5788.99
916.925	5764.35
917.236	5781.75
917.548	5708.76
917.859	5724.36
918.171	5669.89
918.482	5614.75
918.794	5600.74
919.105	5608.43
919.416	5549.9
919.727	5547.86
920.038	5550.12
920.349	5537.92
920.66	5478.94
920.971	5485.72
921.282	5421.76
921.593	5443.68
921.903	5400.3
922.214	5370.47
922.525	5367.98
922.835	5345.83
923.146	5254.76
923.456	5252.28
923.767	5289.56
924.077	5277.59
924.387	5188.32
924.697	5258.38
925.008	5176.57
925.318	5142.9
925.628	5106.52
925.938	5121.21
926.248	5071.72
926.558	5073.3
926.867	5070.59
927.177	5026.52
927.487	5032.4
927.796	5002.11
928.106	4993.3
928.416	4890.7
928.725	4903.36
929.034	4844.83
929.344	4877.82
929.653	4880.54
929.962	4834.66
930.271	4789.01
930.581	4760.31
930.89	4794.21
931.199	4706.08
931.508	4698.17
931.817	4717.83
932.125	4706.08
932.434	4652.07
932.743	4637.38
933.051	4613.88
933.36	4596.25
933.669	4578.4
933.977	4558.51
934.286	4538.4
934.594	4566.42
934.902	4505.86
935.21	4464.73
935.519	4481.9
935.827	4437.61
936.135	4410.49
936.443	4391.51
936.751	4388.8
937.059	4333.21
937.367	4371.4
937.674	4415.01
937.982	4292.98
938.29	4322.81
938.597	4321.23
938.905	4272.87
939.213	4263.38
939.52	4229.93
939.827	4275.58
940.135	4208.91
940.442	4190.38
940.749	4150.61
941.056	4160.33
941.363	4113.55
941.67	4058.41
941.977	4075.81
942.284	4103.38
942.591	4081.23
942.898	4010.28
943.205	4018.41
943.511	3957.85
943.818	3991.29
944.125	3928.24
944.431	3948.36
944.738	3939.77
945.044	3897.06
945.35	3903.84
945.657	3871.75
945.963	3857.29
946.269	3854.8
946.575	3808.25
946.881	3825.2
947.187	3832.43
947.493	3803.05
947.799	3793.11
948.105	3777.06
948.41	3754.92
948.716	3758.08
949.022	3749.72
949.327	3660.23
949.633	3684.41
949.938	3678.08
950.244	3689.38
950.549	3643.73
950.854	3595.6
951.16	3587.24
951.465	3560.12
951.77	3580.46
952.075	3566.22
952.38	3536.39
952.685	3533.9
952.99	3460.01
953.294	3476.73
953.599	3456.62
953.904	3429.73
954.209	3408.03
954.513	3455.26
954.818	3389.05
955.122	3402.61
955.426	3371.87
955.731	3375.94
956.035	3387.24
956.339	3323.74
956.643	3349.73
956.948	3295.04
957.252	3306.57
957.556	3342.04
957.86	3264.53
958.163	3241.93
958.467	3233.57
958.771	3224.53
959.075	3206.91
959.378	3163.74
959.682	3204.87
959.985	3170.52
960.289	3190.41
960.592	3151.09
960.896	3092.33
961.199	3086.46
961.502	3073.35
961.805	3082.84
962.108	3064.09
962.411	3072.9
962.714	3073.35
963.017	3013.01
963.32	3018.21
963.623	3021.38
963.926	2968.04
964.228	3002.84
964.531	2966.01
964.833	2954.48
965.136	2996.07
965.438	2987.7
965.741	2937.08
966.043	2942.06
966.345	2894.6
966.648	2846.69
966.95	2885.79
967.252	2832.45
967.554	2867.26
967.856	2852.79
968.158	2833.81
968.46	2833.81
968.761	2764.88
969.063	2738.9
969.365	2774.15
969.666	2765.56
969.968	2758.78
970.269	2732.12
970.571	2729.18
970.872	2695.51
971.174	2695.28
971.475	2678.33
971.776	2665.68
972.077	2689.63
972.378	2685.79
972.679	2651.89
972.98	2645.34
973.281	2665.68
973.582	2620.71
973.883	2583.65
974.183	2613.02
974.484	2558.56
974.785	2570.77
975.085	2538.22
975.386	2551.11
975.686	2512.01
975.986	2538.22
976.287	2536.19
976.587	2522.41
976.887	2498.45
977.187	2466.59
977.487	2479.47
977.787	2478.79
978.087	2434.95
978.387	2444.22
978.687	2442.18
978.987	2432.69
979.286	2400.6
979.586	2396.31
979.885	2382.07
980.185	2383.65
980.484	2357.66
980.784	2343.65
981.083	2358.57
981.382	2351.79
981.682	2324.67
981.981	2338.23
982.28	2295.52
982.579	2305.01
982.878	2289.64
983.177	2282.86
983.475	2264.79
983.774	2260.72
984.073	2238.57
984.372	2243.77
984.67	2242.64
984.969	2190.21
985.267	2219.59
985.566	2250.32
985.864	2186.82
986.162	2168.29
986.461	2145.47
986.759	2160.61
987.057	2135.3
987.355	2119.25
987.653	2131.68
987.951	2096.65
988.249	2137.78
988.547	2089.42
988.844	2108.18
989.142	2067.5
989.44	2067.95
989.737	2064.56
990.035	2072.7
990.332	2051.01
990.63	2062.76
990.927	2031.34
991.224	2034.73
991.521	2018.92
991.819	2018.24
992.116	2017.11
992.413	1981.18
992.71	1995.64
993.006	1969.65
993.303	1951.12
993.6	1973.27
993.897	1948.86
994.193	1914.96
994.49	1968.07
994.787	1947.05
995.083	1918.81
995.379	1914.74
995.676	1879.48
995.972	1893.95
996.268	1874.51
996.565	1862.76
996.861	1874.96
997.157	1852.14
997.453	1819.37
997.749	1814.18
998.044	1799.26
998.34	1812.82
998.636	1785.7
998.932	1792.26
999.227	1807.85
999.523	1800.16
999.818	1750.67
1000.114	1769.2
1000.409	1726.95
1000.704	1773.5
1001	1733.5
1001.295	1694.4
1001.59	1712.71
1001.885	1726.95
1002.18	1681.98
1002.475	1708.42
1002.77	1668.19
1003.065	1652.82
1003.359	1671.35
1003.654	1662.99
1003.949	1634.75
1004.243	1638.59
1004.538	1627.51
1004.832	1635.88
1005.127	1629.32
1005.421	1596.55
1005.715	1627.51
1006.009	1582.32
1006.304	1596.78
1006.598	1559.49
1006.892	1526.27
1007.186	1537.8
1007.48	1537.12
1007.773	1534.41
1008.067	1523.79
1008.361	1510.68
1008.655	1502.09
1008.948	1520.17
1009.242	1504.58
1009.535	1492.15
1009.829	1484.24
1010.122	1465.94
1010.415	1448.54
1010.708	1450.12
1011.001	1432.49
1011.295	1434.75
1011.588	1435.65
1011.881	1423.45
1012.173	1394.53
1012.466	1430.91
1012.759	1375.99
1013.052	1394.07
1013.344	1376.67
1013.637	1365.15
1013.93	1364.7
1014.222	1336
1014.514	1363.57
1014.807	1352.49
1015.099	1348.42
1015.391	1325.6
1015.683	1306.84
1015.976	1306.62
1016.268	1314.98
1016.56	1291.03
1016.851	1308.65
1017.143	1286.96
1017.435	1286.73
1017.727	1246.28
1018.018	1240.63
1018.31	1251.93
1018.602	1241.54
1018.893	1243.57
1019.185	1216.68
1019.476	1211.71
1019.767	1210.35
1020.058	1234.3
1020.35	1184.14
1020.641	1204.47
1020.932	1171.25
1021.223	1173.74
1021.514	1194.76
1021.804	1156.11
1022.095	1152.05
1022.386	1148.66
1022.677	1143.68
1022.967	1137.58
1023.258	1133.29
1023.548	1090.13
1023.839	1121.54
1024.129	1122.67
1024.419	1108.88
1024.709	1085.16
1025	1089.9
1025.29	1070.47
1025.58	1057.13
1025.87	1074.76
1026.16	1077.25
1026.449	1061.2
1026.739	1023.69
1027.029	1046.29
1027.319	1022.11
1027.608	1039.05
1027.898	999.96
1028.187	1023.46
1028.477	1012.84
1028.766	1012.84
1029.055	980.07
1029.344	981.2
1029.634	988.89
1029.923	976.01
1030.212	988.66
1030.501	961.99
1030.79	979.17
1031.078	929.45
1031.367	942.11
1031.656	968.55
1031.945	924.71
1032.233	909.11
1032.522	927.42
1032.81	911.6
1033.099	940.07
1033.387	911.83
1033.675	879.28
1033.963	889.45
1034.251	910.92
1034.54	884.93
1034.828	903.92
1035.116	869.34
1035.403	855.1
1035.691	887.65
1035.979	873.64
1036.267	844.26
1036.554	845.39
1036.842	857.14
1037.129	833.86
1037.417	852.39
1037.704	832.96
1037.992	833.64
1038.279	820.98
1038.566	809
1038.853	809
1039.14	809
