Data from plate_ceramic_FLMS001491_034.txt Node
Date: Tue Feb 07 11:16:40 GMT 2017
User: dcchb
Spectrometer: FLMS00149
Trigger mode: 0
Integration Time (sec): 2.000000E-2
Scans to average: 10
Electric dark correction enabled: true
Nonlinearity correction enabled: false
Boxcar width: 0
XAxis mode: Wavelengths
Number of Pixels in Spectrum: 2048
>>>>>Begin Spectral Data<<<<<
341.393	-0.18
341.776	-0.18
342.16	-0.18
342.543	-62.33
342.927	-65.72
343.31	-66.17
343.693	-78.6
344.077	-60.07
344.46	-62.55
344.843	-47.87
345.226	-56.68
345.61	-27.75
345.993	-9.9
346.376	9.08
346.759	31.45
347.142	25.8
347.525	40.72
347.908	59.93
348.291	71
348.674	69.65
349.057	101.96
349.44	114.62
349.823	140.6
350.206	172.24
350.588	221.05
350.971	224.9
351.354	244.78
351.737	261.05
352.119	267.15
352.502	275.97
352.884	286.59
353.267	320.03
353.65	308.51
354.032	338.11
354.414	323.65
354.797	339.69
355.179	334.04
355.562	369.75
355.944	377.89
356.326	370.2
356.709	350.32
357.091	364.78
357.473	375.17
357.855	384.44
358.238	365.68
358.62	377.66
359.002	349.19
359.384	358.68
359.766	363.2
360.148	373.14
360.53	393.93
360.912	375.63
361.294	362.29
361.676	366.13
362.057	365.23
362.439	363.42
362.821	353.93
363.203	343.54
363.584	379.69
363.966	363.42
364.348	361.84
364.729	349.86
365.111	343.99
365.493	360.71
365.874	349.41
366.256	339.69
366.637	351.67
367.019	366.36
367.4	365.23
367.781	367.26
368.163	351.22
368.544	381.5
368.925	370.65
369.306	378.56
369.688	382.86
370.069	351.9
370.45	359.81
370.831	348.73
371.212	370.65
371.593	385.57
371.974	390.99
372.355	384.67
372.736	376.3
373.117	388.28
373.498	395.06
373.879	387.15
374.26	366.59
374.641	384.89
375.021	374.72
375.402	392.12
375.783	398
376.163	405.68
376.544	408.39
376.925	404.55
377.305	396.64
377.686	406.59
378.066	384.21
378.447	423.76
378.827	420.14
379.208	433.7
379.588	425.57
379.968	445.68
380.349	429.64
380.729	437.09
381.109	443.19
381.489	443.42
381.87	443.87
382.25	430.31
382.63	435.29
383.01	436.87
383.39	456.75
383.77	454.95
384.15	484.55
384.53	470.76
384.91	478.22
385.29	484.32
385.67	478.22
386.049	487.71
386.429	460.14
386.809	504.44
387.189	490.88
387.568	494.27
387.948	494.49
388.328	496.98
388.707	514.38
389.087	543.53
389.466	501.05
389.846	534.94
390.225	520.25
390.605	527.26
390.984	543.76
391.363	551.21
391.743	558.9
392.122	548.95
392.501	569.29
392.881	560.48
393.26	589.18
393.639	568.39
394.018	574.72
394.397	581.72
394.776	589.63
395.155	602.51
395.534	590.76
395.913	609.52
396.292	610.2
396.671	606.35
397.05	638.44
397.429	623.53
397.808	649.52
398.186	605.45
398.565	640.7
398.944	682.51
399.323	661.49
399.701	657.43
400.08	656.75
400.458	656.97
400.837	690.65
401.215	685.9
401.594	700.59
401.972	725
402.351	698.56
402.729	716.63
403.107	713.7
403.486	729.29
403.864	730.87
404.242	747.59
404.62	764.32
404.999	772.23
405.377	753.02
405.755	769.97
406.133	774.94
406.511	781.94
406.889	800.47
407.267	814.94
407.645	809.51
408.023	836.18
408.401	875.05
408.779	857.87
409.156	849.96
409.534	874.37
409.912	888.38
410.29	902.17
410.667	906.69
411.045	929.51
411.422	935.61
411.8	933.35
412.178	968.83
412.555	963.63
412.933	995.5
413.31	981.03
413.687	987.14
414.065	999.56
414.442	996.63
414.819	1059
415.197	1048.38
415.574	1039.79
415.951	1055.83
416.328	1078.88
416.705	1070.3
417.082	1068.49
417.46	1098.54
417.837	1122.05
418.214	1150.07
418.591	1131.99
418.967	1118.43
419.344	1169.73
419.721	1202.72
420.098	1193.23
420.475	1196.4
420.852	1186.9
421.228	1220.58
421.605	1226.68
421.982	1254.25
422.358	1261.48
422.735	1299.67
423.111	1285.88
423.488	1313.91
423.864	1326.79
424.241	1356.84
424.617	1351.65
424.994	1342.61
425.37	1345.54
425.746	1380.57
426.123	1406.33
426.499	1411.3
426.875	1430.51
427.251	1454.92
427.627	1468.25
428.003	1519.78
428.379	1517.97
428.756	1528.59
429.132	1534.92
429.507	1559.1
429.883	1585.09
430.259	1613.11
430.635	1641.81
431.011	1655.82
431.387	1697.62
431.763	1695.82
432.138	1688.59
432.514	1746.44
432.89	1756.61
433.265	1789.83
433.641	1825.53
434.016	1847.23
434.392	1859.43
434.767	1854.68
435.143	1872.76
435.518	1905.3
435.894	1925.42
436.269	1934.23
436.644	1975.81
437.02	2005.19
437.395	2023.72
437.77	2053.32
438.145	2049.25
438.52	2064.17
438.895	2098.07
439.271	2060.33
439.646	2157.73
440.021	2181.91
440.395	2179.19
440.77	2164.05
441.145	2189.14
441.52	2248.57
441.895	2248.57
442.27	2256.93
442.645	2239.98
443.019	2303.48
443.394	2307.55
443.769	2373.54
444.143	2347.78
444.518	2374.67
444.892	2393.65
445.267	2406.53
445.641	2420.32
446.016	2427.78
446.39	2478.85
446.764	2453.99
447.139	2451.5
447.513	2518.17
447.887	2510.71
448.262	2559.3
448.636	2538.73
449.01	2581.22
449.384	2586.64
449.758	2640.2
450.132	2648.11
450.506	2654.44
450.88	2690.59
451.254	2715.23
451.628	2733.98
452.002	2751.83
452.376	2786.86
452.75	2819.18
453.123	2834.54
453.497	2877.25
453.871	2911.6
454.244	2991.83
454.618	3006.97
454.992	3061.43
455.365	3023.92
455.739	3152.5
456.112	3126.51
456.486	3173.97
456.859	3215.55
457.232	3293.06
457.606	3296.9
457.979	3325.38
458.352	3399.28
458.725	3419.16
459.099	3425.72
459.472	3538.71
459.845	3520.4
460.218	3579.84
460.591	3643.56
460.964	3639.49
461.337	3716.1
461.71	3821.86
462.083	3843.33
462.456	3806.5
462.829	3824.57
463.201	3942.76
463.574	3938.92
463.947	4025.7
464.32	4093.95
464.692	4149.09
465.065	4185.47
465.438	4235.19
465.81	4312.25
466.183	4308.18
466.555	4451.45
466.928	4464.78
467.3	4519.25
467.672	4523.09
468.045	4656.64
468.417	4682.41
468.789	4712.69
469.161	4775.74
469.534	4877.43
469.906	5022.51
470.278	4955.84
470.65	5030.42
471.022	5088.72
471.394	5295.27
471.766	5240.13
472.138	5342.73
472.51	5488.49
472.882	5580.01
473.253	5577.07
473.625	5722.6
473.997	5840.79
474.369	5831.98
474.74	5931.41
475.112	6104.06
475.484	6139.54
475.855	6247.34
476.227	6261.8
476.598	6455.92
476.97	6514.9
477.341	6661.79
477.713	6846.64
478.084	6863.82
478.455	7061.33
478.827	7117.37
479.198	7306.29
479.569	7323.69
479.94	7514.42
480.311	7592.61
480.682	7778.14
481.053	7947.86
481.424	8127.06
481.795	8086.16
482.166	8210.45
482.537	8333.83
482.908	8539.03
483.279	8693.83
483.65	8878.68
484.021	9028.51
484.391	9114.83
484.762	9212.46
485.133	9320.93
485.503	9431.21
485.874	9649.28
486.244	9654.48
486.615	9941.02
486.985	9988.93
487.356	10164.75
487.726	10348.47
488.097	10513.44
488.467	10505.3
488.837	10816.71
489.207	10918.63
489.578	11021
489.948	11114.55
490.318	11362.91
490.688	11431.38
491.058	11615.56
491.428	11742.33
491.798	11867.07
492.168	12078.37
492.538	12119.27
492.908	12279.72
493.278	12485.14
493.648	12453.95
494.017	12671.57
494.387	12782.08
494.757	12914.51
495.126	13006.93
495.496	13044.67
495.866	13212.12
496.235	13352.69
496.605	13481.95
496.974	13582.06
497.344	13698.89
497.713	13772.79
498.082	13813.92
498.452	14021.37
498.821	14161.93
499.19	14179.33
499.559	14341.13
499.928	14377.97
500.298	14463.84
500.667	14686.21
501.036	14621.58
501.405	14786.55
501.774	14844.17
502.143	15044.62
502.512	15060.44
502.88	15274.67
503.249	15333.88
503.618	15439.64
503.987	15484.16
504.356	15692.29
504.724	15766.63
505.093	15842.56
505.462	15883.92
505.83	16069.9
506.199	16151.48
506.567	16290.46
506.936	16355.77
507.304	16577.46
507.672	16648.87
508.041	16770.22
508.409	16939.94
508.777	17024
509.145	17151.68
509.514	17193.26
509.882	17343.99
510.25	17414.27
510.618	17603.65
510.986	17606.59
511.354	17880.7
511.722	18000.92
512.09	18121.83
512.458	18192.11
512.826	18315.72
513.193	18539.22
513.561	18565.88
513.929	18658.53
514.297	18893.33
514.664	18993.22
515.032	19127.45
515.4	19306.88
515.767	19350.04
516.135	19473.43
516.502	19416.93
516.869	19874.32
517.237	19966.52
517.604	19905.73
517.972	20185.73
518.339	20352.05
518.706	20418.94
519.073	20561.31
519.44	20619.16
519.808	20976.21
520.175	20959.94
520.542	21192.71
520.909	21378.69
521.276	21372.36
521.643	21652.35
522.009	21834.27
522.376	21959.46
522.743	22049.41
523.11	22375.27
523.477	22586.57
523.843	22636.51
524.21	22956.95
524.577	23136.84
524.943	23188.13
525.31	23291.18
525.676	23610.04
526.043	23702.92
526.409	23841.68
526.776	24084.15
527.142	24247.09
527.508	24390.36
527.874	24529.11
528.241	24686.85
528.607	24830.58
528.973	25143.11
529.339	25143.11
529.705	25270.79
530.071	25607.05
530.437	25538.35
530.803	25838.69
531.169	25980.38
531.535	26051.11
531.901	26140.82
532.267	26264.66
532.632	26391.89
532.998	26588.5
533.364	26692.9
533.73	26886.12
534.095	27121.14
534.461	27185.77
534.826	27393.22
535.192	27492.2
535.557	27625.53
535.923	27626.66
536.288	27768.8
536.653	27971.74
537.019	28025.75
537.384	28079.98
537.749	28331.5
538.114	28370.14
538.479	28381.89
538.845	28409.01
539.21	28439.97
539.575	28796.35
539.94	28846.06
540.305	29018.94
540.67	28854.42
541.034	29085.61
541.399	29248.76
541.764	29375.32
542.129	29563.33
542.494	29440.85
542.858	29558.14
543.223	29866.83
543.587	29988.41
543.952	29939.82
544.316	30060.72
544.681	30018.24
545.045	30122.64
545.41	30479.01
545.774	30503.2
546.138	30515.85
546.503	30756.3
546.867	30828.38
547.231	31153.35
547.595	31185.21
547.959	31320.8
548.324	31230.41
548.688	31363.06
549.052	31465.88
549.416	31587.69
549.779	31684.41
550.143	31876.72
550.507	32045.3
550.871	32133.66
551.235	32186.99
551.599	32415.24
551.962	32413.43
552.326	32625.63
552.689	32785.17
553.053	32761.44
553.417	32855.9
553.78	33163.01
554.143	33094.77
554.507	33250.02
554.87	33401.88
555.234	33753.96
555.597	33639.38
555.96	33719.61
556.323	33953.27
556.686	34052.25
557.05	34383.77
557.413	34431.91
557.776	34586.25
558.139	34775.17
558.502	34921.38
558.865	35045
559.228	35314.14
559.59	35204.77
559.953	35469.84
560.316	35774.24
560.679	35842.49
561.041	35921.36
561.404	36055.82
561.767	36508.46
562.129	36376.71
562.492	36777.83
562.854	36762.69
563.217	36792.52
563.579	37082.68
563.941	37315.22
564.304	37430.02
564.666	37854.19
565.028	37658.49
565.39	37904.13
565.753	38157.46
566.115	38220.51
566.477	38463.21
566.839	38474.51
567.201	38775.29
567.563	38722.19
567.925	39165.11
568.287	39129.41
568.648	39187.26
569.01	39342.74
569.372	39571.43
569.734	39558.1
570.095	39867.24
570.457	40045.32
570.819	40181.81
571.18	40204.18
571.542	40457.96
571.903	40445.76
572.265	40657.28
572.626	40698.18
572.987	40823.15
573.349	40945.86
573.71	41080.09
574.071	41332.06
574.432	41316.47
574.794	41614.99
575.155	41485.28
575.516	41404.15
575.877	41851.15
576.238	41833.74
576.599	41832.61
576.96	41942.44
577.32	42054.53
577.681	42275.31
578.042	42363.9
578.403	42233.28
578.763	42250.68
579.124	42485.03
579.485	42700.39
579.845	42881.63
580.206	42619.26
580.566	42633.72
580.927	42551.69
581.287	42713.27
581.648	42774.51
582.008	42849.54
582.368	42864
582.728	43029.65
583.089	42962.98
583.449	42842.76
583.809	42960.95
584.169	43223.76
584.529	42903.77
584.889	43337.21
585.249	42971.79
585.609	42905.81
585.969	43302.63
586.329	43028.29
586.688	43204.1
587.048	43165.46
587.408	43186.48
587.768	43231.45
588.127	43063.32
588.487	43123.2
588.846	43474.15
589.206	43180.83
589.565	43342.41
589.925	43409.97
590.284	43365.46
590.643	43425.12
591.003	43357.55
591.362	43526.13
591.721	43381.5
592.08	43548.73
592.44	43625.56
592.799	43531.33
593.158	43530.42
593.517	43582.4
593.876	43544.43
594.235	43581.27
594.593	43751.21
594.952	43807.03
595.311	43652.23
595.67	43682.74
596.029	43849.28
596.387	43882.28
596.746	43853.8
597.104	43769.29
597.463	43742.62
597.822	43994.37
598.18	43826.46
598.538	43871.43
598.897	44187.36
599.255	43759.57
599.613	44386.45
599.972	44138.54
600.33	44103.29
600.688	43993.69
601.046	44154.59
601.404	44378.76
601.762	44327.46
602.12	44441.13
602.478	44455.6
602.836	44440.46
603.194	44218.99
603.552	44418.08
603.91	44260.8
604.268	44479.32
604.625	44466.9
604.983	44725.65
605.341	44395.26
605.698	44851.29
606.056	44778.3
606.413	44784.4
606.771	44965.19
607.128	44816.94
607.485	44757.06
607.843	44856.26
608.2	45045.86
608.557	45073.21
608.914	45027.33
609.272	45168.8
609.629	45088.8
609.986	45270.26
610.343	45162.24
610.7	45492.63
611.057	45421.45
611.414	45459.64
611.771	45355.91
612.127	45644.94
612.484	45509.35
612.841	45677.71
613.198	45535.12
613.554	45656.47
613.911	46020.3
614.267	45814.43
614.624	45825.28
614.98	45905.5
615.337	46182.1
615.693	46058.04
616.05	46124.25
616.406	46266.62
616.762	46007.19
617.118	45973.07
617.475	46018.04
617.831	46108.43
618.187	46136.46
618.543	46196.12
618.899	46370.12
619.255	46319.73
619.611	46259.84
619.967	46517.01
620.323	46564.69
620.678	46435.88
621.034	46238.37
621.39	46343
621.746	46393.85
622.101	46732.37
622.457	46427.52
622.812	46477.01
623.168	46598.37
623.523	46406.05
623.879	46696.67
624.234	46355.89
624.589	46434.3
624.945	46509.78
625.3	46610.34
625.655	46522.66
626.01	46597.01
626.365	46528.54
626.72	46638.82
627.075	46608.76
627.43	46392.04
627.785	46512.72
628.14	46538.93
628.495	46517.01
628.85	46478.59
629.205	46367.86
629.559	46532.15
629.914	46346.85
630.269	46345.94
630.623	46359.5
630.978	46204.7
631.332	46377.35
631.687	46434.98
632.041	46176.23
632.396	46319.95
632.75	46081.32
633.104	46154.31
633.459	45904.15
633.813	45931.04
634.167	46008.78
634.521	45918.38
634.875	45930.59
635.229	45759.74
635.583	45749.35
635.937	45881.55
636.291	45609.92
636.645	45648.79
636.999	45701.21
637.352	45590.93
637.706	45420.54
638.06	45587.77
638.413	45442.01
638.767	45316.14
639.121	45408.79
639.474	45246.76
639.828	45177.16
640.181	45301.9
640.534	45300.32
640.888	45139.87
641.241	44881.12
641.594	45062.59
641.947	45183.04
642.301	45011.06
642.654	45026.2
643.007	44953.89
643.36	44845.42
643.713	44894
644.066	45072.98
644.419	44606.1
644.771	44257.41
645.124	43945.55
645.477	43916.63
645.83	43675.28
646.182	43522.29
646.535	43432.57
646.888	43595.73
647.24	43333.59
647.593	43637.09
647.945	43503.31
648.298	43292.69
648.65	43238
649.002	43121.62
649.355	43149.64
649.707	43169.3
650.059	43381.27
650.411	43849.96
650.763	43824.43
651.115	44198.88
651.467	44013.57
651.819	43827.36
652.171	43845.9
652.523	43739.23
652.875	43675.96
653.227	43495.17
653.578	43881.83
653.93	43704.88
654.282	43610.2
654.633	43504.44
654.985	43609.07
655.337	43675.5
655.688	43619.46
656.039	43590.08
656.391	43261.73
656.742	43376.75
657.094	43308.06
657.445	43534.26
657.796	43301.28
658.147	43262.86
658.498	43238
658.849	43335.85
659.2	43268.06
659.551	43053.6
659.902	43198.45
660.253	43141.05
660.604	43084.56
660.955	43134.73
661.306	43226.7
661.656	42943.55
662.007	43091.11
662.358	43127.5
662.708	42975.18
663.059	43078.46
663.409	42846.15
663.76	42928.18
664.11	42907.16
664.461	42976.09
664.811	43062.86
665.161	43069.19
665.511	42821.52
665.862	42995.52
666.212	42917.11
666.562	42890.44
666.912	42895.41
667.262	42882.53
667.612	42769.99
667.962	42810.67
668.312	42697
668.662	42938.12
669.011	42755.3
669.361	42790.78
669.711	42561.86
670.06	42588.98
670.41	42468.98
670.76	42426.95
671.109	42622.88
671.459	42596.44
671.808	42440.96
672.157	42532.48
672.507	42304.92
672.856	42256.33
673.205	42293.17
673.554	42411.13
673.904	42322.32
674.253	42396.44
674.602	42287.52
674.951	41742
675.3	41592.85
675.649	42149.67
675.998	42124.81
676.346	42084.81
676.695	42381.07
677.044	42057.02
677.393	42151.48
677.741	42197.8
678.09	41909.45
678.438	41941.76
678.787	42048.2
679.135	42092.95
679.484	41788.77
679.832	41946.51
680.181	41655.9
680.529	41802.11
680.877	41569.34
681.225	41687.99
681.573	41852.05
681.922	41501.55
682.27	41309.92
682.618	41451.61
682.966	41328.67
683.314	41441.21
683.661	41148.79
684.009	41090.26
684.357	40808.46
684.705	40881.68
685.053	41082.13
685.4	41047.78
685.748	40897.72
686.095	40811.17
686.443	40564.4
686.79	40436.49
687.138	40435.82
687.485	40489.83
687.832	40507.45
688.18	40512.65
688.527	40222.04
688.874	40192.88
689.221	39869.95
689.568	39874.25
689.915	39837.41
690.262	39814.14
690.609	39828.37
690.956	39635.38
691.303	39637.42
691.65	39349.74
691.997	39377.99
692.344	39344.09
692.69	39344.09
693.037	39364.21
693.383	38940.71
693.73	39041.95
694.077	38966.02
694.423	38969.19
694.769	38793.82
695.116	38726.71
695.462	38648.97
695.808	38543.66
696.155	38669.99
696.501	38196.55
696.847	38125.59
697.193	38017.8
697.539	38103.22
697.885	37848.76
698.231	37804.47
698.577	37861.65
698.923	37671.37
699.269	37292.17
699.614	37152.74
699.96	37237.03
700.306	37116.58
700.651	37157.71
700.997	36966.53
701.342	37041.1
701.688	36899.86
702.033	36685.18
702.379	36760.21
702.724	36519.08
703.069	36702.58
703.415	36276.38
703.76	36371.74
704.105	36228.24
704.45	36173.1
704.795	35856.73
705.14	35710.06
705.485	35769.27
705.83	35637.07
706.175	35748.48
706.52	35626.45
706.865	35560.01
707.209	35407.7
707.554	35430.52
707.899	35390.07
708.243	35124.09
708.588	35181.72
708.932	34789.64
709.277	34880.71
709.621	34789.86
709.966	34683.65
710.31	34825.57
710.654	34488.4
710.998	34722.97
711.342	34574.5
711.687	34354.62
712.031	34412.92
712.375	34266.03
712.719	34291.34
713.063	34135.42
713.407	34286.6
713.75	34018.13
714.094	34090.9
714.438	33947.4
714.782	34003.22
715.125	33818.59
715.469	33869.43
715.812	33696.56
716.156	33552.83
716.499	33585.37
716.843	33465.6
717.186	33256.57
717.53	33465.6
717.873	33426.06
718.216	33271.94
718.559	33317.58
718.902	33050.25
719.246	33059.96
719.589	32838.05
719.932	32875.79
720.275	32891.83
720.617	32706.08
720.96	32692.29
721.303	32674.66
721.646	32829.69
721.989	32377.72
722.331	32532.97
722.674	32460.43
723.016	32369.13
723.359	32344.73
723.701	32311.96
724.044	32116.03
724.386	32010.05
724.729	32147.67
725.071	32048.47
725.413	32010.27
725.755	31861.35
726.097	31746.33
726.439	31714.69
726.782	31709.49
727.124	31828.81
727.465	31659.32
727.807	31524.19
728.149	31482.15
728.491	31503.85
728.833	31548.37
729.175	31340.91
729.516	31338.43
729.858	31354.02
730.199	31424.3
730.541	31266.56
730.882	31215.27
731.224	31187.24
731.565	31041.94
731.906	31005.1
732.248	31146.57
732.589	30933.69
732.93	30859.57
733.271	30719.91
733.612	30876.29
733.953	30775.73
734.294	30612.12
734.635	30592.01
734.976	30604.21
735.317	30492.35
735.658	30481.5
735.999	30497.77
736.339	30328.51
736.68	30492.12
737.021	30359.02
737.361	30207.61
737.702	30341.62
738.042	30337.78
738.383	30164.67
738.723	30197.89
739.063	30048.97
739.404	30196.76
739.744	30105.47
740.084	29834.51
740.424	29985.24
740.764	29903.44
741.104	29937.79
741.444	29764.46
741.784	29639.26
742.124	29668.87
742.464	29719.26
742.804	29532.83
743.143	29590.45
743.483	29485.14
743.823	29445.82
744.162	29417.35
744.502	29414.41
744.841	29265.04
745.181	29262.55
745.52	29211.48
745.86	29166.28
746.199	29070.01
746.538	29074.08
746.877	29093.06
747.216	29085.15
747.556	28884.03
747.895	28959.28
748.234	28740.98
748.573	28689.68
748.911	28676.58
749.25	28760.64
749.589	28555.22
749.928	28626.63
750.267	28587.09
750.605	28481.33
750.944	28433.19
751.283	28314.1
751.621	28404.27
751.96	28171.73
752.298	28084.28
752.636	28123.37
752.975	27955.01
753.313	28002.7
753.651	28020.1
753.989	27829.37
754.327	27810.38
754.666	27712.53
755.004	27805.19
755.342	27790.95
755.679	27657.39
756.017	27499.43
756.355	27576.94
756.693	27411.98
757.031	27286.33
757.368	27223.96
757.706	27234.58
758.044	27153.9
758.381	27167.69
758.719	27013.57
759.056	27061.7
759.394	26964.53
759.731	26794.14
760.068	26823.07
760.405	26715.95
760.743	26618.78
761.08	26632.79
761.417	26507.82
761.754	26459.23
762.091	26292.91
762.428	26116.19
762.765	26085.23
763.102	26168.85
763.438	25937.67
763.775	25941.28
764.112	25913.94
764.449	25848.63
764.785	25667.16
765.122	25676.43
765.458	25419.94
765.795	25482.54
766.131	25429.43
766.467	25256.78
766.804	25189.21
767.14	25028.31
767.476	25099.04
767.812	24923.68
768.148	24912.83
768.485	24814.31
768.821	24654.99
769.157	24574.31
769.492	24579.28
769.828	24479.62
770.164	24339.52
770.5	24367.09
770.836	24287.31
771.171	24031.73
771.507	24169.35
771.842	23935.68
772.178	23824.73
772.513	23850.49
772.849	23719.42
773.184	23482.14
773.519	23515.58
773.855	23424.06
774.19	23367.56
774.525	23217.29
774.86	23177.74
775.195	23145.42
775.53	23172.09
775.865	23045.76
776.2	22829.5
776.535	22630.86
776.87	22659.33
777.205	22559
777.539	22580.47
777.874	22550.18
778.209	22348.61
778.543	22409.85
778.878	22091.89
779.212	22164.43
779.547	22027.94
779.881	22022.29
780.215	21854.16
780.55	21835.4
780.884	21764.44
781.218	21652.58
781.552	21640.38
781.886	21542.07
782.22	21420.04
782.554	21427.95
782.888	21175.98
783.222	21154.29
783.556	20997.91
783.889	20901.41
784.223	20834.75
784.557	20755.88
784.89	20887.85
785.224	20647.86
785.557	20583.68
785.891	20518.15
786.224	20434.31
786.558	20420.97
786.891	20281.09
787.224	20248.1
787.557	20186.4
787.891	20133.75
788.224	20127.2
788.557	20197.03
788.89	19936.47
789.223	19960.65
789.556	19733.99
789.888	19786.64
790.221	19681.78
790.554	19521.34
790.887	19541.9
791.219	19447.44
791.552	19436.82
791.884	19329.48
792.217	19229.37
792.549	19162.25
792.882	18969.49
793.214	18966.78
793.546	18896.95
793.879	18842.03
794.211	18703.51
794.543	18862.37
794.875	18792.77
795.207	18823.5
795.539	18705.31
795.871	18639.33
796.203	18493.34
796.535	18341.03
796.867	18319.79
797.198	18228.94
797.53	18256.74
797.862	18120.47
798.193	18188.72
798.525	18104.2
798.856	18090.87
799.188	17964.32
799.519	17886.35
799.85	17741.72
800.182	17856.97
800.513	17797.09
800.844	17631.67
801.175	17662.85
801.506	17608.39
801.837	17625.12
802.168	17481.62
802.499	17417.21
802.83	17337.21
803.161	17351.68
803.491	17188.52
803.822	17321.62
804.153	17096.99
804.483	17044.11
804.814	16977
805.145	16986.71
805.475	16960.5
805.805	16851.35
806.136	16924.57
806.466	16836.44
806.796	16823.1
807.126	16610.45
807.457	16581.53
807.787	16635.76
808.117	16539.49
808.447	16473.96
808.777	16532.72
809.107	16332.49
809.436	16272.61
809.766	16266.28
810.096	16177.7
810.426	16226.73
810.755	16197.58
811.085	16155.32
811.414	16030.58
811.744	15937.02
812.073	15898.61
812.403	15923.69
812.732	15886.63
813.061	15864.94
813.39	15755.33
813.719	15793.75
814.049	15840.3
814.378	15711.72
814.707	15670.14
815.036	15570.48
815.365	15565.73
815.693	15486.19
816.022	15437.83
816.351	15382.69
816.68	15327.32
817.008	15374.33
817.337	15201.68
817.665	15255.01
817.994	15210.49
818.322	15247.33
818.651	15155.8
818.979	15148.8
819.307	15070.83
819.636	15065.18
819.964	14935.92
820.292	15009.59
820.62	14968.01
820.948	14943.15
821.276	14900.22
821.604	14881.68
821.932	14953.1
822.259	14940.21
822.587	14986.31
822.915	14901.35
823.243	14945.41
823.57	14950.16
823.898	14951.74
824.225	14892.98
824.553	14892.08
824.88	14852.53
825.207	14924.17
825.535	14754.46
825.862	14729.82
826.189	14805.3
826.516	14902.48
826.843	14873.55
827.17	14849.82
827.497	14909.71
827.824	14888.69
828.151	14910.84
828.478	14884.62
828.805	14856.6
829.131	14782.03
829.458	14784.06
829.785	14709.03
830.111	14740.22
830.438	14840.1
830.764	14750.84
831.09	14782.7
831.417	14703.38
831.743	14741.58
832.069	14659.77
832.395	14614.8
832.722	14751.97
833.048	14713.55
833.374	14646.89
833.7	14561.24
834.026	14619.77
834.351	14616.83
834.677	14531.64
835.003	14717.62
835.329	14571.41
835.654	14603.73
835.98	14497.74
836.306	14517.63
836.631	14348.82
836.956	14432.43
837.282	14517.4
837.607	14305.2
837.932	14356.95
838.258	14354.02
838.583	14381.81
838.908	14277.41
839.233	14272.66
839.558	14232.44
839.883	14207.13
840.208	14150.18
840.533	14255.49
840.858	14213.45
841.182	14226.33
841.507	14172.55
841.832	14056.4
842.156	14069.05
842.481	14037.87
842.805	13913.57
843.13	13938.88
843.454	13917.87
843.778	13932.78
844.103	13870.64
844.427	13854.37
844.751	13832.67
845.075	13769.62
845.399	13762.17
845.723	13676.29
846.047	13713.13
846.371	13583.87
846.695	13561.95
847.019	13434.94
847.343	13313.14
847.666	13287.83
847.99	13269.75
848.313	13180.03
848.637	13144.78
848.96	13190.43
849.284	13090.77
849.607	12997.67
849.931	13047.38
850.254	12868.86
850.577	12887.16
850.9	12772.81
851.223	12778.46
851.546	12747.05
851.869	12679.71
852.192	12597
852.515	12546.15
852.838	12540.28
853.161	12455.76
853.483	12488.53
853.806	12398.36
854.129	12282.43
854.451	12279.49
854.774	12228.65
855.096	12196.11
855.419	12178.93
855.741	12180.29
856.063	12113.4
856.385	12084.02
856.708	12075.43
857.03	12037.92
857.352	11968.99
857.674	11906.85
857.996	11928.99
858.318	11752.5
858.64	11785.04
858.961	11729.9
859.283	11701.66
859.605	11697.14
859.926	11740.52
860.248	11749.11
860.57	11694.42
860.891	11649.45
861.212	11530.36
861.534	11473.41
861.855	11534.88
862.176	11550.47
862.498	11528.55
862.819	11543.69
863.14	11470.02
863.461	11404.04
863.782	11413.53
864.103	11334.89
864.424	11264.15
864.745	11317.26
865.065	11220.54
865.386	11172.63
865.707	11165.62
866.027	11267.77
866.348	11164.72
866.668	11226.64
866.989	11143.48
867.309	11031.16
867.63	11103.03
867.95	11061.22
868.27	10964.73
868.59	11057.83
868.91	10993.88
869.23	10968.12
869.55	10956.59
869.87	11053.54
870.19	10950.26
870.51	10969.47
870.83	10952.97
871.15	10845.41
871.469	10861.45
871.789	10854.9
872.109	10849.02
872.428	10805.41
872.748	10772.87
873.067	10830.72
873.386	10820.77
873.706	10746.88
874.025	10712.53
874.344	10743.94
874.663	10718.18
874.982	10755.92
875.301	10665.52
875.62	10679.08
875.939	10609.93
876.258	10560.89
876.577	10571.97
876.896	10532.65
877.214	10506.21
877.533	10467.34
877.852	10474.12
878.17	10426.89
878.489	10411.52
878.807	10449.49
879.125	10458.52
879.444	10421.46
879.762	10394.12
880.08	10424.85
880.398	10320.22
880.716	10290.17
881.034	10249.49
881.352	10266.44
881.67	10304.18
881.988	10266.44
882.306	10222.82
882.624	10248.59
882.941	10186.44
883.259	10064.64
883.577	10161.13
883.894	10163.39
884.212	10119.55
884.529	10049.27
884.846	10052.89
885.164	10016.28
885.481	10008.59
885.798	10006.33
886.115	9958.65
886.432	9885.43
886.75	9813.8
887.067	9866.68
887.383	9832.55
887.7	9850.18
888.017	9772.89
888.334	9809.05
888.651	9729.05
888.967	9751.42
889.284	9715.72
889.6	9644.08
889.917	9602.05
890.233	9651.77
890.55	9522.28
890.866	9517.98
891.182	9528.61
891.498	9492.45
891.815	9506.91
892.131	9442.73
892.447	9361.15
892.763	9329.51
893.079	9355.5
893.395	9286.8
893.71	9364.77
894.026	9278.67
894.342	9280.7
894.657	9195.96
894.973	9180.14
895.289	9216.07
895.604	9213.36
895.92	9132.68
896.235	9084.78
896.55	9103.98
896.865	9026.92
897.181	8915.29
897.496	8998.9
897.811	8948.06
898.126	8930.2
898.441	8838.68
898.756	8878.23
899.071	8831
899.386	8776.99
899.7	8725.91
900.015	8699.93
900.33	8583.09
900.644	8661.51
900.959	8644.79
901.273	8653.15
901.588	8565.01
901.902	8537.67
902.216	8487.95
902.531	8499.03
902.845	8463.1
903.159	8377.45
903.473	8335.19
903.787	8287.73
904.101	8305.36
904.415	8267.62
904.729	8290.67
905.042	8172.03
905.356	8226.94
905.67	8184.46
905.984	8174.52
906.297	8127.06
906.611	8073.95
906.924	8003.45
907.237	7985.82
907.551	7955.77
907.864	7902.21
908.177	7932.94
908.491	7871.25
908.804	7877.8
909.117	7841.87
909.43	7846.62
909.743	7740.4
910.056	7735.66
910.368	7679.16
910.681	7714.64
910.994	7646.62
911.307	7606.4
911.619	7550.35
911.932	7628.32
912.244	7497.7
912.557	7461.54
912.869	7424.25
913.181	7427.64
913.494	7334.76
913.806	7356.91
914.118	7294.99
914.43	7248.89
914.742	7238.72
915.054	7212.96
915.366	7141.55
915.678	7151.94
915.99	7116.47
916.302	7073.08
916.613	7043.02
916.925	7036.24
917.236	7037.37
917.548	7004.15
917.859	6987.43
918.171	6980.2
918.482	6881.44
918.794	6831.73
919.105	6832.18
919.416	6759.86
919.727	6789.69
920.038	6679.64
920.349	6702.01
920.66	6618.63
920.971	6683.03
921.282	6615.46
921.593	6596.71
921.903	6550.15
922.214	6528.91
922.525	6517.39
922.835	6489.59
923.146	6498.18
923.456	6468.12
923.767	6393.77
924.077	6399.87
924.387	6424.28
924.697	6336.6
925.008	6371.17
925.318	6274.45
925.628	6247.34
925.938	6153.78
926.248	6169.82
926.558	6182.48
926.867	6177.28
927.177	6093.89
927.487	6088.24
927.796	6031.75
928.106	6002.82
928.416	6002.82
928.725	5938.87
929.034	5891.64
929.344	5943.61
929.653	5905.42
929.962	5876.95
930.271	5889.15
930.581	5829.49
930.89	5792.21
931.199	5743.62
931.508	5796.73
931.817	5751.98
932.125	5689.61
932.434	5708.59
932.743	5631.98
933.051	5603.74
933.36	5598.77
933.669	5556.51
933.977	5561.93
934.286	5555.38
934.594	5557.86
934.902	5447.36
935.21	5416.85
935.519	5415.27
935.827	5412.78
936.135	5437.64
936.443	5355.38
936.751	5346.12
937.059	5297.3
937.367	5224.31
937.674	5300.92
937.982	5230.64
938.29	5244.42
938.597	5207.59
938.905	5179.34
939.213	5196.74
939.52	5139.12
939.827	5161.94
940.135	5121.26
940.442	5116.29
940.749	5035.62
941.056	5081.49
941.363	5023.19
941.67	4978.67
941.977	4970.53
942.284	4964.21
942.591	4921.27
942.898	4897.09
943.205	4887.37
943.511	4872.46
943.818	4856.64
944.125	4796.3
944.431	4775.06
944.738	4773.02
945.044	4768.05
945.35	4775.28
945.657	4640.15
945.963	4674.04
946.269	4677.21
946.575	4699.35
946.881	4611.9
947.187	4600.37
947.493	4622.07
947.799	4601.05
948.105	4540.49
948.41	4515.63
948.716	4538
949.022	4502.75
949.327	4448.74
949.633	4437.67
949.938	4411.68
950.244	4445.58
950.549	4409.19
950.854	4398.34
951.16	4383.43
951.465	4319.93
951.77	4348.18
952.075	4300.27
952.38	4285.13
952.685	4279.7
952.99	4250.33
953.294	4247.16
953.599	4247.39
953.904	4202.42
954.209	4144.57
954.513	4187.5
954.818	4130.78
955.122	4126.26
955.426	4043.55
955.731	4087.84
956.035	4061.86
956.339	4030.22
956.643	4046.26
956.948	3998.13
957.252	3963.78
957.556	3975.31
957.86	3959.03
958.163	3975.76
958.467	3938.92
958.771	3912.71
959.075	3901.41
959.378	3874.06
959.682	3872.71
959.985	3881.97
960.289	3808.08
960.592	3781.19
960.896	3776.21
961.199	3760.62
961.502	3735.31
961.805	3747.97
962.108	3696.89
962.411	3691.24
962.714	3663
963.017	3679.27
963.32	3660.06
963.623	3638.82
963.926	3649.21
964.228	3637.46
964.531	3618.25
964.833	3603.79
965.136	3603.34
965.438	3528.76
965.741	3569.44
966.043	3515.66
966.345	3503
966.648	3496
966.95	3489.67
967.252	3506.16
967.554	3449.9
967.856	3426.84
968.158	3397.24
968.46	3401.76
968.761	3400.63
969.063	3338.03
969.365	3333.74
969.666	3366.73
969.968	3318.37
970.269	3297.36
970.571	3320.86
970.872	3318.83
971.174	3276.11
971.475	3269.79
971.776	3252.16
972.077	3205.38
972.378	3221.65
972.679	3198.6
972.98	3143.91
973.281	3168.55
973.582	3175.78
973.883	3135.33
974.183	3132.16
974.484	3101.43
974.785	3092.84
975.085	3056.01
975.386	3080.64
975.686	3062.11
975.986	3052.84
976.287	3026.4
976.587	3041.09
976.887	3004.48
977.187	2967.87
977.487	2981.66
977.787	2978.95
978.087	2967.65
978.387	2919.97
978.687	2950.7
978.987	2925.39
979.286	2903.24
979.586	2863.7
979.885	2929.46
980.185	2835.9
980.484	2849.23
980.784	2840.87
981.083	2864.83
981.382	2806.3
981.682	2777.6
981.981	2787.31
982.28	2743.93
982.579	2738.5
982.878	2742.57
983.177	2735.11
983.475	2752.06
983.774	2729.69
984.073	2705.73
984.372	2703.93
984.67	2715.23
984.969	2733.76
985.267	2651.95
985.566	2639.3
985.864	2611.05
986.162	2646.07
986.461	2613.31
986.759	2596.13
987.057	2595.68
987.355	2603.36
987.653	2556.36
987.951	2574.89
988.249	2547.32
988.547	2549.35
988.844	2512.07
989.142	2516.36
989.44	2478.62
989.737	2493.31
990.035	2462.8
990.332	2482.46
990.63	2447.44
990.927	2438.62
991.224	2409.92
991.521	2383.71
991.819	2420.32
992.116	2383.71
992.413	2376.7
992.71	2390.04
993.006	2347.78
993.303	2368.34
993.6	2308.91
993.897	2303.71
994.193	2349.36
994.49	2305.97
994.787	2295.58
995.083	2261.9
995.379	2303.26
995.676	2264.16
995.972	2269.14
996.268	2251.96
996.565	2239.31
996.861	2240.66
997.157	2176.03
997.453	2189.14
997.749	2198.18
998.044	2145.97
998.34	2145.75
998.636	2152.75
998.932	2118.63
999.227	2094.45
999.523	2094.22
999.818	2117.27
1000.114	2069.37
1000.409	2067.11
1000.704	2055.58
1001	2044.06
1001.295	2055.13
1001.59	2034.57
1001.885	2047.9
1002.18	2025.53
1002.475	2009.48
1002.77	1964.06
1003.065	1960.67
1003.359	1944.85
1003.654	1975.13
1003.949	1955.7
1004.243	1942.59
1004.538	1908.47
1004.832	1944.4
1005.127	1937.39
1005.421	1882.25
1005.715	1862.37
1006.009	1884.06
1006.304	1870.28
1006.598	1839.77
1006.892	1861.24
1007.186	1810.84
1007.48	1843.61
1007.773	1823.95
1008.067	1825.76
1008.361	1790.96
1008.655	1794.12
1008.948	1788.7
1009.242	1767.45
1009.535	1765.65
1009.829	1759.54
1010.122	1710.05
1010.415	1715.7
1010.708	1746.44
1011.001	1695.14
1011.295	1690.85
1011.588	1695.14
1011.881	1666.44
1012.173	1675.25
1012.466	1658.76
1012.759	1652.65
1013.052	1601.81
1013.344	1619.66
1013.637	1639.55
1013.93	1598.87
1014.222	1610.62
1014.514	1582.83
1014.807	1581.7
1015.099	1581.02
1015.391	1574.69
1015.683	1544.86
1015.976	1562.49
1016.268	1555.93
1016.56	1531.3
1016.851	1544.63
1017.143	1514.58
1017.435	1476.16
1017.727	1484.3
1018.018	1486.78
1018.31	1452.89
1018.602	1475.94
1018.893	1443.85
1019.185	1431.19
1019.476	1441.13
1019.767	1425.77
1020.058	1451.76
1020.35	1420.8
1020.641	1393.9
1020.932	1410.4
1021.223	1368.59
1021.514	1376.05
1021.804	1338.31
1022.095	1352.55
1022.386	1351.42
1022.677	1340.35
1022.967	1307.13
1023.258	1336.28
1023.548	1309.61
1023.839	1318.43
1024.129	1314.13
1024.419	1294.7
1024.709	1283.4
1025	1290.63
1025.29	1261.03
1025.58	1237.52
1025.87	1237.07
1026.16	1234.36
1026.449	1239.56
1026.739	1217.64
1027.029	1221.03
1027.319	1189.39
1027.608	1200.24
1027.898	1184.87
1028.187	1196.17
1028.477	1198.43
1028.766	1187.13
1029.055	1144.65
1029.344	1140.13
1029.634	1141.48
1029.923	1112.33
1030.212	1141.26
1030.501	1100.13
1030.79	1114.14
1031.078	1132.44
1031.367	1113.69
1031.656	1080.01
1031.945	1070.52
1032.233	1075.04
1032.522	1052.22
1032.81	1072.78
1033.099	1063.52
1033.387	1054.25
1033.675	1034.14
1033.963	1021.26
1034.251	1044.08
1034.54	1022.84
1034.828	1012.9
1035.116	999.79
1035.403	1015.61
1035.691	1002.05
1035.979	988.49
1036.267	967.47
1036.554	978.77
1036.842	990.07
1037.129	984.88
1037.417	978.77
1037.704	965.44
1037.992	929.51
1038.279	929.28
1038.566	945.78
1038.853	945.78
1039.14	945.78
