Data from plate_ceramic_FLMS001491_012.txt Node
Date: Tue Feb 07 11:16:22 GMT 2017
User: dcchb
Spectrometer: FLMS00149
Trigger mode: 0
Integration Time (sec): 2.000000E-2
Scans to average: 10
Electric dark correction enabled: true
Nonlinearity correction enabled: false
Boxcar width: 0
XAxis mode: Wavelengths
Number of Pixels in Spectrum: 2048
>>>>>Begin Spectral Data<<<<<
341.393	-1.78
341.776	-1.78
342.16	-1.78
342.543	-68.67
342.927	-49.46
343.31	-62.34
343.693	-80.2
344.077	-55.11
344.46	-57.37
344.843	-40.87
345.226	-49.69
345.61	-46.98
345.993	-17.37
346.376	-28.22
346.759	20.59
347.142	37.77
347.525	49.74
347.908	63.98
348.291	83.87
348.674	79.57
349.057	102.62
349.44	125.9
349.823	145.56
350.206	179.91
350.588	209.29
350.971	235.95
351.354	250.87
351.737	266.24
352.119	254.26
352.502	275.5
352.884	300.13
353.267	280.25
353.65	341.26
354.032	326.35
354.414	318.21
354.797	347.82
355.179	336.06
355.562	346.69
355.944	321.6
356.326	348.49
356.709	366.57
357.091	355.73
357.473	378.55
357.855	371.54
358.238	369.28
358.62	364.31
359.002	366.8
359.384	386.01
359.766	377.87
360.148	357.53
360.53	372.22
360.912	355.95
361.294	354.82
361.676	349.62
362.057	381.26
362.439	362.96
362.821	364.31
363.203	359.11
363.584	374.93
363.966	354.82
364.348	372.9
364.729	368.61
365.111	361.6
365.493	362.73
365.874	355.95
366.256	342.62
366.637	356.63
367.019	376.29
367.4	350.08
367.781	355.73
368.163	361.6
368.544	367.25
368.925	353.69
369.306	364.54
369.688	367.48
370.069	358.89
370.45	357.08
370.831	385.1
371.212	359.11
371.593	358.89
371.974	370.87
372.355	385.55
372.736	380.81
373.117	375.61
373.498	370.64
373.879	384.42
374.26	374.71
374.641	360.24
375.021	372.22
375.402	386.91
375.783	410.64
376.163	423.07
376.544	397.53
376.925	418.55
377.305	395.27
377.686	409.28
378.066	400.7
378.447	435.05
378.827	397.98
379.208	421.26
379.588	429.62
379.968	400.92
380.349	430.07
380.729	432.79
381.109	426.46
381.489	433.24
381.87	434.82
382.25	465.1
382.63	439.34
383.01	450.64
383.39	440.24
383.77	458.77
384.15	448.6
384.53	468.04
384.91	450.86
385.29	461.71
385.67	477.98
386.049	477.3
386.429	468.94
386.809	484.99
387.189	490.86
387.568	499.68
387.948	485.44
388.328	496.96
388.707	503.74
389.087	522.95
389.466	500.58
389.846	519.34
390.225	524.08
390.605	532.67
390.984	520.01
391.363	517.53
391.743	519.34
392.122	565.44
392.501	555.27
392.881	575.15
393.26	541.26
393.639	560.47
394.018	565.89
394.397	578.32
394.776	576.74
395.155	577.41
395.534	600.24
395.913	601.59
396.292	633.23
396.671	581.93
397.05	589.39
397.429	617.41
397.808	617.87
398.186	627.13
398.565	638.43
398.944	636.85
399.323	650.18
399.701	654.25
400.08	650.18
400.458	672.78
400.837	662.38
401.215	684.98
401.594	682.27
401.972	690.41
402.351	699.9
402.729	693.34
403.107	693.34
403.486	706.68
403.864	725.21
404.242	714.13
404.62	725.21
404.999	746.9
405.377	743.96
405.755	741.7
406.133	747.81
406.511	735.15
406.889	765.88
407.267	793.23
407.645	780.57
408.023	796.39
408.401	830.06
408.779	820.8
409.156	855.15
409.534	850.18
409.912	870.97
410.29	880.46
410.667	884.52
411.045	898.76
411.422	893.34
411.8	926.11
412.178	904.64
412.555	942.38
412.933	946.44
413.31	972.66
413.687	990.74
414.065	972.88
414.442	997.52
414.819	1006.33
415.197	1010.4
415.574	1042.94
415.951	1046.1
416.328	1062.37
416.705	1048.36
417.082	1096.95
417.46	1095.59
417.837	1112.99
418.214	1108.7
418.591	1094.24
418.967	1122.71
419.344	1111.64
419.721	1144.18
420.098	1149.38
420.475	1204.06
420.852	1186.21
421.228	1170.17
421.605	1199.32
421.982	1226.66
422.358	1245.42
422.735	1245.19
423.111	1238.19
423.488	1286.77
423.864	1245.42
424.241	1296.72
424.617	1308.02
424.994	1324.29
425.37	1342.59
425.746	1303.72
426.123	1378.52
426.499	1392.08
426.875	1383.04
427.251	1416.71
427.627	1459.2
428.003	1458.75
428.379	1483.38
428.756	1462.81
429.132	1496.94
429.507	1550.72
429.883	1530.61
430.259	1552.76
430.635	1583.94
431.011	1641.34
431.387	1629.59
431.763	1671.17
432.138	1710.04
432.514	1705.07
432.89	1723.37
433.265	1762.02
433.641	1761.11
434.016	1797.27
434.392	1809.25
434.767	1856.48
435.143	1849.25
435.518	1848.79
435.894	1889.92
436.269	1936.02
436.644	1932.86
437.02	1935.8
437.395	1975.8
437.77	1986.87
438.145	2010.37
438.52	2054.44
438.895	2031.39
439.271	2057.83
439.646	2107.54
440.021	2126.98
440.395	2138.28
440.77	2120.65
441.145	2164.27
441.52	2156.36
441.895	2183.93
442.27	2218.05
442.645	2219.4
443.019	2270.7
443.394	2285.62
443.769	2290.36
444.143	2278.39
444.518	2295.56
444.892	2304.15
445.267	2340.98
445.641	2352.96
446.016	2379.85
446.39	2422.11
446.764	2433.41
447.139	2406.97
447.513	2460.98
447.887	2449.46
448.262	2437.25
448.636	2500.3
449.01	2501.21
449.384	2564.25
449.758	2580.3
450.132	2594.31
450.506	2598.38
450.88	2624.37
451.254	2648.09
451.628	2666.85
452.002	2738.49
452.376	2735.78
452.75	2748.88
453.123	2734.19
453.497	2844.93
453.871	2802.21
454.244	2910.91
454.618	2887.41
454.992	2924.7
455.365	2986.16
455.739	3091.47
456.112	3031.59
456.486	3070.68
456.859	3157.01
457.232	3206.05
457.606	3180.96
457.979	3236.1
458.352	3300.28
458.725	3352.93
459.099	3351.13
459.472	3378.47
459.845	3483.1
460.218	3545.92
460.591	3532.59
460.964	3531.46
461.337	3639.93
461.71	3691.91
462.083	3721.51
462.456	3728.74
462.829	3721.06
463.201	3816.88
463.574	3850.1
463.947	3909.3
464.32	3996.99
464.692	3994.5
465.065	4069.98
465.438	4113.37
465.81	4168.96
466.183	4231.33
466.555	4333.25
466.928	4350.42
467.3	4336.41
467.672	4413.47
468.045	4530.98
468.417	4558.1
468.789	4623.18
469.161	4690.98
469.534	4715.38
469.906	4840.35
470.278	4895.94
470.65	4900.01
471.022	5027.47
471.394	5116.28
471.766	5140.91
472.138	5195.15
472.51	5296.84
472.882	5435.59
473.253	5492.99
473.625	5536.83
473.997	5661.8
474.369	5673.55
474.74	5815.24
475.112	5848.24
475.484	6001.45
475.855	6111.28
476.227	6157.38
476.598	6333.2
476.97	6344.72
477.341	6561.21
477.713	6614.54
478.084	6675.33
478.455	6808.66
478.827	6920.75
479.198	7135.21
479.569	7090.24
479.94	7279.38
480.311	7404.58
480.682	7499.27
481.053	7798.69
481.424	7858.8
481.795	7948.75
482.166	7993.72
482.537	8177.67
482.908	8380.37
483.279	8443.42
483.65	8560.03
484.021	8781.72
484.391	8833.24
484.762	8979.68
485.133	9047.7
485.503	9160.24
485.874	9282.27
486.244	9393.45
486.615	9664.63
486.985	9714.35
487.356	9948.02
487.726	10019.65
488.097	10217.39
488.467	10247.44
488.837	10491.05
489.207	10615.79
489.578	10675
489.948	10798.16
490.318	11002
490.688	11019.63
491.058	11227.3
491.428	11453.74
491.798	11473.17
492.168	11693.28
492.538	11863.45
492.908	11962.88
493.278	12084.46
493.648	12189.31
494.017	12345.69
494.387	12409.65
494.757	12599.47
495.126	12714.27
495.496	12770.77
495.866	12888.05
496.235	12986.81
496.605	13006.92
496.974	13179.34
497.344	13283.07
497.713	13434.7
498.082	13500.01
498.452	13658.2
498.821	13714.24
499.19	13832.66
499.559	13902.71
499.928	14071.3
500.298	14146.1
500.667	14251.18
501.036	14287.34
501.405	14449.59
501.774	14543.37
502.143	14658.17
502.512	14744.73
502.88	14789.02
503.249	14854.1
503.618	14955.12
503.987	14993.31
504.356	15218.16
504.724	15219.74
505.093	15350.81
505.462	15476.01
505.83	15588.09
506.199	15768.43
506.567	15896.11
506.936	15902.21
507.304	16132.94
507.672	16173.16
508.041	16286.61
508.409	16513.27
508.777	16544.23
509.145	16597.56
509.514	16597.33
509.882	16908.28
510.25	16855.86
510.618	17060.82
510.986	17176.3
511.354	17370.19
511.722	17474.15
512.09	17680.02
512.458	17629.17
512.826	17845.66
513.193	17880.69
513.561	17965.43
513.929	18224.18
514.297	18395.02
514.664	18576.49
515.032	18701.91
515.4	18734.22
515.767	18857.39
516.135	19054.67
516.502	18829.14
516.869	19336.02
517.237	19308
517.604	19344.6
517.972	19654.88
518.339	19703.69
518.706	19879.51
519.073	19879.73
519.44	19978.26
519.808	20256.9
520.175	20426.84
520.542	20583.89
520.909	20742.08
521.276	20750.67
521.643	20954.51
522.009	21184.78
522.376	21308.85
522.743	21415.51
523.11	21625.22
523.477	21981.6
523.843	22034.93
524.21	22366.22
524.577	22429.27
524.943	22572.99
525.31	22649.15
525.676	22878.75
526.043	23092.08
526.409	23167.1
526.776	23473.54
527.142	23548.56
527.508	23711.72
527.874	23903.13
528.241	24062.9
528.607	24090.69
528.973	24414.98
529.339	24383.79
529.705	24605.93
530.071	24820.39
530.437	25042.08
530.803	25143.32
531.169	25189.2
531.535	25122.76
531.901	25332.02
532.267	25534.5
532.632	25752.35
532.998	25846.81
533.364	25965.45
533.73	26122.51
534.095	26343.97
534.461	26496.51
534.826	26516.85
535.192	26699.89
535.557	26939.43
535.923	26973.56
536.288	27002.26
536.653	27186.43
537.019	27204.96
537.384	27306.43
537.749	27427.1
538.114	27480.89
538.479	27599.08
538.845	27726.3
539.21	27840.2
539.575	27836.81
539.94	28127.42
540.305	28348.66
540.67	28180.53
541.034	28379.4
541.399	28462.33
541.764	28598.15
542.129	28640.63
542.494	28840.85
542.858	28876.33
543.223	28941.41
543.587	29084.91
543.952	29148.41
544.316	29211.01
544.681	29400.16
545.045	29479.93
545.41	29570.32
545.774	29680.83
546.138	29828.62
546.503	29935.29
546.867	29882.18
547.231	30182.74
547.595	30218.44
547.959	30376.4
548.324	30336.41
548.688	30441.04
549.052	30649.39
549.416	30704.53
549.779	30744.53
550.143	30858.88
550.507	31033.11
550.871	31285.31
551.235	31274.01
551.599	31553.1
551.962	31539.09
552.326	31569.59
552.689	31838.51
553.053	31753.54
553.417	31911.51
553.78	32388.78
554.143	32231.72
554.507	32359.63
554.87	32546.74
555.234	32771.82
555.597	32806.62
555.96	32896.11
556.323	33081.64
556.686	33142.43
557.05	33328.42
557.413	33490
557.776	33574.96
558.139	33663.1
558.502	33750.55
558.865	34044.1
559.228	34267.83
559.59	34386.69
559.953	34318.9
560.316	34814.93
560.679	34916.4
561.041	34999.11
561.404	35110.74
561.767	35428.48
562.129	35220.35
562.492	35651.29
562.854	35791.86
563.217	35831.4
563.579	36013.09
563.941	36341.22
564.304	36502.35
564.666	36640.87
565.028	36661.44
565.39	36816.01
565.753	37016
566.115	37176.68
566.477	37357.01
566.839	37326.96
567.201	37636.1
567.563	37672.03
567.925	37932.59
568.287	38084.68
568.648	38043.32
569.01	38262.53
569.372	38599.01
569.734	38346.59
570.095	38763.53
570.457	38994.26
570.819	38876.75
571.18	39022.73
571.542	39336.62
571.903	39252.56
572.265	39535.94
572.626	39505.43
572.987	39682.83
573.349	39765.31
573.71	39803.28
574.071	40041.46
574.432	39959.2
574.794	40328.46
575.155	40304.73
575.516	40243.94
575.877	40452.3
576.238	40490.04
576.599	40730.03
576.96	40708.11
577.32	40830.14
577.681	41135.22
578.042	41104.71
578.403	41191.94
578.763	41158.27
579.124	41254.76
579.485	41421.54
579.845	41480.29
580.206	41476.68
580.566	41520.52
580.927	41627.41
581.287	41687.75
581.648	41456.11
582.008	41735.2
582.368	41685.26
582.728	41622.89
583.089	41605.94
583.449	41603.45
583.809	41687.07
584.169	41774.75
584.529	41713.96
584.889	41937.46
585.249	41791.25
585.609	41797.57
585.969	42033.5
586.329	41879.38
586.688	42054.06
587.048	41941.07
587.408	41937.91
587.768	41877.12
588.127	41899.49
588.487	41890
588.846	42153.72
589.206	41892.71
589.565	41902.43
589.925	42140.62
590.284	42006.38
590.643	42146.72
591.003	42105.14
591.362	42359.14
591.721	42222.65
592.08	42212.48
592.44	42393.26
592.799	42398.91
593.158	42356.2
593.517	42482.08
593.876	42489.53
594.235	42314.4
594.593	42348.97
594.952	42646.82
595.311	42339.93
595.67	42323.21
596.029	42583.77
596.387	42611.34
596.746	42687.27
597.104	42333.83
597.463	42550.1
597.822	42798.45
598.18	42578.57
598.538	42631.9
598.897	42688.4
599.255	42578.57
599.613	43050.2
599.972	42849.3
600.33	43017.43
600.688	42718
601.046	42995.06
601.404	43138.1
601.762	42838.45
602.12	43229.85
602.478	43182.4
602.836	43179.01
603.194	42965.45
603.552	42973.81
603.91	42987.6
604.268	43268.72
604.625	43259.23
604.983	43327.25
605.341	43175.62
605.698	43447.93
606.056	43553.01
606.413	43492.67
606.771	43629.84
607.128	43521.14
607.485	43475.72
607.843	43495.83
608.2	43762.49
608.557	43792.32
608.914	43629.84
609.272	43793.23
609.629	43743.28
609.986	44070.96
610.343	43908.93
610.7	44196.61
611.057	43944.18
611.414	44091.75
611.771	44009.04
612.127	44287.68
612.484	44211.07
612.841	44390.5
613.198	44142.6
613.554	44355.7
613.911	44602.02
614.267	44415.81
614.624	44421.69
614.98	44526.99
615.337	44696.03
615.693	44743.03
616.05	44819.64
616.406	44825.74
616.762	44642.7
617.118	44614.9
617.475	44739.87
617.831	44901.9
618.187	44968.79
618.543	44926.3
618.899	45144.38
619.255	44950.94
619.611	44988.68
619.967	45103.48
620.323	45223.7
620.678	45145.06
621.034	44992.74
621.39	45109.8
621.746	45022.57
622.101	45560.19
622.457	45059.18
622.812	45140.08
623.168	45179.41
623.523	45215.11
623.879	45476.57
624.234	45179.41
624.589	45345.73
624.945	45316.8
625.3	45213.75
625.655	45188.67
626.01	45250.36
626.365	45254.66
626.72	45354.99
627.075	45331.49
627.43	45268.44
627.785	45039.97
628.14	45124.94
628.495	45052.85
628.85	45163.59
629.205	45111.61
629.559	45233.19
629.914	44960.43
630.269	45108.45
630.623	44999.52
630.978	44830.26
631.332	44986.42
631.687	45101.89
632.041	44900.99
632.396	45066.41
632.75	44662.58
633.104	44678.63
633.459	44562.25
633.813	44600.89
634.167	44601.12
634.521	44735.12
634.875	44641.34
635.229	44556.82
635.583	44416.49
635.937	44454.45
636.291	44262.37
636.645	44228.7
636.999	44122.94
637.352	44326.09
637.706	44135.59
638.06	44173.78
638.413	44136.72
638.767	44007.01
639.121	43969.95
639.474	43769.5
639.828	43797.52
640.181	43855.15
640.534	44009.72
640.888	43634.59
641.241	43484.76
641.594	43521.37
641.947	43707.58
642.301	43520.92
642.654	43538.09
643.007	43538.77
643.36	43572.67
643.713	43403.86
644.066	43616.73
644.419	43349.62
644.771	43002.97
645.124	42580.6
645.477	42528.63
645.83	42340.84
646.182	42028.3
646.535	41945.37
646.888	42293.61
647.24	41980.62
647.593	42301.51
647.945	42261.06
648.298	41950.34
648.65	41765.03
649.002	41640.74
649.355	41855.88
649.707	41713.06
650.059	41881.86
650.411	42269.2
650.763	42364.34
651.115	42597.1
651.467	42506.03
651.819	42499.93
652.171	42361.17
652.523	42388.97
652.875	42360.27
653.227	42259.03
653.578	42490.21
653.93	42245.25
654.282	42279.82
654.633	42071.01
654.985	42344.9
655.337	42313.94
655.688	42246.6
656.039	42270.56
656.391	41907.63
656.742	41871.7
657.094	41854.75
657.445	42049.54
657.796	42132.93
658.147	41920.51
658.498	41884.58
658.849	41889.32
659.2	41812.71
659.551	41778.82
659.902	41926.16
660.253	41641.42
660.604	41754.41
660.955	41575.43
661.306	41762.09
661.656	41623.11
662.007	41638.26
662.358	41482.1
662.708	41577.01
663.059	41621.76
663.409	41238.04
663.76	41495.66
664.11	41433.06
664.461	41462.21
664.811	41508.09
665.161	41495.43
665.511	41449.79
665.862	41295.89
666.212	41497.24
666.562	41608.43
666.912	41517.35
667.262	41459.28
667.612	41512.38
667.962	41420.41
668.312	41393.74
668.662	41531.59
669.011	41497.24
669.361	41329.79
669.711	41320.52
670.06	41216.35
670.41	41158.72
670.76	41116.91
671.109	41077.82
671.459	41177.7
671.808	40970.48
672.157	41145.61
672.507	40921.66
672.856	41014.54
673.205	41053.19
673.554	41022.45
673.904	40866.3
674.253	41156.46
674.602	40837.82
674.951	40364.16
675.3	40204.39
675.649	40895.45
675.998	40716.25
676.346	40822.68
676.695	40738.39
677.044	40557.83
677.393	40773.19
677.741	40735.91
678.09	40678.96
678.438	40660.88
678.787	40508.57
679.135	40562.58
679.484	40428.8
679.832	40664.72
680.181	40393.77
680.529	40356.26
680.877	40214.79
681.225	40186.54
681.573	40429.7
681.922	40256.82
682.27	40228.8
682.618	40105.19
682.966	39978.86
683.314	40009.6
683.661	39813.22
684.009	39645.54
684.357	39530.06
684.705	39560.34
685.053	39634.92
685.4	39720.79
685.748	39520.8
686.095	39450.97
686.443	39101.82
686.79	39113.8
687.138	39193.8
687.485	39134.59
687.832	38992.68
688.18	39113.35
688.527	38939.8
688.874	38866.58
689.221	38687.6
689.568	38530.99
689.915	38512.69
690.262	38620.03
690.609	38452.8
690.956	38289.64
691.303	38129.2
691.65	38155.18
691.997	37958.8
692.344	37985.24
692.69	37884.46
693.037	38048.29
693.383	37667.51
693.73	37771.24
694.077	37528.31
694.423	37520.17
694.769	37417.8
695.116	37474.07
695.462	37321.08
695.808	37075.21
696.155	37268.2
696.501	36969
696.847	36895.78
697.193	36638.84
697.539	36797.25
697.885	36509.12
698.231	36356.13
698.577	36467.09
698.923	36429.8
699.269	36131.73
699.614	35876.15
699.96	35851.06
700.306	35966.09
700.651	35948.46
700.997	35740.56
701.342	35716.38
701.688	35560.9
702.033	35398.87
702.379	35360
702.724	35295.37
703.069	35415.37
703.415	34977.19
703.76	35031.2
704.105	34951.43
704.45	34802.28
704.795	34666.01
705.14	34651.32
705.485	34503.3
705.83	34375.4
706.175	34557.54
706.52	34430.99
706.865	34286.81
707.209	34230.77
707.554	34254.27
707.899	34251.56
708.243	33988.29
708.588	33956.88
708.932	33736.77
709.277	33705.58
709.621	33760.5
709.966	33461.52
710.31	33649.09
710.654	33316.44
710.998	33577.9
711.342	33466.49
711.687	33334.97
712.031	33143.56
712.375	33109.21
712.719	33163.45
713.063	33003.68
713.407	33061.31
713.75	32939.5
714.094	32908.99
714.438	32799.17
714.782	32656.8
715.125	32633.29
715.469	32659.51
715.812	32614.54
716.156	32352.62
716.499	32326.86
716.843	32401.21
717.186	32239.41
717.53	32357.14
717.873	32220.65
718.216	32097.49
718.559	32096.13
718.902	31914.67
719.246	31950.37
719.589	31883.48
719.932	31728.69
720.275	31655.47
720.617	31751.74
720.96	31671.96
721.303	31547.9
721.646	31561.01
721.989	31461.8
722.331	31531.63
722.674	31339.77
723.016	31337.96
723.359	31374.8
723.701	31284.63
724.044	30957.41
724.386	30980
724.729	31013.68
725.071	30993.11
725.413	31007.35
725.755	30824.53
726.097	30744.76
726.439	30668.15
726.782	30794.47
727.124	30734.81
727.465	30640.8
727.807	30621.37
728.149	30501.6
728.491	30464.54
728.833	30575.04
729.175	30360.81
729.516	30202.17
729.858	30146.13
730.199	30298.21
730.541	30195.39
730.882	30175.51
731.224	30266.35
731.565	30111.33
731.906	30123.76
732.248	30067.71
732.589	29862.75
732.93	29681.28
733.271	29747.27
733.612	29766.25
733.953	29801.5
734.294	29705.69
734.635	29684.67
734.976	29736.42
735.317	29418.46
735.658	29462.76
735.999	29435.64
736.339	29439.03
736.68	29351.8
737.021	29484.68
737.361	29227.73
737.702	29422.31
738.042	29322.65
738.383	29279.26
738.723	29205.36
739.063	28964.69
739.404	29231.58
739.744	28992.03
740.084	28945.71
740.424	28943
740.764	28903.68
741.104	28980.74
741.444	28935.76
741.784	28645.15
742.124	28831.59
742.464	28738.26
742.804	28607.86
743.143	28593.63
743.483	28549.11
743.823	28461.43
744.162	28574.42
744.502	28518.37
744.841	28289.23
745.181	28431.37
745.52	28224.14
745.86	28261.88
746.199	28086.52
746.538	28061.66
746.877	28110.7
747.216	28019.63
747.556	27948.67
747.895	27872.97
748.234	27827.32
748.573	27827.77
748.911	27771.05
749.25	27663.93
749.589	27654.89
749.928	27759.3
750.267	27623.93
750.605	27566.99
750.944	27585.52
751.283	27386.43
751.621	27482.47
751.96	27285.64
752.298	27228.24
752.636	27370.38
752.975	27042.48
753.313	26977.62
753.651	27148.24
753.989	26945.53
754.327	26891.3
754.666	26770.4
755.004	26776.27
755.342	26833.22
755.679	26838.42
756.017	26562.27
756.355	26710.51
756.693	26569.95
757.031	26525.66
757.368	26299
757.706	26245.44
758.044	26265.33
758.381	26337.64
758.719	26243.18
759.056	26157.98
759.394	26004.99
759.731	25874.6
760.068	25888.61
760.405	25747.6
760.743	25686.81
761.08	25790.76
761.417	25530.43
761.754	25532.01
762.091	25507.15
762.428	25403.88
762.765	25346.48
763.102	25289.08
763.438	25133.15
763.775	25097
764.112	24978.81
764.449	25025.36
764.785	24769.77
765.122	24671.47
765.458	24554.86
765.795	24519.84
766.131	24529.1
766.467	24355.77
766.804	24359.61
767.14	24227.87
767.476	24196.91
767.812	24109
768.148	24076.46
768.485	23984.71
768.821	23947.65
769.157	23879.4
769.492	23751.95
769.828	23800.98
770.164	23563.02
770.5	23441.45
770.836	23405.97
771.171	23363.93
771.507	23219.08
771.842	23106.54
772.178	23149.7
772.513	23068.35
772.849	23031.74
773.184	22801.69
773.519	22828.81
773.855	22681.24
774.19	22584.97
774.525	22461.13
774.86	22444.86
775.195	22377.07
775.53	22341.14
775.865	22260.46
776.2	22160.35
776.535	21907.7
776.87	21857.98
777.205	21909.73
777.539	21741.38
777.874	21743.19
778.209	21537.54
778.543	21651.21
778.878	21579.57
779.212	21452.35
779.547	21307.49
779.881	21361.05
780.215	21138.23
780.55	21198.57
780.884	20999.25
781.218	20911.34
781.552	20960.61
781.886	20864.79
782.22	20705.92
782.554	20688.75
782.888	20529.43
783.222	20481.3
783.556	20386.16
783.889	20380.51
784.223	20172.38
784.557	20112.27
784.89	20308.65
785.224	20127.86
785.557	19918.37
785.891	19849.68
786.224	19865.27
786.558	19824.37
786.891	19634.54
787.224	19598.83
787.557	19509.57
787.891	19520.42
788.224	19444.71
788.557	19304.38
788.89	19359.29
789.223	19329.92
789.556	19179.86
789.888	19113.42
790.221	19040.43
790.554	18848.8
790.887	18870.72
791.219	18877.5
791.552	18773.09
791.884	18623.27
792.217	18545.53
792.549	18529.48
792.882	18392.31
793.214	18321.58
793.546	18340.34
793.879	18155.48
794.211	18129.27
794.543	18209.94
794.875	18145.31
795.207	18146.67
795.539	17970.63
795.871	17996.39
796.203	17839.79
796.535	17699.9
796.867	17647.25
797.198	17673.24
797.53	17629.17
797.862	17513.92
798.193	17624.88
798.525	17463.75
798.856	17523.41
799.188	17320.93
799.519	17220.59
799.85	17116.87
800.182	17179.69
800.513	17149.18
800.844	16935.4
801.175	17231.21
801.506	17068.73
801.837	16919.13
802.168	16877.55
802.499	16855.4
802.83	16680.95
803.161	16672.36
803.491	16651.79
803.822	16590.33
804.153	16574.28
804.483	16523.66
804.814	16356.43
805.145	16442.08
805.475	16412.25
805.805	16394.63
806.136	16325.02
806.466	16325.25
806.796	16293.39
807.126	16162.54
807.457	16129.55
807.787	16134.75
808.117	15909.89
808.447	15871.25
808.777	15829.22
809.107	15817.47
809.436	15730.46
809.766	15712.16
810.096	15759.16
810.426	15700.86
810.755	15687.53
811.085	15606.62
811.414	15535.89
811.744	15439.85
812.073	15403.69
812.403	15390.58
812.732	15234.66
813.061	15222
813.39	15135.45
813.719	15212.51
814.049	15300.87
814.378	15171.83
814.707	15091.16
815.036	15105.17
815.365	15010.26
815.693	14942.69
816.022	14978.62
816.351	14939.52
816.68	14691.85
817.008	14941.56
817.337	14679.87
817.665	14700.88
817.994	14811.16
818.322	14738.85
818.651	14708.79
818.979	14554.67
819.307	14670.83
819.636	14582.02
819.964	14413.21
820.292	14513.09
820.62	14448.69
820.948	14430.38
821.276	14471.29
821.604	14443.26
821.932	14436.48
822.259	14411.85
822.587	14383.15
822.915	14424.28
823.243	14375.24
823.57	14441
823.898	14372.08
824.225	14283.95
824.553	14304.96
824.88	14387.9
825.207	14416.15
825.535	14319.88
825.862	14361.01
826.189	14337.96
826.516	14447.78
826.843	14426.99
827.17	14369.37
827.497	14407.33
827.824	14388.35
828.151	14295.7
828.478	14370.95
828.805	14412.3
829.131	14290.95
829.458	14201.46
829.785	14165.08
830.111	14268.13
830.438	14316.94
830.764	14308.35
831.09	14366.88
831.417	14175.02
831.743	14277.17
832.069	14198.07
832.395	14133.67
832.722	14145.19
833.048	14142.71
833.374	14170.5
833.7	14118.53
834.026	14233.33
834.351	14193.33
834.677	14046.44
835.003	14148.13
835.329	14144.74
835.654	14092.99
835.98	13959.89
836.306	14094.8
836.631	13945.42
836.956	13963.5
837.282	14021.13
837.607	13925.76
837.932	13958.08
838.258	13917.18
838.583	13923.28
838.908	13741.14
839.233	13833.11
839.558	13817.74
839.883	13739.78
840.208	13653.23
840.533	13703.85
840.858	13792.66
841.182	13804.19
841.507	13770.74
841.832	13571.42
842.156	13639.22
842.481	13574.13
842.805	13598.31
843.13	13586.34
843.454	13439.45
843.778	13402.39
844.103	13404.42
844.427	13335.72
844.751	13402.39
845.075	13389.96
845.399	13285.1
845.723	13238.78
846.047	13295.5
846.371	13189.74
846.695	13095.96
847.019	12992.68
847.343	12933.02
847.666	12848.05
847.99	12825
848.313	12819.58
848.637	12623.43
848.96	12691.9
849.284	12679.02
849.607	12585.46
849.931	12584.33
850.254	12534.39
850.577	12437.67
850.9	12338.01
851.223	12260.27
851.546	12238.58
851.869	12218.92
852.192	12246.49
852.515	12165.13
852.838	12090.56
853.161	12074.74
853.483	12028.19
853.806	11931.47
854.129	11856.89
854.451	11940.05
854.774	11800.17
855.096	11800.4
855.419	11785.93
855.741	11743
856.063	11665.94
856.385	11718.14
856.708	11624.13
857.03	11531.48
857.352	11547.75
857.674	11476.79
857.996	11482.66
858.318	11386.62
858.64	11353.63
858.961	11409.67
859.283	11361.76
859.605	11213.52
859.926	11226.85
860.248	11192.05
860.57	11203.35
860.891	11221.88
861.212	11122.9
861.534	11159.96
861.855	11165.61
862.176	11220.52
862.498	11167.64
862.819	11085.61
863.14	11107.31
863.461	11014.43
863.782	11009
864.103	11057.59
864.424	10922.68
864.745	10974.2
865.065	10913.64
865.386	10794.55
865.707	10891.27
866.027	10977.14
866.348	10883.36
866.668	10852.17
866.989	10776.02
867.309	10815.79
867.63	10763.81
867.95	10745.51
868.27	10678.17
868.59	10742.8
868.91	10648.11
869.23	10585.51
869.55	10594.1
869.87	10685.85
870.19	10662.12
870.51	10594.1
870.83	10567.66
871.15	10504.16
871.469	10516.81
871.789	10539.86
872.109	10561.78
872.428	10449.7
872.748	10394.11
873.067	10392.75
873.386	10410.83
873.706	10409.02
874.025	10355.91
874.344	10361.11
874.663	10410.83
874.982	10302.36
875.301	10385.52
875.62	10224.62
875.939	10195.69
876.258	10246.99
876.577	10183.72
876.896	10206.99
877.214	10137.39
877.533	10162.02
877.852	10136.94
878.17	10114.34
878.489	10136.26
878.807	10077.73
879.125	10108.01
879.444	10080.89
879.762	10083.15
880.08	10044.51
880.398	9983.04
880.716	10134
881.034	9990.05
881.352	10011.06
881.67	9894.01
881.988	9897.85
882.306	9941.46
882.624	9935.13
882.941	9808.13
883.259	9779.88
883.577	9797.06
883.894	9753.44
884.212	9762.26
884.529	9729.49
884.846	9734.46
885.164	9692.88
885.481	9664.41
885.798	9670.73
886.115	9614.69
886.432	9522.72
886.75	9588.93
887.067	9633.9
887.383	9570.62
887.7	9571.53
888.017	9552.09
888.334	9514.35
888.651	9435.26
888.967	9491.76
889.284	9454.69
889.6	9434.36
889.917	9347.35
890.233	9333.79
890.55	9217.64
890.866	9275.26
891.182	9264.42
891.498	9190.97
891.815	9135.16
892.131	9109.62
892.447	9119.79
892.763	9118.88
893.079	9109.85
893.395	9056.74
893.71	9042.5
894.026	8979.45
894.342	8985.1
894.657	8944.2
894.973	8882.51
895.289	8903.97
895.604	8809.97
895.92	8789.63
896.235	8788.5
896.55	8718.9
896.865	8698.33
897.181	8705.56
897.496	8725.9
897.811	8701.49
898.126	8622.4
898.441	8513.25
898.756	8548.05
899.071	8537.43
899.386	8515.28
899.7	8429.64
900.015	8409.98
900.33	8376.98
900.644	8391.67
900.959	8376.08
901.273	8320.04
901.588	8289.75
901.902	8179.93
902.216	8204.78
902.531	8173.37
902.845	8203.88
903.159	8081.4
903.473	8063.32
903.787	8018.35
904.101	7936.32
904.415	7964.79
904.729	7909.42
905.042	7955.07
905.356	7918.24
905.67	7915.98
905.984	7880.5
906.297	7826.94
906.611	7800.5
906.924	7877.34
907.237	7779.71
907.551	7717.34
907.864	7742.2
908.177	7710.56
908.491	7653.39
908.804	7618.36
909.117	7539.72
909.43	7568.42
909.743	7476.89
910.056	7509.89
910.368	7396.67
910.681	7401.64
910.994	7389.66
911.307	7312.38
911.619	7261.31
911.932	7343.79
912.244	7230.57
912.557	7233.51
912.869	7213.85
913.181	7108.09
913.494	7188.31
913.806	7128.88
914.118	7083.91
914.43	6977.92
914.742	7028.54
915.054	6980.64
915.366	6973.63
915.678	6934.54
915.99	6910.58
916.302	6891.6
916.613	6835.1
916.925	6891.15
917.236	6816.12
917.548	6763.01
917.859	6718.5
918.171	6687.99
918.482	6650.93
918.794	6692.06
919.105	6704.03
919.416	6578.16
919.727	6563.25
920.038	6572.96
920.349	6450.03
920.66	6513.3
920.971	6471.95
921.282	6452.06
921.593	6369.58
921.903	6388.33
922.214	6353.53
922.525	6323.48
922.835	6272.41
923.146	6180.88
923.456	6248.9
923.767	6233.08
924.077	6236.7
924.387	6170.49
924.697	6076.7
925.008	6079.64
925.318	6097.95
925.628	6068.34
925.938	6042.13
926.248	6002.13
926.558	5936.14
926.867	5999.87
927.177	5936.82
927.487	5929.59
927.796	5827.9
928.106	5870.83
928.416	5843.49
928.725	5829.93
929.034	5749.03
929.344	5749.93
929.653	5670.16
929.962	5665.42
930.271	5672.2
930.581	5627.9
930.89	5630.39
931.199	5572.54
931.508	5615.7
931.817	5563.95
932.125	5516.04
932.434	5502.03
932.743	5429.49
933.051	5457.96
933.36	5426.55
933.669	5370.06
933.977	5375.03
934.286	5339.77
934.594	5361.92
934.902	5299.32
935.21	5302.71
935.519	5324.41
935.827	5293.22
936.135	5265.43
936.443	5151.31
936.751	5208.93
937.059	5156.95
937.367	5132.77
937.674	5143.17
937.982	5100.23
938.29	5068.37
938.597	5088.71
938.905	5025.88
939.213	5042.83
939.52	5012.1
939.827	4994.93
940.135	4973
940.442	4933.91
940.749	4914.93
941.056	4898.88
941.363	4835.16
941.67	4837.19
941.977	4813.01
942.284	4807.13
942.591	4785.21
942.898	4799.68
943.205	4741.15
943.511	4726.46
943.818	4722.16
944.125	4660.7
944.431	4618.44
944.738	4582.28
945.044	4632.45
945.35	4585.44
945.657	4557.42
945.963	4615.73
946.269	4549.74
946.575	4514.49
946.881	4500.02
947.187	4479.01
947.493	4436.52
947.799	4479.01
948.105	4392.46
948.41	4384.55
948.716	4379.12
949.022	4366.02
949.327	4330.76
949.633	4316.52
949.938	4290.54
950.244	4331.67
950.549	4230.2
950.854	4294.6
951.16	4236.75
951.465	4232.91
951.77	4213.48
952.075	4208.73
952.38	4152.69
952.685	4142.29
952.99	4157.66
953.294	4151.33
953.599	4108.85
953.904	4057.55
954.209	4036.76
954.513	4036.31
954.818	4048.06
955.122	4008.51
955.426	3989.08
955.731	3918.34
956.035	3935.74
956.339	3920.15
956.643	3905.46
956.948	3929.87
957.252	3875.63
957.556	3876.08
957.86	3836.76
958.163	3838.12
958.467	3846.93
958.771	3817.33
959.075	3784.11
959.378	3745.24
959.682	3790.66
959.985	3772.13
960.289	3713.38
960.592	3731.23
960.896	3691.91
961.199	3662.98
961.502	3648.75
961.805	3590.22
962.108	3580.73
962.411	3591.35
962.714	3595.41
963.017	3560.39
963.32	3541.86
963.623	3554.29
963.926	3528.75
964.228	3555.19
964.531	3531.69
964.833	3532.59
965.136	3469.54
965.438	3446.27
965.741	3445.59
966.043	3466.6
966.345	3450.78
966.648	3380.05
966.95	3379.15
967.252	3404.01
967.554	3357
967.856	3344.8
968.158	3295.08
968.46	3319.26
968.761	3352.71
969.063	3258.7
969.365	3289.66
969.666	3241.98
969.968	3234.07
970.269	3234.29
970.571	3194.97
970.872	3236.33
971.174	3181.87
971.475	3165.82
971.776	3184.35
972.077	3143
972.378	3158.59
972.679	3126.05
972.98	3134.41
973.281	3155.2
973.582	3071.81
973.883	3086.73
974.183	3034.07
974.484	3074.75
974.785	2980.74
975.085	2970.12
975.386	3049.21
975.686	2974.19
975.986	2994.98
976.287	2951.36
976.587	2940.29
976.887	2923.12
977.187	2903.91
977.487	2919.27
977.787	2869.11
978.087	2869.33
978.387	2854.64
978.687	2865.49
978.987	2865.04
979.286	2832.5
979.586	2805.83
979.885	2786.17
980.185	2792.27
980.484	2774.87
980.784	2778.71
981.083	2714.76
981.382	2767.64
981.682	2747.75
981.981	2732.84
982.28	2679.96
982.579	2687.87
982.878	2700.75
983.177	2651.71
983.475	2667.08
983.774	2662.56
984.073	2634.76
984.372	2640.64
984.67	2624.37
984.969	2622.33
985.267	2601.09
985.566	2579.62
985.864	2581.66
986.162	2579.4
986.461	2542.56
986.759	2550.92
987.057	2482
987.355	2498.27
987.653	2503.69
987.951	2466.4
988.249	2493.3
988.547	2467.76
988.844	2447.87
989.142	2457.59
989.44	2425.73
989.737	2427.76
990.035	2408.1
990.332	2419.63
990.63	2405.16
990.927	2383.92
991.224	2368.55
991.521	2367.65
991.819	2345.96
992.116	2339.4
992.413	2324.03
992.71	2303.24
993.006	2304.6
993.303	2295.11
993.6	2279.06
993.897	2249.01
994.193	2279.06
994.49	2235.22
994.787	2233.64
995.083	2247.88
995.379	2210.59
995.676	2200.65
995.972	2226.41
996.268	2208.11
996.565	2151.16
996.861	2143.02
997.157	2140.08
997.453	2128.56
997.749	2123.81
998.044	2113.87
998.34	2103.48
998.636	2087.43
998.932	2094.66
999.227	2068.9
999.523	2060.54
999.818	2077.71
1000.114	2012.4
1000.409	2050.14
1000.704	1996.13
1001	2013.08
1001.295	1989.13
1001.59	2026.64
1001.885	2008.34
1002.18	1970.6
1002.475	1955.91
1002.77	1968.56
1003.065	1975.34
1003.359	1902.13
1003.654	1926.53
1003.949	1933.08
1004.243	1905.29
1004.538	1870.26
1004.832	1907.55
1005.127	1908.45
1005.421	1885.4
1005.715	1811.28
1006.009	1881.79
1006.304	1810.38
1006.598	1828.68
1006.892	1797.5
1007.186	1774.22
1007.48	1765.63
1007.773	1756.82
1008.067	1775.57
1008.361	1762.02
1008.655	1736.93
1008.948	1733.09
1009.242	1731.06
1009.535	1719.53
1009.829	1714.79
1010.122	1675.92
1010.415	1686.99
1010.708	1667.78
1011.001	1682.02
1011.295	1651.28
1011.588	1666.43
1011.881	1670.72
1012.173	1670.04
1012.466	1645.18
1012.759	1640.21
1013.052	1589.82
1013.344	1571.74
1013.637	1584.17
1013.93	1579.42
1014.222	1575.13
1014.514	1550.72
1014.807	1540.33
1015.099	1566.99
1015.391	1507.33
1015.683	1531.51
1015.976	1517.95
1016.268	1504.85
1016.56	1499.65
1016.851	1468.01
1017.143	1491.51
1017.435	1466.88
1017.727	1471.18
1018.018	1464.85
1018.31	1421.46
1018.602	1429.82
1018.893	1444.51
1019.185	1389.6
1019.476	1395.02
1019.767	1399.54
1020.058	1396.6
1020.35	1372.65
1020.641	1365.19
1020.932	1352.76
1021.223	1387.34
1021.514	1350.5
1021.804	1345.08
1022.095	1314.12
1022.386	1326.77
1022.677	1322.71
1022.967	1315.93
1023.258	1296.94
1023.548	1291.97
1023.839	1258.98
1024.129	1267.79
1024.419	1296.27
1024.709	1253.55
1025	1240.9
1025.29	1244.74
1025.58	1223.27
1025.87	1223.05
1026.16	1212.43
1026.449	1214.23
1026.739	1183.05
1027.029	1216.27
1027.319	1169.72
1027.608	1207
1027.898	1160
1028.187	1159.32
1028.477	1182.37
1028.766	1119.77
1029.055	1141.92
1029.344	1133.56
1029.634	1137.63
1029.923	1135.37
1030.212	1092.43
1030.501	1094.46
1030.79	1085.42
1031.078	1085.65
1031.367	1081.36
1031.656	1097.85
1031.945	1067.12
1032.233	1054.24
1032.522	1067.8
1032.81	1041.36
1033.099	1046.55
1033.387	1042.49
1033.675	1014.46
1033.963	1029.15
1034.251	1004.07
1034.54	1017.85
1034.828	1000
1035.116	990.28
1035.403	988.25
1035.691	972.21
1035.979	967.46
1036.267	961.58
1036.554	957.29
1036.842	963.39
1037.129	949.83
1037.417	949.16
1037.704	955.48
1037.992	920.91
1038.279	929.27
1038.566	934.69
1038.853	934.69
1039.14	934.69
