Data from plate_ceramic_FLMS001491_069.txt Node
Date: Tue Feb 07 11:17:09 GMT 2017
User: dcchb
Spectrometer: FLMS00149
Trigger mode: 0
Integration Time (sec): 2.000000E-2
Scans to average: 10
Electric dark correction enabled: true
Nonlinearity correction enabled: false
Boxcar width: 0
XAxis mode: Wavelengths
Number of Pixels in Spectrum: 2048
>>>>>Begin Spectral Data<<<<<
341.393	-21.98
341.776	-21.98
342.16	-21.98
342.543	-56.1
342.927	-51.81
343.31	-67.85
343.693	-85.03
344.077	-65.37
344.46	-72.82
344.843	-51.58
345.226	-39.15
345.61	-10.45
345.993	-14.29
346.376	-1.41
346.759	13.5
347.142	26.38
347.525	33.39
347.908	52.37
348.291	93.27
348.674	81.07
349.057	107.96
349.44	126.27
349.823	145.02
350.206	155.19
350.588	236.32
350.971	225.47
351.354	239.71
351.737	258.02
352.119	272.25
352.502	287.17
352.884	288.52
353.267	305.7
353.65	314.74
354.032	324.23
354.414	324.91
354.797	322.19
355.179	324.23
355.562	338.69
355.944	369.43
356.326	362.65
356.709	373.94
357.091	339.37
357.473	368.97
357.855	359.03
358.238	366.04
358.62	377.79
359.002	371.46
359.384	363.55
359.766	370.33
360.148	373.49
360.53	363.32
360.912	356.32
361.294	369.2
361.676	387.05
362.057	372.14
362.439	350.44
362.821	373.27
363.203	359.26
363.584	355.41
363.966	360.16
364.348	360.61
364.729	344.12
365.111	362.19
365.493	375.53
365.874	362.65
366.256	371.23
366.637	347.28
367.019	347.96
367.4	352.93
367.781	355.19
368.163	358.8
368.544	348.86
368.925	370.1
369.306	370.33
369.688	356.54
370.069	370.1
370.45	359.03
370.831	376.43
371.212	377.33
371.593	367.84
371.974	387.96
372.355	371.69
372.736	382.08
373.117	379.82
373.498	373.27
373.879	378.01
374.26	382.53
374.641	391.12
375.021	358.8
375.402	382.31
375.783	380.5
376.163	414.85
376.544	425.92
376.925	394.28
377.305	410.1
377.686	397.67
378.066	394.74
378.447	410.1
378.827	421.4
379.208	419.59
379.588	416.88
379.968	426.15
380.349	426.15
380.729	439.25
381.109	428.41
381.489	443.1
381.87	446.94
382.25	452.14
382.63	434.51
383.01	444.68
383.39	459.14
383.77	445.58
384.15	456.43
384.53	462.08
384.91	474.51
385.29	482.19
385.67	475.41
386.049	492.59
386.429	473.83
386.809	482.42
387.189	469.99
387.568	481.06
387.948	476.09
388.328	511.12
388.707	504.79
389.087	524.68
389.466	516.31
389.846	533.26
390.225	512.25
390.605	531.91
390.984	537.1
391.363	543.88
391.743	519.7
392.122	557.67
392.501	546.6
392.881	557.22
393.26	563.32
393.639	547.5
394.018	577.56
394.397	582.3
394.776	553.6
395.155	604.22
395.534	564.22
395.913	575.97
396.292	603.54
396.671	603.09
397.05	600.61
397.429	618.23
397.808	633.15
398.186	641.96
398.565	639.47
398.944	654.84
399.323	624.56
399.701	646.93
400.08	648.29
400.458	648.51
400.837	675.86
401.215	654.62
401.594	662.52
401.972	676.76
402.351	677.21
402.729	693.94
403.107	698.23
403.486	738.68
403.864	720.15
404.242	741.62
404.62	752.01
404.999	750.43
405.377	758.34
405.755	743.88
406.133	775.52
406.511	771.45
406.889	779.36
407.267	820.03
407.645	807.15
408.023	796.31
408.401	837.44
408.779	800.15
409.156	856.64
409.534	862.97
409.912	870.2
410.29	865.68
410.667	896.87
411.045	924.21
411.422	910.2
411.8	926.7
412.178	927.6
412.555	947.04
412.933	947.26
413.31	975.96
413.687	984.55
414.065	1004.44
414.442	1016.87
414.819	1014.38
415.197	1036.3
415.574	1050.31
415.951	1039.24
416.328	1061.61
416.705	1060.71
417.082	1089.18
417.46	1088.73
417.837	1105.45
418.214	1114.26
418.591	1106.13
418.967	1150.87
419.344	1145.68
419.721	1174.6
420.098	1155.85
420.475	1196.3
420.852	1208.95
421.228	1204.43
421.605	1214.6
421.982	1219.57
422.358	1232.91
422.735	1247.37
423.111	1267.48
423.488	1284.43
423.864	1280.14
424.241	1309.06
424.617	1319.91
424.994	1333.92
425.37	1364.43
425.746	1332.11
426.123	1361.49
426.499	1403.75
426.875	1392
427.251	1428.15
427.627	1462.5
428.003	1460.7
428.379	1474.03
428.756	1488.04
429.132	1494.37
429.507	1532.11
429.883	1547.47
430.259	1599.9
430.635	1572.56
431.011	1608.04
431.387	1637.64
431.763	1661.14
432.138	1667.7
432.514	1740.24
432.89	1738.65
433.265	1745.66
433.641	1766.22
434.016	1784.53
434.392	1815.26
434.767	1837.86
435.143	1881.93
435.518	1832.66
435.894	1885.77
436.269	1932.77
436.644	1891.87
437.02	1984.52
437.395	1967.35
437.77	1993.11
438.145	2033.79
438.52	2056.84
438.895	2070.4
439.271	2073.34
439.646	2106.1
440.021	2142.03
440.395	2149.27
440.77	2137.51
441.145	2176.16
441.52	2217.29
441.895	2187
442.27	2211.86
442.645	2264.06
443.019	2262.48
443.394	2310.84
443.769	2307.23
444.143	2239.66
444.518	2345.64
444.892	2328.24
445.267	2345.64
445.641	2330.28
446.016	2368.92
446.39	2368.92
446.764	2415.93
447.139	2411.41
447.513	2432.87
447.887	2449.82
448.262	2463.16
448.636	2514.45
449.01	2557.62
449.384	2578.86
449.758	2580.67
450.132	2632.19
450.506	2569.59
450.88	2633.55
451.254	2609.82
451.628	2669.48
452.002	2732.08
452.376	2739.31
452.75	2774.33
453.123	2795.35
453.497	2803.49
453.871	2834.9
454.244	2926.19
454.618	2910.15
454.992	2965.29
455.365	2977.72
455.739	3048
456.112	3086.19
456.486	3098.62
456.859	3158.73
457.232	3230.14
457.606	3197.83
457.979	3229.69
458.352	3346.07
458.725	3369.35
459.099	3340.19
459.472	3432.62
459.845	3451.38
460.218	3518.72
460.591	3537.93
460.964	3544.94
461.337	3624.48
461.71	3698.6
462.083	3733.86
462.456	3769.79
462.829	3770.01
463.201	3850.69
463.574	3868.54
463.947	3943.57
464.32	4013.85
464.692	4063.11
465.065	4057.92
465.438	4140.4
465.81	4158.03
466.183	4200.29
466.555	4311.24
466.928	4345.59
467.3	4368.19
467.672	4452.26
468.045	4543.1
468.417	4527.51
468.789	4597.11
469.161	4670.33
469.534	4754.85
469.906	4858.57
470.278	4853.83
470.65	4917.33
471.022	5013.82
471.394	5127.94
471.766	5174.95
472.138	5204.55
472.51	5340.59
472.882	5455.62
473.253	5492.91
473.625	5624.88
473.997	5690.87
474.369	5769.96
474.74	5840.47
475.112	5820.13
475.484	6022.38
475.855	6108.94
476.227	6153.23
476.598	6338.76
476.97	6405.2
477.341	6489.72
477.713	6620.56
478.084	6648.81
478.455	6819.43
478.827	6909.14
479.198	7097.61
479.569	7124.28
479.94	7300.32
480.311	7405.62
480.682	7604.26
481.053	7764.03
481.424	7885.61
481.795	7952.95
482.166	8078.38
482.537	8103.46
482.908	8402.66
483.279	8474.97
483.65	8606.72
484.021	8762.42
484.391	8884
484.762	8964
485.133	9048.75
485.503	9229.98
485.874	9396.31
486.244	9447.6
486.615	9580.71
486.985	9756.98
487.356	9952.45
487.726	10008.27
488.097	10213.01
488.467	10260.01
488.837	10526.45
489.207	10632.66
489.578	10799.43
489.948	10863.39
490.318	11022.03
490.688	11111.74
491.058	11283.04
491.428	11442.35
491.798	11564.39
492.168	11811.38
492.538	11824.49
492.908	11962.57
493.278	12140.19
493.648	12181.32
494.017	12388.32
494.387	12444.81
494.757	12536.34
495.126	12661.08
495.496	12683.68
495.866	12858.59
496.235	13012.26
496.605	13128.64
496.974	13191.46
497.344	13323.43
497.713	13325.24
498.082	13441.85
498.452	13695.4
498.821	13767.49
499.19	13772.69
499.559	13956.41
499.928	14125.67
500.298	14104.66
500.667	14322.73
501.036	14294.48
501.405	14404.08
501.774	14503.06
502.143	14622.61
502.512	14778.09
502.88	14847.01
503.249	14877.74
503.618	14975.37
503.987	15186.66
504.356	15225.53
504.724	15341.46
505.093	15370.84
505.462	15543.49
505.83	15621.91
506.199	15671.17
506.567	15906.64
506.936	15921.78
507.304	16152.51
507.672	16212.4
508.041	16274.77
508.409	16372.85
508.777	16609.22
509.145	16698.26
509.514	16761.54
509.882	16871.59
510.25	16970.12
510.618	17086.95
510.986	17246.27
511.354	17434.06
511.722	17505.47
512.09	17702.08
512.458	17561.97
512.826	17825.69
513.193	17908.63
513.561	18018.45
513.929	18226.36
514.297	18384.54
514.664	18491.66
515.032	18667.93
515.4	18800.58
515.767	18867.24
516.135	19011.2
516.502	18932.33
516.869	19355.14
517.237	19384.52
517.604	19297.74
517.972	19633.78
518.339	19768.46
518.706	19867.22
519.073	19884.39
519.44	20062.69
519.808	20304.72
520.175	20377.26
520.542	20674.88
520.909	20772.28
521.276	20748.55
521.643	21029.67
522.009	21178.6
522.376	21197.8
522.743	21420.62
523.11	21662.42
523.477	21881.85
523.843	22077.78
524.21	22307.61
524.577	22452.23
524.943	22579.24
525.31	22695.62
525.676	22911.88
526.043	23050.18
526.409	23291.53
526.776	23420.12
527.142	23554.13
527.508	23721.13
527.874	23860.79
528.241	23987.56
528.607	24148.01
528.973	24425.97
529.339	24329.7
529.705	24731.72
530.071	24911.15
530.437	24981.21
530.803	25183.69
531.169	25249.9
531.535	25299.62
531.901	25384.81
532.267	25478.6
532.632	25621.19
532.998	25912.03
533.364	26023.67
533.73	26165.36
534.095	26376.43
534.461	26483.77
534.826	26498.68
535.192	26679.69
535.557	26962.4
535.923	26970.76
536.288	27051.66
536.653	27225.44
537.019	27228.61
537.384	27311.99
537.749	27530.97
538.114	27516.06
538.479	27575.72
538.845	27730.51
539.21	27748.82
539.575	27828.36
539.94	27963.73
540.305	28266.09
540.67	28180.45
541.034	28324.17
541.399	28542.24
541.764	28644.84
542.129	28688.91
542.494	28749.24
542.858	28783.82
543.223	28928.22
543.587	29200.31
543.952	29204.15
544.316	29287.99
544.681	29292.51
545.045	29445.04
545.41	29533.86
545.774	29758.03
546.138	29756.22
546.503	29890.68
546.867	29962.55
547.231	30217.68
547.595	30289.54
547.959	30335.19
548.324	30411.8
548.688	30537.22
549.052	30771.11
549.416	30750.1
549.779	30836.65
550.143	30953.93
550.507	31119.8
550.871	31322.51
551.235	31169.29
551.599	31528.38
551.962	31654.03
552.326	31744.87
552.689	31838.43
553.053	31788.71
553.417	31816.73
553.78	32314.8
554.143	32148.7
554.507	32410.84
554.87	32424.85
555.234	32894.67
555.597	32830.72
555.96	32931.51
556.323	33221.67
556.686	33196.58
557.05	33421.44
557.413	33413.3
557.776	33685.84
558.139	33838.6
558.502	33911.14
558.865	34061.65
559.228	34306.39
559.59	34388.87
559.953	34416.21
560.316	34883.55
560.679	34880.16
561.041	35019.81
561.404	35275.63
561.767	35588.39
562.129	35447.6
562.492	35813.24
562.854	35801.94
563.217	35970.52
563.579	35965.33
563.941	36454.35
564.304	36516.95
564.666	36698.19
565.028	36739.54
565.39	36870.16
565.753	37199.42
566.115	37161.23
566.477	37464.72
566.839	37430.82
567.201	37812.96
567.563	37691.38
567.925	38090.69
568.287	37952.17
568.648	37981.09
569.01	38327.98
569.372	38549.89
569.734	38652.26
570.095	38803.44
570.457	38874.4
570.819	39104
571.18	39195.07
571.542	39232.81
571.903	39450.66
572.265	39678.67
572.626	39727.71
572.987	39695.4
573.349	39817.2
573.71	39900.59
574.071	40049.74
574.432	40216.74
574.794	40409.05
575.155	40387.81
575.516	40336.51
575.877	40535.6
576.238	40725.43
576.599	40888.13
576.96	40801.81
577.32	40900.56
577.681	41045.42
578.042	41167.9
578.403	41145.3
578.763	41239.99
579.124	41216.94
579.485	41660.99
579.845	41736.47
580.206	41430.49
580.566	41490.6
580.927	41536.03
581.287	41764.72
581.648	41589.81
582.008	41779.86
582.368	41778.51
582.728	41902.34
583.089	41948.45
583.449	41704.84
583.809	41910.48
584.169	41959.29
584.529	41888.56
584.889	42183.02
585.249	41849.69
585.609	41856.24
585.969	42017.6
586.329	41951.38
586.688	41987.99
587.048	42176.46
587.408	42050.14
587.768	42199.06
588.127	42006.07
588.487	41958.84
588.846	42296.23
589.206	42119.51
589.565	42030.48
589.925	42302.56
590.284	42175.56
590.643	42246.52
591.003	42421.65
591.362	42376.46
591.721	42286.97
592.08	42367.87
592.44	42533.97
592.799	42319.51
593.158	42496.45
593.517	42359.51
593.876	42535.55
594.235	42389.11
594.593	42481.09
594.952	42514.08
595.311	42282.67
595.67	42550.46
596.029	42748.42
596.387	42676.56
596.746	42801.3
597.104	42578.48
597.463	42649.22
597.822	42752.49
598.18	42805.37
598.538	42785.94
598.897	42822.32
599.255	42675.88
599.613	43208.75
599.972	42985.71
600.33	43191.58
600.688	42862.77
601.046	43129.66
601.404	43204.91
601.762	43096.44
602.12	43251.69
602.478	43330.1
602.836	43291.46
603.194	43137.79
603.552	43284.68
603.91	43075.42
604.268	43360.16
604.625	43161.52
604.983	43441.29
605.341	43343.44
605.698	43583.66
606.056	43571
606.413	43471.79
606.771	43695.52
607.128	43785.91
607.485	43546.37
607.843	43783.2
608.2	43950.2
608.557	43846.02
608.914	43695.52
609.272	43963.99
609.629	43941.61
609.986	44164.43
610.343	43952.46
610.7	44388.38
611.057	44269.29
611.414	44217.54
611.771	44228.16
612.127	44492.11
612.484	44309.29
612.841	44443.52
613.198	44276.07
613.554	44331.21
613.911	44713.57
614.267	44681.03
614.624	44689.84
614.98	44615.72
615.337	45035.82
615.693	44763.74
616.05	44727.36
616.406	44971.64
616.762	44914.69
617.118	44975.48
617.475	44979.55
617.831	45015.71
618.187	44958.76
618.543	45018.42
618.899	45287.11
619.255	45215.03
619.611	45099.77
619.967	45334.12
620.323	45428.13
620.678	45202.82
621.034	45077.85
621.39	45244.4
621.746	45130.96
622.101	45584.06
622.457	45118.76
622.812	45259.32
623.168	45443.04
623.523	45272.88
623.879	45480.56
624.234	45220.22
624.589	45372.99
624.945	45346.77
625.3	45402.59
625.655	45271.07
626.01	45385.19
626.365	45362.14
626.72	45460.9
627.075	45396.04
627.43	45334.12
627.785	45242.37
628.14	45275.14
628.495	45417.73
628.85	45389.26
629.205	45246.21
629.559	45325.08
629.914	45089.61
630.269	45214.8
630.623	45063.39
630.978	45042.6
631.332	45126.67
631.687	45172.99
632.041	45065.2
632.396	45060.91
632.75	44850.97
633.104	44907.69
633.459	44866.56
633.813	44843.28
634.167	44782.95
634.521	44714.02
634.875	44738.88
635.229	44629.5
635.583	44443.52
635.937	44501.82
636.291	44395.39
636.645	44461.37
636.999	44217.31
637.352	44536.4
637.706	44220.02
638.06	44445.33
638.413	44239.01
638.767	44233.58
639.121	44018.9
639.474	43868.62
639.828	43971.89
640.181	44045.79
640.534	44012.8
640.888	43883.08
641.241	43772.58
641.594	43862.07
641.947	43913.14
642.301	43673.82
642.654	43717.89
643.007	43671.11
643.36	43686.93
643.713	43420.27
644.066	43840.82
644.419	43467.73
644.771	43146.83
645.124	42721.76
645.477	42594.76
645.83	42352.28
646.182	42266.18
646.535	42143.69
646.888	42185.95
647.24	42055.79
647.593	42386.85
647.945	42312.96
648.298	42059.18
648.65	41990.7
649.002	41789.58
649.355	42013.3
649.707	41762.46
650.059	42079.74
650.411	42534.19
650.763	42463.46
651.115	42847.86
651.467	42652.83
651.819	42660.97
652.171	42704.58
652.523	42568.54
652.875	42449.67
653.227	42330.58
653.578	42729.44
653.93	42562.21
654.282	42336.23
654.633	42294.65
654.985	42443.12
655.337	42382.33
655.688	42434.31
656.039	42373.97
656.391	41958.16
656.742	42044.71
657.094	42043.58
657.445	42332.62
657.796	42098.5
658.147	42029.57
658.498	42009.46
658.849	42049.46
659.2	41999.74
659.551	42014.43
659.902	42038.39
660.253	41954.55
660.604	42107.31
660.955	41759.3
661.306	41924.04
661.656	41948.9
662.007	41898.05
662.358	41815.57
662.708	41844.72
663.059	41836.81
663.409	41613.09
663.76	41718.85
664.11	41691.05
664.461	41603.6
664.811	41712.97
665.161	41647.21
665.511	41581.45
665.862	41531.28
666.212	41739.64
666.562	41764.72
666.912	41741.44
667.262	41650.15
667.612	41513.43
667.962	41571.05
668.312	41531.96
668.662	41648.11
669.011	41618.74
669.361	41334
669.711	41492.86
670.06	41330.61
670.41	41263.49
670.76	41176.26
671.109	41297.61
671.459	41297.84
671.808	41239.99
672.157	41346.88
672.507	41023.27
672.856	41147.56
673.205	41148.01
673.554	41164.28
673.904	40963.39
674.253	41235.47
674.602	41080.67
674.951	40539.67
675.3	40305.55
675.649	41074.8
675.998	40874.8
676.346	40918.87
676.695	41146.88
677.044	40701.02
677.393	40775.37
677.741	40866.67
678.09	40742.15
678.438	40564.75
678.787	40806.33
679.135	40754.35
679.484	40505.77
679.832	40696.05
680.181	40501.93
680.529	40511.87
680.877	40296.96
681.225	40276.62
681.573	40571.98
681.922	40223.97
682.27	40157.31
682.618	40177.42
682.966	40110.53
683.314	40144.65
683.661	39968.16
684.009	39817.43
684.357	39715.96
684.705	39696.98
685.053	39807.26
685.4	39823.3
685.748	39491.56
686.095	39581.95
686.443	39432.58
686.79	39159.82
687.138	39297.44
687.485	39276.88
687.832	39113.49
688.18	39264.9
688.527	39088.41
688.874	38997.79
689.221	38700.17
689.568	38746.04
689.915	38564.58
690.262	38620.62
690.609	38568.19
690.956	38453.4
691.303	38451.59
691.65	38290.01
691.997	38147.64
692.344	37934.09
692.69	38116.46
693.037	38086.17
693.383	37721.89
693.73	37953.3
694.077	37605.28
694.423	37671.95
694.769	37612.97
695.116	37446.64
695.462	37441.67
695.808	37380.88
696.155	37332.07
696.501	36959.2
696.847	37052.08
697.193	36913.78
697.539	37029.48
697.885	36582.71
698.231	36521.47
698.577	36661.8
698.923	36756.72
699.269	36430.62
699.614	36013.91
699.96	36086.45
700.306	36145.66
700.651	35962.61
700.997	35877.42
701.342	35868.15
701.688	35793.58
702.033	35536.18
702.379	35647.14
702.724	35447.37
703.069	35503.64
703.415	35082.86
703.76	35110.43
704.105	35090.55
704.45	35037.67
704.795	34794.96
705.14	34676.09
705.485	34540.96
705.83	34514.97
706.175	34643.1
706.52	34534.4
706.865	34359.94
707.209	34376.44
707.554	34217.57
707.899	34193.39
708.243	34161.31
708.588	34114.75
708.932	33887.64
709.277	33901.2
709.621	33849.22
709.966	33643.58
710.31	33785.04
710.654	33421.66
710.998	33534.88
711.342	33502.79
711.687	33410.36
712.031	33161.78
712.375	33196.58
712.719	33202.46
713.063	33118.85
713.407	33106.87
713.75	32904.16
714.094	32983.03
714.438	32879.3
714.782	32870.27
715.125	32677.28
715.469	32770.16
715.812	32583.27
716.156	32450.16
716.499	32356.61
716.843	32355.25
717.186	32249.49
717.53	32331.52
717.873	32313.9
718.216	32119.55
718.559	32075.48
718.902	31986.45
719.246	31971.76
719.589	31926.79
719.932	31786.68
720.275	31673.46
720.617	31715.49
720.96	31760.46
721.303	31672.11
721.646	31653.35
721.989	31523.18
722.331	31588.49
722.674	31385.33
723.016	31449.51
723.359	31356.18
723.701	31365.45
724.044	31158.67
724.386	30976.76
724.729	31240.03
725.071	30870.54
725.413	30950.99
725.755	30874.61
726.097	30847.04
726.439	30615.64
726.782	30629.87
727.124	30790.77
727.465	30526.82
727.807	30584.22
728.149	30438.01
728.491	30544.45
728.833	30541.29
729.175	30391.46
729.516	30404.34
729.858	30299.49
730.199	30345.13
730.541	30242.09
730.882	30308.07
731.224	30335.64
731.565	30054.75
731.906	30143.33
732.248	30004.58
732.589	29958.03
732.93	29801.42
733.271	29713.96
733.612	29811.82
733.953	29882.77
734.294	29695.89
734.635	29638.03
734.976	29821.08
735.317	29480.07
735.658	29482.56
735.999	29450.24
736.339	29479.62
736.68	29531.6
737.021	29464.25
737.361	29114.88
737.702	29396.68
738.042	29304.26
738.383	29239.63
738.723	29302
739.063	29175.67
739.404	29237.59
739.744	29074.89
740.084	28925.06
740.424	29128.22
740.764	28955.79
741.104	28981.33
741.444	28831.95
741.784	28775.01
742.124	28768.9
742.464	28779.75
742.804	28635.57
743.143	28719.41
743.483	28619.76
743.823	28388.12
744.162	28422.25
744.502	28487.1
744.841	28429.7
745.181	28326.43
745.52	28273.32
745.86	28210.95
746.199	28091.41
746.538	28208.47
746.877	28119.88
747.216	28019.55
747.556	27930.06
747.895	27985.87
748.234	27804.86
748.573	27852.32
748.911	27805.77
749.25	27755.82
749.589	27640.57
749.928	27724.86
750.267	27610.52
750.605	27668.37
750.944	27673.11
751.283	27326.23
751.621	27518.77
751.96	27296.4
752.298	27261.37
752.636	27237.42
752.975	27148.83
753.313	26966.69
753.651	27017.31
753.989	27044.2
754.327	26946.13
754.666	26739.35
755.004	26857.32
755.342	26799.69
755.679	26797.66
756.017	26615.97
756.355	26538.45
756.693	26486.48
757.031	26597.21
757.368	26327.16
757.706	26340.04
758.044	26313.83
758.381	26246.94
758.719	26186.15
759.056	26123.32
759.394	26076.09
759.731	25866.83
760.068	25916.1
760.405	25858.25
760.743	25628.42
761.08	25820.51
761.417	25531.93
761.754	25477.69
762.091	25492.83
762.428	25319.96
762.765	25245.61
763.102	25346.85
763.438	25154.76
763.775	24963.13
764.112	25035.67
764.449	25012.62
764.785	24898.27
765.122	24787.77
765.458	24674.32
765.795	24558.39
766.131	24670.48
766.467	24452.63
766.804	24316.37
767.14	24229.36
767.476	24160.21
767.812	24089.03
768.148	24184.17
768.485	23906.66
768.821	23905.98
769.157	23736.27
769.492	23816.49
769.828	23651.53
770.164	23622.37
770.5	23421.93
770.836	23450.63
771.171	23246.11
771.507	23390.97
771.842	23171.76
772.178	23076.4
772.513	23105.32
772.849	22871.66
773.184	22811.77
773.519	22699.01
773.855	22671.89
774.19	22619.91
774.525	22439.81
774.86	22435.74
775.195	22503.98
775.53	22346.7
775.865	22096.76
776.2	22093.15
776.535	21946.71
776.87	21969.54
777.205	21982.87
777.539	21744.68
777.874	21784.46
778.209	21535.2
778.543	21546.04
778.878	21384.24
779.212	21445.48
779.547	21360.29
779.881	21349.66
780.215	21163.45
780.55	21172.72
780.884	21100.18
781.218	21040.97
781.552	20967.08
781.886	20840.98
782.22	20789.91
782.554	20588.78
782.888	20459.74
783.222	20348.11
783.556	20226.08
783.889	20344.95
784.223	20084.39
784.557	20178.62
784.89	20153.31
785.224	20069.47
785.557	19848.91
785.891	19859.76
786.224	19708.8
786.558	19755.36
786.891	19633.1
787.224	19702.48
787.557	19618.18
787.891	19591.97
788.224	19388.59
788.557	19402.15
788.89	19380.9
789.223	19377.06
789.556	19137.97
789.888	19074.47
790.221	19121.25
790.554	18836.51
790.887	18948.6
791.219	18839
791.552	18869.96
791.884	18724.65
792.217	18617.53
792.549	18648.72
792.882	18516.97
793.214	18354.72
793.546	18357.2
793.879	18316.98
794.211	18122.4
794.543	18248.28
794.875	18105.68
795.207	18153.82
795.539	18052.35
795.871	18020.94
796.203	17875.86
796.535	17753.6
796.867	17791.11
797.198	17670.21
797.53	17587.05
797.862	17584.34
798.193	17561.97
798.525	17507.28
798.856	17524.23
799.188	17259.15
799.519	17284.69
799.85	17169.21
800.182	17169.66
800.513	17143
800.844	17062.77
801.175	17146.61
801.506	17070.46
801.837	17004.47
802.168	17021.87
802.499	16869.56
802.83	16691.03
803.161	16690.13
803.491	16770.8
803.822	16666.4
804.153	16571.26
804.483	16517.7
804.814	16382.79
805.145	16364.26
805.475	16340.3
805.805	16384.15
806.136	16270.02
806.466	16317.03
806.796	16269.35
807.126	16070.93
807.457	15975.79
807.787	15969.24
808.117	15961.11
808.447	15933.31
808.777	15859.87
809.107	15848.34
809.436	15858.74
809.766	15783.03
810.096	15709.81
810.426	15667.55
810.755	15653.32
811.085	15591.85
811.414	15545.52
811.744	15407.67
812.073	15385.75
812.403	15390.95
812.732	15374.45
813.061	15319.99
813.39	15201.35
813.719	15219.88
814.049	15271.63
814.378	15203.16
814.707	15032.99
815.036	15138.3
815.365	15052.88
815.693	14874.81
816.022	14985.09
816.351	14945.09
816.68	14791.19
817.008	14788.03
817.337	14702.38
817.665	14696.28
817.994	14694.47
818.322	14639.33
818.651	14637.07
818.979	14587.13
819.307	14619.45
819.636	14650.63
819.964	14491.31
820.292	14480.01
820.62	14433.91
820.948	14397.98
821.276	14468.49
821.604	14360.02
821.932	14403.63
822.259	14434.14
822.587	14376.51
822.915	14431.43
823.243	14466.23
823.57	14456.51
823.898	14284.99
824.225	14356.4
824.553	14298.1
824.88	14285.44
825.207	14364.54
825.535	14287.03
825.862	14301.71
826.189	14267.59
826.516	14379.45
826.843	14405.67
827.17	14438.21
827.497	14379.68
827.824	14437.08
828.151	14469.62
828.478	14414.48
828.805	14298.32
829.131	14277.99
829.458	14347.81
829.785	14240.92
830.111	14181.72
830.438	14323.41
830.764	14358.66
831.09	14251.09
831.417	14241.6
831.743	14269.4
832.069	14169.74
832.395	14120.93
832.722	14192.56
833.048	14157.99
833.374	14173.58
833.7	14018.56
834.026	14211.77
834.351	14209.74
834.677	14134.71
835.003	14215.61
835.329	14119.8
835.654	14048.16
835.98	14000.71
836.306	13972.68
836.631	13948.5
836.956	13974.04
837.282	14091.55
837.607	13936.53
837.932	13928.16
838.258	13879.8
838.583	13916.19
838.908	13760.49
839.233	13828.96
839.558	13776.53
839.883	13812.69
840.208	13731.33
840.533	13748.28
840.858	13707.38
841.182	13671.67
841.507	13687.49
841.832	13670.32
842.156	13618.12
842.481	13611.11
842.805	13621.73
843.13	13531.34
843.454	13523.66
843.778	13475.75
844.103	13400.5
844.427	13360.72
844.751	13341.06
845.075	13399.82
845.399	13277.79
845.723	13219.26
846.047	13288.41
846.371	13105.14
846.695	13107.62
847.019	12982.65
847.343	12948.98
847.666	12874.63
847.99	12872.6
848.313	12756.44
848.637	12701.53
848.96	12729.33
849.284	12722.32
849.607	12610.46
849.931	12556
850.254	12590.57
850.577	12400.97
850.9	12313.97
851.223	12335.44
851.546	12295.67
851.869	12117.37
852.192	12298.83
852.515	12151.04
852.838	12087.76
853.161	12033.98
853.483	12048.67
853.806	11929.8
854.129	11935.45
854.451	11972.51
854.774	11843.25
855.096	11799.86
855.419	11829.46
855.741	11797.37
856.063	11701.56
856.385	11671.5
856.708	11692.29
857.03	11560.77
857.352	11548.57
857.674	11478.51
857.996	11498.4
858.318	11364.16
858.64	11372.98
858.961	11359.42
859.283	11288.46
859.605	11271.74
859.926	11280.1
860.248	11226.99
860.57	11206.43
860.891	11206.88
861.212	11135.24
861.534	11025.64
861.855	11152.19
862.176	11101.35
862.498	11086.66
862.819	11134.11
863.14	11033.78
863.461	10938.41
863.782	10939.77
864.103	10955.59
864.424	10905.65
864.745	10901.58
865.065	10846.89
865.386	10836.95
865.707	10874.69
866.027	10825.42
866.348	10850.73
866.668	10851.41
866.989	10778.42
867.309	10699.55
867.63	10783.39
867.95	10728.93
868.27	10698.65
868.59	10626.78
868.91	10658.87
869.23	10695.48
869.55	10643.96
869.87	10585.2
870.19	10648.7
870.51	10632.66
870.83	10604.18
871.15	10466.79
871.469	10451.65
871.789	10573.22
872.109	10461.59
872.428	10392.66
872.748	10486
873.067	10393.79
873.386	10421.36
873.706	10405.09
874.025	10325.77
874.344	10380.24
874.663	10391.08
874.982	10331.42
875.301	10245.78
875.62	10259.56
875.939	10189.73
876.258	10239.45
876.577	10168.04
876.896	10155.83
877.214	10177.3
877.533	10187.47
877.852	10148.6
878.17	10170.52
878.489	10096.85
878.807	10112.67
879.125	10072.45
879.444	10131.2
879.762	9988.16
880.08	10050.98
880.398	9997.42
880.716	10042.39
881.034	9966.69
881.352	9973.69
881.67	9948.83
881.988	9954.03
882.306	9943.64
882.624	9883.3
882.941	9851.89
883.259	9847.59
883.577	9762.85
883.894	9748.61
884.212	9730.76
884.529	9778.9
884.846	9728.73
885.164	9673.14
885.481	9659.8
885.798	9638.11
886.115	9525.34
886.432	9588.62
886.75	9573.03
887.067	9561.73
887.383	9529.86
887.7	9529.41
888.017	9465.46
888.334	9522.86
888.651	9482.41
888.967	9410.54
889.284	9379.58
889.6	9348.17
889.917	9232.47
890.233	9334.84
890.55	9273.37
890.866	9300.94
891.182	9162.19
891.498	9190.66
891.815	9172.36
892.131	9085.81
892.447	9046.03
892.763	9048.29
893.079	9115.41
893.395	9018.46
893.71	9025.92
894.026	8990.89
894.342	8983.44
894.657	8913.16
894.973	8884.91
895.289	8889.2
895.604	8879.94
895.92	8835.42
896.235	8758.81
896.55	8679.26
896.865	8723.1
897.181	8659.83
897.496	8641.98
897.811	8651.92
898.126	8626.84
898.441	8608.76
898.756	8573.73
899.071	8513.84
899.386	8537.35
899.7	8472.49
900.015	8440.85
900.33	8328.09
900.644	8366.73
900.959	8400.63
901.273	8367.63
901.588	8308.43
901.902	8209.45
902.216	8230.24
902.531	8269.1
902.845	8103.69
903.159	8119.05
903.473	8075.89
903.787	8035.89
904.101	7943.01
904.415	8007.42
904.729	7894.43
905.042	7888.32
905.356	7929.68
905.67	7877.93
905.984	7909.57
906.297	7843.58
906.611	7760.87
906.924	7787.76
907.237	7761.32
907.551	7756.35
907.864	7720.19
908.177	7695.11
908.491	7621.66
908.804	7614.88
909.117	7548.9
909.43	7494.21
909.743	7543.47
910.056	7473.42
910.368	7420.31
910.681	7400.2
910.994	7416.7
911.307	7343.48
911.619	7298.96
911.932	7302.12
912.244	7231.62
912.557	7244.05
912.869	7181.45
913.181	7109.81
913.494	7117.72
913.806	7073.2
914.118	7105.07
914.43	7032.75
914.742	7037.5
915.054	6940.78
915.366	6943.72
915.678	6925.64
915.99	6875.24
916.302	6864.62
916.613	6849.71
916.925	6796.83
917.236	6748.24
917.548	6713.21
917.859	6788.47
918.171	6729.03
918.482	6693.33
918.794	6676.38
919.105	6644.74
919.416	6531.75
919.727	6501.24
920.038	6517.74
920.349	6504.18
920.66	6446.78
920.971	6471.64
921.282	6444.75
921.593	6392.32
921.903	6351.41
922.214	6370.17
922.525	6289.95
922.835	6272.09
923.146	6249.95
923.456	6291.98
923.767	6260.57
924.077	6148.03
924.387	6159.56
924.697	6121.36
925.008	6132.21
925.318	6056.06
925.628	6014.02
925.938	6018.77
926.248	6006.11
926.558	5969.96
926.867	5942.16
927.177	5943.06
927.487	5899
927.796	5832.78
928.106	5866.46
928.416	5836.17
928.725	5786.23
929.034	5720.7
929.344	5763.86
929.653	5753.46
929.962	5675.05
930.271	5689.29
930.581	5662.62
930.89	5606.12
931.199	5581.94
931.508	5574.71
931.817	5575.16
932.125	5534.04
932.434	5532
932.743	5480.7
933.051	5445.68
933.36	5480.03
933.669	5419.01
933.977	5403.19
934.286	5355.51
934.594	5293.14
934.902	5240.94
935.21	5272.8
935.519	5227.6
935.827	5281.61
936.135	5197.77
936.443	5168.62
936.751	5181.5
937.059	5161.16
937.367	5137.66
937.674	5110.77
937.982	5111.22
938.29	5079.13
938.597	5044.33
938.905	4999.81
939.213	5009.08
939.52	4970.89
939.827	5011.34
940.135	4937.44
940.442	4937.67
940.749	4923.88
941.056	4878.91
941.363	4843.66
941.67	4771.57
941.977	4828.52
942.284	4829.87
942.591	4799.14
942.898	4775.19
943.205	4727.5
943.511	4722.08
943.818	4690.67
944.125	4647.96
944.431	4641.63
944.738	4605.02
945.044	4598.24
945.35	4582.65
945.657	4533.16
945.963	4582.2
946.269	4480.28
946.575	4535.87
946.881	4552.59
947.187	4463.55
947.493	4479.83
947.799	4422.88
948.105	4437.11
948.41	4403.67
948.716	4405.7
949.022	4353.28
949.327	4354.41
949.633	4288.87
949.938	4326.16
950.244	4305.82
950.549	4291.13
950.854	4221.98
951.16	4214.75
951.465	4244.35
951.77	4193.96
952.075	4199.61
952.38	4187.63
952.685	4117.8
952.99	4106.05
953.294	4145.6
953.599	4054.07
953.904	4044.36
954.209	4010.91
954.513	4041.65
954.818	3987.64
955.122	3981.76
955.426	3985.6
955.731	3965.94
956.035	3921.42
956.339	3891.37
956.643	3896.56
956.948	3885.94
957.252	3883.91
957.556	3806.85
957.86	3840.29
958.163	3836.68
958.467	3815.66
958.771	3810.92
959.075	3782.44
959.378	3772.95
959.682	3779.05
959.985	3736.57
960.289	3713.52
960.592	3692.95
960.896	3697.25
961.199	3673.07
961.502	3657.25
961.805	3603.46
962.108	3598.72
962.411	3590.58
962.714	3592.62
963.017	3546.52
963.32	3573.63
963.623	3543.81
963.926	3523.01
964.228	3523.47
964.531	3507.87
964.833	3497.7
965.136	3462.9
965.438	3469.46
965.741	3462.23
966.043	3391.94
966.345	3442.56
966.648	3397.82
966.95	3442.11
967.252	3353.98
967.554	3365.05
967.856	3343.13
968.158	3352.4
968.46	3326.41
968.761	3297.48
969.063	3273.98
969.365	3252.51
969.666	3243.25
969.968	3264.94
970.269	3232.63
970.571	3210.48
970.872	3170.71
971.174	3199.86
971.475	3152.63
971.776	3163.02
972.077	3145.4
972.378	3081.9
972.679	3091.16
972.98	3103.14
973.281	3049.35
973.582	3056.81
973.883	3058.62
974.183	3035.34
974.484	2998.51
974.785	2995.12
975.085	2985.18
975.386	3018.85
975.686	2989.7
975.986	2963.93
976.287	2958.28
976.587	2932.97
976.887	2948.79
977.187	2939.53
977.487	2886.2
977.787	2883.03
978.087	2870.6
978.387	2888.23
978.687	2855.46
978.987	2844.61
979.286	2788.34
979.586	2809.81
979.885	2782.02
980.185	2763.03
980.484	2772.75
980.784	2756.26
981.083	2750.83
981.382	2732.98
981.682	2672.64
981.981	2724.17
982.28	2667.67
982.579	2721
982.878	2717.39
983.177	2681
983.475	2670.16
983.774	2629.93
984.073	2593.32
984.372	2676.03
984.67	2620.44
984.969	2628.57
985.267	2603.49
985.566	2580.21
985.864	2522.59
986.162	2569.59
986.461	2572.08
986.759	2523.04
987.057	2487.34
987.355	2484.17
987.653	2495.02
987.951	2489.14
988.249	2514.91
988.547	2508.13
988.844	2485.3
989.142	2461.57
989.44	2478.75
989.737	2407.56
990.035	2416.6
990.332	2384.97
990.63	2380.22
990.927	2360.33
991.224	2372.99
991.521	2338.19
991.819	2365.08
992.116	2342.25
992.413	2288.7
992.71	2291.18
993.006	2299.77
993.303	2304.74
993.6	2254.12
993.897	2282.37
994.193	2279.43
994.49	2202.6
994.787	2217.06
995.083	2240.56
995.379	2205.54
995.676	2182.71
995.972	2175.03
996.268	2182.26
996.565	2177.51
996.861	2155.82
997.157	2135.03
997.453	2141.81
997.749	2120.57
998.044	2120.79
998.34	2109.72
998.636	2114.46
998.932	2081.24
999.227	2062.26
999.523	2080.57
999.818	2072.21
1000.114	2015.03
1000.409	2041.02
1000.704	2040.79
1001	2034.47
1001.295	2007.57
1001.59	1996.95
1001.885	1994.02
1002.18	1962.15
1002.475	1944.53
1002.77	1931.19
1003.065	1927.12
1003.359	1962.83
1003.654	1910.85
1003.949	1913.79
1004.243	1914.7
1004.538	1907.69
1004.832	1902.04
1005.127	1907.69
1005.421	1867.47
1005.715	1831.99
1006.009	1824.3
1006.304	1816.62
1006.598	1810.97
1006.892	1817.75
1007.186	1810.52
1007.48	1772.78
1007.773	1766
1008.067	1759.22
1008.361	1749.5
1008.655	1731.42
1008.948	1765.09
1009.242	1755.15
1009.535	1744.98
1009.829	1672.67
1010.122	1715.38
1010.415	1698.43
1010.708	1657.3
1011.001	1672.89
1011.295	1649.39
1011.588	1662.27
1011.881	1628.6
1012.173	1659.33
1012.466	1613.46
1012.759	1614.82
1013.052	1603.07
1013.344	1596.74
1013.637	1603.52
1013.93	1586.34
1014.222	1584.53
1014.514	1583.18
1014.807	1543.41
1015.099	1554.7
1015.391	1556.29
1015.683	1519.9
1015.976	1519.68
1016.268	1509.96
1016.56	1483.07
1016.851	1469.96
1017.143	1483.52
1017.435	1473.13
1017.727	1473.35
1018.018	1436.52
1018.31	1448.72
1018.602	1438.78
1018.893	1436.06
1019.185	1392.45
1019.476	1396.97
1019.767	1389.96
1020.058	1383.64
1020.35	1373.24
1020.641	1384.99
1020.932	1377.31
1021.223	1347.93
1021.514	1366.46
1021.804	1297.08
1022.095	1324.88
1022.386	1292.56
1022.677	1306.58
1022.967	1317.42
1023.258	1289.18
1023.548	1295.73
1023.839	1279.23
1024.129	1266.8
1024.419	1241.27
1024.709	1256.18
1025	1262.28
1025.29	1234.04
1025.58	1224.77
1025.87	1207.14
1026.16	1215.5
1026.449	1182.74
1026.739	1160.59
1027.029	1179.8
1027.319	1197.88
1027.608	1190.65
1027.898	1178.44
1028.187	1170.08
1028.477	1141.38
1028.766	1144.32
1029.055	1146.81
1029.344	1134.38
1029.634	1147.03
1029.923	1136.86
1030.212	1103.64
1030.501	1126.24
1030.79	1109.52
1031.078	1072.23
1031.367	1093.02
1031.656	1063.19
1031.945	1048.5
1032.233	1059.12
1032.522	1062.29
1032.81	1057.32
1033.099	1049.63
1033.387	1038.79
1033.675	1032.68
1033.963	1013.7
1034.251	1019.8
1034.54	1024.1
1034.828	994.95
1035.116	985.68
1035.403	999.69
1035.691	987.04
1035.979	977.32
1036.267	968.28
1036.554	935.74
1036.842	958.34
1037.129	973.03
1037.417	959.47
1037.704	922.86
1037.992	922.41
1038.279	943.65
1038.566	935.29
1038.853	935.29
1039.14	935.29
