Data from plate_ceramic_FLMS001491_088.txt Node
Date: Tue Feb 07 11:17:25 GMT 2017
User: dcchb
Spectrometer: FLMS00149
Trigger mode: 0
Integration Time (sec): 2.000000E-2
Scans to average: 10
Electric dark correction enabled: true
Nonlinearity correction enabled: false
Boxcar width: 0
XAxis mode: Wavelengths
Number of Pixels in Spectrum: 2048
>>>>>Begin Spectral Data<<<<<
341.393	-8.3
341.776	-8.3
342.16	-8.3
342.543	-46.95
342.927	-64.35
343.31	-71.35
343.693	-74.74
344.077	-59.83
344.46	-56.89
344.843	-58.93
345.226	-39.94
345.61	-24.35
345.993	-18.02
346.376	-0.17
346.759	18.59
347.142	21.52
347.525	42.32
347.908	56.33
348.291	80.05
348.674	83.67
349.057	101.75
349.44	133.39
349.823	117.34
350.206	159.83
350.588	224.46
350.971	216.32
351.354	238.02
351.737	259.26
352.119	261.97
352.502	262.65
352.884	287.51
353.267	308.75
353.65	297.45
354.032	325.47
354.414	329.77
354.797	311.46
355.179	340.84
355.562	340.16
355.944	336.77
356.326	348.3
356.709	348.75
357.091	358.69
357.473	351.91
357.855	358.01
358.238	369.99
358.62	359.14
359.002	359.14
359.384	353.95
359.766	344
360.148	360.27
360.53	367.96
360.912	367.28
361.294	352.82
361.676	364.57
362.057	348.52
362.439	364.79
362.821	363.21
363.203	335.87
363.584	372.93
363.966	362.53
364.348	344
364.729	343.32
365.111	348.07
365.493	350.1
365.874	358.01
366.256	329.31
366.637	340.39
367.019	344.91
367.4	333.38
367.781	354.17
368.163	368.18
368.544	353.72
368.925	342.65
369.306	367.73
369.688	350.56
370.069	360.05
370.45	373.61
370.831	361.85
371.212	341.74
371.593	356.21
371.974	371.12
372.355	337
372.736	357.11
373.117	374.51
373.498	344.45
373.879	360.5
374.26	370.44
374.641	346.94
375.021	367.73
375.402	359.37
375.783	386.04
376.163	374.96
376.544	373.61
376.925	384.68
377.305	393.94
377.686	396.43
378.066	400.95
378.447	416.09
378.827	413.15
379.208	396.43
379.588	416.54
379.968	401.63
380.349	403.44
380.729	410.22
381.109	383.78
381.489	403.89
381.87	409.31
382.25	426.49
382.63	397.33
383.01	428.29
383.39	432.14
383.77	455.41
384.15	422.87
384.53	437.11
384.91	452.25
385.29	442.53
385.67	443.43
386.049	448.18
386.429	438.46
386.809	473.26
387.189	446.15
387.568	473.72
387.948	449.76
388.328	481.63
388.707	467.61
389.087	478.69
389.466	473.04
389.846	473.26
390.225	489.99
390.605	485.69
390.984	507.84
391.363	482.76
391.743	506.48
392.122	521.85
392.501	514.39
392.881	518.91
393.26	527.95
393.639	527.73
394.018	518.01
394.397	540.16
394.776	522.08
395.155	530.21
395.534	547.16
395.913	551
396.292	559.14
396.671	550.78
397.05	571.11
397.429	568.63
397.808	584.45
398.186	578.8
398.565	566.82
398.944	588.52
399.323	590.1
399.701	593.94
400.08	589.42
400.458	595.3
400.837	640.49
401.215	630.77
401.594	614.5
401.972	658.34
402.351	629.19
402.729	643.2
403.107	621.28
403.486	670.77
403.864	651.11
404.242	664.45
404.62	681.17
404.999	684.33
405.377	663.32
405.755	692.92
406.133	707.16
406.511	721.39
406.889	729.98
407.267	734.05
407.645	725.01
408.023	746.7
408.401	734.95
408.779	764.1
409.156	800.94
409.534	755.97
409.912	818.79
410.29	800.26
410.667	802.07
411.045	802.52
411.422	828.06
411.8	843.88
412.178	826.02
412.555	884.33
412.933	872.35
413.31	871.22
413.687	893.37
414.065	895.4
414.442	887.04
414.819	886.13
415.197	924.78
415.574	925
415.951	936.08
416.328	955.06
416.705	981.27
417.082	979.69
417.46	994.38
417.837	995.06
418.214	985.34
418.591	1005.45
418.967	1009.75
419.344	1013.36
419.721	1019.46
420.098	1023.08
420.475	1057.66
420.852	1086.36
421.228	1087.94
421.605	1089.29
421.982	1106.02
422.358	1091.55
422.735	1099.69
423.111	1116.41
423.488	1134.94
423.864	1166.58
424.241	1157.31
424.617	1157.09
424.994	1191.21
425.37	1193.92
425.746	1223.98
426.123	1206.13
426.499	1231.44
426.875	1237.76
427.251	1280.7
427.627	1289.51
428.003	1293.13
428.379	1322.28
428.756	1329.74
429.132	1346.46
429.507	1358.89
429.883	1373.58
430.259	1445.67
430.635	1418.78
431.011	1429.17
431.387	1454.93
431.763	1475.27
432.138	1487.93
432.514	1518.43
432.89	1534.48
433.265	1558.66
433.641	1594.14
434.016	1581.94
434.392	1595.49
434.767	1585.55
435.143	1631.88
435.518	1679.11
435.894	1663.06
436.269	1671.65
436.644	1722.05
437.02	1739.22
437.395	1732.89
437.77	1774.02
438.145	1810.18
438.52	1813.12
438.895	1818.99
439.271	1801.59
439.646	1883.62
440.021	1887.01
440.395	1885.66
440.77	1870.06
441.145	1880.69
441.52	1950.06
441.895	1915.71
442.27	1947.12
442.645	1947.8
443.019	1980.12
443.394	1985.32
443.769	2009.04
444.143	2022.83
444.518	2039.32
444.892	2031.19
445.267	2063.96
445.641	2050.4
446.016	2106.22
446.39	2088.59
446.764	2110.06
447.139	2131.75
447.513	2145.08
447.887	2156.38
448.262	2178.3
448.636	2167.68
449.01	2208.81
449.384	2231.86
449.758	2234.8
450.132	2289.26
450.506	2267.57
450.88	2301.01
451.254	2273.67
451.628	2344.63
452.002	2356.83
452.376	2378.53
452.75	2404.29
453.123	2432.08
453.497	2473.21
453.871	2463.04
454.244	2499.88
454.618	2559.76
454.992	2582.14
455.365	2585.53
455.739	2643.15
456.112	2683.6
456.486	2687.44
456.859	2729.48
457.232	2785.97
457.606	2787.1
457.979	2790.27
458.352	2901.22
458.725	2912.07
459.099	2919.53
459.472	2984.16
459.845	3008.11
460.218	3026.19
460.591	3046.3
460.964	3068.9
461.337	3174.89
461.71	3205.62
462.083	3246.07
462.456	3250.59
462.829	3273.87
463.201	3295.56
463.574	3352.51
463.947	3401.77
464.32	3484.03
464.692	3497.14
465.065	3511.38
465.438	3531.04
465.81	3622.79
466.183	3676.57
466.555	3726.51
466.928	3797.24
467.3	3764.03
467.672	3825.72
468.045	3921.08
468.417	3935.32
468.789	4002.89
469.161	4009.67
469.534	4076.33
469.906	4163.34
470.278	4203.34
470.65	4301.19
471.022	4335.76
471.394	4395.2
471.766	4488.3
472.138	4477.68
472.51	4603.33
472.882	4639.48
473.253	4717.45
473.625	4798.12
473.997	4908.4
474.369	4920.38
474.74	4965.12
475.112	5065.69
475.484	5146.81
475.855	5201.05
476.227	5274.49
476.598	5444.89
476.97	5462.96
477.341	5591.77
477.713	5625.22
478.084	5687.59
478.455	5855.04
478.827	5950.41
479.198	6076.96
479.569	6127.58
479.94	6283.28
480.311	6337.52
480.682	6501.81
481.053	6606.66
481.424	6725.53
481.795	6762.36
482.166	6942.25
482.537	7035.35
482.908	7136.37
483.279	7197.16
483.65	7339.07
484.021	7586.3
484.391	7604.83
484.762	7679.63
485.133	7704.94
485.503	7874.65
485.874	8009.79
486.244	8112.39
486.615	8247.75
486.985	8348.54
487.356	8504.47
487.726	8599.15
488.097	8741.3
488.467	8844.34
488.837	9037.11
489.207	9067.16
489.578	9223.09
489.948	9286.37
490.318	9470.32
490.688	9473.48
491.058	9623.53
491.428	9716.86
491.798	9876.86
492.168	10006.8
492.538	10053.58
492.908	10212.9
493.278	10367.47
493.648	10314.81
494.017	10545.99
494.387	10653.11
494.757	10632.32
495.126	10771.98
495.496	10909.37
495.866	10929.26
496.235	11143.72
496.605	11178.07
496.974	11309.14
497.344	11370.15
497.713	11497.16
498.082	11597.72
498.452	11644.5
498.821	11724.49
499.19	11786.87
499.559	11907.31
499.928	11944.83
500.298	11994.77
500.667	12170.58
501.036	12040.19
501.405	12373.97
501.774	12365.83
502.143	12487.86
502.512	12569.67
502.88	12684.24
503.249	12706.16
503.618	12820.06
503.987	12883.79
504.356	12948.64
504.724	13064.35
505.093	12998.36
505.462	13182.08
505.83	13327.16
506.199	13449.42
506.567	13514.73
506.936	13612.35
507.304	13761.73
507.672	13825
508.041	13836.75
508.409	13973.47
508.777	14124.2
509.145	14235.16
509.514	14201.27
509.882	14399.68
510.25	14439.22
510.618	14512.22
510.986	14590.18
511.354	14813.68
511.722	14850.74
512.09	14928.7
512.458	14964.86
512.826	15183.61
513.193	15241.92
513.561	15382.02
513.929	15452.53
514.297	15566.2
514.664	15754.22
515.032	15767.33
515.4	16024.95
515.767	16003.93
516.135	16124.15
516.502	16138.62
516.869	16438.04
517.237	16454.99
517.604	16396.01
517.972	16766.4
518.339	16818.82
518.706	16857.92
519.073	16962.1
519.44	17060.62
519.808	17364.12
520.175	17276.44
520.542	17584
520.909	17669.87
521.276	17784.45
521.643	17925.01
522.009	18026.7
522.376	18104.67
522.743	18203.19
523.11	18572.9
523.477	18592.56
523.843	18702.16
524.21	18954.81
524.577	19016.28
524.943	19102.15
525.31	19230.74
525.676	19505.76
526.043	19586.21
526.409	19745.98
526.776	19905.07
527.142	19979.19
527.508	20134.22
527.874	20362.91
528.241	20363.59
528.607	20480.87
528.973	20701.66
529.339	20710.47
529.705	20864.82
530.071	21061.42
530.437	21190.23
530.803	21345.26
531.169	21430.68
531.535	21554.52
531.901	21563.78
532.267	21775.3
532.632	21865.02
532.998	21920.38
533.364	22102.75
533.73	22226.36
534.095	22298.23
534.461	22453.7
534.826	22610.76
535.192	22680.82
535.557	22939.57
535.923	22832.9
536.288	22978.66
536.653	23070.18
537.019	23107.02
537.384	23208.71
537.749	23412.55
538.114	23361.7
538.479	23323.06
538.845	23441.7
539.21	23502.72
539.575	23719.21
539.94	23851.86
540.305	23995.13
540.67	23917.17
541.034	23991.29
541.399	24251.4
541.764	24232.41
542.129	24308.57
542.494	24414.56
542.858	24559.64
543.223	24670.82
543.587	24826.52
543.952	24720.54
544.316	24886.63
544.681	24993.75
545.045	25023.35
545.41	25066.06
545.774	25219.51
546.138	25177.47
546.503	25343.57
546.867	25407.98
547.231	25681.19
547.595	25859.04
547.959	25770
548.324	25830.56
548.688	25893.61
549.052	26070.56
549.416	26170.67
549.779	26238.24
550.143	26222.19
550.507	26492.02
550.871	26533.6
551.235	26545.57
551.599	26785.57
551.962	26843.19
552.326	26938.33
552.689	27067.37
553.053	26980.59
553.417	27089.97
553.78	27574.25
554.143	27414.02
554.507	27452.89
554.87	27598.43
555.234	27803.39
555.597	27763.62
555.96	27993.44
556.323	28221.01
556.686	28199.77
557.05	28449.93
557.413	28571.28
557.776	28586.65
558.139	28856.47
558.502	28885.62
558.865	28961.78
559.228	29123.13
559.59	29178.72
559.953	29197.48
560.316	29572.16
560.679	29525.38
561.041	29892.6
561.404	29866.16
561.767	30246.72
562.129	30125.37
562.492	30481.06
562.854	30505.7
563.217	30507.95
563.579	30669.76
563.941	30955.17
564.304	30979.58
564.666	31153.14
565.028	31269.74
565.39	31395.84
565.753	31532.79
566.115	31637.42
566.477	31822.72
566.839	31740.69
567.201	32117.63
567.563	32195.59
567.925	32398.98
568.287	32519.2
568.648	32495.93
569.01	32741.79
569.372	32941.34
569.734	32926.2
570.095	33217.71
570.457	33183.14
570.819	33186.08
571.18	33324.6
571.542	33602.11
571.903	33671.71
572.265	33691.15
572.626	33932.95
572.987	33903.35
573.349	34033.51
573.71	34278.03
574.071	34258.36
574.432	34303.11
574.794	34607.96
575.155	34519.15
575.516	34443.44
575.877	34622.2
576.238	34899.25
576.599	34865.35
576.96	34896.54
577.32	35049.98
577.681	35243.42
578.042	35207.72
578.403	35245.23
578.763	35379.92
579.124	35360.71
579.485	35544.43
579.845	35659.91
580.206	35627.14
580.566	35463.98
580.927	35611.1
581.287	35567.26
581.648	35454.27
582.008	35772.45
582.368	35605.22
582.728	35781.26
583.089	35821.04
583.449	35836.63
583.809	35922.05
584.169	35844.99
584.529	35870.98
584.889	36053.35
585.249	35842.5
585.609	35866.46
585.969	36036.4
586.329	36055.61
586.688	36079.11
587.048	35958.21
587.408	35981.03
587.768	35967.25
588.127	35928.83
588.487	35907.36
588.846	36147.35
589.206	36006.57
589.565	36036.4
589.925	36180.35
590.284	36016.28
590.643	36145.77
591.003	36195.94
591.362	36283.85
591.721	36205.43
592.08	36269.84
592.44	36516.16
592.799	36421.47
593.158	36313.9
593.517	36353.45
593.876	36426.44
594.235	36377.63
594.593	36449.95
594.952	36494.01
595.311	36381.92
595.67	36473.45
596.029	36551.41
596.387	36649.04
596.746	36766.77
597.104	36426.67
597.463	36494.24
597.822	36677.96
598.18	36677.74
598.538	36558.19
598.897	36863.49
599.255	36486.33
599.613	37003.83
599.972	36807.45
600.33	36921.57
600.688	36792.31
601.046	36984.17
601.404	37046.77
601.762	36965.86
602.12	37300.77
602.478	37084.05
602.836	37104.39
603.194	36963.83
603.552	37266.42
603.91	37052.19
604.268	37249.25
604.625	37067.56
604.983	37321.56
605.341	37141.45
605.698	37338.96
606.056	37533.31
606.413	37511.16
606.771	37468.22
607.128	37604.27
607.485	37444.95
607.843	37378.51
608.2	37534.89
608.557	37807.42
608.914	37514.1
609.272	37766.3
609.629	37782.11
609.986	38068.89
610.343	37879.96
610.7	38166.51
611.057	38019.62
611.414	37985.27
611.771	38043.58
612.127	38129
612.484	38249.45
612.841	38376
613.198	38072.05
613.554	38235.66
613.911	38323.79
614.267	38401.76
614.624	38368.77
614.98	38298.26
615.337	38655.54
615.693	38575.09
616.05	38509.1
616.406	38726.27
616.762	38576.22
617.118	38538.25
617.475	38614.63
617.831	38653.73
618.187	38561.08
618.543	38858.47
618.899	38942.76
619.255	38784.12
619.611	38699.15
619.967	38810.79
620.323	39053.27
620.678	38876.55
621.034	38768.75
621.39	38778.47
621.746	38775.76
622.101	39221.85
622.457	38880.16
622.812	38948.41
623.168	39085.36
623.523	39047.84
623.879	39219.14
624.234	38885.14
624.589	39058.24
624.945	39147.28
625.3	39071.57
625.655	38940.28
626.01	39025.7
626.365	39112.93
626.72	38930.78
627.075	39192.92
627.43	39085.36
627.785	38859.6
628.14	39038.8
628.495	38835.87
628.85	38889.43
629.205	38811.69
629.559	39152.93
629.914	38815.53
630.269	39001.06
630.623	38784.57
630.978	38691.47
631.332	38896.66
631.687	38814.4
632.041	38692.37
632.396	38702.77
632.75	38644.01
633.104	38671.36
633.459	38541.87
633.813	38462.77
634.167	38445.83
634.521	38433.85
634.875	38498.93
635.229	38402.21
635.583	38223.01
635.937	38222.78
636.291	38201.99
636.645	38204.25
636.999	38107.76
637.352	38382.1
637.706	37983.92
638.06	38178.94
638.413	37973.3
638.767	37891.26
639.121	37849
639.474	37744.6
639.828	37676.81
640.181	37780.76
640.534	37873.41
640.888	37672.06
641.241	37460.31
641.594	37494.66
641.947	37694.43
642.301	37578.28
642.654	37592.74
643.007	37624.15
643.36	37430.71
643.713	37356.36
644.066	37604.94
644.419	37168.12
644.771	36928.13
645.124	36464.41
645.477	36500.11
645.83	36291.76
646.182	36112.33
646.535	36247.24
646.888	36238.65
647.24	36061.48
647.593	36218.09
647.945	36183.51
648.298	36112.55
648.65	35905.33
649.002	35768.16
649.355	35939.45
649.707	35775.16
650.059	35971.09
650.411	36326.78
650.763	36250.18
651.115	36683.16
651.467	36632.77
651.819	36561.58
652.171	36605.65
652.523	36490.62
652.875	36349.61
653.227	36302.83
653.578	36560.9
653.93	36397.29
654.282	36232.1
654.633	36171.99
654.985	36136.73
655.337	36265.54
655.688	36243.17
656.039	36267.58
656.391	35930.41
656.742	36038.43
657.094	35999.11
657.445	36197.52
657.796	36166.79
658.147	36000.01
658.498	35860.81
658.849	35969.51
659.2	35934.48
659.551	35961.6
659.902	35892.67
660.253	35914.82
660.604	36037.08
660.955	35726.12
661.306	35966.34
661.656	35733.13
662.007	35820.81
662.358	35826.69
662.708	35667.14
663.059	35696.29
663.409	35398.22
663.76	35651.32
664.11	35765.22
664.461	35739.23
664.811	35857.19
665.161	35674.6
665.511	35602.74
665.862	35592.34
666.212	35691.32
666.562	35697.42
666.912	35595.96
667.262	35580.14
667.612	35517.31
667.962	35442.97
668.312	35463.53
668.662	35635.96
669.011	35600.48
669.361	35522.06
669.711	35468.28
670.06	35427.83
670.41	35357.77
670.76	35282.07
671.109	35450.42
671.459	35325.23
671.808	35229.64
672.157	35309.18
672.507	35011.34
672.856	35202.97
673.205	35141.28
673.554	35175.18
673.904	35015.63
674.253	35334.95
674.602	35240.71
674.951	34746.26
675.3	34479.83
675.649	35095.86
675.998	34965.92
676.346	34954.84
676.695	35124.78
677.044	34798.46
677.393	34910.78
677.741	34922.53
678.09	34952.13
678.438	34688.41
678.787	34790.1
679.135	34791.91
679.484	34541.97
679.832	34794.4
680.181	34531.8
680.529	34570.45
680.877	34511.47
681.225	34346.95
681.573	34629.43
681.922	34280.96
682.27	34297.01
682.618	34386.5
682.966	34137.92
683.314	34367.29
683.661	34188.99
684.009	33891.14
684.357	33868.54
684.705	33920.29
685.053	33840.75
685.4	33880.52
685.748	33628.55
686.095	33854.53
686.443	33481.21
686.79	33484.6
687.138	33441.44
687.485	33580.42
687.832	33441.66
688.18	33456.35
688.527	33184.72
688.874	33230.37
689.221	33184.95
689.568	33034.67
689.915	32996.93
690.262	33034.89
690.609	32881.23
690.956	32810.72
691.303	32779.31
691.65	32689.82
691.997	32613.66
692.344	32413.44
692.69	32444.63
693.037	32539.09
693.383	32294.57
693.73	32298.64
694.077	32167.57
694.423	32265.65
694.769	32161.02
695.116	31900.01
695.462	31891.2
695.808	31641.71
696.155	31857.52
696.501	31574.14
696.847	31577.31
697.193	31282.4
697.539	31417.76
697.885	31250.31
698.231	31132.57
698.577	31121.5
698.923	31042.63
699.269	30888.51
699.614	30691.68
699.96	30705.46
700.306	30741.17
700.651	30627.05
700.997	30501.4
701.342	30409.2
701.688	30430.44
702.033	30387.05
702.379	30189.32
702.724	30111.81
703.069	30180.28
703.415	29855.09
703.76	29890.34
704.105	29987.29
704.45	29863.45
704.795	29580.07
705.14	29524.25
705.485	29503.24
705.83	29404.26
706.175	29629.79
706.52	29397.93
706.865	29310.02
707.209	29315.44
707.554	29148.22
707.899	29112.51
708.243	29175.33
708.588	29157.03
708.932	28771.5
709.277	28750.49
709.621	28843.14
709.966	28621.45
710.31	28778.51
710.654	28519.76
710.998	28550.49
711.342	28397.5
711.687	28345.98
712.031	28231.4
712.375	28198.41
712.719	28227.79
713.063	28177.85
713.407	28236.15
713.75	28007.23
714.094	27927.91
714.438	27956.61
714.782	27946.67
715.125	27877.06
715.469	27966.78
715.812	27658.09
716.156	27476.17
716.499	27571.08
716.843	27614.25
717.186	27435.49
717.53	27489.96
717.873	27558.2
718.216	27308.94
718.559	27285.67
718.902	27084.09
719.246	27215.84
719.589	27126.12
719.932	26971.78
720.275	26971.32
720.617	26929.74
720.96	26930.65
721.303	26882.97
721.646	26902.4
721.989	26518.91
722.331	26778.56
722.674	26616.98
723.016	26659.02
723.359	26559.58
723.701	26619.92
724.044	26456.54
724.386	26340.15
724.729	26557.55
725.071	26443.88
725.413	26352.36
725.755	26191.01
726.097	26175.19
726.439	26120.95
726.782	26140.39
727.124	26064.46
727.465	25934.97
727.807	25918.02
728.149	26004.12
728.491	25881.86
728.833	25858.13
729.175	25769.1
729.516	25683.45
729.858	25689.78
730.199	25765.48
730.541	25677.57
730.882	25625.82
731.224	25736.55
731.565	25478.71
731.906	25564.81
732.248	25487.3
732.589	25334.98
732.93	25318.71
733.271	25367.07
733.612	25341.09
733.953	25309.22
734.294	25194.42
734.635	25163.69
734.976	25243.91
735.317	25080.98
735.658	25177.93
735.999	25048.21
736.339	24984.94
736.68	25047.53
737.021	24925.05
737.361	24841.21
737.702	24972.96
738.042	24842.34
738.383	24757.6
738.723	24846.41
739.063	24730.71
739.404	24800.31
739.744	24663.59
740.084	24573.87
740.424	24594.44
740.764	24568
741.104	24619.75
741.444	24534.55
741.784	24433.31
742.124	24454.78
742.464	24317.38
742.804	24287.78
743.143	24288.01
743.483	24232.64
743.823	24249.14
744.162	24160.1
744.502	24116.71
744.841	23990.84
745.181	24060.44
745.52	23905.87
745.86	24059.54
746.199	23896.83
746.538	23893.21
746.877	23976.15
747.216	23836.04
747.556	23748.58
747.895	23749.26
748.234	23622.71
748.573	23610.51
748.911	23525.09
749.25	23669.49
749.589	23413.23
749.928	23422.49
750.267	23501.36
750.605	23313.79
750.944	23329.39
751.283	23182.95
751.621	23299.33
751.96	23100.24
752.298	23133.69
752.636	23108.38
752.975	22966.91
753.313	22874.03
753.651	22951.32
753.989	22874.94
754.327	22753.58
754.666	22746.35
755.004	22786.8
755.342	22816.63
755.679	22766.92
756.017	22587.26
756.355	22636.3
756.693	22438.56
757.031	22383.42
757.368	22316.76
757.706	22345.68
758.044	22213.71
758.381	22395.4
758.719	22232.01
759.056	22201.51
759.394	22124.67
759.731	21922.64
760.068	21912.47
760.405	21802.87
760.743	21839.26
761.08	21884.9
761.417	21847.84
761.754	21571.69
762.091	21620.96
762.428	21553.39
762.765	21378.7
763.102	21396.78
763.438	21424.35
763.775	21266.39
764.112	21267.07
764.449	21314.3
764.785	21039.05
765.122	21012.61
765.458	20971.48
765.795	20858.72
766.131	20971.93
766.467	20785.05
766.804	20580.76
767.14	20468.44
767.476	20483.81
767.812	20518.39
768.148	20524.94
768.485	20194.78
768.821	20217.6
769.157	20177.15
769.492	20165.85
769.828	20007.44
770.164	19972.86
770.5	19834.56
770.836	19775.13
771.171	19779.2
771.507	19774.45
771.842	19569.49
772.178	19509.15
772.513	19547.11
772.849	19443.39
773.184	19374.01
773.519	19294.01
773.855	19291.98
774.19	19053.11
774.525	19108.25
774.86	19063.74
775.195	19027.8
775.53	18884.98
775.865	18833.23
776.2	18708.04
776.535	18634.37
776.87	18559.57
777.205	18445.22
777.539	18466.92
777.874	18544.65
778.209	18254.94
778.543	18343.3
778.878	18223.31
779.212	18173.14
779.547	18094.72
779.881	18025.35
780.215	17929.53
780.55	17964.78
780.884	17694.51
781.218	17778.12
781.552	17778.12
781.886	17706.71
782.22	17614.51
782.554	17438.24
782.888	17370
783.222	17327.96
783.556	17260.39
783.889	17257.68
784.223	17103.56
784.557	17086.84
784.89	17005.03
785.224	17007.52
785.557	16880.97
785.891	16854.53
786.224	16743.12
786.558	16752.61
786.891	16656.79
787.224	16532.05
787.557	16615.66
787.891	16556.68
788.224	16516.23
788.557	16405.5
788.89	16382.45
789.223	16353.07
789.556	16342.68
789.888	16201.66
790.221	16070.59
790.554	15985.17
790.887	15977.72
791.219	15935.23
791.552	15855.23
791.884	15870.37
792.217	15731.17
792.549	15745.41
792.882	15679.42
793.214	15531.85
793.546	15513.32
793.879	15442.81
794.211	15393.32
794.543	15405.3
794.875	15340.67
795.207	15395.13
795.539	15239.88
795.871	15244.85
796.203	15147.45
796.535	15065.88
796.867	15015.25
797.198	14878.31
797.53	14956.5
797.862	14890.96
798.193	14751.98
798.525	14783.62
798.856	14829.27
799.188	14689.61
799.519	14710.4
799.85	14504.99
800.182	14577.53
800.513	14573.23
800.844	14390.86
801.175	14479
801.506	14432.9
801.837	14343.18
802.168	14352.22
802.499	14309.74
802.83	14242.85
803.161	14157.88
803.491	14164.66
803.822	14116.3
804.153	14035.85
804.483	13934.83
804.814	13808.96
805.145	13849.64
805.475	13815.06
805.805	13759.47
806.136	13774.84
806.466	13799.02
806.796	13749.3
807.126	13585.01
807.457	13515.18
807.787	13636.99
808.117	13502.75
808.447	13456.43
808.777	13519.93
809.107	13497.33
809.436	13351.34
809.766	13333.72
810.096	13274.28
810.426	13218.24
810.755	13285.58
811.085	13178.92
811.414	13193.83
811.744	12975.76
812.073	13004.91
812.403	13029.77
812.732	13013.5
813.061	12945.48
813.39	12929.21
813.719	12904.8
814.049	12974.86
814.378	12797.01
814.707	12802.43
815.036	12693.73
815.365	12716.11
815.693	12595.43
816.022	12612.61
816.351	12620.29
816.68	12545.94
817.008	12529.9
817.337	12504.81
817.665	12420.75
817.994	12471.82
818.322	12491.48
818.651	12333.29
818.979	12407.19
819.307	12359.96
819.636	12327.87
819.964	12236.8
820.292	12323.57
820.62	12296.91
820.948	12296
821.276	12254.2
821.604	12189.34
821.932	12210.13
822.259	12223.92
822.587	12266.4
822.915	12130.81
823.243	12230.92
823.57	12131.26
823.898	12216.91
824.225	12072.51
824.553	12087.2
824.88	12094.2
825.207	12173.07
825.535	12176.69
825.862	12153.18
826.189	12060.3
826.516	12063.92
826.843	12128.55
827.17	12154.31
827.497	12221.88
827.824	12211.03
828.151	12133.52
828.478	12155.44
828.805	12156.12
829.131	12094.65
829.458	11980.76
829.785	12033.41
830.111	12046.52
830.438	12115.22
830.764	12138.49
831.09	12074.99
831.417	11944.83
831.743	12064.6
832.069	12087.2
832.395	11989.12
832.722	12026.86
833.048	12058.27
833.374	11950.25
833.7	11982.34
834.026	11952.06
834.351	11924.26
834.677	11928.1
835.003	12023.92
835.329	11988.89
835.654	11970.82
835.98	11853.98
836.306	11922
836.631	11828.22
836.956	11878.39
837.282	11884.26
837.607	11802.91
837.932	11730.6
838.258	11771.5
838.583	11714.1
838.908	11670.48
839.233	11733.53
839.558	11743.48
839.883	11606.76
840.208	11622.8
840.533	11685.17
840.858	11629.81
841.182	11622.8
841.507	11569.7
841.832	11480.88
842.156	11478.17
842.481	11470.49
842.805	11508.68
843.13	11336.71
843.454	11450.15
843.778	11325.63
844.103	11354.33
844.427	11341
844.751	11254
845.075	11202.47
845.399	11151.63
845.723	11170.61
846.047	11170.38
846.371	11127.9
846.695	11126.54
847.019	10998.64
847.343	10976.94
847.666	10928.13
847.99	10848.58
848.313	10831.41
848.637	10748.47
848.96	10772.43
849.284	10770.85
849.607	10667.12
849.931	10637.74
850.254	10589.61
850.577	10517.29
850.9	10467.13
851.223	10449.05
851.546	10356.17
851.869	10318.66
852.192	10362.27
852.515	10194.14
852.838	10190.75
853.161	10246.11
853.483	10172.67
853.806	10029.4
854.129	10173.35
854.451	10092.9
854.774	10011.54
855.096	10009.74
855.419	9979.91
855.741	9939
856.063	9939.91
856.385	9876.86
856.708	9830.31
857.03	9776.52
857.352	9829.85
857.674	9754.6
857.996	9708.05
858.318	9599.35
858.64	9687.71
858.961	9587.38
859.283	9592.12
859.605	9485.23
859.926	9522.52
860.248	9616.53
860.57	9452.24
860.891	9463.31
861.212	9430.32
861.534	9416.98
861.855	9372.69
862.176	9377.44
862.498	9391.45
862.819	9387.15
863.14	9368.17
863.461	9330.43
863.782	9339.7
864.103	9308.96
864.424	9214.73
864.745	9248.4
865.065	9156.65
865.386	9199.36
865.707	9194.39
866.027	9223.77
866.348	9171.34
866.668	9148.29
866.989	9153.49
867.309	9094.51
867.63	9065.13
867.95	9070.55
868.27	9013.6
868.59	9042.08
868.91	9003.89
869.23	8979.26
869.55	9002.53
869.87	8993.27
870.19	8917.56
870.51	8932.7
870.83	9047.5
871.15	8937.22
871.469	8862.65
871.789	8882.53
872.109	8874.4
872.428	8847.28
872.748	8863.33
873.067	8843.44
873.386	8896.55
873.706	8839.15
874.025	8817.68
874.344	8762.31
874.663	8781.75
874.982	8721.86
875.301	8763.22
875.62	8690.9
875.939	8663.56
876.258	8691.81
876.577	8720.05
876.896	8693.84
877.214	8663.11
877.533	8655.42
877.852	8566.16
878.17	8629.21
878.489	8569.32
878.807	8581.98
879.125	8558.02
879.444	8492.49
879.762	8477.35
880.08	8450.68
880.398	8452.72
880.716	8439.38
881.034	8387.63
881.352	8395.32
881.67	8387.18
881.988	8404.36
882.306	8414.3
882.624	8341.53
882.941	8323
883.259	8257.92
883.577	8330.46
883.894	8290.91
884.212	8269.9
884.529	8280.06
884.846	8232.83
885.164	8200.97
885.481	8203.91
885.798	8140.41
886.115	8116.68
886.432	8134.53
886.75	8104.02
887.067	8133.85
887.383	8084.82
887.7	8059.96
888.017	8043.01
888.334	8015.66
888.651	7987.87
888.967	7940.64
889.284	7935.22
889.6	7883.69
889.917	7859.74
890.233	7832.62
890.55	7846.4
890.866	7849.79
891.182	7810.25
891.498	7763.24
891.815	7756.01
892.131	7671.95
892.447	7692.74
892.763	7629.46
893.079	7690.02
893.395	7616.81
893.71	7648.44
894.026	7621.1
894.342	7600.76
894.657	7519.63
894.973	7503.59
895.289	7527.99
895.604	7529.58
895.92	7450.93
896.235	7454.32
896.55	7445.96
896.865	7331.84
897.181	7319.19
897.496	7270.15
897.811	7304.27
898.126	7265.63
898.441	7285.29
898.756	7189.25
899.071	7191.28
899.386	7151.96
899.7	7106.76
900.015	7153.77
900.33	7038.52
900.644	7063.83
900.959	7056.37
901.273	7082.13
901.588	7033.54
901.902	6934.11
902.216	6921
902.531	6897.95
902.845	6890.95
903.159	6822.02
903.473	6852.31
903.787	6819.54
904.101	6779.54
904.415	6771.86
904.729	6738.86
905.042	6733.66
905.356	6699.32
905.67	6715.13
905.984	6676.27
906.297	6634.01
906.611	6612.54
906.924	6484.86
907.237	6554.91
907.551	6519.66
907.864	6510.85
908.177	6531.64
908.491	6450.96
908.804	6429.49
909.117	6329.16
909.43	6391.75
909.743	6287.12
910.056	6318.08
910.368	6310.4
910.681	6245.77
910.994	6240.8
911.307	6189.72
911.619	6168.71
911.932	6206.67
912.244	6146.11
912.557	6106.34
912.869	6140.46
913.181	6057.52
913.494	6084.42
913.806	5978.43
914.118	5946.11
914.43	5949.96
914.742	5940.01
915.054	5909.73
915.366	5876.96
915.678	5808.72
915.99	5868.83
916.302	5810.07
916.613	5779.34
916.925	5806.68
917.236	5775.72
917.548	5759.68
917.859	5759.91
918.171	5671.32
918.482	5641.26
918.794	5609.63
919.105	5575.73
919.416	5579.57
919.727	5535.5
920.038	5538.89
920.349	5555.39
920.66	5479.01
920.971	5546.35
921.282	5500.25
921.593	5408.28
921.903	5413.93
922.214	5367.82
922.525	5370.99
922.835	5265.68
923.146	5316.07
923.456	5273.59
923.767	5281.95
924.077	5228.39
924.387	5238.56
924.697	5205.12
925.008	5186.81
925.318	5179.58
925.628	5159.47
925.938	5146.81
926.248	5080.83
926.558	5091.9
926.867	5046.48
927.177	5061.39
927.487	5032.24
927.796	4988.63
928.106	4947.27
928.416	4970.55
928.725	4913.83
929.034	4846.03
929.344	4876.09
929.653	4872.24
929.962	4836.31
930.271	4749.54
930.581	4804
930.89	4750.67
931.199	4719.25
931.508	4720.38
931.817	4676.09
932.125	4647.39
932.434	4698.69
932.743	4657.34
933.051	4607.62
933.36	4605.36
933.669	4533.72
933.977	4549.09
934.286	4549.54
934.594	4490.33
934.902	4459.37
935.21	4444.91
935.519	4498.7
935.827	4447.85
936.135	4457.34
936.443	4418.02
936.751	4450.79
937.059	4377.79
937.367	4377.34
937.674	4324.24
937.982	4340.28
938.29	4298.7
938.597	4304.12
938.905	4260.74
939.213	4250.79
939.52	4218.48
939.827	4272.49
940.135	4182.77
940.442	4182.32
940.749	4161.08
941.056	4157.46
941.363	4114.75
941.67	4085.6
941.977	4070.23
942.284	4066.16
942.591	4069.78
942.898	4013.28
943.205	4025.94
943.511	3968.99
943.818	3977.81
944.125	3944.36
944.431	3931.7
944.738	3912.72
945.044	3904.59
945.35	3920.18
945.657	3896.45
945.963	3860.75
946.269	3871.37
946.575	3853.97
946.881	3804.93
947.187	3800.63
947.493	3773.29
947.799	3767.64
948.105	3795.89
948.41	3721.54
948.716	3720.64
949.022	3730.35
949.327	3688.1
949.633	3665.5
949.938	3684.03
950.244	3627.08
950.549	3641.32
950.854	3597.93
951.16	3594.76
951.465	3575.1
951.77	3589.11
952.075	3513.86
952.38	3516.8
952.685	3549.79
952.99	3472.06
953.294	3486.97
953.599	3440.64
953.904	3479.51
954.209	3418.5
954.513	3400.87
954.818	3415.33
955.122	3382.34
955.426	3376.69
955.731	3357.71
956.035	3368.56
956.339	3365.84
956.643	3379.63
956.948	3312.51
957.252	3317.26
957.556	3295.56
957.86	3246.75
958.163	3237.26
958.467	3194.77
958.771	3219.86
959.075	3231.16
959.378	3152.06
959.682	3181.22
959.985	3166.53
960.289	3160.43
960.592	3142.8
960.896	3114.32
961.199	3103.25
961.502	3105.06
961.805	3086.98
962.108	3064.16
962.411	3065.06
962.714	3045.63
963.017	3033.65
963.32	3042.01
963.623	2997.49
963.926	3014.89
964.228	2999.75
964.531	2994.1
964.833	2942.8
965.136	2928.79
965.438	2939.87
965.741	2947.1
966.043	2913.65
966.345	2860.77
966.648	2884.05
966.95	2901.45
967.252	2842.47
967.554	2828.23
967.856	2821.45
968.158	2827.33
968.46	2802.47
968.761	2836.82
969.063	2814.22
969.365	2773.54
969.666	2772.64
969.968	2736.71
970.269	2731.96
970.571	2726.54
970.872	2706.65
971.174	2721.57
971.475	2684.96
971.776	2701.45
972.077	2675.69
972.378	2661.46
972.679	2654.22
972.98	2645.86
973.281	2635.24
973.582	2615.13
973.883	2597.73
974.183	2614.9
974.484	2616.03
974.785	2580.1
975.085	2566.77
975.386	2555.92
975.686	2551.85
975.986	2523.38
976.287	2522.93
976.587	2498.3
976.887	2480.44
977.187	2465.98
977.487	2491.06
977.787	2512.08
978.087	2466.43
978.387	2428.69
978.687	2438.18
978.987	2447.9
979.286	2421.01
979.586	2399.54
979.885	2394.57
980.185	2388.92
980.484	2357.73
980.784	2361.58
981.083	2350.28
981.382	2339.88
981.682	2339.66
981.981	2330.84
982.28	2295.36
982.579	2311.86
982.878	2333.55
983.177	2256.49
983.475	2269.38
983.774	2256.27
984.073	2263.95
984.372	2236.83
984.67	2226.44
984.969	2240
985.267	2201.35
985.566	2192.99
985.864	2168.14
986.162	2162.94
986.461	2168.59
986.759	2150.51
987.057	2141.7
987.355	2161.81
987.653	2129.04
987.951	2127.23
988.249	2105.99
988.547	2085.43
988.844	2105.54
989.142	2081.13
989.44	2074.58
989.737	2090.4
990.035	2051.98
990.332	2074.58
990.63	2052.66
990.927	2059.66
991.224	2000
991.521	2012.66
991.819	2006.56
992.116	1999.1
992.413	1979.67
992.71	1986.9
993.006	1973.34
993.303	1980.57
993.6	1951.19
993.897	1939.89
994.193	1932.44
994.49	1921.36
994.787	1925.2
995.083	1892.21
995.379	1910.06
995.676	1873
995.972	1868.03
996.268	1889.5
996.565	1870.52
996.861	1855.83
997.157	1831.19
997.453	1802.04
997.749	1838.65
998.044	1837.97
998.34	1807.24
998.636	1798.88
998.932	1802.49
999.227	1795.04
999.523	1790.74
999.818	1760.91
1000.114	1741.48
1000.409	1766.34
1000.704	1722.72
1001	1731.54
1001.295	1715.49
1001.59	1744.64
1001.885	1698.99
1002.18	1696.51
1002.475	1699.67
1002.77	1657.64
1003.065	1675.27
1003.359	1659.22
1003.654	1653.35
1003.949	1653.57
1004.243	1610.41
1004.538	1622.16
1004.832	1641.82
1005.127	1642.5
1005.421	1617.42
1005.715	1606.79
1006.009	1598.66
1006.304	1577.42
1006.598	1566.34
1006.892	1582.39
1007.186	1551.43
1007.48	1557.53
1007.773	1518.43
1008.067	1534.25
1008.361	1505.55
1008.655	1516.85
1008.948	1503.97
1009.242	1529.73
1009.535	1480.24
1009.829	1501.71
1010.122	1488.15
1010.415	1444.99
1010.708	1454.48
1011.001	1425.56
1011.295	1412.9
1011.588	1406.57
1011.881	1418.1
1012.173	1443.86
1012.466	1414.26
1012.759	1403.18
1013.052	1382.84
1013.344	1357.31
1013.637	1361.15
1013.93	1378.33
1014.222	1350.76
1014.514	1370.42
1014.807	1351.43
1015.099	1357.08
1015.391	1349.17
1015.683	1324.99
1015.976	1317.54
1016.268	1295.39
1016.56	1303.53
1016.851	1290.42
1017.143	1287.93
1017.435	1281.6
1017.727	1266.92
1018.018	1251.1
1018.31	1258.55
1018.602	1248.16
1018.893	1238.89
1019.185	1230.31
1019.476	1192.34
1019.767	1219.01
1020.058	1205.45
1020.35	1225.79
1020.641	1188.95
1020.932	1190.76
1021.223	1175.39
1021.514	1186.47
1021.804	1156.18
1022.095	1150.53
1022.386	1158.67
1022.677	1138.56
1022.967	1127.94
1023.258	1124.09
1023.548	1119.35
1023.839	1094.04
1024.129	1101.04
1024.419	1082.74
1024.709	1085.68
1025	1083.64
1025.29	1067.15
1025.58	1090.42
1025.87	1064.21
1026.16	1043.64
1026.449	1051.78
1026.739	1032.8
1027.029	1047.03
1027.319	1019.01
1027.608	1018.56
1027.898	1004.1
1028.187	1039.8
1028.477	1011.1
1028.766	990.99
1029.055	978.56
1029.344	984.89
1029.634	968.39
1029.923	970.65
1030.212	982.63
1030.501	985.79
1030.79	983.99
1031.078	947.6
1031.367	936.3
1031.656	912.8
1031.945	934.95
1032.233	947.38
1032.522	931.11
1032.81	920.48
1033.099	939.47
1033.387	897.89
1033.675	900.15
1033.963	920.94
1034.251	897.66
1034.54	876.42
1034.828	875.29
1035.116	861.05
1035.403	865.34
1035.691	868.28
1035.979	871.9
1036.267	868.51
1036.554	852.01
1036.842	859.47
1037.129	837.77
1037.417	830.09
1037.704	817.89
1037.992	835.06
1038.279	816.31
1038.566	825.12
1038.853	825.12
1039.14	825.12
