Data from plate_ceramic_FLMS001491_047.txt Node
Date: Tue Feb 07 11:16:50 GMT 2017
User: dcchb
Spectrometer: FLMS00149
Trigger mode: 0
Integration Time (sec): 2.000000E-2
Scans to average: 10
Electric dark correction enabled: true
Nonlinearity correction enabled: false
Boxcar width: 0
XAxis mode: Wavelengths
Number of Pixels in Spectrum: 2048
>>>>>Begin Spectral Data<<<<<
341.393	-14.77
341.776	-14.77
342.16	-14.77
342.543	-62.68
342.927	-68.33
343.31	-78.05
343.693	-57.48
344.077	-38.73
344.46	-63.36
344.843	-61.1
345.226	-53.64
345.61	-35.56
345.993	-19.07
346.376	1.05
346.759	-13.87
347.142	9.18
347.525	50.08
347.908	82.17
348.291	73.36
348.674	94.15
349.057	110.87
349.44	135.28
349.823	147.26
350.206	175.05
350.588	213.02
350.971	231.32
351.354	225.67
351.737	232
352.119	267.25
352.502	260.02
352.884	280.36
353.267	272.9
353.65	304.54
354.032	302.05
354.414	304.54
354.797	333.92
355.179	322.62
355.562	334.6
355.944	335.05
356.326	345.89
356.709	337.99
357.091	343.64
357.473	340.47
357.855	344.31
358.238	335.5
358.62	361.94
359.002	361.94
359.384	368.27
359.766	339.34
360.148	347.48
360.53	370.3
360.912	358.78
361.294	329.4
361.676	338.66
362.057	330.08
362.439	342.05
362.821	347.02
363.203	358.78
363.584	356.29
363.966	355.84
364.348	317.87
364.729	332.79
365.111	350.41
365.493	327.59
365.874	339.79
366.256	323.07
366.637	327.14
367.019	322.84
367.4	338.89
367.781	335.05
368.163	354.26
368.544	330.75
368.925	361.71
369.306	337.53
369.688	340.25
370.069	351.09
370.45	348.61
370.831	349.74
371.212	352.67
371.593	342.28
371.974	349.96
372.355	347.25
372.736	356.29
373.117	350.19
373.498	367.82
373.879	339.12
374.26	362.17
374.641	336.4
375.021	337.53
375.402	383.41
375.783	390.87
376.163	391.54
376.544	377.08
376.925	361.94
377.305	389.06
377.686	353.8
378.066	388.15
378.447	394.71
378.827	368.95
379.208	377.31
379.588	385.22
379.968	371.43
380.349	380.7
380.729	396.29
381.109	407.59
381.489	392.45
381.87	391.54
382.25	411.2
382.63	392.45
383.01	391.54
383.39	400.58
383.77	414.82
384.15	420.92
384.53	411.43
384.91	417.08
385.29	423.86
385.67	416.85
386.049	424.08
386.429	420.7
386.809	420.02
387.189	454.37
387.568	436.06
387.948	454.59
388.328	444.88
388.707	455.72
389.087	471.54
389.466	480.35
389.846	461.82
390.225	478.77
390.605	458.21
390.984	482.16
391.363	483.07
391.743	481.48
392.122	470.19
392.501	489.39
392.881	520.58
393.26	507.92
393.639	526.23
394.018	509.28
394.397	509.51
394.776	507.47
395.155	525.55
395.534	502.05
395.913	534.14
396.292	538.43
396.671	538.21
397.05	533.01
397.429	542.95
397.808	554.7
398.186	555.15
398.565	568.04
398.944	578.88
399.323	560.8
399.701	563.74
400.08	611.2
400.458	576.85
400.837	593.35
401.215	617.53
401.594	624.31
401.972	619.79
402.351	624.98
402.729	600.8
403.107	626.57
403.486	637.64
403.864	630.18
404.242	633.57
404.62	660.91
404.999	662.95
405.377	643.74
405.755	659.78
406.133	688.03
406.511	685.09
406.889	698.43
407.267	695.26
407.645	710.63
408.023	711.08
408.401	710.18
408.779	734.59
409.156	742.27
409.534	743.4
409.912	742.95
410.29	758.99
410.667	786.56
411.045	779.56
411.422	789.05
411.8	793.57
412.178	794.02
412.555	823.17
412.933	831.31
413.31	854.36
413.687	864.75
414.065	876.95
414.442	868.82
414.819	848.93
415.197	871.98
415.574	902.49
415.951	905.88
416.328	925.99
416.705	907.91
417.082	917.86
417.46	906.56
417.837	956.95
418.214	976.39
418.591	962.15
418.967	992.66
419.344	958.99
419.721	986.33
420.098	1008.48
420.475	1034.01
420.852	1020.68
421.228	1053.22
421.605	1058.19
421.982	1036.72
422.358	1084.63
422.735	1091.86
423.111	1085.99
423.488	1072.88
423.864	1110.62
424.241	1121.24
424.617	1129.15
424.994	1147.91
425.37	1145.87
425.746	1176.83
426.123	1190.62
426.499	1173.44
426.875	1161.92
427.251	1220.22
427.627	1215.93
428.003	1243.05
428.379	1270.84
428.756	1288.47
429.132	1324.17
429.507	1287.11
429.883	1307.23
430.259	1339.32
430.635	1346.09
431.011	1385.87
431.387	1380.67
431.763	1415.92
432.138	1434.23
432.514	1438.97
432.89	1438.3
433.265	1499.31
433.641	1499.31
434.016	1518.75
434.392	1514.23
434.767	1553.32
435.143	1560.55
435.518	1566.2
435.894	1588.57
436.269	1596.48
436.644	1659.08
437.02	1639.42
437.395	1639.87
437.77	1684.84
438.145	1688.23
438.52	1727.1
438.895	1733.88
439.271	1744.95
439.646	1779.98
440.021	1771.85
440.395	1794.22
440.77	1801
441.145	1793.54
441.52	1870.6
441.895	1827.89
442.27	1861.56
442.645	1857.49
443.019	1888
443.394	1891.16
443.769	1897.27
444.143	1901.33
444.518	1933.2
444.892	1918.73
445.267	1944.5
445.641	2000.31
446.016	1972.29
446.39	1999.41
446.764	2003.93
447.139	2015
447.513	2081.44
447.887	2082.57
448.262	2033.76
448.636	2063.59
449.01	2099.97
449.384	2124.61
449.758	2170.71
450.132	2131.16
450.506	2182.68
450.88	2191.5
451.254	2215.45
451.628	2215.68
452.002	2255.22
452.376	2251.83
452.75	2278.27
453.123	2307.88
453.497	2349.91
453.871	2348.1
454.244	2429
454.618	2409.12
454.992	2431.49
455.365	2451.15
455.739	2518.95
456.112	2536.8
456.486	2578.6
456.859	2585.38
457.232	2630.13
457.606	2649.79
457.979	2693.18
458.352	2697.25
458.725	2770.24
459.099	2798.94
459.472	2825.38
459.845	2871.25
460.218	2905.6
460.591	2910.35
460.964	2925.71
461.337	3033.28
461.71	3033.06
462.083	3113.28
462.456	3122.55
462.829	3124.8
463.201	3187.85
463.574	3217.46
463.947	3257.23
464.32	3314.63
464.692	3354.86
465.065	3374.74
465.438	3384.91
465.81	3461.29
466.183	3526.38
466.555	3572.93
466.928	3609.99
467.3	3619.71
467.672	3640.72
468.045	3790.78
468.417	3781.51
468.789	3819.48
469.161	3868.06
469.534	3899.7
469.906	4004.56
470.278	4037.78
470.65	4083.65
471.022	4117.32
471.394	4197.77
471.766	4198.22
472.138	4350.08
472.51	4403.19
472.882	4420.59
473.253	4459.46
473.625	4597.08
473.997	4670.3
474.369	4729.06
474.74	4728.83
475.112	4874.82
475.484	4867.36
475.855	5009.05
476.227	5063.28
476.598	5226.44
476.97	5231.64
477.341	5371.98
477.713	5416.5
478.084	5424.18
478.455	5616.26
478.827	5667.56
479.198	5855.81
479.569	5825.75
479.94	5985.07
480.311	6044.05
480.682	6220.54
481.053	6286.3
481.424	6448.11
481.795	6497.37
482.166	6585.28
482.537	6694.65
482.908	6835.22
483.279	6907.53
483.65	7029.79
484.021	7144.59
484.391	7255.32
484.762	7283.57
485.133	7423.67
485.503	7468.19
485.874	7732.82
486.244	7759.71
486.615	7879.26
486.985	7984.56
487.356	8178.68
487.726	8228.17
488.097	8375.51
488.467	8407.6
488.837	8560.82
489.207	8706.35
489.578	8800.59
489.948	8947.25
490.318	9040.81
490.688	9081.94
491.058	9227.47
491.428	9311.31
491.798	9428.14
492.168	9560.12
492.538	9702.94
492.908	9771.18
493.278	9895.02
493.648	9985.64
494.017	10091.4
494.387	10114.23
494.757	10281
495.126	10366.2
495.496	10433.99
495.866	10542.01
496.235	10664.04
496.605	10703.14
496.974	10779.29
497.344	10864.71
497.713	11062
498.082	11045.5
498.452	11246.63
498.821	11237.36
499.19	11321.2
499.559	11427.19
499.928	11518.71
500.298	11580.18
500.667	11676.67
501.036	11668.76
501.405	11768.65
501.774	11824.01
502.143	12008.41
502.512	12088.64
502.88	12201.4
503.249	12169.99
503.618	12260.61
503.987	12322.08
504.356	12371.57
504.724	12555.74
505.093	12523.43
505.462	12647.72
505.83	12814.49
506.199	12829.41
506.567	13174.26
506.936	13022.85
507.304	13186.46
507.672	13273.01
508.041	13381.94
508.409	13446.79
508.777	13534.02
509.145	13646.56
509.514	13620.8
509.882	13739.67
510.25	13853.79
510.618	14082.26
510.986	13979.21
511.354	14195.02
511.722	14298.07
512.09	14367.9
512.458	14440.21
512.826	14553.66
513.193	14696.7
513.561	14726.76
513.929	14818.28
514.297	15015.11
514.664	15100.54
515.032	15230.25
515.4	15322.45
515.767	15439.74
516.135	15566.74
516.502	15424.14
516.869	15787.75
517.237	15802.66
517.604	15834.98
517.972	16107.97
518.339	16139.38
518.706	16247.17
519.073	16433.38
519.44	16407.62
519.808	16756.31
520.175	16654.84
520.542	16942.97
520.909	16876.99
521.276	17037.89
521.643	17323.3
522.009	17361.94
522.376	17495.73
522.743	17570.53
523.11	17797.19
523.477	17877.41
523.843	18071.98
524.21	18308.81
524.577	18375.03
524.943	18449.15
525.31	18550.84
525.676	18775.47
526.043	18888.23
526.409	18918.74
526.776	19231.05
527.142	19252.74
527.508	19404.83
527.874	19515.56
528.241	19617.93
528.607	19709.91
528.973	19910.35
529.339	19840.52
529.705	20096.79
530.071	20272.38
530.437	20327.06
530.803	20587.85
531.169	20629.88
531.535	20655.87
531.901	20790.1
532.267	20811.57
532.632	21059.25
532.998	21052.24
533.364	21336.08
533.73	21397.32
534.095	21542.63
534.461	21649.52
534.826	21686.58
535.192	21828.72
535.557	22012.22
535.923	21973.35
536.288	22059.45
536.653	22131.31
537.019	22154.59
537.384	22223.74
537.749	22425.54
538.114	22487.46
538.479	22620.56
538.845	22638.19
539.21	22574.69
539.575	22771.97
539.94	22911.18
540.305	22946.66
540.67	22937.39
541.034	23118.4
541.399	23232.07
541.764	23398.62
542.129	23454.67
542.494	23607.66
542.858	23601.55
543.223	23741.66
543.587	23796.13
543.952	23807.42
544.316	23837.25
544.681	23904.15
545.045	24006.06
545.41	24164.03
545.774	24340.52
546.138	24334.87
546.503	24360.86
546.867	24400.86
547.231	24604.92
547.595	24666.39
547.959	24744.58
548.324	24785.25
548.688	24842.65
549.052	25018.24
549.416	25082.87
549.779	25118.58
550.143	25284.22
550.507	25409.42
550.871	25490.77
551.235	25568.96
551.599	25781.38
551.962	25694.83
552.326	25757.66
552.689	26061.6
553.053	25880.59
553.417	26077.42
553.78	26403.06
554.143	26254.37
554.507	26413.01
554.87	26529.61
555.234	26838.76
555.597	26584.53
555.96	26771.41
556.323	26935.25
556.686	26974.57
557.05	27307.9
557.413	27188.58
557.776	27331.85
558.139	27521.23
558.502	27603.48
558.865	27675.35
559.228	27947.2
559.59	28037.6
559.953	28121.89
560.316	28382.22
560.679	28334.54
561.041	28600.75
561.404	28673.74
561.767	28794.41
562.129	28813.17
562.492	29140.17
562.854	29139.04
563.217	29160.28
563.579	29366.15
563.941	29499.25
564.304	29635.97
564.666	29986.92
565.028	29948.51
565.39	29936.08
565.753	30132.68
566.115	30356.18
566.477	30479.11
566.839	30571.77
567.201	30677.75
567.563	30732.89
567.925	30985.32
568.287	30970.63
568.648	31130.4
569.01	31348.92
569.372	31624.85
569.734	31418.98
570.095	31689.93
570.457	31723.37
570.819	31846.08
571.18	31942.58
571.542	32107.09
571.903	32307.77
572.265	32352.28
572.626	32359.52
572.987	32355.67
573.349	32456.01
573.71	32659.17
574.071	32746.17
574.432	32781.2
574.794	33118.37
575.155	32966.96
575.516	32935.77
575.877	33160.17
576.238	33195.88
576.599	33339.83
576.96	33290.11
577.32	33388.64
577.681	33489.88
578.042	33700.5
578.403	33668.63
578.763	33687.17
579.124	33721.97
579.485	33882.87
579.845	33967.61
580.206	33921.51
580.566	33935.97
580.927	33908.63
581.287	34043.09
581.648	33882.41
582.008	34250.31
582.368	34160.6
582.728	34163.54
583.089	34106.36
583.449	34156.31
583.809	34172.8
584.169	34307.04
584.529	34193.37
584.889	34404.21
585.249	34296.64
585.609	34124.22
585.969	34489.86
586.329	34310.65
586.688	34459.35
587.048	34437.65
587.408	34224.55
587.768	34366.24
588.127	34333.7
588.487	34345.45
588.846	34640.13
589.206	34459.12
589.565	34401.5
589.925	34549.97
590.284	34477.2
590.643	34410.76
591.003	34569.63
591.362	34706.12
591.721	34585.45
592.08	34557.2
592.44	34515.62
592.799	34788.15
593.158	34543.64
593.517	34695.05
593.876	34673.13
594.235	34610.53
594.593	34693.01
594.952	34815.95
595.311	34670.42
595.67	34690.98
596.029	35018.2
596.387	34895.49
596.746	34937.75
597.104	34947.02
597.463	34860.92
597.822	35032.44
598.18	34825.67
598.538	34913.12
598.897	35069.95
599.255	34785.22
599.613	35335.26
599.972	35161.25
600.33	35239.44
600.688	35195.6
601.046	35250.51
601.404	35288.03
601.762	35212.77
602.12	35434.92
602.478	35535.48
602.836	35483.28
603.194	35196.5
603.552	35437.85
603.91	35335.26
604.268	35641.01
604.625	35293.9
604.983	35577.96
605.341	35268.37
605.698	35652.54
606.056	35686.43
606.413	35673.78
606.771	35770.27
607.128	35695.93
607.485	35706.55
607.843	35757.62
608.2	35932.08
608.557	35971.4
608.914	35789.48
609.272	35937.73
609.629	36012.08
609.986	36333.42
610.343	36031.28
610.7	36256.36
611.057	36135.69
611.414	36285.51
611.771	36338.17
612.127	36376.13
612.484	36343.14
612.841	36369.58
613.198	36332.29
613.554	36327.77
613.911	36659.74
614.267	36603.25
614.624	36522.12
614.98	36557.6
615.337	36736.8
615.693	36713.98
616.05	36599.4
616.406	36813.86
616.762	36833.52
617.118	36803.69
617.475	36740.19
617.831	36926.63
618.187	36943.58
618.543	36969.56
618.899	37013.41
619.255	36956.46
619.611	36998.72
619.967	36973.86
620.323	37006.63
620.678	37017.02
621.034	36912.39
621.39	36911.49
621.746	36869
622.101	37326.17
622.457	36936.8
622.812	37155.1
623.168	37139.5
623.523	37264.7
623.879	37244.36
624.234	36993.97
624.589	37160.29
624.945	37084.14
625.3	37165.94
625.655	37268.09
626.01	37205.04
626.365	37285.49
626.72	37205.26
627.075	37228.54
627.43	37098.37
627.785	37050.01
628.14	37123.91
628.495	37114.65
628.85	37139.28
629.205	36965.04
629.559	37208.2
629.914	36993.52
630.269	36963.46
630.623	36956.23
630.978	36754.66
631.332	36984.93
631.687	36957.36
632.041	36846.4
632.396	36856.35
632.75	36755.78
633.104	36670.36
633.459	36550.59
633.813	36553.76
634.167	36551.95
634.521	36519.18
634.875	36577.94
635.229	36373.65
635.583	36210.26
635.937	36457.04
636.291	36319.41
636.645	36271.73
636.999	36162.35
637.352	36367.77
637.706	36198.96
638.06	36264.95
638.413	36055.69
638.767	36168.23
639.121	36087.78
639.474	35906.09
639.828	35915.36
640.181	36009.59
640.534	35884.17
640.888	35779.54
641.241	35697.73
641.594	35790.16
641.947	35763.49
642.301	35581.58
642.654	35626.78
643.007	35743.38
643.36	35437.85
643.713	35445.08
644.066	35558.3
644.419	35354.47
644.771	35041.25
645.124	34656.63
645.477	34742.5
645.83	34473.13
646.182	34388.39
646.535	34196.98
646.888	34252.12
647.24	34140.03
647.593	34333.25
647.945	34277.88
648.298	34081.05
648.65	34074.73
649.002	33767.16
649.355	34019.36
649.707	33977.1
650.059	34176.19
650.411	34406.92
650.763	34446.24
651.115	34784.54
651.467	34679.68
651.819	34658.66
652.171	34636.97
652.523	34408.28
652.875	34498.9
653.227	34416.64
653.578	34604.2
653.93	34414.6
654.282	34279.69
654.633	34171.67
654.985	34390.65
655.337	34402.4
655.688	34282.4
656.039	34383.87
656.391	34058.68
656.742	34296.41
657.094	34102.75
657.445	34242.63
657.796	34211.45
658.147	34111.79
658.498	34139.13
658.849	34278.79
659.2	34006.48
659.551	34029.3
659.902	34052.58
660.253	33979.81
660.604	34064.78
660.955	33788.18
661.306	33990.21
661.656	33914.28
662.007	33896.88
662.358	33971
662.708	33972.36
663.059	33836.54
663.409	33730.55
663.76	33964.22
664.11	33810.33
664.461	33768.97
664.811	33879.25
665.161	33741.4
665.511	33723.77
665.862	33785.69
666.212	33828.18
666.562	33777.56
666.912	33750.44
667.262	33761.29
667.612	33551.35
667.962	33547.51
668.312	33553.16
668.662	33618.92
669.011	33613.04
669.361	33551.58
669.711	33559.48
670.06	33407.17
670.41	33458.24
670.76	33314.07
671.109	33533.95
671.459	33463.44
671.808	33289.44
672.157	33394.74
672.507	33236.56
672.856	33284.69
673.205	33179.16
673.554	33364.46
673.904	33186.39
674.253	33405.14
674.602	33249.21
674.951	32786.85
675.3	32603.58
675.649	33098.71
675.998	33070.46
676.346	33117.91
676.695	33212.6
677.044	33007.18
677.393	32974.64
677.741	33101.19
678.09	32923.12
678.438	32959.5
678.787	32932.61
679.135	32946.62
679.484	32717.93
679.832	32860.97
680.181	32557.7
680.529	32721.09
680.877	32520.64
681.225	32519.29
681.573	32753.63
681.922	32554.99
682.27	32404.03
682.618	32470.02
682.966	32501.89
683.314	32427.99
683.661	32242.01
684.009	32193.87
684.357	32078.62
684.705	32025.29
685.053	32091.73
685.4	31991.16
685.748	31852.64
686.095	31910.26
686.443	31710.27
686.79	31645.18
687.138	31634.56
687.485	31697.84
687.832	31566.77
688.18	31664.62
688.527	31490.16
688.874	31385.76
689.221	31334.68
689.568	31255.14
689.915	31214.01
690.262	31138.76
690.609	31102.6
690.956	30957.75
691.303	30984.19
691.65	30873
691.997	30860.12
692.344	30689.05
692.69	30746.68
693.037	30636.62
693.383	30386.91
693.73	30578.77
694.077	30417.42
694.423	30469.62
694.769	30391.43
695.116	30125
695.462	30199.57
695.808	29965.91
696.155	30042.74
696.501	29727.27
696.847	29823.76
697.193	29515.07
697.539	29677.78
697.885	29456.99
698.231	29272.59
698.577	29266.94
698.923	29275.53
699.269	29079.38
699.614	28976.78
699.96	29085.7
700.306	28939.49
700.651	28846.84
700.997	28771.36
701.342	28688.2
701.688	28666.73
702.033	28568.66
702.379	28587.41
702.724	28438.49
703.069	28497.92
703.415	28158.95
703.76	28264.93
704.105	28134.32
704.45	28139.51
704.795	27966.41
705.14	27843.93
705.485	27885.06
705.83	27754.44
706.175	27848.22
706.52	27653.65
706.865	27425.86
707.209	27522.81
707.554	27487.55
707.899	27490.49
708.243	27278.07
708.588	27175.47
708.932	27076.27
709.277	26936.83
709.621	27089.6
709.966	26892.77
710.31	27156.72
710.654	26814.8
710.998	26797.4
711.342	26733.68
711.687	26713.56
712.031	26561.48
712.375	26461.37
712.719	26637.63
713.063	26489.61
713.407	26509.5
713.75	26384.08
714.094	26450.29
714.438	26254.14
714.782	26339.11
715.125	26184.76
715.469	26336.4
715.812	26063.64
716.156	25883.3
716.499	25949.74
716.843	26045.78
717.186	25825.22
717.53	25973.02
717.873	25962.4
718.216	25828.84
718.559	25648.96
718.902	25488.96
719.246	25524.22
719.589	25408.51
719.932	25367.61
720.275	25405.8
720.617	25337.55
720.96	25281.28
721.303	25309.53
721.646	25239.93
721.989	25120.61
722.331	25249.65
722.674	24975.3
723.016	25036.55
723.359	24930.11
723.701	24987.73
724.044	24898.92
724.386	24750.68
724.729	24887.62
725.071	24698.25
725.413	24776.44
725.755	24738.25
726.097	24670.45
726.439	24480.85
726.782	24552.49
727.124	24665.93
727.465	24475.43
727.807	24391.59
728.149	24400.63
728.491	24391.59
728.833	24345.94
729.175	24232.5
729.516	24325.83
729.858	24230.92
730.199	24195.21
730.541	24154.31
730.882	24031.83
731.224	24146.4
731.565	23999.51
731.906	24010.13
732.248	23924.03
732.589	23806.75
732.93	23761.1
733.271	23773.08
733.612	23783.02
733.953	23784.15
734.294	23699.18
734.635	23588.9
734.976	23715.45
735.317	23531.05
735.658	23502.12
735.999	23448.11
736.339	23415.8
736.68	23556.36
737.021	23318.4
737.361	23271.39
737.702	23443.14
738.042	23285.86
738.383	23198.63
738.723	23270.72
739.063	23174.67
739.404	23185.29
739.744	23102.13
740.084	23006.54
740.424	23077.27
740.764	23001.8
741.104	23066.2
741.444	22948.46
741.784	22898.97
742.124	22953.66
742.464	22872.53
742.804	22812.42
743.143	22768.13
743.483	22746.66
743.823	22642.03
744.162	22555.25
744.502	22593.67
744.841	22492.21
745.181	22592.99
745.52	22496.5
745.86	22597.74
746.199	22384.64
746.538	22423.73
746.877	22396.84
747.216	22471.19
747.556	22412.43
747.895	22413.34
748.234	22186.45
748.573	22172.44
748.911	22101.03
749.25	22142.84
749.589	22040.47
749.928	22038.66
750.267	22019.45
750.605	21920.47
750.944	21861.71
751.283	21821.71
751.621	21917.53
751.96	21692.23
752.298	21702.17
752.636	21734.26
752.975	21619.23
753.313	21582.85
753.651	21542.85
753.989	21424.44
754.327	21399.8
754.666	21359.58
755.004	21366.13
755.342	21325.23
755.679	21303.76
756.017	21069.64
756.355	21136.53
756.693	20990.78
757.031	21102.64
757.368	20935.41
757.706	20928.18
758.044	20921.63
758.381	20873.72
758.719	20790.56
759.056	20681.63
759.394	20725.25
759.731	20474.18
760.068	20508.08
760.405	20410.45
760.743	20400.28
761.08	20427.63
761.417	20266.05
761.754	20234.41
762.091	20225.15
762.428	20151.7
762.765	20001.65
763.102	19997.36
763.438	19838.49
763.775	19880.75
764.112	19788.55
764.449	19744.93
764.785	19695.22
765.122	19597.37
765.458	19492.51
765.795	19578.84
766.131	19419.74
766.467	19283.93
766.804	19221.78
767.14	19104.95
767.476	19202.12
767.812	19135.01
768.148	19094.78
768.485	18900.21
768.821	18866.54
769.157	18930.04
769.492	18776.82
769.828	18767.78
770.164	18646.66
770.5	18562.14
770.836	18596.49
771.171	18524.85
771.507	18421.58
771.842	18243.5
772.178	18386.1
772.513	18274.24
772.849	18155.14
773.184	18057.97
773.519	18004.87
773.855	17910.63
774.19	17842.16
774.525	17878.54
774.86	17867.47
775.195	17832.67
775.53	17646.68
775.865	17570.98
776.2	17431.32
776.535	17395.39
776.87	17426.35
777.205	17243.08
777.539	17232
777.874	17189.97
778.209	17012.8
778.543	17058.22
778.878	16921.96
779.212	16984.33
779.547	16768.74
779.881	16861.84
780.215	16660.49
780.55	16734.84
780.884	16548.18
781.218	16524.68
781.552	16480.16
781.886	16477.9
782.22	16294.4
782.554	16282.88
782.888	16244.01
783.222	16070
783.556	16082.66
783.889	16019.83
784.223	15881.53
784.557	15847.41
784.89	15913.85
785.224	15725.6
785.557	15704.59
785.891	15638.6
786.224	15671.82
786.558	15546.63
786.891	15435.67
787.224	15455.33
787.557	15380.98
787.891	15285.39
788.224	15313.86
788.557	15285.16
788.89	15307.76
789.223	15237.71
789.556	15101.67
789.888	15044.27
790.221	14889.24
790.554	14920.88
790.887	14803.59
791.219	14861.9
791.552	14707.33
791.884	14665.97
792.217	14645.18
792.549	14591.62
792.882	14494
793.214	14412.19
793.546	14456.94
793.879	14365.87
794.211	14272.53
794.543	14301.46
794.875	14237.51
795.207	14255.13
795.539	14208.81
795.871	14207.45
796.203	14040.9
796.535	13952.32
796.867	14053.33
797.198	13909.61
797.53	13835.48
797.862	13849.49
798.193	13884.97
798.525	13700.57
798.856	13743.06
799.188	13669.84
799.519	13574.93
799.85	13416.51
800.182	13517.53
800.513	13472.33
800.844	13303.52
801.175	13435.72
801.506	13341.49
801.837	13249.28
802.168	13251.09
802.499	13230.08
802.83	13182.85
803.161	13115.73
803.491	13053.58
803.822	13082.74
804.153	12941.04
804.483	12812.01
804.814	12854.94
805.145	12783.76
805.475	12821.95
805.805	12743.76
806.136	12771.78
806.466	12694.72
806.796	12768.39
807.126	12718
807.457	12624.67
807.787	12561.84
808.117	12508.51
808.447	12475.07
808.777	12527.27
809.107	12412.24
809.436	12384.45
809.766	12398.01
810.096	12329.53
810.426	12335.18
810.755	12342.87
811.085	12285.02
811.414	12242.98
811.744	12120.5
812.073	12132.03
812.403	12068.3
812.732	12030.33
813.061	12053.84
813.39	11932.93
813.719	11885.48
814.049	11935.65
814.378	11899.72
814.707	11852.71
815.036	11804.35
815.365	11754.86
815.693	11684.58
816.022	11793.73
816.351	11719.83
816.68	11595.77
817.008	11694.52
817.337	11551.25
817.665	11544.92
817.994	11480.29
818.322	11505.38
818.651	11497.92
818.979	11428.32
819.307	11452.95
819.636	11475.55
819.964	11266.74
820.292	11354.64
820.62	11300.64
820.948	11261.31
821.276	11367.53
821.604	11254.08
821.932	11343.12
822.259	11290.69
822.587	11187.64
822.915	11228.09
823.243	11320.07
823.57	11275.32
823.898	11191.71
824.225	11252.27
824.553	11154.42
824.88	11265.38
825.207	11196.46
825.535	11227.42
825.862	11218.6
826.189	11149.45
826.516	11321.65
826.843	11210.69
827.17	11228.32
827.497	11193.52
827.824	11273.29
828.151	11244.82
828.478	11253.63
828.805	11256.12
829.131	11174.76
829.458	11142.67
829.785	11072.17
830.111	11156.91
830.438	11238.49
830.764	11138.15
831.09	11179.96
831.417	11041.43
831.743	11145.61
832.069	11110.58
832.395	11045.27
832.722	11062.9
833.048	11094.99
833.374	11090.25
833.7	11016.8
834.026	11118.94
834.351	11001.43
834.677	10935.45
835.003	11028.1
835.329	11019.96
835.654	11013.41
835.98	10938.38
836.306	10971.38
836.631	10917.37
836.956	10984.49
837.282	10979.74
837.607	10819.07
837.932	10917.14
838.258	10853.42
838.583	10756.24
838.908	10783.59
839.233	10856.35
839.558	10750.59
839.883	10694.32
840.208	10698.17
840.533	10709.92
840.858	10670.82
841.182	10722.35
841.507	10657.04
841.832	10674.89
842.156	10547.43
842.481	10621.56
842.805	10572.07
843.13	10511.5
843.454	10455.91
843.778	10502.46
844.103	10485.06
844.427	10472.63
844.751	10402.13
845.075	10372.07
845.399	10333.88
845.723	10305.63
846.047	10286.88
846.371	10176.6
846.695	10236.26
847.019	10195.58
847.343	10035.36
847.666	10085.98
847.99	9995.13
848.313	10051.4
848.637	9957.62
848.96	9927.79
849.284	9893.44
849.607	9789.71
849.931	9763.95
850.254	9744.97
850.577	9707.46
850.9	9591.08
851.223	9595.82
851.546	9494.35
851.869	9531.42
852.192	9550.85
852.515	9482.15
852.838	9425.43
853.161	9443.96
853.483	9289.61
853.806	9389.72
854.129	9293.68
854.451	9330.52
854.774	9188.6
855.096	9154.25
855.419	9159.22
855.741	9082.16
856.063	9006.68
856.385	9039
856.708	8992
857.03	9043.07
857.352	9012.33
857.674	8999
857.996	8902.51
858.318	8848.95
858.64	8889.85
858.961	8801.04
859.283	8731.21
859.605	8782.51
859.926	8800.36
860.248	8751.55
860.57	8743.64
860.891	8735.96
861.212	8610.08
861.534	8707.26
861.855	8650.54
862.176	8668.39
862.498	8614.38
862.819	8628.16
863.14	8585.23
863.461	8631.55
863.782	8556.3
864.103	8553.14
864.424	8491.9
864.745	8511.56
865.065	8456.19
865.386	8398.56
865.707	8403.08
866.027	8509.75
866.348	8422.07
866.668	8397.66
866.989	8379.58
867.309	8351.79
867.63	8340.49
867.95	8295.97
868.27	8296.19
868.59	8327.15
868.91	8288.06
869.23	8359.02
869.55	8164.45
869.87	8235.86
870.19	8231.56
870.51	8288.06
870.83	8235.18
871.15	8102.75
871.469	8109.98
871.789	8181.4
872.109	8100.72
872.428	8109.31
872.748	8195.86
873.067	8108.4
873.386	8082.41
873.706	8105.01
874.025	8084.22
874.344	8052.36
874.663	8041.06
874.982	8048.07
875.301	7985.24
875.62	7918.58
875.939	7956.09
876.258	7995.19
876.577	7930.55
876.896	7908.63
877.214	7909.76
877.533	7938.01
877.852	7854.85
878.17	7869.09
878.489	7948.63
878.807	7872.7
879.125	7855.75
879.444	7823.66
879.762	7759.71
880.08	7814.4
880.398	7799.71
880.716	7756.1
881.034	7734.18
881.352	7683.56
881.67	7721.52
881.988	7685.59
882.306	7675.42
882.624	7654.4
882.941	7655.99
883.259	7591.13
883.577	7652.37
883.894	7615.08
884.212	7539.15
884.529	7574.63
884.846	7491.7
885.164	7429.78
885.481	7434.97
885.798	7495.99
886.115	7449.89
886.432	7414.18
886.75	7394.52
887.067	7370.79
887.383	7361.08
887.7	7380.51
888.017	7294.41
888.334	7369.66
888.651	7312.94
888.967	7275.88
889.284	7263.91
889.6	7188.65
889.917	7237.47
890.233	7242.89
890.55	7158.37
890.866	7149.33
891.182	7163.12
891.498	7107.98
891.815	7081.31
892.131	7064.14
892.447	7032.5
892.763	7010.13
893.079	7036.34
893.395	6961.99
893.71	6937.36
894.026	6963.35
894.342	6911.15
894.657	6942.56
894.973	6882.45
895.289	6919.96
895.604	6861.88
895.92	6823.69
896.235	6725.61
896.55	6759.51
896.865	6746.86
897.181	6701.89
897.496	6672.28
897.811	6624.83
898.126	6648.1
898.441	6588.89
898.756	6606.97
899.071	6599.97
899.386	6571.04
899.7	6494.43
900.015	6496.24
900.33	6466.19
900.644	6471.16
900.959	6493.53
901.273	6415.34
901.588	6414.44
901.902	6372.18
902.216	6363.36
902.531	6362.91
902.845	6328.79
903.159	6279.98
903.473	6206.53
903.787	6173.76
904.101	6216.47
904.415	6232.07
904.729	6157.95
905.042	6133.54
905.356	6129.25
905.67	6101.68
905.984	6129.25
906.297	6054.22
906.611	6062.13
906.924	6027.55
907.237	5946.88
907.551	5962.02
907.864	5978.97
908.177	5948.01
908.491	5870.72
908.804	5886.99
909.117	5798.18
909.43	5854.22
909.743	5802.25
910.056	5741.01
910.368	5771.06
910.681	5754.79
910.994	5710.73
911.307	5695.36
911.619	5646.77
911.932	5613.55
912.244	5623.04
912.557	5578.75
912.869	5622.14
913.181	5536.04
913.494	5586.89
913.806	5460.11
914.118	5524.52
914.43	5466.21
914.742	5476.16
915.054	5378.53
915.366	5403.16
915.678	5385.31
915.99	5300.79
916.302	5329.72
916.613	5315.71
916.925	5241.13
917.236	5240.91
917.548	5222.38
917.859	5233.68
918.171	5152.1
918.482	5174.92
918.794	5133.79
919.105	5148.25
919.416	5131.76
919.727	5062.83
920.038	5067.13
920.349	5051.53
920.66	5018.77
920.971	5025.09
921.282	4957.98
921.593	4954.14
921.903	4919.56
922.214	4929.73
922.525	4929.96
922.835	4880.69
923.146	4819.45
923.456	4857.19
923.767	4770.41
924.077	4790.07
924.387	4721.82
924.697	4749.85
925.008	4719.11
925.318	4741.03
925.628	4675.5
925.938	4683.86
926.248	4688.83
926.558	4618.1
926.867	4614.26
927.177	4579.46
927.487	4585.33
927.796	4571.09
928.106	4541.72
928.416	4543.52
928.725	4511.66
929.034	4448.84
929.344	4448.39
929.653	4434.6
929.962	4403.87
930.271	4422.85
930.581	4407.03
930.89	4365
931.199	4319.58
931.508	4354.38
931.817	4279.58
932.125	4273.93
932.434	4252.23
932.743	4282.29
933.051	4207.49
933.36	4200.03
933.669	4186.02
933.977	4183.76
934.286	4126.13
934.594	4164.55
934.902	4088.62
935.21	4094.95
935.519	4129.3
935.827	4096.3
936.135	4102.63
936.443	4083.65
936.751	4017.66
937.059	3989.19
937.367	3990.32
937.674	3992.13
937.982	3978.34
938.29	3937.66
938.597	3948.29
938.905	3871.45
939.213	3866.03
939.52	3878.68
939.827	3870.1
940.135	3844.56
940.442	3838.91
940.749	3816.54
941.056	3796.2
941.363	3720.72
941.67	3759.59
941.977	3746.26
942.284	3703.32
942.591	3735.86
942.898	3713.26
943.205	3690.67
943.511	3656.77
943.818	3649.54
944.125	3627.62
944.431	3624.9
944.738	3588.97
945.044	3554.85
945.35	3609.31
945.657	3563.89
945.963	3539.94
946.269	3553.27
946.575	3534.74
946.881	3489.32
947.187	3499.48
947.493	3500.16
947.799	3472.37
948.105	3407.96
948.41	3405.48
948.716	3370
949.022	3368.19
949.327	3380.84
949.633	3360.28
949.938	3320.05
950.244	3377.45
950.549	3324.12
950.854	3298.59
951.16	3287.74
951.465	3337.23
951.77	3242.32
952.075	3247.97
952.38	3219.49
952.685	3225.14
952.99	3173.62
953.294	3175.2
953.599	3149.66
953.904	3165.93
954.209	3172.94
954.513	3137.69
954.818	3118.25
955.122	3127.29
955.426	3126.84
955.731	3082.77
956.035	3086.16
956.339	3084.35
956.643	3078.03
956.948	3047.29
957.252	3014.07
957.556	3023.34
957.86	2968.2
958.163	3002.77
958.467	2956.45
958.771	2987.41
959.075	2941.53
959.378	2916.45
959.682	2929.78
959.985	2922.78
960.289	2887.07
960.592	2850.46
960.896	2877.58
961.199	2848.43
961.502	2834.42
961.805	2846.85
962.108	2826.06
962.411	2808.65
962.714	2800.29
963.017	2795.32
963.32	2800.97
963.623	2729.79
963.926	2764.81
964.228	2744.25
964.531	2739.28
964.833	2727.08
965.136	2695.89
965.438	2686.62
965.741	2645.95
966.043	2691.6
966.345	2638.72
966.648	2624.7
966.95	2633.97
967.252	2608.89
967.554	2637.13
967.856	2603.46
968.158	2575.44
968.46	2577.47
968.761	2564.59
969.063	2591.94
969.365	2510.13
969.666	2545.84
969.968	2506.97
970.269	2519.17
970.571	2498.15
970.872	2468.78
971.174	2504.26
971.475	2449.34
971.776	2429.23
972.077	2466.52
972.378	2449.34
972.679	2459.29
972.98	2413.41
973.281	2430.59
973.582	2410.93
973.883	2402.56
974.183	2380.19
974.484	2376.58
974.785	2379.06
975.085	2371.83
975.386	2342.45
975.686	2336.8
975.986	2333.87
976.287	2319.63
976.587	2276.92
976.887	2297.71
977.187	2286.18
977.487	2259.97
977.787	2264.71
978.087	2277.37
978.387	2270.36
978.687	2219.74
978.987	2223.13
979.286	2194.43
979.586	2179.52
979.885	2192.63
980.185	2176.13
980.484	2172.06
980.784	2164.15
981.083	2132.29
981.382	2165.28
981.682	2155.11
981.981	2123.93
982.28	2131.61
982.579	2143.14
982.878	2108.56
983.177	2097.71
983.475	2091.16
983.774	2078.5
984.073	2043.48
984.372	2032.86
984.67	2055.68
984.969	2022.01
985.267	2035.79
985.566	2061.78
985.864	2029.69
986.162	2017.49
986.461	2012.29
986.759	1987.43
987.057	1962.58
987.355	1949.24
987.653	1967.77
987.951	1975
988.249	1924.38
988.547	1932.75
988.844	1916.93
989.142	1912.86
989.44	1898.62
989.737	1902.24
990.035	1896.81
990.332	1903.82
990.63	1863.82
990.927	1895.46
991.224	1891.16
991.521	1835.12
991.819	1850.94
992.116	1833.77
992.413	1800.09
992.71	1814.78
993.006	1803.03
993.303	1817.95
993.6	1808.46
993.897	1765.07
994.193	1790.38
994.49	1787.66
994.787	1762.58
995.083	1752.41
995.379	1735.24
995.676	1722.13
995.972	1722.13
996.268	1734.78
996.565	1711.73
996.861	1726.65
997.157	1674.45
997.453	1690.72
997.749	1687.1
998.044	1660.21
998.34	1628.12
998.636	1682.58
998.932	1640.78
999.227	1611.62
999.523	1637.84
999.818	1621.34
1000.114	1585.86
1000.409	1626.09
1000.704	1594.9
1001	1577.73
1001.295	1609.59
1001.59	1605.75
1001.885	1560.55
1002.18	1534.56
1002.475	1546.99
1002.77	1528.01
1003.065	1515.36
1003.359	1521.68
1003.654	1531.85
1003.949	1525.07
1004.243	1524.62
1004.538	1478.97
1004.832	1496.15
1005.127	1505.41
1005.421	1475.58
1005.715	1471.74
1006.009	1440.78
1006.304	1473.32
1006.598	1391.07
1006.892	1433.55
1007.186	1426.54
1007.48	1418.18
1007.773	1414.79
1008.067	1427.67
1008.361	1428.58
1008.655	1399.65
1008.948	1410.95
1009.242	1356.26
1009.535	1363.27
1009.829	1371.18
1010.122	1335.7
1010.415	1363.27
1010.708	1314.46
1011.001	1323.27
1011.295	1284.4
1011.588	1317.17
1011.881	1301.8
1012.173	1305.19
1012.466	1279.43
1012.759	1294.34
1013.052	1283.72
1013.344	1282.14
1013.637	1264.29
1013.93	1256.38
1014.222	1257.51
1014.514	1255.7
1014.807	1254.57
1015.099	1239.43
1015.391	1233.33
1015.683	1223.39
1015.976	1234.46
1016.268	1214.8
1016.56	1190.17
1016.851	1192.2
1017.143	1174.8
1017.435	1169.83
1017.727	1164.4
1018.018	1194.01
1018.31	1153.11
1018.602	1139.77
1018.893	1150.39
1019.185	1143.16
1019.476	1118.3
1019.767	1139.77
1020.058	1113.78
1020.35	1084.86
1020.641	1116.95
1020.932	1104.07
1021.223	1117.17
1021.514	1103.16
1021.804	1078.08
1022.095	1056.61
1022.386	1052.54
1022.677	1052.99
1022.967	1066.78
1023.258	1047.8
1023.548	1041.92
1023.839	1033.56
1024.129	1026.1
1024.419	1003.05
1024.709	1015.93
1025	1012.09
1025.29	1003.96
1025.58	986.1
1025.87	986.78
1026.16	987.23
1026.449	989.72
1026.739	944.52
1027.029	953.79
1027.319	972.32
1027.608	975.48
1027.898	956.05
1028.187	955.6
1028.477	931.42
1028.766	937.74
1029.055	955.6
1029.344	904.52
1029.634	947.91
1029.923	916.73
1030.212	906.78
1030.501	894.81
1030.79	912.43
1031.078	886.67
1031.367	882.15
1031.656	885.77
1031.945	878.54
1032.233	874.92
1032.522	864.98
1032.81	892.1
1033.099	850.74
1033.387	836.96
1033.675	841.25
1033.963	835.83
1034.251	836.5
1034.54	815.26
1034.828	836.73
1035.116	828.14
1035.403	795.37
1035.691	803.28
1035.979	795.15
1036.267	801.7
1036.554	822.49
1036.842	793.34
1037.129	779.78
1037.417	780.69
1037.704	766.9
1037.992	766.45
1038.279	755.6
1038.566	772.32
1038.853	772.32
1039.14	772.32
