Data from plate_porcelain_FLMS001491_011.txt Node
Date: Tue Feb 07 11:18:51 GMT 2017
User: dcchb
Spectrometer: FLMS00149
Trigger mode: 0
Integration Time (sec): 2.000000E-2
Scans to average: 10
Electric dark correction enabled: true
Nonlinearity correction enabled: false
Boxcar width: 0
XAxis mode: Wavelengths
Number of Pixels in Spectrum: 2048
>>>>>Begin Spectral Data<<<<<
341.393	-12.99
341.776	-12.99
342.16	-12.99
342.543	-55.03
342.927	-68.59
343.31	-66.78
343.693	-62.03
344.077	-73.33
344.46	-49.15
344.843	-61.58
345.226	-58.19
345.61	-45.31
345.993	-16.16
346.376	-12.09
346.759	12.32
347.142	34.91
347.525	57.51
347.908	65.2
348.291	70.85
348.674	80.56
349.057	123.27
349.44	125.31
349.823	130.73
350.206	168.7
350.588	217.28
350.971	230.62
351.354	250.5
351.737	266.09
352.119	286.43
352.502	280.11
352.884	317.39
353.267	318.3
353.65	301.35
354.032	308.58
354.414	321.69
354.797	344.06
355.179	362.82
355.562	342.7
355.944	352.65
356.326	379.31
356.709	366.88
357.091	362.59
357.473	388.13
357.855	369.59
358.238	384.28
358.62	382.7
359.002	373.66
359.384	377.5
359.766	377.96
360.148	377.05
360.53	373.21
360.912	368.69
361.294	364.62
361.676	380.44
362.057	384.74
362.439	375.92
362.821	391.74
363.203	390.39
363.584	382.48
363.966	382.25
364.348	376.15
364.729	379.99
365.111	377.28
365.493	381.57
365.874	363.72
366.256	384.74
366.637	384.28
367.019	389.26
367.4	383.38
367.781	391.06
368.163	379.54
368.544	379.09
368.925	392.19
369.306	386.32
369.688	375.92
370.069	413.66
370.45	389.48
370.831	385.64
371.212	387.45
371.593	402.14
371.974	407.56
372.355	387
372.736	401.23
373.117	389.03
373.498	400.55
373.879	403.27
374.26	412.76
374.641	384.96
375.021	400.1
375.402	415.24
375.783	445.3
376.163	456.6
376.544	439.2
376.925	441.91
377.305	443.27
377.686	416.37
378.066	460.21
378.447	457.28
378.827	431.74
379.208	445.07
379.588	459.31
379.968	465.64
380.349	476.26
380.729	458.86
381.109	479.65
381.489	471.51
381.87	485.98
382.25	482.13
382.63	483.49
383.01	474.9
383.39	502.7
383.77	502.02
384.15	505.64
384.53	515.35
384.91	552.87
385.29	517.84
385.67	534.11
386.049	519.65
386.429	538.18
386.809	544.73
387.189	550.61
387.568	549.93
387.948	551.28
388.328	551.51
388.707	568.69
389.087	580.89
389.466	569.59
389.846	578.4
390.225	616.14
390.605	603.71
390.984	596.48
391.363	596.93
391.743	624.5
392.122	612.07
392.501	627.44
392.881	614.79
393.26	632.19
393.639	634.67
394.018	674.22
394.397	657.04
394.776	668.57
395.155	664.73
395.534	681
395.913	678.51
396.292	690.04
396.671	716.48
397.05	713.09
397.429	720.32
397.808	716.03
398.186	751.51
398.565	719.64
398.944	709.92
399.323	732.75
399.701	751.51
400.08	757.16
400.458	770.49
400.837	790.37
401.215	781.34
401.594	782.69
401.972	789.7
402.351	810.26
402.729	816.81
403.107	851.16
403.486	843.03
403.864	828.11
404.242	843.93
404.62	842.12
404.999	859.53
405.377	891.16
405.755	896.81
406.133	877.38
406.511	917.6
406.889	930.94
407.267	906.98
407.645	956.7
408.023	949.47
408.401	990.14
408.779	1003.7
409.156	1005.74
409.534	986.08
409.912	1010.71
410.29	1057.03
410.667	1022.01
411.045	1066.07
411.422	1089.8
411.8	1089.58
412.178	1119.63
412.555	1116.02
412.933	1125.06
413.31	1161.89
413.687	1139.74
414.065	1165.73
414.442	1216.13
414.819	1203.02
415.197	1216.58
415.574	1222.45
415.951	1273.98
416.328	1250.7
416.705	1263.36
417.082	1296.8
417.46	1274.43
417.837	1331.15
418.214	1344.03
418.591	1341.77
418.967	1301.55
419.344	1350.36
419.721	1348.55
420.098	1361.21
420.475	1391.49
420.852	1410.7
421.228	1440.3
421.605	1426.29
421.982	1475.1
422.358	1470.36
422.735	1517.36
423.111	1480.3
423.488	1530.69
423.864	1532.73
424.241	1557.59
424.617	1574.99
424.994	1563.69
425.37	1606.62
425.746	1613.86
426.123	1649.79
426.499	1626.96
426.875	1678.26
427.251	1694.31
427.627	1739.73
428.003	1766.39
428.379	1748.77
428.756	1821.53
429.132	1789.22
429.507	1842.32
429.883	1826.96
430.259	1877.35
430.635	1882.32
431.011	1948.31
431.387	1978.14
431.763	1974.52
432.138	2021.3
432.514	2032.6
432.89	2077.8
433.265	2135.88
433.641	2122.32
434.016	2152.37
434.392	2205.03
434.767	2223.33
435.143	2224.91
435.518	2247.96
435.894	2244.8
436.269	2293.39
436.644	2350.56
437.02	2337.23
437.395	2355.53
437.77	2409.54
438.145	2419.03
438.52	2472.82
438.895	2500.16
439.271	2509.65
439.646	2542.87
440.021	2555.07
440.395	2523.21
440.77	2547.62
441.145	2597.78
441.52	2619.03
441.895	2643.43
442.27	2713.71
442.645	2660.83
443.019	2704.9
443.394	2723.88
443.769	2772.47
444.143	2754.16
444.518	2808.4
444.892	2824.9
445.267	2823.32
445.641	2867.16
446.016	2847.72
446.39	2899.47
446.764	2947.61
447.139	2900.15
447.513	2923.65
447.887	2960.94
448.262	2995.06
448.636	3031.9
449.01	3066.02
449.384	3078.68
449.758	3085.68
450.132	3198.22
450.506	3120.71
450.88	3179.01
451.254	3162.06
451.628	3232.8
452.002	3301.27
452.376	3339.69
452.75	3294.49
453.123	3371.32
453.497	3428.27
453.871	3432.79
454.244	3486.8
454.618	3566.35
454.992	3584.65
455.365	3604.54
455.739	3663.97
456.112	3700.13
456.486	3774.48
456.859	3822.61
457.232	3917.52
457.606	3925.43
457.979	3900.58
458.352	4020.12
458.725	4043.4
459.099	4104.64
459.472	4179.44
459.845	4189.83
460.218	4246.1
460.591	4272.99
460.964	4295.37
461.337	4404.52
461.71	4452.43
462.083	4544.17
462.456	4555.7
462.829	4536.26
463.201	4683.38
463.574	4670.05
463.947	4733.1
464.32	4891.06
464.692	4887.67
465.065	4917.05
465.438	5020.55
465.81	5103.26
466.183	5112.97
466.555	5233.87
466.928	5254.21
467.3	5263.03
467.672	5371.5
468.045	5523.58
468.417	5540.76
468.789	5555.67
469.161	5569.91
469.534	5743.46
469.906	5825.95
470.278	5867.3
470.65	5965.83
471.022	6050.35
471.394	6171.7
471.766	6219.16
472.138	6334.64
472.51	6490.11
472.882	6549.32
473.253	6624.57
473.625	6742.31
473.997	6841.97
474.369	6933.49
474.74	6981.17
475.112	7081.96
475.484	7206.7
475.855	7306.36
476.227	7422.29
476.598	7653.02
476.97	7726.69
477.341	7909.28
477.713	7956.74
478.084	8022.95
478.455	8266.11
478.827	8358.31
479.198	8587.68
479.569	8622.49
479.94	8887.34
480.311	8869.03
480.682	9150.83
481.053	9277.84
481.424	9507.43
481.795	9628.79
482.166	9812.51
482.537	9818.84
482.908	10014.54
483.279	10164.37
483.65	10374.76
484.021	10600.74
484.391	10714.86
484.762	10816.33
485.133	10881.18
485.503	11077.56
485.874	11276.2
486.244	11383.54
486.615	11602.75
486.985	11760.03
487.356	11938.56
487.726	12104.88
488.097	12369.28
488.467	12395.04
488.837	12681.81
489.207	12828.25
489.578	13005.65
489.948	13125.87
490.318	13298.75
490.688	13382.81
491.058	13547.55
491.428	13693.99
491.798	13890.37
492.168	14224.82
492.538	14216.69
492.908	14420.98
493.278	14579.84
493.648	14673.85
494.017	14714.53
494.387	14942.32
494.757	15061.86
495.126	15222.54
495.496	15329.88
495.866	15498.91
496.235	15636.76
496.605	15740.26
496.974	15872.01
497.344	16064.1
497.713	16161.04
498.082	16254.83
498.452	16466.57
498.821	16463.63
499.19	16619.34
499.559	16826.56
499.928	16857.97
500.298	17006.45
500.667	17104.07
501.036	17129.61
501.405	17284.4
501.774	17406.89
502.143	17600.33
502.512	17625.86
502.88	17864.73
503.249	17851.4
503.618	18089.81
503.987	18129.35
504.356	18284.15
504.724	18276.69
505.093	18428.78
505.462	18588.78
505.83	18768.89
506.199	18852.05
506.567	19182.21
506.936	19133.85
507.304	19383.78
507.672	19334.52
508.041	19572.25
508.409	19681.18
508.777	19899.25
509.145	20084.1
509.514	20127.49
509.882	20263.08
510.25	20311.22
510.618	20507.82
510.986	20577.2
511.354	20869.39
511.722	20903.74
512.09	21148.26
512.458	21077.3
512.826	21261.7
513.193	21454.24
513.561	21496.04
513.929	21781.69
514.297	22024.62
514.664	22178.06
515.032	22296.25
515.4	22405.63
515.767	22600.2
516.135	22711.38
516.502	22652.62
516.869	23005.38
517.237	23148.66
517.604	23089
517.972	23409.67
518.339	23693.28
518.706	23599.27
519.073	23809.66
519.44	24038.35
519.808	24210.1
520.175	24250.55
520.542	24622.74
520.909	24813.02
521.276	24873.58
521.643	25153.58
522.009	25403.51
522.376	25434.92
522.743	25756.72
523.11	25942.26
523.477	26075.36
523.843	26335.24
524.21	26512.64
524.577	26804.61
524.943	27012.06
525.31	26978.61
525.676	27300.86
526.043	27584.25
526.409	27651.82
526.776	28047.74
527.142	28123.22
527.508	28304.68
527.874	28380.61
528.241	28586.71
528.607	28790.77
528.973	29063.3
529.339	29027.82
529.705	29364.54
530.071	29557.98
530.437	29690.63
530.803	29881.14
531.169	30139.89
531.535	30144.86
531.901	30168.36
532.267	30388.01
532.632	30644.96
532.998	30752.07
533.364	30909.58
533.73	31160.42
534.095	31383.24
534.461	31450.81
534.826	31654.65
535.192	31749.11
535.557	32055.54
535.923	31995.88
536.288	32073.17
536.653	32195.2
537.019	32271.58
537.384	32370.79
537.749	32584.34
538.114	32609.65
538.479	32795.86
538.845	32935.29
539.21	32913.82
539.575	33077.21
539.94	33316.53
540.305	33498.44
540.67	33429.97
541.034	33695.27
541.399	33802.61
541.764	33966.45
542.129	34008.48
542.494	34127.8
542.858	34152.21
543.223	34330.28
543.587	34558.75
543.952	34594.91
544.316	34658.64
544.681	34710.61
545.045	34863.83
545.41	34982.47
545.774	35105.63
546.138	35183.82
546.503	35364.38
546.867	35385.62
547.231	35802.56
547.595	35771.6
547.959	35895.44
548.324	35871.49
548.688	35989.9
549.052	36315.09
549.416	36336.78
549.779	36334.07
550.143	36574.52
550.507	36840.5
550.871	36867.84
551.235	36992.59
551.599	37246.37
551.962	37335.4
552.326	37334.05
552.689	37546.24
553.053	37529.52
553.417	37684.77
553.78	38140.13
554.143	38007.7
554.507	38272.55
554.87	38426
555.234	38739.43
555.597	38570.85
555.96	38847.91
556.323	38937.62
556.686	38997.51
557.05	39348.91
557.413	39499.87
557.776	39510.26
558.139	39761.78
558.502	39870.48
558.865	39999.51
559.228	40290.13
559.59	40344.36
559.953	40440.41
560.316	40970.11
560.679	40849.43
561.041	41085.81
561.404	41335.98
561.767	41537.1
562.129	41360.38
562.492	41974.83
562.854	41845.11
563.217	42020.25
563.579	42177.99
563.941	42456.17
564.304	42594.47
564.666	42845.99
565.028	42836.27
565.39	43060.68
565.753	43370.5
566.115	43416.15
566.477	43512.64
566.839	43752.41
567.201	43910.37
567.563	43976.13
567.925	44267.65
568.287	44333.18
568.648	44397.82
569.01	44669.22
569.372	44927.97
569.734	44914.86
570.095	45277.79
570.457	45370.45
570.819	45403.44
571.18	45437.56
571.542	45680.04
571.903	45701.51
572.265	45931.33
572.626	45953.71
572.987	46006.59
573.349	46212.46
573.71	46407.25
574.071	46405.67
574.432	46689.51
574.794	46977.86
575.155	46799.11
575.516	46808.6
575.877	47024.41
576.238	46952.32
576.599	47174.92
576.96	47185.54
577.32	47298.3
577.681	47393.22
578.042	47478.86
578.403	47418.53
578.763	47630.95
579.124	47698.97
579.485	47754.79
579.845	47778.07
580.206	47876.59
580.566	47795.69
580.927	47925.18
581.287	47889.93
581.648	47791.17
582.008	48101.9
582.368	47972.86
582.728	48051.96
583.089	48032.07
583.449	48046.99
583.809	48116.81
584.169	48259.18
584.529	48136.02
584.889	48445.17
585.249	48232.74
585.609	48059.87
585.969	48343.25
586.329	48203.59
586.688	48317.03
587.048	48189.58
587.408	48171.95
587.768	48131.95
588.127	48213.99
588.487	48120.2
588.846	48451.04
589.206	48110.71
589.565	48289.01
589.925	48375.34
590.284	48314.55
590.643	48307.54
591.003	48560.87
591.362	48521.32
591.721	48454.21
592.08	48404.49
592.44	48534.88
592.799	48493.53
593.158	48470.02
593.517	48603.35
593.876	48541.44
594.235	48507.54
594.593	48566.07
594.952	48628.44
595.311	48502.79
595.67	48566.29
596.029	48868.43
596.387	48809.9
596.746	48825.04
597.104	48597.93
597.463	48703.69
597.822	48915.21
598.18	48734.65
598.538	48691.26
598.897	48971.25
599.255	48632.28
599.613	49106.84
599.972	48963.35
600.33	49091.7
600.688	48806.06
601.046	49095.77
601.404	49148.88
601.762	49135.54
602.12	49232.72
602.478	49339.61
602.836	49284.92
603.194	49141.19
603.552	49265.48
603.91	49082.21
604.268	49285.82
604.625	49288.53
604.983	49414.18
605.341	49117.01
605.698	49350.91
606.056	49496.89
606.413	49512.26
606.771	49617.34
607.128	49669.54
607.485	49373.5
607.843	49548.87
608.2	49639.26
608.557	49801.52
608.914	49659.37
609.272	49799.71
609.629	49957.22
609.986	49978.01
610.343	49819.82
610.7	50117.89
611.057	50007.16
611.414	49963.09
611.771	50079.93
612.127	50194.5
612.484	50041.74
612.841	50327.15
613.198	50179.81
613.554	50180.49
613.911	50281.28
614.267	50433.36
614.624	50313.59
614.98	50406.92
615.337	50599.01
615.693	50474.94
616.05	50386.58
616.406	50674.94
616.762	50469.97
617.118	50523.53
617.475	50575.73
617.831	50702.51
618.187	50634.04
618.543	50724.43
618.899	50916.51
619.255	50761.72
619.611	50715.16
619.967	50818.44
620.323	51028.38
620.678	50804.2
621.034	50711.32
621.39	50707.48
621.746	50672.9
622.101	51036.51
622.457	50766.46
622.812	50937.98
623.168	50909.73
623.523	50939.79
623.879	51099.79
624.234	50717.88
624.589	50996.74
624.945	51002.16
625.3	51019.56
625.655	50950.86
626.01	50954.03
626.365	50964.65
626.72	50874.48
627.075	50901.6
627.43	50858.66
627.785	50738.21
628.14	50783.41
628.495	50844.43
628.85	50763.52
629.205	50648.27
629.559	50867.7
629.914	50723.07
630.269	50730.76
630.623	50666.58
630.978	50568.5
631.332	50657.54
631.687	50725.56
632.041	50571.66
632.396	50643.3
632.75	50442.63
633.104	50522.85
633.459	50388.17
633.813	50346.13
634.167	50300.49
634.521	50298.9
634.875	50302.07
635.229	50296.42
635.583	50170.32
635.937	50096.2
636.291	50103.88
636.645	50091.9
636.999	50089.64
637.352	50100.72
637.706	49939.36
638.06	50035.18
638.413	49840.61
638.767	49764.68
639.121	49793.15
639.474	49598.58
639.828	49658.02
640.181	49634.29
640.534	49661.18
640.888	49453.73
641.241	49490.11
641.594	49342.32
641.947	49484.46
642.301	49479.26
642.654	49456.67
643.007	49449.66
643.36	49269.1
643.713	49266.39
644.066	49364.69
644.419	49070.69
644.771	48738.49
645.124	48335.57
645.477	48262.57
645.83	48040.66
646.182	47964.28
646.535	47956.14
646.888	47965.18
647.24	47781.68
647.593	48007.89
647.945	47909.14
648.298	47677.73
648.65	47676.15
649.002	47515.7
649.355	47682.7
649.707	47626.88
650.059	47627.79
650.411	48098.28
650.763	48038.62
651.115	48366.3
651.467	48352.74
651.819	48378.95
652.171	48101.45
652.523	48094.22
652.875	48116.36
653.227	47892.19
653.578	48067.55
653.93	48047.89
654.282	47823.49
654.633	47743.04
654.985	47760.67
655.337	47867.55
655.688	47758.41
656.039	47787.78
656.391	47549.6
656.742	47712.53
657.094	47713.21
657.445	47918.4
657.796	47746.2
658.147	47597.28
658.498	47524.74
658.849	47643.15
659.2	47674.79
659.551	47543.72
659.902	47590.27
660.253	47512.99
660.604	47564.96
660.955	47421.24
661.306	47496.27
661.656	47355.93
662.007	47419.43
662.358	47425.76
662.708	47220.34
663.059	47364.97
663.409	46969.27
663.76	47402.71
664.11	47422.37
664.461	47355.03
664.811	47349.83
665.161	47430.28
665.511	47084.3
665.862	47150.74
666.212	47277.06
666.562	47297.4
666.912	47165.65
667.262	47201.58
667.612	47185.76
667.962	47202.94
668.312	47173.56
668.662	47359.32
669.011	47101.25
669.361	47110.06
669.711	47110.74
670.06	46941.7
670.41	46868.03
670.76	46841.59
671.109	46985.54
671.459	46930.63
671.808	46848.15
672.157	46913.91
672.507	46566.12
672.856	46550.98
673.205	46643.41
673.554	46813.12
673.904	46556.18
674.253	46812.22
674.602	46616.29
674.951	46180.59
675.3	45819.93
675.649	46640.02
675.998	46510.53
676.346	46582.39
676.695	46642.05
677.044	46225.11
677.393	46482.96
677.741	46477.08
678.09	46416.29
678.438	46118
678.787	46320.25
679.135	46187.15
679.484	46160.48
679.832	46183.98
680.181	45970.2
680.529	46172.68
680.877	45859.47
681.225	45833.71
681.573	46001.39
681.922	45720.72
682.27	45718.46
682.618	45659.03
682.966	45537.67
683.314	45645.69
683.661	45488.63
684.009	45365.25
684.357	45295.87
684.705	45224.91
685.053	45207.06
685.4	45102.2
685.748	44984.24
686.095	44970.46
686.443	44713.06
686.79	44760.97
687.138	44841.42
687.485	44748.09
687.832	44535.89
688.18	44535.44
688.527	44400.3
688.874	44393.07
689.221	44277.37
689.568	44132.29
689.915	43966.41
690.262	43966.64
690.609	43962.8
690.956	43666.31
691.303	43768.45
691.65	43459.54
691.997	43520.32
692.344	43195.59
692.69	43228.35
693.037	43245.76
693.383	42934.8
693.73	42973.22
694.077	42668.82
694.423	42723.96
694.769	42656.39
695.116	42398.32
695.462	42570.29
695.808	42354.25
696.155	42434.93
696.501	42103.41
696.847	42173.92
697.193	41891.44
697.539	41999.46
697.885	41772.8
698.231	41593.6
698.577	41637.44
698.923	41479.47
699.269	41339.37
699.614	41210.33
699.96	41058.69
700.306	41047.4
700.651	40967.85
700.997	40819.38
701.342	40694.41
701.688	40740.06
702.033	40514.98
702.379	40625.94
702.724	40375.32
703.069	40432.95
703.415	40018.27
703.76	39966.52
704.105	40000.42
704.45	39762.23
704.795	39663.02
705.14	39580.09
705.485	39513.42
705.83	39456.7
706.175	39446.31
706.52	39241.12
706.865	39146.43
707.209	39184.17
707.554	39061.68
707.899	39071.63
708.243	38854.91
708.588	38899.66
708.932	38523.39
709.277	38503.96
709.621	38519.1
709.966	38225.32
710.31	38353
710.654	38153.01
710.998	38089.28
711.342	38108.26
711.687	37973.35
712.031	37870.98
712.375	37765.67
712.719	37742.85
713.063	37602.97
713.407	37660.82
713.75	37586.47
714.094	37419.02
714.438	37343.99
714.782	37325.23
715.125	37205.01
715.469	37238.23
715.812	36991
716.156	36844.12
716.499	36878.24
716.843	36851.8
717.186	36667.17
717.53	36864
717.873	36735.87
718.216	36791.91
718.559	36454.75
718.902	36280.51
719.246	36455.43
719.589	36210.23
719.932	36123.91
720.275	36103.57
720.617	36088.66
720.96	36006.4
721.303	35904.71
721.646	35958.04
721.989	35700.42
722.331	35936.8
722.674	35683.47
723.016	35681.89
723.359	35400.09
723.701	35600.31
724.044	35341.33
724.386	35227.21
724.729	35419.97
725.071	35247.32
725.413	35201.22
725.755	35210.49
726.097	34995.58
726.439	34880.78
726.782	34835.13
727.124	35058.17
727.465	34800.78
727.807	34850.04
728.149	34735.47
728.491	34610.28
728.833	34698.86
729.175	34496.83
729.516	34478.3
729.858	34412.77
730.199	34455.48
730.541	34340.45
730.882	34426.1
731.224	34504.97
731.565	34191.08
731.906	34137.29
732.248	34175.03
732.589	33934.59
732.93	33929.84
733.271	33803.74
733.612	33881.71
733.953	33916.06
734.294	33675.84
734.635	33601.72
734.976	33802.16
735.317	33488.95
735.658	33528.72
735.999	33556.52
736.339	33297.09
736.68	33488.5
737.021	33294.6
737.361	33205.12
737.702	33399.23
738.042	33364.66
738.383	33175.96
738.723	33183.65
739.063	32996.99
739.404	33108.85
739.744	32781.17
740.084	32730.33
740.424	32844.45
740.764	32865.46
741.104	32815.07
741.444	32693.72
741.784	32602.19
742.124	32542.31
742.464	32488.3
742.804	32433.84
743.143	32289.21
743.483	32354.74
743.823	32278.81
744.162	32194.52
744.502	32197.46
744.841	32095.77
745.181	32300.51
745.52	31998.37
745.86	32051.93
746.199	31956.79
746.538	31867.07
746.877	31932.61
747.216	31966.5
747.556	31823.91
747.895	31658.94
748.234	31570.13
748.573	31531.26
748.911	31563.35
749.25	31510.92
749.589	31379.4
749.928	31338.27
750.267	31346.41
750.605	31227.31
750.944	31044.95
751.283	31053.31
751.621	31006.98
751.96	30890.15
752.298	30841.79
752.636	30840.66
752.975	30626.88
753.313	30542.13
753.651	30667.1
753.989	30456.94
754.327	30496.94
754.666	30271.18
755.004	30277.51
755.342	30462.81
755.679	30374.91
756.017	30039.32
756.355	30234.12
756.693	29893.11
757.031	30012.43
757.368	29747.13
757.706	29790.06
758.044	29753.23
758.381	29606.11
758.719	29638.88
759.056	29530.86
759.394	29386.23
759.731	29311.88
760.068	29142.85
760.405	29094.26
760.743	29095.39
761.08	29144.21
761.417	28979.69
761.754	28920.48
762.091	28782.63
762.428	28660.15
762.765	28471.91
763.102	28583.09
763.438	28384
763.775	28338.35
764.112	28407.5
764.449	28277.56
764.785	28037.12
765.122	27848.87
765.458	27920.51
765.795	27933.84
766.131	27774.98
766.467	27697.01
766.804	27544.47
767.14	27443.23
767.476	27384.93
767.812	27339.06
768.148	27217.93
768.485	27073.75
768.821	26904.04
769.157	26855
769.492	26839.18
769.828	26870.82
770.164	26531.17
770.5	26522.58
770.836	26504.27
771.171	26249.59
771.507	26338.63
771.842	26059.31
772.178	26176.83
772.513	25999.88
772.849	26005.3
773.184	25769.15
773.519	25804.86
773.855	25570.29
774.19	25517.86
774.525	25442.61
774.86	25417.07
775.195	25404.87
775.53	25188.38
775.865	25164.88
776.2	24904.09
776.535	24863.64
776.87	24756.98
777.205	24602.63
777.539	24481.96
777.874	24625.23
778.209	24448.74
778.543	24458.68
778.878	24208.29
779.212	24138.01
779.547	24045.58
779.881	23988.41
780.215	23894.85
780.55	23962.42
780.884	23777.34
781.218	23733.95
781.552	23646.95
781.886	23573.5
782.22	23390.23
782.554	23277.69
782.888	23147.75
783.222	23000.64
783.556	22976.68
783.889	22898.27
784.223	22891.94
784.557	22778.72
784.89	22806.52
785.224	22642.46
785.557	22498.73
785.891	22485.62
786.224	22250.15
786.558	22407.43
786.891	22171.28
787.224	22144.84
787.557	21995.01
787.891	22034.79
788.224	21937.62
788.557	21891.51
788.89	21860.33
789.223	21843.61
789.556	21602.93
789.888	21480.68
790.221	21501.02
790.554	21303.06
790.887	21270.97
791.219	21212.21
791.552	21171.31
791.884	21096.51
792.217	21089.73
792.549	21018.32
792.882	20800.7
793.214	20678.89
793.546	20738.1
793.879	20505.79
794.211	20579.23
794.543	20526.58
794.875	20452.23
795.207	20514.83
795.539	20255.63
795.871	20366.58
796.203	20159.13
796.535	20213.82
796.867	20000.27
797.198	20001.85
797.53	20017.21
797.862	19901.28
798.193	19924.56
798.525	19776.32
798.856	19647.28
799.188	19515.53
799.519	19445.48
799.85	19367.51
800.182	19410.9
800.513	19337.46
800.844	19198.25
801.175	19342.2
801.506	19274.41
801.837	19139.95
802.168	19028.99
802.499	18951.71
802.83	18907.86
803.161	18818.83
803.491	18914.87
803.822	18805.27
804.153	18622.67
804.483	18461.1
804.814	18444.37
805.145	18422.23
805.475	18368.9
805.805	18347.2
806.136	18472.85
806.466	18409.57
806.796	18399.18
807.126	18117.6
807.457	18100.65
807.787	18083.25
808.117	17966.42
808.447	17946.31
808.777	17993.09
809.107	17959.41
809.436	17807.55
809.766	17838.29
810.096	17789.25
810.426	17697.27
810.755	17716.94
811.085	17643.94
811.414	17492.99
811.744	17475.81
812.073	17341.35
812.403	17467.45
812.732	17249.83
813.061	17242.15
813.39	17171.64
813.719	17174.8
814.049	17279.66
814.378	17099.32
814.707	17072.88
815.036	17050.51
815.365	16963.51
815.693	16804.42
816.022	16846.9
816.351	16769.62
816.68	16703.4
817.008	16695.04
817.337	16562.16
817.665	16629.28
817.994	16645.78
818.322	16645.33
818.651	16483.3
818.979	16389.06
819.307	16530.07
819.636	16477.65
819.964	16333.24
820.292	16408.04
820.62	16349.29
820.948	16301.61
821.276	16348.16
821.604	16279.91
821.932	16315.39
822.259	16318.33
822.587	16363.3
822.915	16170.54
823.243	16263.87
823.57	16170.99
823.898	16196.52
824.225	16070.2
824.553	16149.29
824.88	16130.31
825.207	16246.47
825.535	16170.08
825.862	16187.71
826.189	16025.45
826.516	16159.69
826.843	16126.47
827.17	16149.97
827.497	16182.29
827.824	16141.16
828.151	16111.33
828.478	16116.53
828.805	16123.76
829.131	16043.31
829.458	16067.49
829.785	15975.06
830.111	16014.83
830.438	16097.99
830.764	16022.97
831.09	16105.68
831.417	15960.15
831.743	16084.66
832.069	16036.98
832.395	15996.53
832.722	16023.19
833.048	15968.96
833.374	15900.26
833.7	15821.17
834.026	15919.92
834.351	15996.75
834.677	15921.95
835.003	15914.04
835.329	15974.61
835.654	15880.6
835.98	15852.13
836.306	15916.3
836.631	15752.69
836.956	15799.47
837.282	15794.5
837.607	15681.73
837.932	15719.02
838.258	15758.34
838.583	15722.19
838.908	15558.8
839.233	15482.19
839.558	15522.19
839.883	15494.85
840.208	15451.68
840.533	15486.26
840.858	15466.37
841.182	15425.92
841.507	15330.56
841.832	15362.42
842.156	15313.16
842.481	15322.2
842.805	15239.26
843.13	15145.93
843.454	15164.46
843.778	15168.08
844.103	15004.24
844.427	15033.62
844.751	15134.18
845.075	14920.85
845.399	15008.53
845.723	14864.13
846.047	14747.52
846.371	14678.15
846.695	14681.99
847.019	14667.07
847.343	14578.03
847.666	14482.22
847.99	14413.75
848.313	14520.41
848.637	14319.51
848.96	14331.94
849.284	14317.25
849.607	14151.38
849.931	14201.1
850.254	14036.35
850.577	14006.98
850.9	13906.41
851.223	13959.29
851.546	13809.24
851.869	13727.66
852.192	13793.42
852.515	13712.52
852.838	13602.24
853.161	13548.91
853.483	13527.44
853.806	13465.52
854.129	13418.07
854.451	13489.25
854.774	13345.75
855.096	13294.9
855.419	13260.56
855.741	13132.88
856.063	13157.28
856.385	13148.92
856.708	13097.62
857.03	13058.53
857.352	13035.48
857.674	12955.48
857.996	12924.97
858.318	12810.4
858.64	12804.52
858.961	12803.62
859.283	12690.85
859.605	12751.87
859.926	12660.8
860.248	12728.82
860.57	12562.72
860.891	12627.8
861.212	12550.97
861.534	12481.37
861.855	12463.06
862.176	12517.52
862.498	12440.46
862.819	12518.65
863.14	12368.38
863.461	12416.51
863.782	12342.84
864.103	12296.06
864.424	12277.3
864.745	12275.72
865.065	12157.76
865.386	12181.94
865.707	12228.94
866.027	12175.39
866.348	12189.4
866.668	12172.22
866.989	12147.14
867.309	12020.59
867.63	11986.92
867.95	12142.62
868.27	11969.29
868.59	11942.85
868.91	11994.6
869.23	11953.7
869.55	11895.17
869.87	11918.44
870.19	11903.53
870.51	11933.81
870.83	11840.71
871.15	11753.02
871.469	11790.99
871.789	11893.81
872.109	11788.73
872.428	11643.2
872.748	11756.87
873.067	11743.08
873.386	11657.43
873.706	11751.89
874.025	11666.92
874.344	11590.54
874.663	11586.25
874.982	11588.06
875.301	11589.64
875.62	11614.5
875.939	11519.13
876.258	11595.51
876.577	11462.64
876.896	11484.33
877.214	11450.66
877.533	11506.48
877.852	11416.76
878.17	11456.53
878.489	11356.2
878.807	11358.23
879.125	11373.37
879.444	11391.9
879.762	11273.49
880.08	11283.43
880.398	11233.04
880.716	11242.3
881.034	11180.61
881.352	11211.12
881.67	11133.61
881.988	11163.44
882.306	11137.45
882.624	11085.7
882.941	10985.36
883.259	10987.39
883.577	11019.94
883.894	10969.77
884.212	10918.47
884.529	10890.22
884.846	10866.04
885.164	10865.82
885.481	10816.78
885.798	10795.99
886.115	10695.88
886.432	10758.25
886.75	10697.91
887.067	10735.65
887.383	10628.31
887.7	10755.99
888.017	10647.74
888.334	10616.56
888.651	10587.18
888.967	10535.43
889.284	10501.08
889.6	10483.91
889.917	10397.13
890.233	10385.83
890.55	10400.97
890.866	10398.71
891.182	10343.12
891.498	10298.6
891.815	10280.75
892.131	10213.4
892.447	10175.44
892.763	10111.49
893.079	10184.25
893.395	10108.55
893.71	10103.35
894.026	10012.51
894.342	10002.34
894.657	9972.05
894.973	9886.63
895.289	10003.47
895.604	9895.22
895.92	9839.18
896.235	9812.51
896.55	9759.63
896.865	9750.37
897.181	9711.04
897.496	9729.8
897.811	9639.41
898.126	9603.7
898.441	9548.56
898.756	9582.23
899.071	9518.05
899.386	9532.74
899.7	9446.87
900.015	9489.36
900.33	9315.12
900.644	9309.25
900.959	9360.77
901.273	9273.54
901.588	9324.84
901.902	9275.12
902.216	9205.52
902.531	9208.91
902.845	9146.54
903.159	9052.76
903.473	9046.65
903.787	9068.12
904.101	8941.57
904.415	8980.67
904.729	8930.73
905.042	8883.27
905.356	8881.24
905.67	8829.94
905.984	8852.54
906.297	8766.89
906.611	8749.49
906.924	8703.39
907.237	8683.05
907.551	8611.19
907.864	8582.71
908.177	8642.15
908.491	8543.39
908.804	8462.49
909.117	8502.26
909.43	8403.73
909.743	8363.51
910.056	8381.81
910.368	8298.2
910.681	8293.45
910.994	8255.26
911.307	8227.24
911.619	8172.55
911.932	8248.03
912.244	8117.87
912.557	8111.09
912.869	8003.52
913.181	7998.09
913.494	8022.05
913.806	7988.6
914.118	7932.33
914.43	7910.87
914.742	7874.26
915.054	7803.52
915.366	7797.87
915.678	7792.45
915.99	7726.69
916.302	7661.83
916.613	7635.62
916.925	7593.81
917.236	7610.99
917.548	7499.12
917.859	7496.87
918.171	7523.98
918.482	7411.22
918.794	7389.3
919.105	7454.38
919.416	7293.93
919.727	7325.57
920.038	7280.37
920.349	7236.08
920.66	7253.26
920.971	7252.13
921.282	7227.95
921.593	7066.59
921.903	7118.57
922.214	7091.45
922.525	7078.34
922.835	6990.66
923.146	7021.4
923.456	6954.51
923.767	6941.85
924.077	6879.71
924.387	6816.66
924.697	6805.58
925.008	6773.04
925.318	6763.1
925.628	6797.67
925.938	6721.29
926.248	6661.41
926.558	6659.82
926.867	6582.99
927.177	6596.1
927.487	6580.28
927.796	6503.22
928.106	6490.34
928.416	6486.72
928.725	6521.75
929.034	6455.54
929.344	6446.05
929.653	6394.97
929.962	6320.85
930.271	6352.04
930.581	6336.22
930.89	6273.17
931.199	6228.2
931.508	6237.46
931.817	6211.02
932.125	6176
932.434	6131.7
932.743	6029.11
933.051	6045.6
933.36	6007.19
933.669	6000.41
933.977	5973.97
934.286	5999.05
934.594	5907.53
934.902	5915.44
935.21	5863.91
935.519	5921.77
935.827	5811.03
936.135	5842.22
936.443	5718.61
936.751	5752.28
937.059	5740.08
937.367	5682.22
937.674	5690.58
937.982	5674.09
938.29	5607.88
938.597	5664.37
938.905	5594.32
939.213	5587.76
939.52	5571.72
939.827	5556.8
940.135	5458.73
940.442	5459.18
940.749	5443.36
941.056	5484.26
941.363	5403.13
941.67	5373.76
941.977	5366.75
942.284	5353.87
942.591	5295.34
942.898	5264.61
943.205	5249.47
943.511	5237.04
943.818	5195
944.125	5144.16
944.431	5150.03
944.738	5156.14
945.044	5061.9
945.35	5074.78
945.657	5075.91
945.963	5038.85
946.269	5041.79
946.575	4975.35
946.881	4948.46
947.187	4952.75
947.493	4966.76
947.799	4933.99
948.105	4889.02
948.41	4845.18
948.716	4807.67
949.022	4817.16
949.327	4800.21
949.633	4769.71
949.938	4761.57
950.244	4769.25
950.549	4725.41
950.854	4763.38
951.16	4653.32
951.465	4668.92
951.77	4596.15
952.075	4625.3
952.38	4593.66
952.685	4546.89
952.99	4549.15
953.294	4498.3
953.599	4507.11
953.904	4482.26
954.209	4513.89
954.513	4441.13
954.818	4431.18
955.122	4432.54
955.426	4391.64
955.731	4371.07
956.035	4383.95
956.339	4329.04
956.643	4326.78
956.948	4280
957.252	4300.11
957.556	4286.1
957.86	4225.76
958.163	4247.68
958.467	4220.12
958.771	4216.5
959.075	4128.59
959.378	4153.22
959.682	4132.21
959.985	4094.92
960.289	4090.85
960.592	4047.92
960.896	4106.9
961.199	4040.23
961.502	4018.09
961.805	4019.89
962.108	3952.33
962.411	3937.64
962.714	3916.62
963.017	3923.4
963.32	3917.75
963.623	3910.52
963.926	3875.27
964.228	3889.73
964.531	3859.45
964.833	3836.4
965.136	3766.34
965.438	3799.11
965.741	3780.58
966.043	3753.69
966.345	3771.54
966.648	3721.82
966.95	3709.39
967.252	3673.91
967.554	3692.45
967.856	3669.62
968.158	3631.66
968.46	3677.98
968.761	3650.41
969.063	3604.54
969.365	3561.83
969.666	3589.62
969.968	3534.94
970.269	3555.5
970.571	3514.82
970.872	3515.05
971.174	3513.69
971.475	3469.85
971.776	3483.41
972.077	3448.84
972.378	3437.08
972.679	3475.28
972.98	3419.68
973.281	3383.53
973.582	3363.19
973.883	3366.8
974.183	3366.35
974.484	3345.56
974.785	3314.15
975.085	3295.85
975.386	3292.46
975.686	3291.78
975.986	3233.47
976.287	3248.62
976.587	3246.13
976.887	3203.64
977.187	3199.35
977.487	3187.37
977.787	3146.02
978.087	3171.78
978.387	3105.12
978.687	3136.53
978.987	3103.53
979.286	3103.76
979.586	3107.15
979.885	3033.93
980.185	3048.62
980.484	3053.59
980.784	3033.71
981.083	3030.09
981.382	3002.29
981.682	2988.06
981.981	2967.94
982.28	2936.76
982.579	2905.35
982.878	2933.82
983.177	2898.57
983.475	2926.14
983.774	2893.14
984.073	2865.57
984.372	2876.2
984.67	2838.91
984.969	2866.93
985.267	2826.25
985.566	2804.56
985.864	2785.58
986.162	2772.92
986.461	2807.27
986.759	2770.21
987.057	2729.76
987.355	2688.63
987.653	2729.53
987.951	2722.98
988.249	2674.84
988.547	2683.21
988.844	2647.28
989.142	2702.87
989.44	2627.16
989.737	2625.81
990.035	2596.2
990.332	2613.83
990.63	2586.71
990.927	2595.52
991.224	2559.14
991.521	2581.74
991.819	2567.05
992.116	2541.97
992.413	2546.49
992.71	2537.45
993.006	2505.81
993.303	2512.14
993.6	2480.27
993.897	2485.7
994.193	2459.71
994.49	2431.24
994.787	2438.24
995.083	2417.45
995.379	2441.4
995.676	2401.41
995.972	2405.47
996.268	2394.85
996.565	2346.27
996.861	2381.75
997.157	2321.18
997.453	2313.05
997.749	2320.96
998.044	2298.81
998.34	2292.93
998.636	2258.58
998.932	2249.09
999.227	2220.85
999.523	2234.18
999.818	2249.09
1000.114	2187.4
1000.409	2213.61
1000.704	2219.26
1001	2159.38
1001.295	2179.04
1001.59	2160.28
1001.885	2156.67
1002.18	2127.74
1002.475	2165.25
1002.77	2132.94
1003.065	2086.84
1003.359	2088.42
1003.654	2098.59
1003.949	2063.11
1004.243	2043.22
1004.538	2052.26
1004.832	2050
1005.127	2011.36
1005.421	2028.99
1005.715	1996.67
1006.009	1954.86
1006.304	1983.79
1006.598	1971.59
1006.892	1958.25
1007.186	1939.05
1007.48	1941.3
1007.773	1935.2
1008.067	1923.45
1008.361	1921.87
1008.655	1884.58
1008.948	1883
1009.242	1849.78
1009.535	1864.7
1009.829	1853.62
1010.122	1849.1
1010.415	1847.52
1010.708	1840.97
1011.001	1832.61
1011.295	1810.23
1011.588	1791.03
1011.881	1782.89
1012.173	1767.75
1012.466	1776.34
1012.759	1746.96
1013.052	1760.29
1013.344	1739.5
1013.637	1724.81
1013.93	1708.09
1014.222	1727.53
1014.514	1654.53
1014.807	1651.14
1015.099	1681.88
1015.391	1656.79
1015.683	1647.3
1015.976	1626.74
1016.268	1617.25
1016.56	1620.64
1016.851	1591.48
1017.143	1590.13
1017.435	1596.68
1017.727	1541.99
1018.018	1562.78
1018.31	1572.05
1018.602	1561.2
1018.893	1553.74
1019.185	1543.8
1019.476	1511.71
1019.767	1516.23
1020.058	1509.23
1020.35	1485.5
1020.641	1458.83
1020.932	1445.72
1021.223	1457.7
1021.514	1459.06
1021.804	1432.84
1022.095	1414.54
1022.386	1406.63
1022.677	1407.31
1022.967	1403.92
1023.258	1356.01
1023.548	1369.12
1023.839	1351.94
1024.129	1321.43
1024.419	1368.89
1024.709	1352.62
1025	1324.6
1025.29	1339.74
1025.58	1293.86
1025.87	1293.86
1026.16	1289.57
1026.449	1299.29
1026.739	1297.71
1027.029	1258.84
1027.319	1249.57
1027.608	1279.4
1027.898	1276.24
1028.187	1218.39
1028.477	1261.77
1028.766	1225.39
1029.055	1233.3
1029.344	1202.57
1029.634	1191.95
1029.923	1194.88
1030.212	1188.78
1030.501	1199.4
1030.79	1199.86
1031.078	1185.84
1031.367	1159.86
1031.656	1179.97
1031.945	1118.28
1032.233	1126.86
1032.522	1122.34
1032.81	1097.03
1033.099	1087.77
1033.387	1072.18
1033.675	1081.67
1033.963	1092.74
1034.251	1072.85
1034.54	1092.97
1034.828	1068.56
1035.116	1041.22
1035.403	1022.01
1035.691	1036.02
1035.979	1042.8
1036.267	1025.17
1036.554	1010.48
1036.842	1034.44
1037.129	992.18
1037.417	1009.58
1037.704	998.28
1037.992	997.15
1038.279	989.24
1038.566	973.65
1038.853	973.65
1039.14	973.65
