Data from plate_porcelain_FLMS001491_097.txt Node
Date: Tue Feb 07 11:20:13 GMT 2017
User: dcchb
Spectrometer: FLMS00149
Trigger mode: 0
Integration Time (sec): 2.000000E-2
Scans to average: 10
Electric dark correction enabled: true
Nonlinearity correction enabled: false
Boxcar width: 0
XAxis mode: Wavelengths
Number of Pixels in Spectrum: 2048
>>>>>Begin Spectral Data<<<<<
341.393	-6.95
341.776	-6.95
342.16	-6.95
342.543	-65.7
342.927	-84.01
343.31	-70.9
343.693	-84.01
344.077	-66.61
344.46	-60.96
344.843	-37.68
345.226	-22.09
345.61	-35.2
345.993	-23.9
346.376	0.28
346.759	0.96
347.142	28.08
347.525	26.95
347.908	60.85
348.291	77.12
348.674	89.09
349.057	118.02
349.44	134.06
349.823	129.09
350.206	170.9
350.588	235.98
350.971	263.78
351.354	252.71
351.737	260.16
352.119	286.15
352.502	289.77
352.884	322.53
353.267	325.47
353.65	326.38
354.032	347.84
354.414	332.7
354.797	360.72
355.179	360.05
355.562	374.51
355.944	375.41
356.326	387.39
356.709	381.52
357.091	386.49
357.473	408.63
357.855	390.78
358.238	401.85
358.62	414.28
359.002	419.03
359.384	403.89
359.766	407.05
360.148	405.47
360.53	396.88
360.912	413.83
361.294	412.48
361.676	398.01
362.057	410.67
362.439	402.08
362.821	409.76
363.203	386.26
363.584	389.88
363.966	408.63
364.348	408.18
364.729	394.17
365.111	382.87
365.493	409.09
365.874	399.82
366.256	391.91
366.637	405.24
367.019	383.32
367.4	407.28
367.781	411.35
368.163	406.6
368.544	410.22
368.925	400.5
369.306	413.38
369.688	413.15
370.069	411.8
370.45	412.02
370.831	450.89
371.212	398.46
371.593	426.03
371.974	437.79
372.355	430.33
372.736	454.28
373.117	449.31
373.498	433.27
373.879	424.68
374.26	428.97
374.641	428.75
375.021	428.07
375.402	460.16
375.783	473.94
376.163	484.11
376.544	468.29
376.925	479.59
377.305	490.21
377.686	463.1
378.066	475.98
378.447	490.21
378.827	482.08
379.208	501.74
379.588	473.26
379.968	494.28
380.349	505.13
380.729	521.62
381.109	509.87
381.489	516.2
381.87	515.75
382.25	514.39
382.63	555.75
383.01	551.68
383.39	537.9
383.77	550.78
384.15	538.57
384.53	556.65
384.91	555.75
385.29	570.89
385.67	556.43
386.049	583.09
386.429	567.95
386.809	589.65
387.189	601.4
387.568	607.27
387.948	610.66
388.328	622.19
388.707	603.88
389.087	620.83
389.466	631
389.846	656.31
390.225	664.67
390.605	674.62
390.984	655.41
391.363	670.77
391.743	671.9
392.122	694.95
392.501	701.28
392.881	698.34
393.26	717.1
393.639	720.04
394.018	740.38
394.397	748.96
394.776	753.93
395.155	764.78
395.534	734.05
395.913	768.62
396.292	784.22
396.671	793.93
397.05	806.81
397.429	780.6
397.808	802.3
398.186	796.19
398.565	822.86
398.944	835.74
399.323	822.86
399.701	835.74
400.08	850.43
400.458	855.63
400.837	897.66
401.215	890.88
401.594	904.21
401.972	894.04
402.351	915.96
402.729	931.11
403.107	945.34
403.486	950.31
403.864	928.62
404.242	964.1
404.62	985.57
404.999	982.63
405.377	1002.06
405.755	1047.49
406.133	1011.1
406.511	1049.97
406.889	1030.09
407.267	1078.22
407.645	1091.33
408.023	1120.03
408.401	1105.56
408.779	1136.75
409.156	1143.3
409.534	1185.56
409.912	1184.21
410.29	1206.13
410.667	1207.26
411.045	1220.82
411.422	1247.48
411.8	1261.27
412.178	1289.97
412.555	1311.66
412.933	1310.53
413.31	1328.84
413.687	1339
414.065	1382.84
414.442	1367.03
414.819	1416.74
415.197	1391.66
415.574	1445.89
415.951	1444.99
416.328	1467.36
416.705	1475.72
417.082	1471.66
417.46	1506.01
417.837	1523.86
418.214	1535.61
418.591	1546
418.967	1564.99
419.344	1596.17
419.721	1598.66
420.098	1632.56
420.475	1642.73
420.852	1646.34
421.228	1687.47
421.605	1738.09
421.982	1721.14
422.358	1733.12
422.735	1773.57
423.111	1754.36
423.488	1813.79
423.864	1805.21
424.241	1877.97
424.617	1858.09
424.994	1850.18
425.37	1885.88
425.746	1932.66
426.123	1948.03
426.499	1960.68
426.875	1978.31
427.251	2061.25
427.627	2056.73
428.003	2070.96
428.379	2099.89
428.756	2132.2
429.132	2160
429.507	2205.65
429.883	2253.78
430.259	2281.13
430.635	2270.05
431.011	2281.58
431.387	2364.74
431.763	2416.72
432.138	2398.86
432.514	2457.39
432.89	2460.78
433.265	2517.05
433.641	2546.88
434.016	2596.37
434.392	2610.16
434.767	2721.34
435.143	2683.6
435.518	2729.48
435.894	2754.79
436.269	2782.13
436.644	2811.28
437.02	2850.83
437.395	2852.64
437.77	2896.48
438.145	2929.47
438.52	3016.7
438.895	3060.32
439.271	3081.56
439.646	3107.09
440.021	3174.66
440.395	3098.73
440.77	3205.17
441.145	3205.4
441.52	3226.19
441.895	3284.26
442.27	3267.09
442.645	3328.1
443.019	3348.89
443.394	3329.01
443.769	3358.84
444.143	3345.73
444.518	3450.14
444.892	3451.94
445.267	3455.33
445.641	3515.22
446.016	3531.26
446.39	3571.26
446.764	3552.73
447.139	3584.6
447.513	3651.94
447.887	3686.97
448.262	3695.1
448.636	3728.55
449.01	3729.9
449.384	3806.74
449.758	3817.58
450.132	3879.5
450.506	3876.11
450.88	3947.52
451.254	3912.95
451.628	3987.07
452.002	4095.54
452.376	4071.59
452.75	4170.57
453.123	4141.64
453.497	4284.69
453.871	4239.27
454.244	4373.73
454.618	4404.01
454.992	4406.95
455.365	4472.03
455.739	4617.34
456.112	4655.08
456.486	4672.02
456.859	4721.29
457.232	4787.5
457.606	4838.57
457.979	4920.38
458.352	4980.49
458.725	5025.91
459.099	5082.86
459.472	5179.36
459.845	5188.62
460.218	5288.05
460.591	5340.26
460.964	5424.32
461.337	5519.23
461.71	5593.13
462.083	5711.77
462.456	5749.06
462.829	5761.03
463.201	5879.45
463.574	5890.52
463.947	5961.71
464.32	6098.2
464.692	6083.06
465.065	6204.87
465.438	6330.96
465.81	6436.95
466.183	6492.09
466.555	6631.07
466.928	6637.62
467.3	6660.22
467.672	6712.42
468.045	6937.95
468.417	6913.1
468.789	6961
469.161	7160.55
469.534	7222.47
469.906	7389.24
470.278	7417.04
470.65	7597.14
471.022	7710.14
471.394	7839.17
471.766	7944.93
472.138	8010.47
472.51	8210.24
472.882	8269.44
473.253	8425.82
473.625	8603.9
473.997	8780.62
474.369	8782.2
474.74	8905.81
475.112	9026.49
475.484	9241.62
475.855	9390.77
476.227	9513.03
476.598	9702.85
476.97	9823.75
477.341	9990.75
477.713	10139.9
478.084	10279.11
478.455	10567.46
478.827	10616.05
479.198	11033.66
479.569	11013.33
479.94	11318.63
480.311	11462.35
480.682	11764.49
481.053	12008.1
481.424	12231.83
481.795	12296.91
482.166	12491.25
482.537	12612.61
482.908	12940.51
483.279	13086.04
483.65	13354.28
484.021	13610.32
484.391	13722.63
484.762	13903.87
485.133	13999.91
485.503	14196.07
485.874	14528.26
486.244	14697.98
486.615	15027.23
486.985	15219.54
487.356	15487.56
487.726	15623.6
488.097	15943.59
488.467	15989.69
488.837	16347.42
489.207	16526.63
489.578	16812.27
489.948	16968.88
490.318	17234.18
490.688	17226.72
491.058	17553.27
491.428	17712.36
491.798	17838.01
492.168	18372.68
492.538	18388.73
492.908	18594.6
493.278	18851.31
493.648	18929.28
494.017	19270.51
494.387	19370.39
494.757	19628.69
495.126	19836.82
495.496	19951.85
495.866	19994.11
496.235	20326.53
496.605	20478.39
496.974	20562.68
497.344	20793.86
497.713	20844.93
498.082	21110.24
498.452	21319.27
498.821	21446.5
499.19	21617.79
499.559	21653.05
499.928	22023.43
500.298	22043.54
500.667	22321.28
501.036	22337.77
501.405	22627.94
501.774	22622.06
502.143	22871.32
502.512	22946.8
502.88	23165.55
503.249	23143.18
503.618	23435.37
503.987	23599.44
504.356	23722.82
504.724	23848.69
505.093	24040.78
505.462	24141.57
505.83	24308.34
506.199	24550.82
506.567	24898.38
506.936	24716.02
507.304	25183.8
507.672	25258.15
508.041	25442.55
508.409	25570.23
508.777	25867.4
509.145	25974.51
509.514	26031.24
509.882	26294.96
510.25	26352.36
510.618	26696.3
510.986	26715.29
511.354	27025.79
511.722	27246.57
512.09	27416.96
512.458	27401.37
512.826	27765.65
513.193	28003.39
513.561	28083.84
513.929	28359.76
514.297	28538.52
514.664	28741.9
515.032	28958.62
515.4	29219.63
515.767	29285.39
516.135	29496.23
516.502	29374.43
516.869	29882.43
517.237	30130.11
517.604	30103.9
517.972	30449.65
518.339	30732.13
518.706	30839.47
519.073	31013.25
519.44	31285.34
519.808	31599.68
520.175	31513.8
520.542	32161.24
520.909	32278.53
521.276	32251.41
521.643	32789.02
522.009	32818.18
522.376	33090.03
522.743	33398.27
523.11	33720.53
523.477	34030.12
523.843	34181.3
524.21	34535.19
524.577	34694.74
524.943	34938.57
525.31	35059.93
525.676	35450.65
526.043	35634.15
526.409	35879.11
526.776	36289.72
527.142	36405.65
527.508	36766.77
527.874	37010.38
528.241	37306.65
528.607	37357.04
528.973	37727.2
529.339	37774.66
529.705	38109.11
530.071	38419.61
530.437	38488.54
530.803	38679.04
531.169	39094.62
531.535	39045.13
531.901	39133.49
532.267	39246.93
532.632	39638.79
532.998	39784.32
533.364	40058.89
533.73	40285.1
534.095	40542.95
534.461	40712.21
534.826	41044.4
535.192	41092.99
535.557	41409.36
535.923	41318.29
536.288	41472.86
536.653	41807.54
537.019	41685.06
537.384	41989.01
537.749	42058.39
538.114	42184.48
538.479	42272.39
538.845	42499.5
539.21	42536.79
539.575	42698.14
539.94	42901.08
540.305	43219.94
540.67	43173.16
541.034	43229.88
541.399	43584
541.764	43699.92
542.129	43667.16
542.494	44057.2
542.858	44152.79
543.223	44223.75
543.587	44541.26
543.952	44567.7
544.316	44574.25
544.681	44786
545.045	44946.22
545.41	45141.69
545.774	45167.46
546.138	45265.98
546.503	45387.11
546.867	45399.31
547.231	45766.08
547.595	45909.58
547.959	45898.06
548.324	46030.94
548.688	46108
549.052	46352.74
549.416	46428.21
549.779	46644.25
550.143	46708.43
550.507	47024.58
550.871	47063.9
551.235	47067.29
551.599	47418.7
551.962	47498.24
552.326	47501.18
552.689	47892.58
553.053	47742.98
553.417	47993.82
553.78	48253.93
554.143	48142.52
554.507	48498.44
554.87	48554.94
555.234	48960.58
555.597	48750.64
555.96	48998.99
556.323	49197.18
556.686	49192.21
557.05	49426.33
557.413	49614.35
557.776	49685.53
558.139	49971.4
558.502	50048.01
558.865	50115.8
559.228	50285.97
559.59	50482.12
559.953	50600.53
560.316	50972.05
560.679	50856.12
561.041	51175.21
561.404	51205.72
561.767	51504.69
562.129	51329.1
562.492	51827.85
562.854	51738.13
563.217	51883.21
563.579	51986.26
563.941	52292.47
564.304	52403.65
564.666	52561.61
565.028	52649.52
565.39	52732
565.753	52964.54
566.115	53074.59
566.477	53157.53
566.839	53273.01
567.201	53372.44
567.563	53408.82
567.925	53622.6
568.287	53678.42
568.648	53669.15
569.01	53867.57
569.372	54075.7
569.734	54009.26
570.095	54273.88
570.457	54360.66
570.819	54383.71
571.18	54454.9
571.542	54593.88
571.903	54636.81
572.265	54846.07
572.626	54846.75
572.987	54897.37
573.349	54988.44
573.71	54994.32
574.071	55200.86
574.432	55284.48
574.794	55474.3
575.155	55366.06
575.516	55351.6
575.877	55550.23
576.238	55590.69
576.599	55682.89
576.96	55608.31
577.32	55682.43
577.681	55769.89
578.042	55884.01
578.403	55919.49
578.763	56028.87
579.124	56061.41
579.485	56014.63
579.845	56153.83
580.206	56085.81
580.566	56136.43
580.927	56137.79
581.287	56230.22
581.648	56134.63
582.008	56305.92
582.368	56204
582.728	56278.58
583.089	56266.6
583.449	56277.9
583.809	56312.47
584.169	56353.15
584.529	56351.8
584.889	56512.02
585.249	56310.21
585.609	56333.94
585.969	56471.57
586.329	56292.81
586.688	56406.48
587.048	56422.53
587.408	56338.01
587.768	56393.15
588.127	56349.08
588.487	56362.42
588.846	56483.09
589.206	56366.03
589.565	56375.3
589.925	56542.98
590.284	56456.2
590.643	56486.71
591.003	56490.55
591.362	56586.59
591.721	56495.52
592.08	56620.04
592.44	56601.51
592.799	56585.69
593.158	56511.79
593.517	56531.45
593.876	56604.22
594.235	56580.72
594.593	56579.36
594.952	56645.8
595.311	56621.17
595.67	56638.12
596.029	56726.7
596.387	56752.24
596.746	56810.54
597.104	56690.54
597.463	56751.56
597.822	56876.3
598.18	56764.67
598.538	56746.59
598.897	56909.97
599.255	56727.15
599.613	57051.66
599.972	56863.65
600.33	56960.14
600.688	56868.17
601.046	57004.66
601.404	57111.1
601.762	56994.49
602.12	57080.59
602.478	57123.75
602.836	57192.9
603.194	57043.98
603.552	57111.1
603.91	57002.63
604.268	57203.3
604.625	57090.08
604.983	57243.52
605.341	57131.21
605.698	57229.29
606.056	57267.03
606.413	57275.16
606.771	57372.11
607.128	57371.88
607.485	57281.04
607.843	57265.44
608.2	57448.94
608.557	57514.25
608.914	57464.99
609.272	57557.64
609.629	57572.33
609.986	57654.81
610.343	57519.22
610.7	57728.03
611.057	57756.05
611.414	57683.74
611.771	57720.8
612.127	57814.58
612.484	57834.92
612.841	57897.97
613.198	57786.56
613.554	57833.34
613.911	57949.49
614.267	57922.6
614.624	57933.22
614.98	57947.69
615.337	58088.7
615.693	58088.7
616.05	58005.31
616.406	58128.92
616.762	58051.41
617.118	58091.64
617.475	58111.52
617.831	58160.11
618.187	58056.61
618.543	58110.62
618.899	58302.93
619.255	58276.26
619.611	58238.75
619.967	58290.05
620.323	58371.86
620.678	58217.06
621.034	58222.48
621.39	58218.19
621.746	58221.58
622.101	58443.49
622.457	58315.13
622.812	58328.69
623.168	58416.6
623.523	58419.54
623.879	58425.19
624.234	58226.55
624.589	58403.04
624.945	58395.58
625.3	58419.31
625.655	58364.17
626.01	58349.71
626.365	58425.86
626.72	58417.73
627.075	58390.16
627.43	58365.08
627.785	58292.31
628.14	58311.74
628.495	58306.55
628.85	58259.32
629.205	58194.01
629.559	58353.1
629.914	58184.97
630.269	58255.7
630.623	58230.62
630.978	58125.53
631.332	58279.88
631.687	58242.59
632.041	58161.24
632.396	58149.04
632.75	58061.81
633.104	58129.6
633.459	57926.89
633.813	57925.77
634.167	57936.16
634.521	57953.33
634.875	57935.71
635.229	57930.74
635.583	57760.8
635.937	57792.44
636.291	57779.33
636.645	57767.35
636.999	57654.13
637.352	57758.76
637.706	57589.95
638.06	57679.9
638.413	57632.67
638.767	57578.66
639.121	57662.72
639.474	57445.33
639.828	57479.9
640.181	57500.92
640.534	57474.93
640.888	57418.43
641.241	57237.42
641.594	57348.83
641.947	57395.84
642.301	57338.21
642.654	57276.06
643.007	57310.87
643.36	57221.38
643.713	57201.49
644.066	57285.1
644.419	57135.73
644.771	56913.14
645.124	56716.76
645.477	56659.36
645.83	56461.17
646.182	56307.05
646.535	56306.6
646.888	56304.34
647.24	56132.82
647.593	56323.55
647.945	56174.62
648.298	56092.14
648.65	55986.61
649.002	55973.05
649.355	56098.24
649.707	56056.66
650.059	56204.45
650.411	56476.99
650.763	56429.08
651.115	56637.21
651.467	56519.02
651.819	56576.42
652.171	56436.54
652.523	56429.99
652.875	56418.01
653.227	56217.11
653.578	56484.22
653.93	56338.01
654.282	56261.18
654.633	56172.82
654.985	56307.73
655.337	56235.41
655.688	56253.27
656.039	56289.42
656.391	56019.83
656.742	56155.19
657.094	56156.77
657.445	56232.02
657.796	56179.6
658.147	56127.62
658.498	56051.24
658.849	56037.91
659.2	55994.29
659.551	56000.62
659.902	56116.32
660.253	56066.15
660.604	56049.2
660.955	55875.65
661.306	55970.34
661.656	56023.22
662.007	55947.96
662.358	55900.28
662.708	55931.02
663.059	55926.5
663.409	55640.4
663.76	55913.61
664.11	55870.9
664.461	55842.88
664.811	55799.72
665.161	55835.42
665.511	55742.09
665.862	55792.49
666.212	55916.1
666.562	55843.11
666.912	55761.98
667.262	55710.91
667.612	55717.01
667.962	55755.65
668.312	55765.37
668.662	55836.78
669.011	55671.14
669.361	55630.68
669.711	55653.06
670.06	55644.47
670.41	55559.5
670.76	55538.94
671.109	55593.85
671.459	55566.51
671.808	55545.49
672.157	55611.93
672.507	55378.26
672.856	55543.45
673.205	55495.32
673.554	55586.17
673.904	55384.81
674.253	55529.44
674.602	55404.7
674.951	54985.96
675.3	54911.38
675.649	55327.64
675.998	55316.12
676.346	55291.48
676.695	55419.84
677.044	55186.63
677.393	55258.72
677.741	55303.24
678.09	55241.54
678.438	55199.06
678.787	55194.76
679.135	55235.21
679.484	55027.76
679.832	55173.97
680.181	55001.55
680.529	55013.3
680.877	55042
681.225	54899.63
681.573	55062.79
681.922	54875
682.27	54727.66
682.618	54766.53
682.966	54691.05
683.314	54704.15
683.661	54616.47
684.009	54527.21
684.357	54433.2
684.705	54379.19
685.053	54462.81
685.4	54331.96
685.748	54282.02
686.095	54260.1
686.443	54050.39
686.79	54044.51
687.138	54025.98
687.485	54042.25
687.832	53945.98
688.18	54011.07
688.527	53825.31
688.874	53752.77
689.221	53664.63
689.568	53601.36
689.915	53584.18
690.262	53614.92
690.609	53464.19
690.956	53308.71
691.303	53354.81
691.65	53100.13
691.997	53169.28
692.344	52989.62
692.69	52966.35
693.037	52990.08
693.383	52696.75
693.73	52866.46
694.077	52664.21
694.423	52609.75
694.769	52469.86
695.116	52499.24
695.462	52395.74
695.808	52323.43
696.155	52383.09
696.501	52097.67
696.847	52130.21
697.193	51807.96
697.539	51970.89
697.885	51819.03
698.231	51733.84
698.577	51704.01
698.923	51720.28
699.269	51464.01
699.614	51227.18
699.96	51212.04
700.306	51243.23
700.651	51107.41
700.997	51033.52
701.342	50854.99
701.688	50891.6
702.033	50671.72
702.379	50679.4
702.724	50580.2
703.069	50624.26
703.415	50323.48
703.76	50354.66
704.105	50248.23
704.45	50104.95
704.795	49791.74
705.14	49878.07
705.485	49891.17
705.83	49632.88
706.175	49714.91
706.52	49635.81
706.865	49521.69
707.209	49447.57
707.554	49364.63
707.899	49445.54
708.243	49236.05
708.588	49201.7
708.932	48780.02
709.277	48956.96
709.621	48977.75
709.966	48665.44
710.31	48736.18
710.654	48196.53
710.998	48463.41
711.342	48459.57
711.687	48364.21
712.031	48208.51
712.375	47968.51
712.719	48139.13
713.063	47897.33
713.407	48026.82
713.75	47785.24
714.094	47834.96
714.438	47637.45
714.782	47693.72
715.125	47531.24
715.469	47531.46
715.812	47382.54
716.156	47146.84
716.499	47065.94
716.843	47088.54
717.186	46943.91
717.53	47185.26
717.873	47027.07
718.216	46896.9
718.559	46769.22
718.902	46616.01
719.246	46700.07
719.589	46485.84
719.932	46244.26
720.275	46356.58
720.617	46298.5
720.96	46210.59
721.303	46290.59
721.646	46178.5
721.989	45878.62
722.331	46013.31
722.674	45962.46
723.016	45979.41
723.359	45891.28
723.701	45777.84
724.044	45604.96
724.386	45248.58
724.729	45637.95
725.071	45488.8
725.413	45472.53
725.755	45403.38
726.097	45074.58
726.439	44894.7
726.782	44971.08
727.124	45120.9
727.465	44872.1
727.807	44853.79
728.149	44759.11
728.491	44686.34
728.833	44657.64
729.175	44676.85
729.516	44539.9
729.858	44516.85
730.199	44538.32
730.541	44298.78
730.882	44257.65
731.224	44359.12
731.565	43994.83
731.906	44028.96
732.248	44195.05
732.589	43981.95
732.93	43738.12
733.271	43813.82
733.612	43834.38
733.953	43932.01
734.294	43728.17
734.635	43530.21
734.976	43662.86
735.317	43339.03
735.658	43372.48
735.999	43257.9
736.339	43201.41
736.68	43357.33
737.021	43130.9
737.361	42944.01
737.702	43148.3
738.042	42872.6
738.383	42925.03
738.723	42918.25
739.063	42788.99
739.404	42763.9
739.744	42695.66
740.084	42332.5
740.424	42648.88
740.764	42524.59
741.104	42549.9
741.444	42281.66
741.784	42064.94
742.124	42138.38
742.464	42017.93
742.804	42032.62
743.143	42041.21
743.483	41921.44
743.823	41678.51
744.162	41770.71
744.502	41887.54
744.841	41705.63
745.181	41723.71
745.52	41605.29
745.86	41667.44
746.199	41377.73
746.538	41318.52
746.877	41457.95
747.216	41339.08
747.556	41182.02
747.895	41152.87
748.234	40932.77
748.573	40927.57
748.911	40889.83
749.25	40789.72
749.589	40478.99
749.928	40608.71
750.267	40719.44
750.605	40423.63
750.944	40392.21
751.283	40361.03
751.621	40480.8
751.96	39934.6
752.298	40184.54
752.636	40293.01
752.975	39994.49
753.313	39821.38
753.651	39986.35
753.989	39729.18
754.327	39578.68
754.666	39285.8
755.004	39488.06
755.342	39470.88
755.679	39455.52
756.017	39070.89
756.355	39345.24
756.693	39053.04
757.031	39160.16
757.368	38672.71
757.706	38705.48
758.044	38573.51
758.381	38577.8
758.719	38515.88
759.056	38411.25
759.394	38295.55
759.731	38148.21
760.068	38033.41
760.405	38023.92
760.743	37848.55
761.08	37834.09
761.417	37504.83
761.754	37545.51
762.091	37473.65
762.428	37356.81
762.765	37122.24
763.102	37315.23
763.438	36963.38
763.775	36764.51
764.112	36745.76
764.449	36739.43
764.785	36493.33
765.122	36433.22
765.458	36208.6
765.795	36165.21
766.131	36128.37
766.467	36065.32
766.804	35865.33
767.14	35644.77
767.476	35701.04
767.812	35360.26
768.148	35599.8
768.485	35426.24
768.821	35197.78
769.157	35075.74
769.492	34986.26
769.828	34913.94
770.164	34677.11
770.5	34557.34
770.836	34521.63
771.171	34267.18
771.507	34212.26
771.842	33871.26
772.178	34092.95
772.513	34052.95
772.849	33977.02
773.184	33736.8
773.519	33726.63
773.855	33532.51
774.19	33295
774.525	33287.09
774.86	33115.8
775.195	33039.19
775.53	32937.95
775.865	32782.25
776.2	32653.66
776.535	32429.03
776.87	32395.14
777.205	32242.15
777.539	32234.46
777.874	32187.01
778.209	31969.61
778.543	31830.86
778.878	31565.78
779.212	31687.13
779.547	31411.66
779.881	31543.63
780.215	31227.03
780.55	31369.85
780.884	31095.06
781.218	30969.19
781.552	31010.77
781.886	30719.7
782.22	30501.18
782.554	30699.59
782.888	30285.81
783.222	30149.55
783.556	30053.28
783.889	29992.71
784.223	29766.51
784.557	29730.35
784.89	29851.93
785.224	29526.51
785.557	29467.98
785.891	29362.67
786.224	29244.03
786.558	29159.74
786.891	28911.84
787.224	28895.79
787.557	28854.21
787.891	28802.46
788.224	28786.19
788.557	28726.08
788.89	28562.47
789.223	28509.59
789.556	28323.83
789.888	28179.2
790.221	28001.81
790.554	27836.39
790.887	27854.47
791.219	27743.96
791.552	27607.92
791.884	27502.61
792.217	27578.09
792.549	27315.72
792.882	27227.36
793.214	27080.93
793.546	27118.21
793.879	27003.87
794.211	26761.84
794.543	26773.59
794.875	26680.26
795.207	26748.51
795.539	26597.78
795.871	26533.6
796.203	26503.99
796.535	26175.87
796.867	26141.52
797.198	26147.39
797.53	26058.58
797.862	26061.74
798.193	25955.53
798.525	25758.93
798.856	25777.91
799.188	25501.31
799.519	25449.1
799.85	25380.63
800.182	25250.69
800.513	25338.83
800.844	25068.1
801.175	25277.13
801.506	25181.09
801.837	25016.35
802.168	24879.63
802.499	24836.47
802.83	24628.79
803.161	24699.52
803.491	24701.1
803.822	24660.65
804.153	24470.37
804.483	24191.74
804.814	24225.41
805.145	24143.6
805.475	24172.08
805.805	24150.61
806.136	24050.72
806.466	23984.74
806.796	23914.91
807.126	23739.32
807.457	23770.28
807.787	23650.73
808.117	23563.73
808.447	23577.74
808.777	23517.86
809.107	23457.07
809.436	23341.82
809.766	23315.15
810.096	23304.75
810.426	23116.74
810.755	23069.28
811.085	23128.94
811.414	22979.57
811.744	22863.41
812.073	22700.25
812.403	22733.24
812.732	22648.05
813.061	22682.85
813.39	22504.78
813.719	22425.68
814.049	22576.19
814.378	22494.61
814.707	22287.83
815.036	22260.71
815.365	22169.42
815.693	22004.22
816.022	22062.08
816.351	21917.9
816.68	21821.18
817.008	21947.05
817.337	21765.59
817.665	21696.44
817.994	21775.98
818.322	21691.92
818.651	21689.43
818.979	21511.81
819.307	21679.94
819.636	21489.43
819.964	21396.56
820.292	21447.18
820.62	21422.77
820.948	21316.33
821.276	21368.31
821.604	21284.92
821.932	21360.62
822.259	21382.77
822.587	21369.44
822.915	21232.94
823.243	21327.41
823.57	21155.66
823.898	21122.89
824.225	21147.52
824.553	21085.83
824.88	21157.24
825.207	21237.92
825.535	21150.91
825.862	21311.59
826.189	21099.61
826.516	21250.12
826.843	21349.1
827.17	21264.81
827.497	21318.14
827.824	21296.67
828.151	21251.48
828.478	21245.15
828.805	21269.33
829.131	21103.46
829.458	21180.74
829.785	20995.89
830.111	21132.61
830.438	21172.83
830.764	21119.73
831.09	21129.44
831.417	21001.76
831.743	21111.37
832.069	20938.94
832.395	20980.52
832.722	21061.42
833.048	21003.8
833.374	20928.09
833.7	20781.88
834.026	20863.01
834.351	20985.27
834.677	20881.77
835.003	20925.38
835.329	20966.74
835.654	20770.13
835.98	20804.48
836.306	20657.14
836.631	20657.14
836.956	20710.25
837.282	20845.61
837.607	20654.88
837.932	20541.21
838.258	20666.41
838.583	20549.12
838.908	20448.33
839.233	20486.3
839.558	20404.27
839.883	20340.31
840.208	20383.25
840.533	20228
840.858	20369.24
841.182	20268.9
841.507	20281.11
841.832	20092.41
842.156	20055.8
842.481	20105.06
842.805	19972.64
843.13	19930.38
843.454	19967.22
843.778	19794.11
844.103	19834.56
844.427	19640.9
844.751	19709.59
845.075	19678.41
845.399	19620.78
845.723	19498.53
846.047	19561.58
846.371	19433.67
846.695	19305.76
847.019	19187.57
847.343	19084.98
847.666	19038.43
847.99	18875.27
848.313	18844.98
848.637	18861.48
848.96	18753.91
849.284	18699.23
849.607	18602.96
849.931	18530.42
850.254	18393.25
850.577	18419.69
850.9	18164.32
851.223	18229.41
851.546	18156.19
851.869	17933.82
852.192	18122.97
852.515	17967.95
852.838	17786.48
853.161	17887.95
853.483	17740.38
853.806	17571.12
854.129	17689.53
854.451	17605.92
854.774	17477.56
855.096	17394.18
855.419	17353.05
855.741	17314.86
856.063	17301.3
856.385	17245.25
856.708	17130.68
857.03	17012.04
857.352	17011.81
857.674	16958.25
857.996	16979.72
858.318	16768.43
858.64	16828.77
858.961	16736.11
859.283	16699.73
859.605	16573.63
859.926	16720.75
860.248	16549
860.57	16587.19
860.891	16445.27
861.212	16391.72
861.534	16402.79
861.855	16295
862.176	16456.12
862.498	16400.08
862.819	16372.73
863.14	16261.78
863.461	16175
863.782	16119.41
864.103	16197.37
864.424	16058.39
864.745	16037.15
865.065	16064.72
865.386	15939.07
865.707	16085.96
866.027	16001.22
866.348	15999.86
866.668	16137.94
866.989	15910.82
867.309	15909.24
867.63	15863.82
867.95	15856.36
868.27	15668.57
868.59	15703.82
868.91	15725.74
869.23	15737.95
869.55	15627.89
869.87	15702.47
870.19	15603.49
870.51	15621.11
870.83	15592.41
871.15	15442.81
871.469	15461.57
871.789	15480.55
872.109	15410.27
872.428	15305.19
872.748	15448.01
873.067	15361.91
873.386	15408.46
873.706	15338.64
874.025	15168.25
874.344	15270.16
874.663	15251.63
874.982	15272.42
875.301	15229.03
875.62	15141.58
875.939	15085.99
876.258	15103.84
876.577	15017.29
876.896	15040.11
877.214	14931.64
877.533	15039.89
877.852	14944.75
878.17	14927.12
878.489	14930.51
878.807	15014.8
879.125	14919.66
879.444	14750.63
879.762	14840.57
880.08	14818.42
880.398	14815.49
880.716	14703.17
881.034	14711.08
881.352	14774.13
881.67	14642.38
881.988	14625.66
882.306	14602.38
882.624	14603.97
882.941	14566.45
883.259	14369.62
883.577	14395.38
883.894	14346.8
884.212	14373.69
884.529	14308.61
884.846	14171.21
885.164	14231.77
885.481	14255.73
885.798	14222.73
886.115	14115.84
886.432	14092.12
886.75	14022.74
887.067	14104.32
887.383	14034.49
887.7	13979.58
888.017	13937.32
888.334	13924.21
888.651	13874.04
888.967	13858
889.284	13763.99
889.6	13822.74
889.917	13740.49
890.233	13708.85
890.55	13615.97
890.866	13665.46
891.182	13620.26
891.498	13449.42
891.815	13389.08
892.131	13329.2
892.447	13295.75
892.763	13327.84
893.079	13262.08
893.395	13260.5
893.71	13218.69
894.026	13253.95
894.342	13115.64
894.657	13060.5
894.973	12985.93
895.289	13045.36
895.604	12970.11
895.92	12896.89
896.235	12879.72
896.55	12846.27
896.865	12851.47
897.181	12804.92
897.496	12814.18
897.811	12783.22
898.126	12725.82
898.441	12642.44
898.756	12536.68
899.071	12526.51
899.386	12596.56
899.7	12365.38
900.015	12403.8
900.33	12294.2
900.644	12311.6
900.959	12328.09
901.273	12197.7
901.588	12164.93
901.902	12047.42
902.216	12086.97
902.531	11999.97
902.845	11921.32
903.159	11847.43
903.473	11888.33
903.787	11804.49
904.101	11704.61
904.415	11669.58
904.729	11690.82
905.042	11624.38
905.356	11625.74
905.67	11549.58
905.984	11533.54
906.297	11527.89
906.611	11477.95
906.924	11475.91
907.237	11381.68
907.551	11309.36
907.864	11259.42
908.177	11253.55
908.491	11186.66
908.804	11097.39
909.117	11083.38
909.43	11078.86
909.743	10954.57
910.056	10934.68
910.368	10946.89
910.681	10898.3
910.994	10834.8
911.307	10712.77
911.619	10679.55
911.932	10692.2
912.244	10638.19
912.557	10593.68
912.869	10578.54
913.181	10464.41
913.494	10526.33
913.806	10433.68
914.118	10381.7
914.43	10340.35
914.742	10319.56
915.054	10292.22
915.366	10181.03
915.678	10192.78
915.99	10160.69
916.302	10126.8
916.613	10000.47
916.925	9972.45
917.236	9972.9
917.548	9859.68
917.859	9977.42
918.171	9751.89
918.482	9834.15
918.794	9776.07
919.105	9680.93
919.416	9604.55
919.727	9647.71
920.038	9570.88
920.349	9513.25
920.66	9518.9
920.971	9432.35
921.282	9342.18
921.593	9338.57
921.903	9299.47
922.214	9269.87
922.525	9275.74
922.835	9266.93
923.146	9157.1
923.456	9138.8
923.767	9068.74
924.077	9051.12
924.387	9061.06
924.697	9002.98
925.008	8918.47
925.318	8895.19
925.628	8830.56
925.938	8777
926.248	8733.61
926.558	8687.06
926.867	8703.56
927.177	8617.46
927.487	8529.32
927.796	8567.06
928.106	8553.5
928.416	8523.9
928.725	8447.07
929.034	8416.33
929.344	8374.75
929.653	8393.28
929.962	8374.98
930.271	8234.19
930.581	8231.7
930.89	8258.82
931.199	8207.98
931.508	8121.42
931.817	8164.36
932.125	8099.96
932.434	8024.25
932.743	7938.6
933.051	7935.22
933.36	7974.08
933.669	7868.32
933.977	7831.94
934.286	7804.82
934.594	7751.49
934.902	7753.98
935.21	7657.03
935.519	7677.59
935.827	7618.84
936.135	7606.41
936.443	7529.12
936.751	7465.17
937.059	7479.86
937.367	7464.27
937.674	7455
937.982	7450.03
938.29	7347.89
938.597	7339.3
938.905	7287.77
939.213	7276.48
939.52	7291.62
939.827	7287.55
940.135	7196.03
940.442	7092.75
940.749	7097.27
941.056	7110.38
941.363	7040.78
941.67	7054.79
941.977	7027.89
942.284	6977.95
942.591	6928.01
942.898	6901.8
943.205	6886.66
943.511	6840.78
943.818	6787.45
944.125	6755.13
944.431	6717.62
944.738	6714.23
945.044	6649.37
945.35	6627
945.657	6559.21
945.963	6568.25
946.269	6544.07
946.575	6578.41
946.881	6464.29
947.187	6452.09
947.493	6436.72
947.799	6377.74
948.105	6390.17
948.41	6357.18
948.716	6288.25
949.022	6295.71
949.327	6335.71
949.633	6208.03
949.938	6189.5
950.244	6208.93
950.549	6156.05
950.854	6121.7
951.16	6097.98
951.465	6120.8
951.77	6069.73
952.075	6012.1
952.38	6024.53
952.685	5998.09
952.99	5938.88
953.294	5926.23
953.599	5857.76
953.904	5823.18
954.209	5765.78
954.513	5782.5
954.818	5754.26
955.122	5775.95
955.426	5703.18
955.731	5650.76
956.035	5648.72
956.339	5668.16
956.643	5650.76
956.948	5626.58
957.252	5582.06
957.556	5565.33
957.86	5536.63
958.163	5502.51
958.467	5475.39
958.771	5479.46
959.075	5395.85
959.378	5398.78
959.682	5427.94
959.985	5361.72
960.289	5314.72
960.592	5302.74
960.896	5259.35
961.199	5268.62
961.502	5247.38
961.805	5211.22
962.108	5183.65
962.411	5183.42
962.714	5177.77
963.017	5114.5
963.32	5094.84
963.623	5091.67
963.926	5070.21
964.228	5064.1
964.531	5032.92
964.833	5038.79
965.136	5035.18
965.438	4953.15
965.741	4952.02
966.043	4929.19
966.345	4898.68
966.648	4860.49
966.95	4895.52
967.252	4858.01
967.554	4806.26
967.856	4786.6
968.158	4719.03
968.46	4770.55
968.761	4699.37
969.063	4719.93
969.365	4662.31
969.666	4647.39
969.968	4616.66
970.269	4616.88
970.571	4599.48
970.872	4549.77
971.174	4521.29
971.475	4511.12
971.776	4488.3
972.077	4491.24
972.378	4448.98
972.679	4484.46
972.98	4397.23
973.281	4418.02
973.582	4399.49
973.883	4347.29
974.183	4373.95
974.484	4321.52
974.785	4294.63
975.085	4319.72
975.386	4261.87
975.686	4254.18
975.986	4230.91
976.287	4223.9
976.587	4141.87
976.887	4167.18
977.187	4166.05
977.487	4150.68
977.787	4117.91
978.087	4088.08
978.387	4054.41
978.687	4064.58
978.987	3980.52
979.286	4016.22
979.586	3949.56
979.885	3995.88
980.185	3947.75
980.484	3934.87
980.784	3943
981.083	3865.72
981.382	3894.64
981.682	3913.85
981.981	3846.51
982.28	3853.51
982.579	3823.23
982.878	3817.58
983.177	3759.05
983.475	3757.47
983.774	3769.22
984.073	3742.33
984.372	3728.55
984.67	3683.12
984.969	3701.43
985.267	3691.48
985.566	3640.41
985.864	3636.57
986.162	3608.1
986.461	3634.99
986.759	3586.85
987.057	3592.73
987.355	3548.66
987.653	3559.28
987.951	3494.88
988.249	3529.46
988.547	3497.37
988.844	3484.94
989.142	3465.73
989.44	3427.09
989.737	3404.03
990.035	3397.03
990.332	3354.77
990.63	3373.75
990.927	3385.05
991.224	3357.26
991.521	3297.6
991.819	3302.79
992.116	3267.77
992.413	3273.19
992.71	3270.03
993.006	3244.49
993.303	3267.54
993.6	3208.79
993.897	3198.84
994.193	3202.01
994.49	3155.23
994.787	3136.25
995.083	3129.69
995.379	3124.27
995.676	3132.4
995.972	3069.35
996.268	3072.29
996.565	3028
996.861	3054.21
997.157	3043.37
997.453	3047.66
997.749	2988.9
998.044	2967.66
998.34	2938.06
998.636	2903.71
998.932	2957.49
999.227	2928.79
999.523	2892.18
999.818	2873.2
1000.114	2851.96
1000.409	2844.95
1000.704	2832.3
1001	2809.93
1001.295	2785.52
1001.59	2832.75
1001.885	2788.68
1002.18	2770.61
1002.475	2758.4
1002.77	2732.87
1003.065	2688.12
1003.359	2674.79
1003.654	2712.98
1003.949	2654.9
1004.243	2622.36
1004.538	2656.26
1004.832	2621.91
1005.127	2613.77
1005.421	2582.14
1005.715	2559.09
1006.009	2569.48
1006.304	2538.29
1006.598	2505.53
1006.892	2513.44
1007.186	2473.66
1007.48	2489.71
1007.773	2471.86
1008.067	2415.13
1008.361	2464.4
1008.655	2439.54
1008.948	2418.07
1009.242	2398.64
1009.535	2378.75
1009.829	2333.33
1010.122	2379.88
1010.415	2341.24
1010.708	2340.11
1011.001	2324.06
1011.295	2298.98
1011.588	2266.89
1011.881	2264.18
1012.173	2211.3
1012.466	2242.48
1012.759	2197.74
1013.052	2204.74
1013.344	2201.35
1013.637	2223.5
1013.93	2177.4
1014.222	2182.82
1014.514	2178.53
1014.807	2159.32
1015.099	2101.24
1015.391	2134.24
1015.683	2066.44
1015.976	2077.29
1016.268	2073.22
1016.56	2030.29
1016.851	2036.39
1017.143	2052.21
1017.435	2020.34
1017.727	1990.96
1018.018	2008.37
1018.31	1992.32
1018.602	1955.49
1018.893	1960
1019.185	1944.64
1019.476	1918.2
1019.767	1882.72
1020.058	1897.63
1020.35	1890.63
1020.641	1862.83
1020.932	1851.31
1021.223	1833.45
1021.514	1846.34
1021.804	1815.83
1022.095	1809.27
1022.386	1806.34
1022.677	1791.42
1022.967	1736.28
1023.258	1757.3
1023.548	1747.36
1023.839	1728.15
1024.129	1733.34
1024.419	1701.03
1024.709	1710.52
1025	1707.58
1025.29	1638.21
1025.58	1698.09
1025.87	1653.8
1026.16	1638.66
1026.449	1656.74
1026.739	1634.14
1027.029	1621.03
1027.319	1585.1
1027.608	1594.14
1027.898	1544.87
1028.187	1601.82
1028.477	1571.54
1028.766	1560.24
1029.055	1527.47
1029.344	1503.75
1029.634	1522.28
1029.923	1511.43
1030.212	1461.04
1030.501	1492.22
1030.79	1487.48
1031.078	1457.42
1031.367	1441.15
1031.656	1444.31
1031.945	1432.34
1032.233	1424.43
1032.522	1378.78
1032.81	1368.16
1033.099	1405.67
1033.387	1374.71
1033.675	1402.05
1033.963	1350.98
1034.251	1365.44
1034.54	1313.24
1034.828	1343.52
1035.116	1352.11
1035.403	1313.02
1035.691	1291.55
1035.979	1282.96
1036.267	1293.58
1036.554	1252.9
1036.842	1270.08
1037.129	1259.46
1037.417	1243.19
1037.704	1242.74
1037.992	1214.49
1038.279	1230.31
1038.566	1189.86
1038.853	1189.86
1039.14	1189.86
