Data from plate_ceramic_FLMS001491_014.txt Node
Date: Tue Feb 07 11:16:22 GMT 2017
User: dcchb
Spectrometer: FLMS00149
Trigger mode: 0
Integration Time (sec): 2.000000E-2
Scans to average: 10
Electric dark correction enabled: true
Nonlinearity correction enabled: false
Boxcar width: 0
XAxis mode: Wavelengths
Number of Pixels in Spectrum: 2048
>>>>>Begin Spectral Data<<<<<
341.393	-13.8
341.776	-13.8
342.16	-13.8
342.543	-50.41
342.927	-55.15
343.31	-74.59
343.693	-78.2
344.077	-64.19
344.46	-49.5
344.843	-55.61
345.226	-49.28
345.61	-54.02
345.993	-5.44
346.376	-1.14
346.759	27.56
347.142	42.7
347.525	35.69
347.908	51.96
348.291	76.59
348.674	82.47
349.057	115.01
349.44	122.47
349.823	130.38
350.206	180.09
350.588	206.08
350.971	231.84
351.354	229.36
351.737	261.9
352.119	264.16
352.502	252.63
352.884	312.97
353.267	305.06
353.65	318.62
354.032	322.24
354.414	333.99
354.797	333.31
355.179	347.32
355.562	332.86
355.944	339.19
356.326	360.65
356.709	350.71
357.091	376.7
357.473	362.24
357.855	368.56
358.238	382.8
358.62	362.91
359.002	369.69
359.384	381.22
359.766	359.3
360.148	349.58
360.53	354.55
360.912	372.18
361.294	368.34
361.676	361.33
362.057	360.65
362.439	356.81
362.821	383.7
363.203	360.43
363.584	349.58
363.966	343.71
364.348	357.94
364.729	370.82
365.111	358.62
365.493	380.99
365.874	339.19
366.256	358.62
366.637	349.13
367.019	369.02
367.4	348.23
367.781	371.73
368.163	370.15
368.544	351.39
368.925	356.59
369.306	380.77
369.688	365.85
370.069	380.54
370.45	391.16
370.831	385.29
371.212	370.82
371.593	370.37
371.974	373.31
372.355	368.11
372.736	380.77
373.117	402.69
373.498	378.73
373.879	371.5
374.26	394.55
374.641	358.85
375.021	363.14
375.402	365.17
375.783	414.89
376.163	395
376.544	404.72
376.925	409.47
377.305	405.17
377.686	420.09
378.066	414.89
378.447	416.7
378.827	434.78
379.208	414.89
379.588	409.69
379.968	432.06
380.349	402.46
380.729	432.97
381.109	446.98
381.489	439.3
381.87	416.92
382.25	452.63
382.63	422.57
383.01	443.36
383.39	458.05
383.77	460.54
384.15	462.8
384.53	446.3
384.91	486.53
385.29	480.88
385.67	467.54
386.049	478.17
386.429	466.41
386.809	493.31
387.189	486.98
387.568	470.93
387.948	491.5
388.328	493.08
388.707	494.21
389.087	503.25
389.466	511.16
389.846	501.44
390.225	531.72
390.605	534.44
390.984	528.79
391.363	538.05
391.743	522.01
392.122	539.18
392.501	549.58
392.881	574.43
393.26	550.25
393.639	569.01
394.018	589.8
394.397	582.8
394.776	578.05
395.155	578.05
395.534	589.57
395.913	578.5
396.292	616.01
396.671	624.38
397.05	590.03
397.429	629.57
397.808	606.98
398.186	624.6
398.565	616.92
398.944	646.52
399.323	644.71
399.701	653.08
400.08	655.11
400.458	656.69
400.837	679.06
401.215	700.53
401.594	677.26
401.972	703.7
402.351	676.13
402.729	699.63
403.107	711.83
403.486	710.93
403.864	704.15
404.242	712.74
404.62	718.16
404.999	746.18
405.377	754.09
405.755	757.03
406.133	759.06
406.511	779.85
406.889	763.36
407.267	792.51
407.645	792.06
408.023	815.33
408.401	820.3
408.779	833.64
409.156	881.54
409.534	860.3
409.912	856.69
410.29	884.26
410.667	874.54
411.045	894.2
411.422	899.4
411.8	916.12
412.178	938.72
412.555	948.66
412.933	961.77
413.31	983.46
413.687	988.21
414.065	1016.46
414.442	985.04
414.819	1000.64
415.197	1029.56
415.574	1043.12
415.951	1054.87
416.328	1048.55
416.705	1052.84
417.082	1054.42
417.46	1084.93
417.837	1107.08
418.214	1109.11
418.591	1123.57
418.967	1125.61
419.344	1114.08
419.721	1144.14
420.098	1154.76
420.475	1197.92
420.852	1203.12
421.228	1209.9
421.605	1216.68
421.982	1204.25
422.358	1225.72
422.735	1254.42
423.111	1277.47
423.488	1290.8
423.864	1265.26
424.241	1312.04
424.617	1309.33
424.994	1327.18
425.37	1362.66
425.746	1343.91
426.123	1368.54
426.499	1385.71
426.875	1400.4
427.251	1432.72
427.627	1454.86
428.003	1441.98
428.379	1459.16
428.756	1519.72
429.132	1509.32
429.507	1541.64
429.883	1559.49
430.259	1577.12
430.635	1603.11
431.011	1597.01
431.387	1631.13
431.763	1671.35
432.138	1673.61
432.514	1711.35
432.89	1744.12
433.265	1726.04
433.641	1741.41
434.016	1756.1
434.392	1798.58
434.767	1811.01
435.143	1858.92
435.518	1866.6
435.894	1888.75
436.269	1950.67
436.644	1917
437.02	1964
437.395	1961.52
437.77	1998.35
438.145	2028.86
438.52	2048.75
438.895	2027.96
439.271	2056.88
439.646	2103.66
440.021	2108.86
440.395	2171
440.77	2135.3
441.145	2151.79
441.52	2192.92
441.895	2217.1
442.27	2253.71
442.645	2209.42
443.019	2228.18
443.394	2272.24
443.769	2278.12
444.143	2255.75
444.518	2364.22
444.892	2291.23
445.267	2338.23
445.641	2345.23
446.016	2383.65
446.39	2429.07
446.764	2421.62
447.139	2419.58
447.513	2439.7
447.887	2476.98
448.262	2459.13
448.636	2491.45
449.01	2502.97
449.384	2547.72
449.758	2553.37
450.132	2621.84
450.506	2620.71
450.88	2640.14
451.254	2644.21
451.628	2687.37
452.002	2705
452.376	2704.1
452.75	2750.42
453.123	2763.76
453.497	2834.49
453.871	2869.06
454.244	2888.72
454.618	2937.31
454.992	2971.66
455.365	2953.81
455.739	3063.63
456.112	3023.41
456.486	3092.11
456.859	3126.46
457.232	3170.75
457.606	3156.06
457.979	3241.48
458.352	3297.07
458.725	3333.91
459.099	3373.91
459.472	3418.43
459.845	3479.89
460.218	3483.51
460.591	3548.59
460.964	3539.55
461.337	3655.03
461.71	3706.78
462.083	3756.95
462.456	3778.64
462.829	3771.41
463.201	3842.14
463.574	3867.45
463.947	3935.02
464.32	4005.53
464.692	4014.34
465.065	4056.38
465.438	4092.99
465.81	4157.39
466.183	4218.86
466.555	4325.52
466.928	4341.34
467.3	4312.19
467.672	4458.4
468.045	4547.66
468.417	4543.82
468.789	4618.17
469.161	4648.45
469.534	4687.55
469.906	4817.49
470.278	4857.26
470.65	4949.23
471.022	5047.54
471.394	5139.96
471.766	5179.28
472.138	5192.17
472.51	5313.52
472.882	5444.81
473.253	5539.05
473.625	5559.39
473.997	5669.22
474.369	5714.86
474.74	5758.7
475.112	5875.99
475.484	5977
475.855	6105.14
476.227	6150.56
476.598	6288.41
476.97	6339.93
477.341	6526.82
477.713	6626.7
478.084	6665.12
478.455	6851.78
478.827	6925.45
479.198	7079.12
479.569	7154.83
479.94	7302.39
480.311	7366.12
480.682	7569.05
481.053	7696.73
481.424	7831.42
481.795	7900.8
482.166	8075.03
482.537	8202.26
482.908	8345.98
483.279	8441.12
483.65	8580.55
484.021	8748
484.391	8868.68
484.762	8929.02
485.133	9010.6
485.503	9129.46
485.874	9332.85
486.244	9468.44
486.615	9626.85
486.985	9786.85
487.356	9954.98
487.726	9996.33
488.097	10198.59
488.467	10240.17
488.837	10487.17
489.207	10572.59
489.578	10739.82
489.948	10900.04
490.318	10998.11
490.688	11012.35
491.058	11241.72
491.428	11397.2
491.798	11516.52
492.168	11749.06
492.538	11756.96
492.908	11832.44
493.278	12123.51
493.648	12089.61
494.017	12354.69
494.387	12353.11
494.757	12537.74
495.126	12672.87
495.496	12714
495.866	12774.57
496.235	12982.7
496.605	13070.38
496.974	13135.46
497.344	13328.67
497.713	13349.01
498.082	13461.1
498.452	13611.61
498.821	13730.7
499.19	13765.05
499.559	13911.94
499.928	13966.4
500.298	14124.13
500.667	14311.02
501.036	14257.69
501.405	14441.41
501.774	14445.71
502.143	14633.5
502.512	14683.44
502.88	14908.75
503.249	14882.31
503.618	15038.01
503.987	15137.67
504.356	15229.64
504.724	15310.54
505.093	15328.62
505.462	15507.6
505.83	15576.3
506.199	15765.22
506.567	15835.5
506.936	15892.68
507.304	16106
507.672	16205.44
508.041	16322.04
508.409	16411.53
508.777	16550.96
509.145	16719.77
509.514	16739.88
509.882	16779.66
510.25	16826.44
510.618	17028.01
510.986	17156.82
511.354	17375.12
511.722	17549.13
512.09	17682.01
512.458	17675.68
512.826	17808.78
513.193	17936.92
513.561	18095.33
513.929	18174.42
514.297	18359.28
514.664	18439.95
515.032	18681.53
515.4	18767.85
515.767	18843.11
516.135	18954.97
516.502	18962.2
516.869	19261.17
517.237	19385.24
517.604	19351.57
517.972	19587.27
518.339	19814.15
518.706	19823.42
519.073	19964.43
519.44	20023.87
519.808	20388.6
520.175	20301.37
520.542	20640.35
520.909	20764.41
521.276	20778.2
521.643	21019.32
522.009	21147
522.376	21361.91
522.743	21470.83
523.11	21686.2
523.477	21916.7
523.843	22040.54
524.21	22322.56
524.577	22446.85
524.943	22569.79
525.31	22751.03
525.676	22940.63
526.043	22970
526.409	23072.37
526.776	23433.95
527.142	23456.77
527.508	23696.99
527.874	23950.77
528.241	24074.61
528.607	24148.5
528.973	24316.41
529.339	24337.43
529.705	24684.31
530.071	24818.54
530.437	24983.06
530.803	25102.15
531.169	25247.68
531.535	25206.33
531.901	25280
532.267	25409.94
532.632	25741.68
532.998	25744.39
533.364	26016.02
533.73	26231.84
534.095	26446.52
534.461	26389.35
534.826	26632.28
535.192	26643.81
535.557	26837.7
535.923	26897.58
536.288	27002.21
536.653	27241.3
537.019	27093.51
537.384	27310.23
537.749	27418.25
538.114	27542.31
538.479	27632.03
538.845	27698.92
539.21	27745.02
539.575	27874.96
539.94	28062.3
540.305	28133.03
540.67	28213.26
541.034	28323.99
541.399	28562.4
541.764	28530.99
542.129	28646.69
542.494	28652.34
542.858	28859.34
543.223	28907.93
543.587	29093.46
543.952	29062.27
544.316	29226.79
544.681	29255.26
545.045	29369.38
545.41	29596.72
545.774	29759.88
546.138	29667.91
546.503	29935.92
546.867	29876.71
547.231	30221.79
547.595	30243.48
547.959	30348.57
548.324	30266.08
548.688	30456.81
549.052	30546.53
549.416	30762.57
549.779	30718.27
550.143	30899.06
550.507	31050.02
550.871	31109.45
551.235	31201.88
551.599	31576.56
551.962	31506.5
552.326	31701.53
552.689	31924.12
553.053	31774.29
553.417	31938.81
553.78	32181.06
554.143	32083.89
554.507	32340.15
554.87	32587.83
555.234	32885.67
555.597	32720.26
555.96	32799.12
556.323	32983.53
556.686	33006.12
557.05	33355.94
557.413	33516.62
557.776	33584.87
558.139	33726.56
558.502	33794.8
558.865	33932.88
559.228	34244.06
559.59	34391.85
559.953	34467.1
560.316	34672.75
560.679	34599.75
561.041	34991.38
561.404	35131.72
561.767	35284.71
562.129	35402.44
562.492	35827.29
562.854	35702.1
563.217	35829.55
563.579	36003.56
563.941	36351.35
564.304	36443.55
564.666	36727.38
565.028	36585.69
565.39	36854.38
565.753	37030.2
566.115	37240.59
566.477	37270.19
566.839	37401.04
567.201	37567.81
567.563	37774.81
567.925	37964.64
568.287	37993.34
568.648	38015.71
569.01	38283.27
569.372	38489.14
569.734	38424.96
570.095	38622.47
570.457	38852.75
570.819	38961.9
571.18	39062.01
571.542	39201.67
571.903	39193.31
572.265	39432.85
572.626	39504.26
572.987	39630.36
573.349	39744.48
573.71	39989.44
574.071	39847.53
574.432	39978.6
574.794	40344.01
575.155	40314.86
575.516	40285.71
575.877	40341.07
576.238	40579.94
576.599	40665.13
576.96	40805.24
577.32	40798.01
577.681	41095.18
578.042	41125.46
578.403	41148.06
578.763	41085.01
579.124	41126.36
579.485	41299.69
579.845	41560.48
580.206	41454.04
580.566	41405.68
580.927	41569.06
581.287	41658.78
581.648	41313.48
582.008	41669.17
582.368	41603.86
582.728	41604.54
583.089	41631.89
583.449	41514.15
583.809	41802.5
584.169	41772.67
584.529	41716.18
584.889	42120.01
585.249	41732.45
585.609	41728.83
585.969	41906.45
586.329	41759.57
586.688	41971.54
587.048	41851.54
587.408	41877.08
587.768	41861.94
588.127	41973.57
588.487	41915.49
588.846	42285.88
589.206	41876.4
589.565	41901.26
589.925	42119.33
590.284	42063.29
590.643	42182.38
591.003	42301.47
591.362	42403.16
591.721	42112.78
592.08	42273.45
592.44	42346.9
592.799	42352.54
593.158	42312.09
593.517	42284.98
593.876	42343.05
594.235	42189.61
594.593	42399.32
594.952	42508.47
595.311	42301.25
595.67	42323.62
596.029	42573.33
596.387	42606.32
596.746	42660.11
597.104	42595.93
597.463	42599.32
597.822	42719.99
598.18	42587.57
598.538	42561.13
598.897	42802.93
599.255	42536.27
599.613	43145.52
599.972	42786.21
600.33	42863.72
600.688	42776.04
601.046	42891.29
601.404	43016.71
601.762	42948.46
602.12	43286.08
602.478	43323.14
602.836	43133.32
603.194	42901.91
603.552	43058.97
603.91	43054.45
604.268	43264.84
604.625	43116.82
604.983	43344.83
605.341	43207.21
605.698	43419.64
606.056	43510.48
606.413	43348.68
606.771	43482.91
607.128	43625.28
607.485	43422.12
607.843	43616.92
608.2	43744.15
608.557	43857.14
608.914	43627.09
609.272	43749.57
609.629	43954.76
609.986	44110.69
610.343	43882.67
610.7	44180.97
611.057	44094.19
611.414	44081.31
611.771	44244.02
612.127	44279.5
612.484	44315.2
612.841	44369.67
613.198	44201.99
613.554	44240.18
613.911	44382.77
614.267	44422.32
614.624	44474.75
614.98	44483.79
615.337	44682.88
615.693	44681.07
616.05	44734.18
616.406	44904.34
616.762	44758.36
617.118	44665.93
617.475	44637.46
617.831	44871.57
618.187	44941.4
618.543	45005.13
618.899	45077.44
619.255	44954.51
619.611	44994.28
619.967	45015.75
620.323	45239.25
620.678	45038.35
621.034	45030.89
621.39	45098.46
621.746	45074.96
622.101	45423.65
622.457	45279.7
622.812	45233.82
623.168	45202.19
623.523	45276.76
623.879	45330.77
624.234	45181.62
624.589	45324.9
624.945	45252.58
625.3	45212.13
625.655	45264.56
626.01	45109.99
626.365	45344.1
626.72	45184.56
627.075	45345.69
627.43	45225.92
627.785	45004.23
628.14	45193.37
628.495	45190.44
628.85	45135.75
629.205	44884.46
629.559	45266.14
629.914	44935.3
630.269	45013.94
630.623	44923.32
630.978	44837.23
631.332	45001.97
631.687	45047.61
632.041	44858.24
632.396	44827.06
632.75	44688.08
633.104	44730.79
633.459	44650.79
633.813	44543.22
634.167	44645.59
634.521	44624.35
634.875	44659.38
635.229	44510.23
635.583	44287.63
635.937	44392.49
636.291	44276.11
636.645	44288.09
636.999	44079.96
637.352	44347.07
637.706	44067.75
638.06	44281.08
638.413	44059.62
638.767	43900.75
639.121	44039.73
639.474	43740.76
639.828	43699.85
640.181	43780.53
640.534	43870.24
640.888	43635.9
641.241	43490.37
641.594	43687.65
641.947	43708.44
642.301	43684.94
642.654	43683.36
643.007	43649.69
643.36	43380.99
643.713	43475.68
644.066	43594.77
644.419	43290.6
644.771	42934.22
645.124	42548.47
645.477	42447.46
645.83	42199.55
646.182	42045.89
646.535	41976.06
646.888	42065.32
647.24	42042.95
647.593	42221.93
647.945	42145.09
648.298	42033.91
648.65	41784.42
649.002	41724.54
649.355	41773.8
649.707	41819.68
650.059	41817.87
650.411	42364.3
650.763	42358.65
651.115	42767.45
651.467	42517.51
651.819	42435.25
652.171	42303.96
652.523	42302.15
652.875	42420.57
653.227	42253.56
653.578	42536.95
653.93	42355.03
654.282	42194.13
654.633	42047.69
654.985	42113
655.337	42244.75
655.688	42130.63
656.039	42265.99
656.391	41767.48
656.742	41905.55
657.094	41987.36
657.445	42069.84
657.796	42017.64
658.147	41972.89
658.498	41858.09
658.849	41744.88
659.2	41877.3
659.551	41813.8
659.902	42080.46
660.253	41683.18
660.604	41719.34
660.955	41628.95
661.306	41791.2
661.656	41726.8
662.007	41594.6
662.358	41684.54
662.708	41578.78
663.059	41533.36
663.409	41299.92
663.76	41547.14
664.11	41524.32
664.461	41511.21
664.811	41357.77
665.161	41528.84
665.511	41418.11
665.862	41457.43
666.212	41568.84
666.562	41556.63
666.912	41529.06
667.262	41583.53
667.612	41485.67
667.962	41433.7
668.312	41287.49
668.662	41564.99
669.011	41522.96
669.361	41405.68
669.711	41266.7
670.06	41287.94
670.41	41084.78
670.76	41231.22
671.109	41312.8
671.459	41148.28
671.808	41018.57
672.157	41254.72
672.507	40933.15
672.856	41097.21
673.205	41052.01
673.554	41093.37
673.904	40888.63
674.253	41060.83
674.602	40968.63
674.951	40382.88
675.3	40318.93
675.649	40935.41
675.998	40803.88
676.346	40775.18
676.695	40875.97
677.044	40600.73
677.393	40778.57
677.741	40739.25
678.09	40677.33
678.438	40500.39
678.787	40545.81
679.135	40716.43
679.484	40381.07
679.832	40579.48
680.181	40343.33
680.529	40536.77
680.877	40206.61
681.225	40205.26
681.573	40373.84
681.922	40098.59
682.27	40080.29
682.618	40097.91
682.966	39983.79
683.314	39943.12
683.661	39840.97
684.009	39697.7
684.357	39464.94
684.705	39608.66
685.053	39694.08
685.4	39625.84
685.748	39436.46
686.095	39348.33
686.443	39187.66
686.79	39052.29
687.138	39088.22
687.485	39149.92
687.832	39042.35
688.18	39174.78
688.527	39040.77
688.874	38979.07
689.221	38694.79
689.568	38449.14
689.915	38463.83
690.262	38555.13
690.609	38512.42
690.956	38255.03
691.303	38189.94
691.65	38070.4
691.997	38032.88
692.344	37906.79
692.69	37718.32
693.037	37890.97
693.383	37663.63
693.73	37842.61
694.077	37460.47
694.423	37619.79
694.769	37538.21
695.116	37480.36
695.462	37365.33
695.808	37173.47
696.155	37268.38
696.501	36906.59
696.847	36852.8
697.193	36641.28
697.539	36757.44
697.885	36451.91
698.231	36456.43
698.577	36531
698.923	36333.04
699.269	36105.25
699.614	35920.62
699.96	35886.27
700.306	36025.25
700.651	35926.72
700.997	35672.27
701.342	35739.61
701.688	35571.25
702.033	35416.91
702.379	35410.81
702.724	35452.16
703.069	35377.59
703.415	35020.08
703.76	34941.89
704.105	34967.2
704.45	34777.6
704.795	34649.7
705.14	34553.2
705.485	34498.06
705.83	34428.46
706.175	34514.33
706.52	34406.76
706.865	34332.64
707.209	34178.75
707.554	34038.64
707.899	34254.9
708.243	33945.99
708.588	34028.24
708.932	33685.43
709.277	33789.61
709.621	33633.45
709.966	33321.37
710.31	33572.21
710.654	33185.55
710.998	33399.56
711.342	33462.16
711.687	33350.07
712.031	33137.87
712.375	33024.43
712.719	33075.73
713.063	32992.34
713.407	32982.85
713.75	32956.86
714.094	32909.4
714.438	32616.98
714.782	32721.61
715.125	32634.38
715.469	32796.86
715.812	32604.78
716.156	32446.14
716.499	32371.11
716.843	32353.03
717.186	32178.35
717.53	32262.41
717.873	32226.03
718.216	32090.44
718.559	32135.19
718.902	31824.46
719.246	31930.45
719.589	31815.19
719.932	31724.58
720.275	31800.28
720.617	31612.71
720.96	31636.22
721.303	31559.83
721.646	31598.03
721.989	31361.65
722.331	31475.54
722.674	31313.29
723.016	31359.16
723.359	31259.95
723.701	31274.87
724.044	30903.13
724.386	30911.72
724.729	31010.02
725.071	31026.74
725.413	30945.61
725.755	30925.05
726.097	30776.35
726.439	30559.86
726.782	30658.16
727.124	30684.38
727.465	30553.31
727.807	30578.62
728.149	30388.79
728.491	30467.21
728.833	30565.06
729.175	30441.9
729.516	30229.02
729.858	30268.79
730.199	30228.34
730.541	30122.36
730.882	30303.37
731.224	30255.91
731.565	30014.11
731.906	30028.35
732.248	30080.1
732.589	29773.44
732.93	29768.69
733.271	29679.66
733.612	29937.73
733.953	29764.85
734.294	29654.12
734.635	29705.65
734.976	29627
735.317	29550.4
735.658	29472.66
735.999	29410.06
736.339	29470.85
736.68	29571.41
737.021	29377.74
737.361	29218.88
737.702	29364.41
738.042	29210.07
738.383	29192.21
738.723	29230.86
739.063	29134.36
739.404	29156.96
739.744	29119.22
740.084	28850.53
740.424	29128.03
740.764	28986.79
741.104	28978.88
741.444	28719.46
741.784	28684.66
742.124	28780.47
742.464	28749.51
742.804	28775.05
743.143	28665.67
743.483	28659.12
743.823	28453.02
744.162	28423.87
744.502	28462.29
744.841	28255.74
745.181	28389.3
745.52	28339.13
745.86	28238.79
746.199	28123.77
746.538	28111.11
746.877	28088.29
747.216	28005.58
747.556	27908.4
747.895	28058.46
748.234	27884.45
748.573	27851.91
748.911	27879.03
749.25	27765.81
749.589	27711.8
749.928	27737.34
750.267	27724.91
750.605	27580.28
750.944	27461.86
751.283	27470.68
751.621	27479.49
751.96	27268.65
752.298	27312.94
752.636	27243.79
752.975	27149.78
753.313	27011.03
753.651	27168.76
753.989	26907.53
754.327	27040.63
754.666	26828.43
755.004	26793.63
755.342	26880.64
755.679	26690.36
756.017	26529.46
756.355	26690.36
756.693	26428.9
757.031	26441.32
757.368	26374.21
757.706	26385.51
758.044	26213.53
758.381	26352.06
758.719	26286.07
759.056	26233.87
759.394	26154.55
759.731	25997.04
760.068	25868.46
760.405	25872.3
760.743	25645.87
761.08	25821.23
761.417	25582.59
761.754	25564.74
762.091	25532.42
762.428	25426.21
762.765	25244.52
763.102	25323.84
763.438	25151.64
763.775	24986.45
764.112	24927.01
764.449	24968.37
764.785	24807.7
765.122	24670.98
765.458	24567.93
765.795	24501.04
766.131	24595.5
766.467	24458.1
766.804	24293.13
767.14	24257.65
767.476	24253.59
767.812	24161.84
768.148	24203.64
768.485	23959.36
768.821	23854.73
769.157	23851.34
769.492	23776.08
769.828	23707.39
770.164	23542.19
770.5	23474.85
770.836	23505.13
771.171	23333.61
771.507	23191.24
771.842	23156.67
772.178	23078.02
772.513	23043.22
772.849	22894.75
773.184	22816.34
773.519	22744.7
773.855	22739.27
774.19	22543.57
774.525	22569.56
774.86	22493.63
775.195	22485.5
775.53	22328.66
775.865	22210.02
776.2	22025.85
776.535	21917.83
776.87	21932.74
777.205	21853.42
777.539	21744.5
777.874	21805.74
778.209	21563.94
778.543	21554.9
778.878	21497.95
779.212	21466.99
779.547	21317.17
779.881	21285.53
780.215	21115.14
780.55	21107.23
780.884	21062.71
781.218	20980.23
781.552	20985.87
781.886	20821.81
782.22	20628.82
782.554	20742.72
782.888	20500.69
783.222	20485.1
783.556	20361.48
783.889	20366.46
784.223	20198.55
784.557	20164.2
784.89	20155.61
785.224	19987.71
785.557	19883.98
785.891	19901.16
786.224	19841.72
786.558	19870.42
786.891	19643.76
787.224	19561.96
787.557	19521.05
787.891	19458.23
788.224	19465.24
788.557	19462.3
788.89	19334.84
789.223	19343.66
789.556	19182.08
789.888	19126.26
790.221	18982.31
790.554	18882.65
790.887	18873.84
791.219	18790.45
791.552	18780.06
791.884	18586.39
792.217	18551.14
792.549	18586.84
792.882	18470.01
793.214	18295.1
793.546	18408.99
793.879	18178.04
794.211	18161.09
794.543	18229.56
794.875	18161.32
795.207	18219.85
795.539	18029.79
795.871	18046.07
796.203	17861.66
796.535	17716.13
796.867	17730.14
797.198	17593.42
797.53	17680.65
797.862	17525.17
798.193	17578.96
798.525	17423.03
798.856	17539.86
799.188	17259.65
799.519	17310.49
799.85	17163.6
800.182	17099.42
800.513	17138.74
800.844	16963.38
801.175	17191.4
801.506	17112.08
801.837	17020.56
802.168	16952.76
802.499	16819.43
802.83	16713.22
803.161	16658.08
803.491	16659.66
803.822	16696.04
804.153	16510.29
804.483	16467.12
804.814	16444.07
805.145	16387.58
805.475	16388.26
805.805	16277.07
806.136	16315.26
806.466	16247.92
806.796	16323.17
807.126	16137.64
807.457	16117.75
807.787	16065.1
808.117	16029.85
808.447	15937.42
808.777	15905.1
809.107	15762.06
809.436	15827.37
809.766	15773.36
810.096	15730.19
810.426	15657.88
810.755	15644.09
811.085	15561.16
811.414	15666.01
811.744	15430.09
812.073	15404.55
812.403	15444.33
812.732	15269.41
813.061	15275.29
813.39	15124.56
813.719	15209.76
814.049	15281.39
814.378	15191.45
814.707	15086.14
815.036	15075.3
815.365	15022.64
815.693	14944.68
816.022	14912.14
816.351	14826.94
816.68	14845.02
817.008	14826.49
817.337	14688.64
817.665	14601.64
817.994	14773.38
818.322	14747.17
818.651	14688.41
818.979	14600.96
819.307	14554.86
819.636	14540.85
819.964	14442.32
820.292	14602.54
820.62	14545.37
820.948	14468.31
821.276	14443.22
821.604	14420.85
821.932	14465.37
822.259	14426.73
822.587	14449.1
822.915	14323.23
823.243	14397.8
823.57	14370.68
823.898	14383.56
824.225	14253.4
824.553	14346.28
824.88	14337.01
825.207	14408.42
825.535	14240.29
825.862	14411.36
826.189	14360.51
826.516	14347.86
826.843	14429.21
827.17	14475.54
827.497	14360.51
827.824	14360.29
828.151	14379.04
828.478	14299.95
828.805	14402.09
829.131	14340.17
829.458	14284.58
829.785	14284.13
830.111	14272.38
830.438	14333.17
830.764	14289.1
831.09	14321.19
831.417	14162.55
831.743	14265.37
832.069	14279.38
832.395	14107.64
832.722	14188.77
833.048	14150.35
833.374	14200.29
833.7	14106.73
834.026	14150.35
834.351	14179.27
834.677	14112.61
835.003	14163
835.329	14139.5
835.654	14108.54
835.98	14017.47
836.306	14028.09
836.631	14052.05
836.956	14018.15
837.282	14144.7
837.607	13925.72
837.932	13986.51
838.258	13914.65
838.583	13944.7
838.908	13937.47
839.233	13861.09
839.558	13687.08
839.883	13677.14
840.208	13634.66
840.533	13696.35
840.858	13784.71
841.182	13681.89
841.507	13739.51
841.832	13675.56
842.156	13609.57
842.481	13602.79
842.805	13589.69
843.13	13488.9
843.454	13475.56
843.778	13448.67
844.103	13410.48
844.427	13458.62
844.751	13431.27
845.075	13395.34
845.399	13331.16
845.723	13286.87
846.047	13264.5
846.371	13156.48
846.695	13135.01
847.019	13004.84
847.343	12846.2
847.666	12862.25
847.99	12779.31
848.313	12811.17
848.637	12716.71
848.96	12733.44
849.284	12697.05
849.607	12596.04
849.931	12544.74
850.254	12462.94
850.577	12497.96
850.9	12333.22
851.223	12282.37
851.546	12235.37
851.869	12176.16
852.192	12175.71
852.515	12102.72
852.838	12067.69
853.161	12066.79
853.483	11943.85
853.806	11899.33
854.129	11997.18
854.451	11931.65
854.774	11867.02
855.096	11822.95
855.419	11791.09
855.741	11773.24
856.063	11650.98
856.385	11666.35
856.708	11651.66
857.03	11589.51
857.352	11531.89
857.674	11506.58
857.996	11507.48
858.318	11382.96
858.64	11379.57
858.961	11324.21
859.283	11348.84
859.605	11178.22
859.926	11290.54
860.248	11280.14
860.57	11187.71
860.891	11154.27
861.212	11145.91
861.534	11170.77
861.855	11103.65
862.176	11162.4
862.498	11102.52
862.819	11140.26
863.14	11083.31
863.461	11037.44
863.782	10982.75
864.103	10999.92
864.424	10948.17
864.745	10888.74
865.065	10904.78
865.386	10844.67
865.707	10839.47
866.027	10864.11
866.348	10800.38
866.668	10880.83
866.989	10771
867.309	10728.74
867.63	10714.28
867.95	10723.55
868.27	10716.09
868.59	10703.21
868.91	10741.4
869.23	10658.46
869.55	10608.97
869.87	10690.78
870.19	10564.68
870.51	10613.04
870.83	10584.79
871.15	10524.68
871.469	10498.92
871.789	10514.06
872.109	10442.88
872.428	10407.4
872.748	10445.36
873.067	10418.69
873.386	10398.36
873.706	10365.59
874.025	10382.09
874.344	10349.32
874.663	10357.91
874.982	10330.11
875.301	10288.53
875.62	10288.75
875.939	10286.5
876.258	10229.55
876.577	10180.74
876.896	10196.78
877.214	10168.08
877.533	10091.47
877.852	10096.67
878.17	10141.87
878.489	10059.16
878.807	10060.51
879.125	10103.68
879.444	10091.25
879.762	10079.27
880.08	10042.89
880.398	9983.45
880.716	10019.84
881.034	9994.75
881.352	9983.68
881.67	9910.69
881.988	9927.86
882.306	9834.98
882.624	9861.87
882.941	9807.86
883.259	9837.69
883.577	9779.62
883.894	9749.56
884.212	9753.85
884.529	9809.22
884.846	9764.47
885.164	9679.28
885.481	9690.8
885.798	9698.26
886.115	9601.77
886.432	9591.15
886.75	9558.38
887.067	9551.15
887.383	9584.14
887.7	9576.46
888.017	9478.38
888.334	9523.13
888.651	9477.48
888.967	9454.2
889.284	9347.08
889.6	9328.55
889.917	9293.53
890.233	9310.48
890.55	9302.79
890.866	9259.86
891.182	9188.22
891.498	9155.68
891.815	9158.62
892.131	9080.88
892.447	9049.69
892.763	9064.83
893.079	9063.48
893.395	9050.37
893.71	8971.28
894.026	9021.22
894.342	8960.88
894.657	8894.67
894.973	8941.22
895.289	8901.9
895.604	8889.24
895.92	8810.83
896.235	8740.32
896.55	8750.26
896.865	8736.25
897.181	8685.41
897.496	8768.12
897.811	8682.92
898.126	8658.06
898.441	8564.51
898.756	8615.35
899.071	8545.07
899.386	8488.12
899.7	8477.73
900.015	8419.43
900.33	8355.25
900.644	8435.02
900.959	8386.43
901.273	8299.43
901.588	8335.36
901.902	8311.18
902.216	8174.01
902.531	8221.24
902.845	8178.53
903.159	8083.16
903.473	8061.47
903.787	8059.43
904.101	7917.29
904.415	7944.41
904.729	7964.07
905.042	7982.83
905.356	7937.18
905.67	7884.75
905.984	7918.42
906.297	7861.93
906.611	7792.1
906.924	7818.99
907.237	7784.19
907.551	7719.78
907.864	7720.46
908.177	7706.22
908.491	7591.42
908.804	7629.84
909.117	7515.95
909.43	7501.03
909.743	7493.8
910.056	7517.98
910.368	7421.49
910.681	7400.24
910.994	7341.71
911.307	7323.18
911.619	7264.43
911.932	7312.79
912.244	7250.42
912.557	7221.26
912.869	7186.01
913.181	7140.36
913.494	7126.58
913.806	7128.84
914.118	7098.56
914.43	7051.55
914.742	7036.64
915.054	6985.79
915.366	6951.67
915.678	6881.84
915.99	6914.61
916.302	6920.03
916.613	6870.77
916.925	6814.04
917.236	6837.77
917.548	6798
917.859	6738.34
918.171	6782.41
918.482	6669.87
918.794	6642.98
919.105	6680.94
919.416	6539.25
919.727	6579.93
920.038	6592.13
920.349	6526.14
920.66	6490.44
920.971	6434.39
921.282	6374.51
921.593	6360.95
921.903	6365.24
922.214	6345.13
922.525	6276.66
922.835	6268.52
923.146	6261.52
923.456	6297
923.767	6170.9
924.077	6228.97
924.387	6180.16
924.697	6132.48
925.008	6077.34
925.318	6042.99
925.628	6056.32
925.938	6047.51
926.248	5965.48
926.558	5981.98
926.867	5944.46
927.177	5923.9
927.487	5947.4
927.796	5881.41
928.106	5842.77
928.416	5877.57
928.725	5771.13
929.034	5717.35
929.344	5738.37
929.653	5736.33
929.962	5647.75
930.271	5679.38
930.581	5669.89
930.89	5583.57
931.199	5596.9
931.508	5560.52
931.817	5551.25
932.125	5515.1
932.434	5536.34
932.743	5485.49
933.051	5436.91
933.36	5421.09
933.669	5413.63
933.977	5397.81
934.286	5365.95
934.594	5361.88
934.902	5291.37
935.21	5251.6
935.519	5275.78
935.827	5255.67
936.135	5267.19
936.443	5180.41
936.751	5174.99
937.059	5191.94
937.367	5143.81
937.674	5150.13
937.982	5148.55
938.29	5066.52
938.597	5094.32
938.905	5047.54
939.213	5012.06
939.52	5043.24
939.827	5036.69
940.135	4979.29
940.442	4939.52
940.749	4954.21
941.056	4911.04
941.363	4809.58
941.67	4842.12
941.977	4822.01
942.284	4790.14
942.591	4769.58
942.898	4725.51
943.205	4751.05
943.511	4743.14
943.818	4713.31
944.125	4643.48
944.431	4644.84
944.738	4637.15
945.044	4608.23
945.35	4607.1
945.657	4566.87
945.963	4509.47
946.269	4546.31
946.575	4510.6
946.881	4502.69
947.187	4470.6
947.493	4458.4
947.799	4404.84
948.105	4443.03
948.41	4398.51
948.716	4358.29
949.022	4357.84
949.327	4355.35
949.633	4306.54
949.938	4316.93
950.244	4268.12
950.549	4262.92
950.854	4274.68
951.16	4217.05
951.465	4226.99
951.77	4224.51
952.075	4241.91
952.38	4201.23
952.685	4099.54
952.99	4135.24
953.294	4122.59
953.599	4130.5
953.904	4042.59
954.209	4076.04
954.513	4003.72
954.818	4029.71
955.122	3950.84
955.426	3979.09
955.731	3968.02
956.035	3984.74
956.339	3916.49
956.643	3921.46
956.948	3886.89
957.252	3859.09
957.556	3827.91
957.86	3828.59
958.163	3842.37
958.467	3796.5
958.771	3781.13
959.075	3816.83
959.378	3783.62
959.682	3731.87
959.985	3741.36
960.289	3770.06
960.592	3691.19
960.896	3680.79
961.199	3666.56
961.502	3599.21
961.805	3644.18
962.108	3608.7
962.411	3615.03
962.714	3597.18
963.017	3549.5
963.32	3569.16
963.623	3535.94
963.926	3555.6
964.228	3522.61
964.531	3493.68
964.833	3478.31
965.136	3460.01
965.438	3445.32
965.741	3446.45
966.043	3455.49
966.345	3411.42
966.648	3371.65
966.95	3383.85
967.252	3335.94
967.554	3354.47
967.856	3330.07
968.158	3325.77
968.46	3297.98
968.761	3297.07
969.063	3269.5
969.365	3260.01
969.666	3264.98
969.968	3270.18
970.269	3212.78
970.571	3242.16
970.872	3201.71
971.174	3153.58
971.475	3165.1
971.776	3139.11
972.077	3130.75
972.378	3125.1
972.679	3091.88
972.98	3115.84
973.281	3097.98
973.582	3039.23
973.883	3032.22
974.183	3040.36
974.484	3018.21
974.785	3020.7
975.085	2994.26
975.386	2982.51
975.686	2961.49
975.986	2973.47
976.287	2973.47
976.587	2943.41
976.887	2894.6
977.187	2923.07
977.487	2914.49
977.787	2885.79
978.087	2870.64
978.387	2832.68
978.687	2847.59
978.987	2815.96
979.286	2856.63
979.586	2834.71
979.885	2799.46
980.185	2776.64
980.484	2761.5
980.784	2763.08
981.083	2740.03
981.382	2761.27
981.682	2747.03
981.981	2735.28
982.28	2680.59
982.579	2681.95
982.878	2682.4
983.177	2678.33
983.475	2662.74
983.774	2639.24
984.073	2658.45
984.372	2623.42
984.67	2630.88
984.969	2614.61
985.267	2601.27
985.566	2579.35
985.864	2573.48
986.162	2566.02
986.461	2534.83
986.759	2503.87
987.057	2508.85
987.355	2535.74
987.653	2503.87
987.951	2505
988.249	2491.45
988.547	2451.67
988.844	2489.19
989.142	2466.36
989.44	2446.93
989.737	2490.77
990.035	2401.5
990.332	2400.6
990.63	2381.39
990.927	2378.68
991.224	2421.39
991.521	2361.51
991.819	2332.58
992.116	2351.56
992.413	2331.22
992.71	2276.54
993.006	2303.43
993.303	2253.49
993.6	2304.78
993.897	2288.29
994.193	2264.33
994.49	2237.89
994.787	2275.18
995.083	2229.76
995.379	2202.87
995.676	2184.11
995.972	2201.74
996.268	2171.45
996.565	2184.11
996.861	2171.91
997.157	2143.66
997.453	2150.66
997.749	2143.66
998.044	2094.85
998.34	2107.95
998.636	2110.44
998.932	2069.99
999.227	2065.92
999.523	2052.59
999.818	2047.84
1000.114	2042.19
1000.409	2054.85
1000.704	2033.83
1001	2017.56
1001.295	1994.51
1001.59	1967.17
1001.885	2000.61
1002.18	1982.53
1002.475	1961.52
1002.77	1973.04
1003.065	1933.49
1003.359	1955.19
1003.654	1929.65
1003.949	1930.33
1004.243	1953.61
1004.538	1837.68
1004.832	1894.85
1005.127	1886.72
1005.421	1855.76
1005.715	1824.12
1006.009	1866.6
1006.304	1834.06
1006.598	1828.86
1006.892	1823.67
1007.186	1776.21
1007.48	1788.64
1007.773	1768.3
1008.067	1770.11
1008.361	1765.14
1008.655	1751.13
1008.948	1717.23
1009.242	1735.53
1009.535	1742.54
1009.829	1689.43
1010.122	1722.88
1010.415	1694.4
1010.708	1713.61
1011.001	1662.09
1011.295	1657.57
1011.588	1653.73
1011.881	1652.37
1012.173	1614.63
1012.466	1628.19
1012.759	1618.47
1013.052	1603.79
1013.344	1608.98
1013.637	1576.44
1013.93	1570.57
1014.222	1583.45
1014.514	1549.1
1014.807	1566.5
1015.099	1524.92
1015.391	1526.73
1015.683	1547.29
1015.976	1511.81
1016.268	1504.35
1016.56	1479.72
1016.851	1492.6
1017.143	1487.18
1017.435	1494.41
1017.727	1450.57
1018.018	1455.09
1018.31	1425.71
1018.602	1430.46
1018.893	1411.25
1019.185	1423.68
1019.476	1413.73
1019.767	1393.17
1020.058	1404.24
1020.35	1372.83
1020.641	1363.34
1020.932	1340.29
1021.223	1368.54
1021.514	1353.4
1021.804	1324.92
1022.095	1325.37
1022.386	1318.82
1022.677	1301.87
1022.967	1279.73
1023.258	1279.73
1023.548	1280.4
1023.839	1277.92
1024.129	1265.94
1024.419	1260.52
1024.709	1233.85
1025	1229.56
1025.29	1231.59
1025.58	1243.12
1025.87	1212.61
1026.16	1220.74
1026.449	1186.85
1026.739	1199.73
1027.029	1183.68
1027.319	1184.36
1027.608	1185.72
1027.898	1153.85
1028.187	1172.84
1028.477	1140.97
1028.766	1140.97
1029.055	1156.11
1029.344	1147.07
1029.634	1106.62
1029.923	1135.1
1030.212	1119.5
1030.501	1129.67
1030.79	1110.01
1031.078	1093.97
1031.367	1088.54
1031.656	1066.62
1031.945	1035.66
1032.233	1070.92
1032.522	1050.81
1032.81	1048.32
1033.099	1032.5
1033.387	1023.69
1033.675	1034.31
1033.963	1006.97
1034.251	1041.31
1034.54	1010.81
1034.828	980.75
1035.116	995.44
1035.403	973.97
1035.691	1005.38
1035.979	973.52
1036.267	961.54
1036.554	969.45
1036.842	944.59
1037.129	953.41
1037.417	945.27
1037.704	974.42
1037.992	924.26
1038.279	919.74
1038.566	933.29
1038.853	933.29
1039.14	933.29
