Data from plate_ceramic_FLMS001491_075.txt Node
Date: Tue Feb 07 11:17:16 GMT 2017
User: dcchb
Spectrometer: FLMS00149
Trigger mode: 0
Integration Time (sec): 2.000000E-2
Scans to average: 10
Electric dark correction enabled: true
Nonlinearity correction enabled: false
Boxcar width: 0
XAxis mode: Wavelengths
Number of Pixels in Spectrum: 2048
>>>>>Begin Spectral Data<<<<<
341.393	-10.44
341.776	-10.44
342.16	-10.44
342.543	-64
342.927	-68.29
343.31	-57.44
343.693	-71
344.077	-75.29
344.46	-79.36
344.843	-49.76
345.226	-26.48
345.61	-33.94
345.993	-2.98
346.376	-15.41
346.759	26.4
347.142	28.66
347.525	37.02
347.908	51.93
348.291	64.36
348.674	87.19
349.057	116.11
349.44	124.25
349.823	129.9
350.206	173.51
350.588	201.08
350.971	221.65
351.354	258.03
351.737	237.69
352.119	274.07
352.502	265.94
352.884	281.31
353.267	285.15
353.65	316.79
354.032	319.72
354.414	321.98
354.797	319.27
355.179	331.93
355.562	307.75
355.944	338.03
356.326	329.21
356.709	351.59
357.091	349.33
357.473	363.79
357.855	370.8
358.238	368.99
358.62	361.08
359.002	364.24
359.384	353.85
359.766	374.64
360.148	350.68
360.53	344.81
360.912	364.47
361.294	344.58
361.676	369.89
362.057	346.39
362.439	358.82
362.821	367.18
363.203	350
363.584	360.63
363.966	350
364.348	337.8
364.729	352.04
365.111	350.68
365.493	354.3
365.874	335.54
366.256	346.39
366.637	359.95
367.019	344.36
367.4	356.33
367.781	353.62
368.163	354.3
368.544	340.74
368.925	335.32
369.306	342.32
369.688	337.35
370.069	368.99
370.45	354.75
370.831	363.56
371.212	372.83
371.593	361.98
371.974	375.99
372.355	366.5
372.736	348.88
373.117	344.36
373.498	360.85
373.879	356.78
374.26	351.36
374.641	371.7
375.021	368.08
375.402	377.57
375.783	371.47
376.163	397.69
376.544	398.14
376.925	363.11
377.305	392.49
377.686	406.95
378.066	387.07
378.447	388.42
378.827	399.27
379.208	407.63
379.588	395.65
379.968	401.75
380.349	405.6
380.729	418.03
381.109	410.79
381.489	432.94
381.87	411.02
382.25	419.61
382.63	413.73
383.01	433.39
383.39	427.97
383.77	454.63
384.15	437.23
384.53	449.44
384.91	449.89
385.29	473.84
385.67	443.56
386.049	466.61
386.429	453.73
386.809	462.77
387.189	468.19
387.568	477.91
387.948	485.82
388.328	498.25
388.707	484.24
389.087	488.76
389.466	469.1
389.846	500.51
390.225	509.1
390.605	514.97
390.984	510.45
391.363	506.38
391.743	500.51
392.122	528.08
392.501	508.64
392.881	523.56
393.26	537.12
393.639	545.48
394.018	537.8
394.397	539.6
394.776	573.73
395.155	554.75
395.534	579.15
395.913	574.18
396.292	580.28
396.671	596.33
397.05	597
397.429	582.77
397.808	620.73
398.186	578.02
398.565	613.73
398.944	605.37
399.323	625.48
399.701	620.05
400.08	607.85
400.458	637.23
400.837	645.36
401.215	667.96
401.594	681.07
401.972	668.64
402.351	674.97
402.729	684.01
403.107	699.83
403.486	702.54
403.864	689.88
404.242	682.88
404.62	714.29
404.999	717.23
405.377	702.99
405.755	736.89
406.133	743.89
406.511	768.3
406.889	771.69
407.267	775.08
407.645	762.88
408.023	787.28
408.401	807.85
408.779	790.9
409.156	831.57
409.534	799.94
409.912	835.64
410.29	831.8
410.667	852.59
411.045	863.44
411.422	884.91
411.8	901.18
412.178	909.76
412.555	901.4
412.933	945.92
413.31	946.15
413.687	941.63
414.065	974.85
414.442	963.55
414.819	997.67
415.197	996.99
415.574	1000.16
415.951	1025.92
416.328	1027.5
416.705	1020.27
417.082	1034.05
417.46	1080.16
417.837	1056.43
418.214	1088.74
418.591	1119.25
418.967	1110.21
419.344	1106.6
419.721	1128.29
420.098	1130.1
420.475	1163.54
420.852	1165.35
421.228	1188.63
421.605	1169.87
421.982	1210.77
422.358	1203.09
422.735	1205.58
423.111	1215.74
423.488	1250.09
423.864	1275.4
424.241	1277.44
424.617	1284.67
424.994	1289.64
425.37	1299.81
425.746	1291
426.123	1322.41
426.499	1339.13
426.875	1385.91
427.251	1375.29
427.627	1431.56
428.003	1418.68
428.379	1436.76
428.756	1443.99
429.132	1506.81
429.507	1506.58
429.883	1527.6
430.259	1513.36
430.635	1568.28
431.011	1580.48
431.387	1615.73
431.763	1665.45
432.138	1640.82
432.514	1664.77
432.89	1678.33
433.265	1690.99
433.641	1728.95
434.016	1751.32
434.392	1750.65
434.767	1787.48
435.143	1782.51
435.518	1824.99
435.894	1852.79
436.269	1865.45
436.644	1889.63
437.02	1915.16
437.395	1921.26
437.77	1930.08
438.145	1948.83
438.52	1976.18
438.895	2038.55
439.271	2030.19
439.646	2039.9
440.021	2062.73
440.395	2091.43
440.77	2067.93
441.145	2123.52
441.52	2137.3
441.895	2166.23
442.27	2179.11
442.645	2151.77
443.019	2190.41
443.394	2232.22
443.769	2246.9
444.143	2195.38
444.518	2266.34
444.892	2246.23
445.267	2261.14
445.641	2315.15
446.016	2304.3
446.39	2322.38
446.764	2368.48
447.139	2371.87
447.513	2360.57
447.887	2375.04
448.262	2406.45
448.636	2442.15
449.01	2404.87
449.384	2462.94
449.758	2509.5
450.132	2527.57
450.506	2516.5
450.88	2523.28
451.254	2564.64
451.628	2584.97
452.002	2645.99
452.376	2647.12
452.75	2688.93
453.123	2715.14
453.497	2750.85
453.871	2774.12
454.244	2873.33
454.618	2843.95
454.992	2864.97
455.365	2910.84
455.739	2953.33
456.112	3015.7
456.486	3057.28
456.859	3049.14
457.232	3086.88
457.606	3096.37
457.979	3162.81
458.352	3196.94
458.725	3247.56
459.099	3297.72
459.472	3330.94
459.845	3401.22
460.218	3408.91
460.591	3424.27
460.964	3438.51
461.337	3533.42
461.71	3582.46
462.083	3649.35
462.456	3665.85
462.829	3653.65
463.201	3741.78
463.574	3745.85
463.947	3850.7
464.32	3978.38
464.692	3910.36
465.065	3959.18
465.438	4020.42
465.81	4071.04
466.183	4101.77
466.555	4251.82
466.928	4265.83
467.3	4264.03
467.672	4362.1
468.045	4453.17
468.417	4464.47
468.789	4451.14
469.161	4556.45
469.534	4643.68
469.906	4697.24
470.278	4768.42
470.65	4802.54
471.022	4899.49
471.394	5029.2
471.766	5071.91
472.138	5113.04
472.51	5207.28
472.882	5242.76
473.253	5320.5
473.625	5413.15
473.997	5512.36
474.369	5554.84
474.74	5651.33
475.112	5795.96
475.484	5833.02
475.855	5980.37
476.227	6006.81
476.598	6162.73
476.97	6191.43
477.341	6328.15
477.713	6461.03
478.084	6467.81
478.455	6661.03
478.827	6747.12
479.198	6897.63
479.569	7006.33
479.94	7089.49
480.311	7268.69
480.682	7407.22
481.053	7537.84
481.424	7691.05
481.795	7731.05
482.166	7915.46
482.537	8001.33
482.908	8213.53
483.279	8269.34
483.65	8378.27
484.021	8574.65
484.391	8652.16
484.762	8700.07
485.133	8794.75
485.503	8925.82
485.874	9242.65
486.244	9220.73
486.615	9431.35
486.985	9540.95
487.356	9755.63
487.726	9791.34
488.097	10008.51
488.467	10052.12
488.837	10274.04
489.207	10410.98
489.578	10595.61
489.948	10631.32
490.318	10755.61
490.688	10749.73
491.058	10966.67
491.428	11095.26
491.798	11278.76
492.168	11493.89
492.538	11514.23
492.908	11666.09
493.278	11880.32
493.648	11934.79
494.017	12003.48
494.387	12155.34
494.757	12218.62
495.126	12421.78
495.496	12370.93
495.866	12542.68
496.235	12740.19
496.605	12794.2
496.974	12938.37
497.344	13071.03
497.713	13057.02
498.082	13207.07
498.452	13393.28
498.821	13440.51
499.19	13502.88
499.559	13704.68
499.928	13753.95
500.298	13768.86
500.667	13887.5
501.036	13913.72
501.405	14069.19
501.774	14080.27
502.143	14291.79
502.512	14350.99
502.88	14479.12
503.249	14527.26
503.618	14599.35
503.987	14724.54
504.356	14829.62
504.724	14870.3
505.093	14970.19
505.462	15135.38
505.83	15172.67
506.199	15366.56
506.567	15520.45
506.936	15582.15
507.304	15716.38
507.672	15857.17
508.041	15924.28
508.409	16013.77
508.777	16054
509.145	16223.94
509.514	16243.82
509.882	16454.89
510.25	16465.29
510.618	16666.86
510.986	16717.03
511.354	16910.7
511.722	17066.4
512.09	17141.2
512.458	17190.01
512.826	17481.31
513.193	17469.1
513.561	17581.64
513.929	17646.95
514.297	17894.63
514.664	17976.43
515.032	18065.92
515.4	18225.47
515.767	18363.32
516.135	18399.47
516.502	18340.72
516.869	18752.23
517.237	18969.85
517.604	18889.86
517.972	19079.23
518.339	19152.9
518.706	19248.72
519.073	19467.47
519.44	19464.53
519.808	19730.96
520.175	19743.39
520.542	20095.7
520.909	20107.45
521.276	20114.91
521.643	20457.05
522.009	20598.06
522.376	20711.5
522.743	20781.11
523.11	20990.14
523.477	21214.32
523.843	21208.89
524.21	21620.18
524.577	21752.61
524.943	21831.02
525.31	21976.78
525.676	22267.85
526.043	22180.84
526.409	22503.77
526.776	22644.33
527.142	22803.88
527.508	22979.47
527.874	23150.54
528.241	23304.88
528.607	23250.19
528.973	23679.79
529.339	23545.55
529.705	23840.46
530.071	24037.52
530.437	24261.47
530.803	24350.5
531.169	24435.25
531.535	24431.18
531.901	24554.57
532.267	24665.07
532.632	24917.72
532.998	24931.96
533.364	25140.99
533.73	25215.11
534.095	25474.99
534.461	25395
534.826	25581.21
535.192	25772.16
535.557	25916.79
535.923	26019.61
536.288	26147.74
536.653	26318.81
537.019	26279.94
537.384	26474.97
537.749	26546.6
538.114	26579.37
538.479	26600.84
538.845	26827.5
539.21	26899.14
539.575	27021.39
539.94	27104.56
540.305	27226.59
540.67	27241.05
541.034	27335.28
541.399	27561.27
541.764	27568.05
542.129	27706.12
542.494	27715.39
542.858	27911.09
543.223	27962.39
543.587	28101.59
543.952	28034.02
544.316	28133.91
544.681	28223.62
545.045	28374.35
545.41	28618.41
545.774	28673.1
546.138	28533.67
546.503	28771.4
546.867	28761.91
547.231	29018.18
547.595	29137.04
547.959	29235.8
548.324	29236.93
548.688	29400.77
549.052	29651.38
549.416	29685.73
549.779	29777.93
550.143	29759.85
550.507	30046.63
550.871	29968.89
551.235	30025.38
551.599	30337.47
551.962	30361.65
552.326	30407.97
552.689	30687.51
553.053	30521.19
553.417	30701.98
553.78	31143.32
554.143	30950.78
554.507	31169.99
554.87	31219.7
555.234	31512.35
555.597	31418.34
555.96	31606.13
556.323	31857.65
556.686	31874.15
557.05	32043.63
557.413	32065.56
557.776	32137.64
558.139	32470.97
558.502	32682.26
558.865	32642.04
559.228	32975.59
559.59	33040.22
559.953	33120.44
560.316	33332.64
560.679	33394.56
561.041	33615.34
561.404	33750.26
561.767	34125.39
562.129	33910.7
562.492	34326.96
562.854	34272.95
563.217	34353.18
563.579	34597.69
563.941	34740.74
564.304	34959.94
564.666	35006.27
565.028	35159.71
565.39	35330.1
565.753	35487.84
566.115	35551.34
566.477	35737.1
566.839	35830.88
567.201	36058.9
567.563	36084.43
567.925	36444.42
568.287	36527.81
568.648	36461.82
569.01	36805.32
569.372	37019.1
569.734	36857.29
570.095	37131.41
570.457	37257.74
570.819	37478.52
571.18	37526.2
571.542	37617.05
571.903	37671.74
572.265	37935.46
572.626	37965.51
572.987	38082.57
573.349	38222.23
573.71	38533.86
574.071	38377.03
574.432	38500.41
574.794	38726.62
575.155	38786.28
575.516	38591.26
575.877	38766.62
576.238	38993.06
576.599	39123.9
576.96	39109.21
577.32	39253.16
577.681	39283.44
578.042	39526.38
578.403	39513.04
578.763	39593.72
579.124	39675.07
579.485	39873.26
579.845	39794.39
580.206	39758.69
580.566	39782.87
580.927	39765.69
581.287	39965.23
581.648	39695.86
582.008	40056.08
582.368	39995.52
582.728	39921.39
583.089	40027.15
583.449	40066.25
583.809	40089.07
584.169	40271.22
584.529	40222.85
584.889	40336.07
585.249	40129.3
585.609	40123.2
585.969	40414.71
586.329	40292.23
586.688	40470.98
587.048	40203.19
587.408	40219.01
587.768	40259.69
588.127	40179.69
588.487	40176.53
588.846	40643.18
589.206	40326.13
589.565	40193.93
589.925	40431.66
590.284	40296.3
590.643	40491.1
591.003	40523.64
591.362	40657.65
591.721	40548.5
592.08	40490.19
592.44	40738.1
592.799	40799.56
593.158	40688.15
593.517	40686.57
593.876	40600.02
594.235	40577.65
594.593	40757.98
594.952	40772.67
595.311	40561.6
595.67	40787.36
596.029	40978.32
596.387	40946.68
596.746	41098.31
597.104	40738.77
597.463	40775.16
597.822	41040.69
598.18	40851.31
598.538	40990.74
598.897	41134.47
599.255	40975.83
599.613	41484.97
599.972	41164.07
600.33	41381.47
600.688	41087.46
601.046	41387.8
601.404	41390.51
601.762	41280.45
602.12	41449.49
602.478	41492.2
602.836	41520.67
603.194	41334.69
603.552	41401.35
603.91	41364.75
604.268	41551.41
604.625	41413.56
604.983	41559.09
605.341	41350.06
605.698	41629.82
606.056	41804.51
606.413	41619.2
606.771	41868.46
607.128	41905.07
607.485	41793.89
607.843	41872.98
608.2	41920.89
608.557	42001.34
608.914	41875.47
609.272	42171.5
609.629	42153.43
609.986	42348
610.343	42201.79
610.7	42487.2
611.057	42406.53
611.414	42385.28
611.771	42320.65
612.127	42408.11
612.484	42546.18
612.841	42666.86
613.198	42633.19
613.554	42627.31
613.911	42824.59
614.267	42846.51
614.624	42720.19
614.98	42762
615.337	43091.03
615.693	42885.16
616.05	42962.44
616.406	43150.01
616.762	42991.6
617.118	42993.4
617.475	43083.34
617.831	43125.83
618.187	43161.31
618.543	43129.9
618.899	43273.62
619.255	43295.54
619.611	43168.31
619.967	43139.84
620.323	43493.96
620.678	43404.47
621.034	43209.22
621.39	43205.83
621.746	43244.47
622.101	43662.99
622.457	43321.53
622.812	43458.02
623.168	43594.29
623.523	43492.15
623.879	43618.47
624.234	43267.75
624.589	43523.56
624.945	43516.33
625.3	43583.67
625.655	43585.25
626.01	43509.1
626.365	43496.22
626.72	43487.18
627.075	43446.95
627.43	43422.54
627.785	43442.43
628.14	43518.81
628.495	43382.55
628.85	43362.66
629.205	43212.61
629.559	43567.17
629.914	43376.9
630.269	43348.87
630.623	43279.05
630.978	43199.27
631.332	43306.16
631.687	43177.58
632.041	43137.13
632.396	43171.48
632.75	43072.27
633.104	42968.77
633.459	42853.75
633.813	42782.56
634.167	42740.75
634.521	42813.75
634.875	42674.32
635.229	42675.9
635.583	42559.74
635.937	42606.75
636.291	42537.37
636.645	42596.13
636.999	42521.55
637.352	42685.61
637.706	42531.95
638.06	42545.51
638.413	42387.77
638.767	42187.77
639.121	42342.12
639.474	42019.42
639.828	42095.35
640.181	42110.94
640.534	42158.85
640.888	42070.49
641.241	41820.78
641.594	41916.14
641.947	42007.21
642.301	41945.3
642.654	41959.31
643.007	41827.78
643.36	41791.4
643.713	41707.56
644.066	41802.47
644.419	41440
644.771	41219.89
645.124	40811.54
645.477	40621.71
645.83	40600.47
646.182	40427.37
646.535	40198.45
646.888	40451.78
647.24	40185.57
647.593	40525.22
647.945	40270.31
648.298	40092.24
648.65	39988.06
649.002	39833.94
649.355	40082.07
649.707	39936.08
650.059	40047.94
650.411	40485.9
650.763	40606.35
651.115	41051.76
651.467	40877.53
651.819	40913.68
652.171	40713.69
652.523	40671.88
652.875	40633.24
653.227	40471.89
653.578	40807.25
653.93	40672.33
654.282	40470.98
654.633	40352.79
654.985	40408.39
655.337	40485.22
655.688	40518.89
656.039	40351.66
656.391	40096.3
656.742	40148.73
657.094	40245.91
657.445	40346.92
657.796	40119.81
658.147	40160.48
658.498	40221.72
658.849	40164.78
659.2	40257.66
659.551	39951.9
659.902	40130.43
660.253	40021.96
660.604	40090.43
660.955	39936.08
661.306	40051.56
661.656	39941.28
662.007	40026.02
662.358	39841.4
662.708	39844.33
663.059	40005.46
663.409	39721.17
663.76	39921.39
664.11	39844.11
664.461	39809.53
664.811	39876.42
665.161	39776.76
665.511	39761.17
665.862	39676.65
666.212	39971.79
666.562	39741.96
666.912	39713.26
667.262	39676.2
667.612	39695.64
667.962	39572.93
668.312	39571.12
668.662	39621.06
669.011	39587.84
669.361	39471.46
669.711	39560.95
670.06	39457
670.41	39400.73
670.76	39378.58
671.109	39466.04
671.459	39311.24
671.808	39446.15
672.157	39247.51
672.507	39053.62
672.856	39102.21
673.205	39294.74
673.554	39328.64
673.904	39117.8
674.253	39377.23
674.602	39163.22
674.951	38838.71
675.3	38541.09
675.649	39072.15
675.998	39081.64
676.346	39024.92
676.695	39047.97
677.044	38851.59
677.393	39095.88
677.741	38978.59
678.09	38794.64
678.438	38865.15
678.787	38717.58
679.135	38916.9
679.484	38645.04
679.832	38851.14
680.181	38427.42
680.529	38604.59
680.877	38410.93
681.225	38364.82
681.573	38648.66
681.922	38312.85
682.27	38205.05
682.618	38377.03
682.966	38212.74
683.314	38285.28
683.661	38233.3
684.009	37901.56
684.357	38017.26
684.705	37866.53
685.053	37768
685.4	37790.38
685.748	37617.5
686.095	37668.35
686.443	37499.31
686.79	37423.83
687.138	37436.71
687.485	37491.18
687.832	37302.48
688.18	37282.82
688.527	37287.11
688.874	37128.25
689.221	37000.34
689.568	36869.95
689.915	36882.38
690.262	36880.8
690.609	36786.11
690.956	36692.55
691.303	36628.6
691.65	36436.29
691.997	36453.24
692.344	36300.7
692.69	36270.42
693.037	36377.76
693.383	36031.1
693.73	36228.38
694.077	35910.88
694.423	35844.66
694.769	35853.25
695.116	35757.66
695.462	35692.8
695.808	35472.25
696.155	35460.95
696.501	35240.84
696.847	35079.26
697.193	34950.9
697.539	35068.87
697.885	34801.98
698.231	34789.33
698.577	34799.49
698.923	34644.02
699.269	34484.02
699.614	34401.09
699.96	34214.88
700.306	34326.74
700.651	34151.38
700.997	34105.95
701.342	34103.92
701.688	34063.24
702.033	33878.16
702.379	33882.91
702.724	33767.66
703.069	33752.74
703.415	33359.98
703.76	33415.8
704.105	33496.03
704.45	33278.4
704.795	33169.93
705.14	33112.99
705.485	32952.99
705.83	32991.41
706.175	32969.49
706.52	32920.9
706.865	32724.75
707.209	32758.64
707.554	32673.22
707.899	32680.23
708.243	32553.45
708.588	32485.88
708.932	32196.17
709.277	32221.03
709.621	32175.38
709.966	32009.51
710.31	32120.24
710.654	31822.17
710.998	31877.99
711.342	31805
711.687	31709.41
712.031	31518
712.375	31520.94
712.719	31683.87
713.063	31461.73
713.407	31627.15
713.75	31268.51
714.094	31271.45
714.438	31199.59
714.782	31313.26
715.125	31104.22
715.469	31201.17
715.812	30971.8
716.156	30912.82
716.499	30894.96
716.843	30830.11
717.186	30709.21
717.53	30791.01
717.873	30749.43
718.216	30704.91
718.559	30496.33
718.902	30238.94
719.246	30569.32
719.589	30382.66
719.932	30199.16
720.275	30128.66
720.617	30163.01
720.96	29997.81
721.303	29991.94
721.646	30016.8
721.989	29848.21
722.331	29916.01
722.674	29762.79
723.016	29881.88
723.359	29730.02
723.701	29803.24
724.044	29495.45
724.386	29292.07
724.729	29569.58
725.071	29503.81
725.413	29457.04
725.755	29400.54
726.097	29260.21
726.439	29038.06
726.782	29086.2
727.124	29276.7
727.465	29033.77
727.807	29033.77
728.149	29025.18
728.491	28861.8
728.833	28962.13
729.175	28860.89
729.516	28891.4
729.858	28808.69
730.199	28774.79
730.541	28762.37
730.882	28624.97
731.224	28678.75
731.565	28514.46
731.906	28647.34
732.248	28462.49
732.589	28300
732.93	28307.91
733.271	28317.86
733.612	28374.35
733.953	28266.79
734.294	28167.58
734.635	28074.93
734.976	28171.65
735.317	28066.11
735.658	28077.64
735.999	27955.61
736.339	27997.64
736.68	28042.84
737.021	27926.23
737.361	27820.92
737.702	27902.73
738.042	27736.86
738.383	27726.01
738.723	27674.48
739.063	27636.07
739.404	27557.88
739.744	27544.32
740.084	27415.51
740.424	27482.17
740.764	27446.02
741.104	27599.46
741.444	27298.67
741.784	27215.29
742.124	27341.84
742.464	27137.1
742.804	27064.78
743.143	27159.92
743.483	27028.4
743.823	26893.04
744.162	26983.65
744.502	27007.61
744.841	26910.89
745.181	26928.52
745.52	26783.89
745.86	26903.66
746.199	26816.88
746.538	26679.03
746.877	26629.77
747.216	26654.17
747.556	26505.48
747.895	26553.16
748.234	26491.24
748.573	26334.63
748.911	26340.96
749.25	26372.37
749.589	26230.23
749.928	26223.22
750.267	26292.15
750.605	26039.72
750.944	26077.69
751.283	26001.53
751.621	26112.27
751.96	25912.5
752.298	25827.75
752.636	25867.3
752.975	25671.15
753.313	25604.71
753.651	25734.87
753.989	25516.12
754.327	25508.44
754.666	25338.5
755.004	25455.11
755.342	25341.44
755.679	25376.69
756.017	25186.19
756.355	25232.06
756.693	25131.5
757.031	25217.83
757.368	25002.01
757.706	24898.96
758.044	24845.63
758.381	24899.19
758.719	24819.64
759.056	24767.89
759.394	24619.65
759.731	24434.8
760.068	24607.22
760.405	24411.52
760.743	24441.12
761.08	24467.56
761.417	24334.69
761.754	24139.89
762.091	24136.72
762.428	23945.99
762.765	23766.79
763.102	23910.97
763.438	23823.06
763.775	23798.65
764.112	23806.56
764.449	23668.04
764.785	23642.27
765.122	23372.22
765.458	23300.81
765.795	23327.03
766.131	23348.72
766.467	23195.28
766.804	23054.49
767.14	22887.27
767.476	22965
767.812	22912.58
768.148	22848.17
768.485	22690.89
768.821	22507.39
769.157	22530.66
769.492	22440.05
769.828	22314.85
770.164	22258.58
770.5	22244.57
770.836	22296.32
771.171	22104.91
771.507	22078.93
771.842	21874.18
772.178	21958.7
772.513	21669.44
772.849	21743.79
773.184	21567.53
773.519	21585.83
773.855	21525.49
774.19	21362.56
774.525	21312.39
774.86	21313.07
775.195	21236.91
775.53	21092.51
775.865	20982.68
776.2	20958.73
776.535	20704.27
776.87	20710.37
777.205	20729.36
777.539	20562.58
777.874	20653.2
778.209	20380.89
778.543	20439.65
778.878	20315.58
779.212	20288.69
779.547	20114.01
779.881	20108.81
780.215	19972.54
780.55	20019.54
780.884	19966.44
781.218	19848.48
781.552	19844.18
781.886	19729.61
782.22	19525.32
782.554	19591.76
782.888	19467.69
783.222	19383.85
783.556	19229.96
783.889	19281.71
784.223	19057.31
784.557	19023.86
784.89	19051.43
785.224	18922.17
785.557	18841.5
785.891	18827.49
786.224	18641.28
786.558	18676.98
786.891	18582.75
787.224	18494.16
787.557	18435.86
787.891	18521.05
788.224	18430.21
788.557	18387.95
788.89	18341.17
789.223	18225.02
789.556	18108.41
789.888	17978.47
790.221	17964.91
790.554	17828.19
790.887	17830.68
791.219	17747.97
791.552	17749.32
791.884	17655.99
792.217	17560.85
792.549	17576.9
792.882	17471.81
793.214	17438.82
793.546	17403.57
793.879	17241.09
794.211	17162.22
794.543	17153.63
794.875	17110.69
795.207	17050.13
795.539	17022.11
795.871	17046.74
796.203	16879.51
796.535	16716.81
796.867	16713.42
797.198	16672.29
797.53	16638.84
797.862	16523.82
798.193	16620.09
798.525	16478.62
798.856	16537.6
799.188	16336.48
799.519	16342.13
799.85	16248.8
800.182	16277.27
800.513	16214.22
800.844	16132.64
801.175	16184.16
801.506	16053.32
801.837	16081.79
802.168	15936.49
802.499	15886.09
802.83	15856.26
803.161	15827.11
803.491	15808.13
803.822	15707.79
804.153	15586.21
804.483	15466.9
804.814	15516.16
805.145	15458.76
805.475	15444.75
805.805	15307.35
806.136	15383.73
806.466	15416.73
806.796	15265.09
807.126	15279.56
807.457	15202.27
807.787	15137.19
808.117	15026.91
808.447	14970.86
808.777	15010.64
809.107	14986.46
809.436	14892.22
809.766	14918.44
810.096	14815.39
810.426	14815.39
810.755	14726.12
811.085	14704.43
811.414	14659.91
811.744	14453.81
812.073	14551.89
812.403	14530.65
812.732	14404.1
813.061	14471.89
813.39	14401.39
813.719	14360.71
814.049	14383.53
814.378	14273.25
814.707	14234.84
815.036	14303.31
815.365	14229.19
815.693	14059.25
816.022	14058.8
816.351	14044.56
816.68	14019.48
817.008	14078.23
817.337	13894.06
817.665	13831.46
817.994	13888.63
818.322	13976.77
818.651	13799.37
818.979	13781.06
819.307	13900.38
819.636	13730.67
819.964	13702.65
820.292	13619.49
820.62	13761.4
820.948	13658.81
821.276	13611.13
821.604	13539.26
821.932	13643.67
822.259	13631.01
822.587	13566.83
822.915	13609.32
823.243	13548.98
823.57	13598.47
823.898	13572.48
824.225	13483.9
824.553	13504.69
824.88	13517.79
825.207	13518.02
825.535	13462.2
825.862	13525.93
826.189	13480.28
826.516	13475.31
826.843	13486.16
827.17	13603.89
827.497	13525.25
827.824	13464.01
828.151	13518.7
828.478	13416.78
828.805	13572.26
829.131	13431.24
829.458	13400.28
829.785	13383.56
830.111	13414.29
830.438	13461.07
830.764	13427.4
831.09	13468.76
831.417	13318.93
831.743	13415.42
832.069	13389.44
832.395	13407.29
832.722	13454.07
833.048	13347.4
833.374	13331.81
833.7	13337.01
834.026	13380.85
834.351	13316.9
834.677	13319.16
835.003	13342.88
835.329	13308.31
835.654	13264.69
835.98	13287.52
836.306	13212.49
836.631	13122.1
836.956	13195.32
837.282	13221.53
837.607	13146.05
837.932	13151.7
838.258	13118.03
838.583	13075.55
838.908	13031.25
839.233	13016.79
839.558	12930.92
839.883	12972.05
840.208	12919.84
840.533	12929.34
840.858	12870.13
841.182	12875.1
841.507	12890.92
841.832	12756.01
842.156	12731.37
842.481	12779.73
842.805	12754.2
843.13	12705.84
843.454	12755.78
843.778	12615.45
844.103	12610.25
844.427	12610.25
844.751	12606.18
845.075	12560.76
845.399	12462.45
845.723	12380.2
846.047	12443.7
846.371	12323.7
846.695	12237.38
847.019	12214.33
847.343	12185.63
847.666	12154.44
847.99	12035.57
848.313	12134.78
848.637	11979.76
848.96	11961.9
849.284	11968.91
849.607	11892.53
849.931	11805.75
850.254	11672.65
850.577	11688.69
850.9	11571.18
851.223	11608.47
851.546	11603.72
851.869	11553.78
852.192	11528.92
852.515	11464.51
852.838	11391.75
853.161	11327.12
853.483	11313.56
853.806	11276.05
854.129	11264.97
854.451	11197.63
854.774	11132.55
855.096	11153.79
855.419	11151.98
855.741	10994.7
856.063	10951.53
856.385	10905.43
856.708	10857.53
857.03	10930.97
857.352	10863.17
857.674	10836.28
857.996	10745.44
858.318	10709.28
858.64	10650.98
858.961	10701.82
859.283	10655.5
859.605	10591.32
859.926	10655.27
860.248	10559.45
860.57	10498.66
860.891	10563.3
861.212	10470.42
861.534	10403.98
861.855	10458.67
862.176	10438.1
862.498	10440.36
862.819	10455.28
863.14	10417.08
863.461	10381.83
863.782	10334.38
864.103	10358.33
864.424	10226.36
864.745	10287.14
865.065	10228.16
865.386	10135.51
865.707	10182.29
866.027	10168.96
866.348	10169.18
866.668	10215.73
866.989	10199.92
867.309	9995.4
867.63	10112.69
867.95	10076.75
868.27	10016.42
868.59	9991.33
868.91	9975.51
869.23	10026.13
869.55	9984.1
869.87	10014.38
870.19	10012.58
870.51	9963.76
870.83	9986.81
871.15	9886.7
871.469	9875.4
871.789	9880.6
872.109	9848.74
872.428	9842.86
872.748	9786.37
873.067	9826.14
873.386	9774.39
873.706	9770.55
874.025	9721.51
874.344	9773.49
874.663	9752.92
874.982	9694.84
875.301	9735.07
875.62	9682.64
875.939	9575.3
876.258	9636.99
876.577	9599.71
876.896	9614.62
877.214	9557.67
877.533	9532.81
877.852	9543.21
878.17	9524.45
878.489	9559.71
878.807	9478.13
879.125	9526.03
879.444	9444.23
879.762	9418.24
880.08	9419.82
880.398	9383.44
880.716	9393.61
881.034	9286.72
881.352	9348.86
881.67	9288.75
881.988	9349.77
882.306	9311.35
882.624	9315.19
882.941	9280.39
883.259	9183.44
883.577	9205.37
883.894	9136.44
884.212	9100.96
884.529	9167.63
884.846	9145.48
885.164	9102.32
885.481	9080.17
885.798	9081.3
886.115	8923.79
886.432	8963.56
886.75	8998.37
887.067	8959.72
887.383	8922.89
887.7	8914.75
888.017	8833.85
888.334	8900.74
888.651	8800.18
888.967	8834.75
889.284	8791.59
889.6	8768.77
889.917	8711.82
890.233	8759.95
890.55	8734.64
890.866	8738.94
891.182	8711.37
891.498	8664.36
891.815	8573.74
892.131	8557.47
892.447	8535.1
892.763	8486.06
893.079	8545.72
893.395	8488.77
893.71	8479.06
894.026	8441.09
894.342	8447.65
894.657	8313.41
894.973	8313.19
895.289	8312.06
895.604	8312.73
895.92	8296.24
896.235	8193.41
896.55	8190.7
896.865	8161.55
897.181	8118.16
897.496	8183.92
897.811	8093.3
898.126	8046.07
898.441	8056.92
898.756	8082.68
899.071	8014.89
899.386	8045.4
899.7	7917.49
900.015	7923.37
900.33	7869.81
900.644	7787.55
900.959	7862.12
901.273	7872.29
901.588	7794.33
901.902	7749.81
902.216	7748
902.531	7611.73
902.845	7639.3
903.159	7614.45
903.473	7565.41
903.787	7495.35
904.101	7518.63
904.415	7498.07
904.729	7455.58
905.042	7427.33
905.356	7339.88
905.67	7397.96
905.984	7379.2
906.297	7316.15
906.611	7287.68
906.924	7267.79
907.237	7279.09
907.551	7251.97
907.864	7188.7
908.177	7191.41
908.491	7183.95
908.804	7115.02
909.117	7079.55
909.43	7016.27
909.743	6981.24
910.056	6977.18
910.368	6960
910.681	6972.2
910.994	6899.66
911.307	6919.1
911.619	6839.1
911.932	6858.53
912.244	6817.86
912.557	6775.15
912.869	6769.72
913.181	6686.11
913.494	6708.48
913.806	6675.71
914.118	6671.87
914.43	6562.04
914.742	6590.97
915.054	6570.18
915.366	6578.09
915.678	6503.74
915.99	6513.01
916.302	6463.52
916.613	6399.79
916.925	6407.7
917.236	6414.93
917.548	6334.71
917.859	6298.78
918.171	6255.39
918.482	6257.19
918.794	6259.23
919.105	6153.02
919.416	6156.86
919.727	6124.32
920.038	6091.32
920.349	6077.76
920.66	6045.45
920.971	6037.09
921.282	6028.27
921.593	6004.09
921.903	5969.07
922.214	5969.74
922.525	5924.77
922.835	5916.86
923.146	5878
923.456	5846.13
923.767	5809.07
924.077	5826.92
924.387	5759.35
924.697	5721.39
925.008	5701.05
925.318	5717.55
925.628	5661.5
925.938	5633.03
926.248	5622.86
926.558	5562.52
926.867	5608.17
927.177	5572.69
927.487	5559.81
927.796	5522.52
928.106	5474.39
928.416	5474.39
928.725	5404.79
929.034	5349.65
929.344	5379.93
929.653	5349.2
929.962	5298.35
930.271	5290.21
930.581	5330.21
930.89	5260.38
931.199	5273.94
931.508	5206.15
931.817	5218.58
932.125	5210.44
932.434	5202.76
932.743	5144.46
933.051	5113.72
933.36	5135.19
933.669	5087.28
933.977	5038.02
934.286	5020.84
934.594	5003.44
934.902	5012.48
935.21	4941.75
935.519	4962.76
935.827	4943.1
936.135	4891.13
936.443	4882.54
936.751	4884.12
937.059	4868.3
937.367	4833.73
937.674	4811.13
937.982	4799.83
938.29	4744.47
938.597	4778.82
938.905	4699.27
939.213	4684.35
939.52	4680.06
939.827	4671.47
940.135	4608.88
940.442	4576.79
940.749	4592.61
941.056	4585.6
941.363	4553.28
941.67	4564.13
941.977	4517.8
942.284	4461.76
942.591	4482.78
942.898	4425.6
943.205	4428.09
943.511	4393.74
943.818	4372.5
944.125	4341.99
944.431	4303.8
944.738	4358.94
945.044	4309.67
945.35	4299.28
945.657	4295.66
945.963	4251.6
946.269	4269.45
946.575	4250.02
946.881	4220.86
947.187	4192.62
947.493	4159.17
947.799	4147.42
948.105	4110.58
948.41	4119.62
948.716	4128.66
949.022	4074.65
949.327	4098.38
949.633	4060.87
949.938	4057.93
950.244	4002.11
950.549	3984.71
950.854	3956.24
951.16	3988.55
951.465	3971.83
951.77	3950.81
952.075	3933.41
952.38	3880.53
952.685	3895.22
952.99	3858.84
953.294	3882.34
953.599	3830.82
953.904	3827.2
954.209	3770.71
954.513	3757.37
954.818	3732.51
955.122	3758.73
955.426	3704.94
955.731	3700.88
956.035	3720.09
956.339	3669.47
956.643	3722.35
956.948	3614.33
957.252	3651.16
957.556	3581.33
957.86	3578.62
958.163	3532.75
958.467	3582.69
958.771	3554.67
959.075	3547.43
959.378	3523.03
959.682	3546.08
959.985	3499.07
960.289	3454.1
960.592	3510.83
960.896	3401
961.199	3417.95
961.502	3421.11
961.805	3394.9
962.108	3373.88
962.411	3361.23
962.714	3349.25
963.017	3346.54
963.32	3372.3
963.623	3264.5
963.926	3293.66
964.228	3278.52
964.531	3267.67
964.833	3259.08
965.136	3245.52
965.438	3184.51
965.741	3218.18
966.043	3202.59
966.345	3149.71
966.648	3189.93
966.95	3164.39
967.252	3164.62
967.554	3101.8
967.856	3113.1
968.158	3103.38
968.46	3106.99
968.761	3079.88
969.063	3065.87
969.365	3028.58
969.666	3059.09
969.968	2971.86
970.269	3016.6
970.571	3025.41
970.872	3007.11
971.174	2957.17
971.475	2948.35
971.776	2933.21
972.077	2910.16
972.378	2947
972.679	2894.8
972.98	2919.65
973.281	2902.25
973.582	2861.58
973.883	2875.36
974.183	2857.74
974.484	2838.98
974.785	2834.46
975.085	2816.83
975.386	2781.58
975.686	2789.49
975.986	2790.62
976.287	2784.07
976.587	2765.53
976.887	2735.03
977.187	2732.32
977.487	2733.9
977.787	2697.97
978.087	2713.78
978.387	2701.58
978.687	2680.11
978.987	2710.39
979.286	2620.45
979.586	2641.7
979.885	2606.44
980.185	2590.85
980.484	2588.36
980.784	2561.02
981.083	2578.87
981.382	2571.42
981.682	2580.91
981.981	2562.15
982.28	2508.59
982.579	2521.02
982.878	2506.33
983.177	2486.22
983.475	2511.53
983.774	2474.24
984.073	2464.98
984.372	2423.85
984.67	2460.01
984.969	2442.15
985.267	2434.02
985.566	2421.36
985.864	2377.97
986.162	2367.35
986.461	2389.05
986.759	2367.13
987.057	2329.84
987.355	2333.23
987.653	2355.83
987.951	2299.33
988.249	2323.06
988.547	2303.17
988.844	2304.53
989.142	2293.46
989.44	2276.28
989.737	2264.08
990.035	2256.62
990.332	2241.25
990.63	2236.73
990.927	2239.9
991.224	2224.76
991.521	2223.85
991.819	2211.65
992.116	2204.42
992.413	2221.37
992.71	2154.25
993.006	2181.37
993.303	2150.41
993.6	2134.59
993.897	2130.75
994.193	2140.92
994.49	2090.52
994.787	2080.13
995.083	2109.96
995.379	2069.28
995.676	2047.14
995.972	2050.75
996.268	2045.33
996.565	2043.07
996.861	2006.91
997.157	2019.57
997.453	2031.54
997.749	1968.49
998.044	1988.38
998.34	1982.96
998.636	1938.89
998.932	1960.81
999.227	1952.9
999.523	1953.8
999.818	1944.77
1000.114	1902.51
1000.409	1901.38
1000.704	1895.95
1001	1877.2
1001.295	1892.79
1001.59	1870.87
1001.885	1855.28
1002.18	1886.01
1002.475	1809.63
1002.77	1812.79
1003.065	1811.89
1003.359	1824.99
1003.654	1825.45
1003.949	1810.31
1004.243	1779.35
1004.538	1770.76
1004.832	1788.16
1005.127	1750.19
1005.421	1763.08
1005.715	1732.57
1006.009	1736.41
1006.304	1733.02
1006.598	1680.14
1006.892	1690.31
1007.186	1693.02
1007.48	1667.71
1007.773	1661.83
1008.067	1642.63
1008.361	1631.33
1008.655	1634.72
1008.948	1630.42
1009.242	1635.17
1009.535	1629.75
1009.829	1608.95
1010.122	1580.93
1010.415	1583.87
1010.708	1593.59
1011.001	1582.74
1011.295	1579.58
1011.588	1592.01
1011.881	1554.72
1012.173	1535.28
1012.466	1527.83
1012.759	1518.34
1013.052	1520.82
1013.344	1488.28
1013.637	1501.16
1013.93	1475.4
1014.222	1477.88
1014.514	1443.31
1014.807	1460.48
1015.099	1445.8
1015.391	1453.48
1015.683	1391.33
1015.976	1427.72
1016.268	1404.89
1016.56	1408.73
1016.851	1399.47
1017.143	1392.92
1017.435	1408.73
1017.727	1369.19
1018.018	1358.79
1018.31	1356.31
1018.602	1344.56
1018.893	1340.49
1019.185	1335.29
1019.476	1320.6
1019.767	1286.93
1020.058	1298.45
1020.35	1285.12
1020.641	1286.25
1020.932	1269.98
1021.223	1261.39
1021.514	1279.92
1021.804	1262.98
1022.095	1257.78
1022.386	1255.07
1022.677	1238.12
1022.967	1231.34
1023.258	1242.64
1023.548	1213.26
1023.839	1195.86
1024.129	1182.75
1024.419	1179.36
1024.709	1183.2
1025	1152.24
1025.29	1167.61
1025.58	1157.67
1025.87	1144.33
1026.16	1112.92
1026.449	1151.79
1026.739	1121.96
1027.029	1121.96
1027.319	1108.18
1027.608	1093.04
1027.898	1089.65
1028.187	1105.69
1028.477	1099.14
1028.766	1081.06
1029.055	1080.16
1029.344	1062.3
1029.634	1033.38
1029.923	1035.41
1030.212	1062.3
1030.501	1030.66
1030.79	1030.89
1031.078	1008.74
1031.367	1006.71
1031.656	1003.77
1031.945	1009.87
1032.233	986.37
1032.522	976.66
1032.81	1005.13
1033.099	979.59
1033.387	969.88
1033.675	953.83
1033.963	947.73
1034.251	968.75
1034.54	928.52
1034.828	946.6
1035.116	928.75
1035.403	917.67
1035.691	916.77
1035.979	934.85
1036.267	886.26
1036.554	899.37
1036.842	913.38
1037.129	899.82
1037.417	887.39
1037.704	901.63
1037.992	871.8
1038.279	849.43
1038.566	905.24
1038.853	905.24
1039.14	905.24
