Data from plate_ceramic_FLMS001491_073.txt Node
Date: Tue Feb 07 11:17:16 GMT 2017
User: dcchb
Spectrometer: FLMS00149
Trigger mode: 0
Integration Time (sec): 2.000000E-2
Scans to average: 10
Electric dark correction enabled: true
Nonlinearity correction enabled: false
Boxcar width: 0
XAxis mode: Wavelengths
Number of Pixels in Spectrum: 2048
>>>>>Begin Spectral Data<<<<<
341.393	-34.07
341.776	-34.07
342.16	-34.07
342.543	-38.36
342.927	-53.5
343.31	-70.9
343.693	-80.39
344.077	-63.67
344.46	-60.28
344.843	-64.8
345.226	-26.84
345.61	-29.32
345.993	-10.56
346.376	-22.09
346.759	27.85
347.142	21.07
347.525	41.41
347.908	62.2
348.291	81.18
348.674	92.71
349.057	102.43
349.44	113.73
349.823	143.33
350.206	161.86
350.588	224.01
350.971	216.1
351.354	231.24
351.737	259.03
352.119	262.42
352.502	253.16
352.884	281.18
353.267	288.41
353.65	313.72
354.032	310.1
354.414	325.7
354.797	329.54
355.179	341.29
355.562	334.74
355.944	360.72
356.326	354.17
356.709	369.09
357.091	329.99
357.473	356.43
357.855	356.43
358.238	338.8
358.62	369.31
359.002	364.57
359.384	354.17
359.766	368.86
360.148	364.34
360.53	362.98
360.912	367.96
361.294	358.24
361.676	353.04
362.057	365.47
362.439	369.09
362.821	370.22
363.203	358.69
363.584	368.18
363.966	373.15
364.348	365.02
364.729	357.56
365.111	370.44
365.493	362.76
365.874	349.65
366.256	351.01
366.637	347.17
367.019	382.42
367.4	365.92
367.781	358.69
368.163	350.56
368.544	341.74
368.925	370.67
369.306	369.09
369.688	360.27
370.069	360.95
370.45	364.79
370.831	377.22
371.212	381.29
371.593	349.65
371.974	362.31
372.355	379.26
372.736	383.1
373.117	381.97
373.498	383.55
373.879	375.87
374.26	372.02
374.641	367.73
375.021	377.9
375.402	366.15
375.783	389.88
376.163	409.09
376.544	409.99
376.925	419.48
377.305	395.07
377.686	399.37
378.066	396.2
378.447	412.7
378.827	412.25
379.208	429.42
379.588	401.18
379.968	453.83
380.349	425.58
380.729	417.22
381.109	421.51
381.489	428.52
381.87	437.56
382.25	410.67
382.63	424.23
383.01	424.23
383.39	447.05
383.77	442.3
384.15	436.43
384.53	443.66
384.91	439.59
385.29	455.64
385.67	459.03
386.049	465.58
386.429	450.67
386.809	483.89
387.189	471
387.568	456.99
387.948	482.76
388.328	465.35
388.707	503.09
389.087	466.48
389.466	484.56
389.846	503.09
390.225	516.88
390.605	524.11
390.984	508.07
391.363	533.38
391.743	529.76
392.122	518.69
392.501	534.51
392.881	551.91
393.26	532.7
393.639	542.42
394.018	556.65
394.397	555.97
394.776	590.1
395.155	570.66
395.534	578.8
395.913	565.24
396.292	585.8
396.671	600.27
397.05	598.68
397.429	590.1
397.808	611.57
398.186	622.64
398.565	602.98
398.944	609.76
399.323	628.06
399.701	638.68
400.08	662.19
400.458	653.15
400.837	647.72
401.215	651.11
401.594	647.5
401.972	682.07
402.351	698.34
402.729	703.77
403.107	696.54
403.486	696.76
403.864	694.73
404.242	700.38
404.62	724.56
404.999	724.11
405.377	724.78
405.755	721.85
406.133	754.16
406.511	748.74
406.889	760.26
407.267	794.39
407.645	796.65
408.023	800.71
408.401	804.33
408.779	813.59
409.156	852.24
409.534	845.68
409.912	846.59
410.29	842.29
410.667	870.09
411.045	873.25
411.422	918.68
411.8	895.4
412.178	921.39
412.555	948.28
412.933	942.86
413.31	959.81
413.687	968.84
414.065	960.71
414.442	968.17
414.819	1000.48
415.197	995.06
415.574	998.67
415.951	1038.9
416.328	1045
416.705	1026.7
417.082	1040.03
417.46	1063.76
417.837	1082.97
418.214	1108.05
418.591	1056.07
418.967	1104.89
419.344	1112.12
419.721	1128.39
420.098	1140.59
420.475	1147.14
420.852	1149.86
421.228	1175.39
421.605	1199.8
421.982	1183.3
422.358	1213.13
422.735	1236.63
423.111	1233.7
423.488	1263.53
423.864	1238.89
424.241	1280.7
424.617	1265.56
424.994	1301.04
425.37	1325.22
425.746	1300.36
426.123	1343.75
426.499	1366.8
426.875	1374.71
427.251	1393.47
427.627	1426.23
428.003	1424.88
428.379	1461.49
428.756	1482.5
429.132	1493.8
429.507	1515.27
429.883	1503.29
430.259	1536.97
430.635	1571.54
431.011	1575.16
431.387	1611.31
431.763	1630.75
432.138	1650.41
432.514	1663.52
432.89	1653.35
433.265	1696.74
433.641	1727.02
434.016	1740.35
434.392	1786.22
434.767	1817.64
435.143	1801.14
435.518	1834.81
435.894	1847.69
436.269	1836.62
436.644	1890.63
437.02	1935.82
437.395	1937.63
437.77	1963.17
438.145	1979.44
438.52	1978.76
438.895	2022.6
439.271	1993
439.646	2038.42
440.021	2082.94
440.395	2070.06
440.77	2064.18
441.145	2107.35
441.52	2175.37
441.895	2182.6
442.27	2157.29
442.645	2165.65
443.019	2229.15
443.394	2197.96
443.769	2240.45
444.143	2249.49
444.518	2273.44
444.892	2275.25
445.267	2268.7
445.641	2281.13
446.016	2302.37
446.39	2355.25
446.764	2359.54
447.139	2323.61
447.513	2365.87
447.887	2390.73
448.262	2403.61
448.636	2445.64
449.01	2486.54
449.384	2484.74
449.758	2497.39
450.132	2588.69
450.506	2562.7
450.88	2565.86
451.254	2587.79
451.628	2622.59
452.002	2639.08
452.376	2680.89
452.75	2682.25
453.123	2675.01
453.497	2752.98
453.871	2779.87
454.244	2849.93
454.618	2866.42
454.992	2905.29
455.365	2900.55
455.739	2948.68
456.112	2952.52
456.486	3020.77
456.859	3043.59
457.232	3122.01
457.606	3134.89
457.979	3142.12
458.352	3173.98
458.725	3250.14
459.099	3281.78
459.472	3368.33
459.845	3354.54
460.218	3440.64
460.591	3449.23
460.964	3484.03
461.337	3567.42
461.71	3617.14
462.083	3646.74
462.456	3686.97
462.829	3672.95
463.201	3763.12
463.574	3764.25
463.947	3843.8
464.32	3892.38
464.692	3936.45
465.065	4016.9
465.438	4036.33
465.81	4160.85
466.183	4160.63
466.555	4202.21
466.928	4301.64
467.3	4252.37
467.672	4337.34
468.045	4449.43
468.417	4496.21
468.789	4513.61
469.161	4564.91
469.534	4619.14
469.906	4726.71
470.278	4761.74
470.65	4793.15
471.022	4893.49
471.394	5006.48
471.766	5051.9
472.138	5098
472.51	5213.7
472.882	5297.32
473.253	5329.41
473.625	5440.37
473.997	5553.81
474.369	5594.71
474.74	5654.82
475.112	5734.14
475.484	5860.47
475.855	6000.12
476.227	6048.03
476.598	6173
476.97	6229.27
477.341	6314.47
477.713	6459.77
478.084	6469.49
478.455	6684.63
478.827	6776.15
479.198	6942.92
479.569	6970.27
479.94	7150.15
480.311	7232.86
480.682	7419.07
481.053	7542.23
481.424	7757.82
481.795	7730.02
482.166	7874.2
482.537	7933.18
482.908	8176.56
483.279	8262.66
483.65	8395.99
484.021	8584.46
484.391	8664.24
484.762	8738.81
485.133	8876.89
485.503	8984.23
485.874	9137.9
486.244	9268.51
486.615	9376.76
486.985	9540.37
487.356	9719.57
487.726	9789.4
488.097	9989.4
488.467	10037.31
488.837	10243.63
489.207	10369.05
489.578	10564.3
489.948	10573.56
490.318	10785.76
490.688	10898.08
491.058	11049.03
491.428	11104.4
491.798	11278.18
492.168	11517.49
492.538	11492.64
492.908	11674.33
493.278	11848.56
493.648	11900.99
494.017	12080.87
494.387	12106.86
494.757	12258.72
495.126	12339.62
495.496	12455.55
495.866	12494.87
496.235	12684.02
496.605	12811.7
496.974	12795.43
497.344	13081.97
497.713	13106.38
498.082	13201.29
498.452	13392.02
498.821	13380.95
499.19	13581.85
499.559	13625.23
499.928	13684.89
500.298	13803.08
500.667	13914.94
501.036	13907.94
501.405	14037.65
501.774	14078.78
502.143	14310.19
502.512	14306.57
502.88	14475.16
503.249	14542.95
503.618	14616.17
503.987	14724.64
504.356	14899.78
504.724	14962.6
505.093	14973.45
505.462	15152.2
505.83	15174.57
506.199	15252.31
506.567	15598.97
506.936	15496.6
507.304	15701.56
507.672	15765.29
508.041	15833.76
508.409	16008.22
508.777	16118.73
509.145	16278.05
509.514	16170.7
509.882	16438.49
510.25	16435.56
510.618	16634.87
510.986	16770.46
511.354	16836.45
511.722	17024.47
512.09	17069.66
512.458	17175.65
512.826	17366.83
513.193	17444.12
513.561	17496.55
513.929	17718.23
514.297	17841.62
514.664	18076.42
515.032	18094.95
515.4	18219.46
515.767	18280.48
516.135	18446.8
516.502	18365.22
516.869	18742.84
517.237	18927.69
517.604	18865.1
517.972	19141.7
518.339	19180.57
518.706	19271.64
519.073	19337.85
519.44	19519.77
519.808	19699.65
520.175	19715.92
520.542	20112.97
520.909	20093.09
521.276	20159.98
521.643	20478.39
522.009	20489.46
522.376	20663.92
522.743	20815.1
523.11	21003.35
523.477	21139.61
523.843	21268.2
524.21	21632.48
524.577	21787.05
524.943	21836.09
525.31	22006.94
525.676	22124.45
526.043	22287.83
526.409	22410.31
526.776	22774.6
527.142	22844.43
527.508	22939.11
527.874	23146.79
528.241	23294.81
528.607	23445.32
528.973	23531.19
529.339	23550.17
529.705	23794.69
530.071	23995.13
530.437	24174.11
530.803	24397.83
531.169	24513.54
531.535	24476.25
531.901	24624.04
532.267	24725.06
532.632	24779.52
532.998	24916.01
533.364	25207.08
533.73	25291.14
534.095	25475.54
534.461	25419.95
534.826	25744.92
535.192	25734.97
535.557	25923.22
535.923	25990.79
536.288	26172.48
536.653	26279.82
537.019	26305.35
537.384	26423.09
537.749	26538.79
538.114	26538.12
538.479	26582.86
538.845	26645.23
539.21	26787.37
539.575	26973.81
539.94	27017.65
540.305	27222.62
540.67	27085.67
541.034	27324.76
541.399	27423.06
541.764	27474.36
542.129	27652.44
542.494	27688.59
542.858	27793.45
543.223	27933.56
543.587	28185.98
543.952	28044.29
544.316	28190.73
544.681	28198.41
545.045	28552.3
545.41	28574.22
545.774	28549.14
546.138	28480.89
546.503	28746.87
546.867	28805.63
547.231	29134.66
547.595	29059.41
547.959	29130.36
548.324	29234.77
548.688	29400.41
549.052	29537.36
549.416	29646.28
549.779	29730.12
550.143	29813.28
550.507	30059.83
550.871	29928.08
551.235	30037.91
551.599	30333.27
551.962	30305.02
552.326	30428.41
552.689	30704.33
553.053	30620.95
553.417	30708.85
553.78	31253.7
554.143	30990.2
554.507	31145.68
554.87	31239.46
555.234	31648.94
555.597	31441.49
555.96	31644.42
556.323	31687.36
556.686	31839.22
557.05	32113.56
557.413	32170.51
557.776	32308.36
558.139	32450.73
558.502	32610.05
558.865	32752.42
559.228	32829.25
559.59	33019.08
559.953	33082.8
560.316	33441.66
560.679	33482.34
561.041	33747.64
561.404	33845.04
561.767	34052.04
562.129	33946.51
562.492	34253.62
562.854	34362.09
563.217	34555.53
563.579	34485.03
563.941	34674.62
564.304	34964.33
564.666	35094.05
565.028	35201.16
565.39	35334.49
565.753	35605.67
566.115	35676.63
566.477	35727.48
566.839	35916.85
567.201	36107.58
567.563	36165.21
567.925	36396.16
568.287	36426.9
568.648	36580.56
569.01	36860.78
569.372	36910.27
569.734	36890.84
570.095	37173.54
570.457	37280.21
570.819	37477.72
571.18	37453.99
571.542	37654.89
571.903	37809.23
572.265	37920.42
572.626	38015.33
572.987	38100.07
573.349	38292.16
573.71	38360.4
574.071	38477.91
574.432	38493.51
574.794	38757
575.155	38785.93
575.516	38684.24
575.877	38865.02
576.238	38917.9
576.599	38995.42
576.96	39137.78
577.32	39267.72
577.681	39416.42
578.042	39582.97
578.403	39614.83
578.763	39486.93
579.124	39592.69
579.485	39663.42
579.845	39920.81
580.206	39719.46
580.566	39691.67
580.927	39815.51
581.287	39920.81
581.648	39796.52
582.008	40010.53
582.368	39854.38
582.728	40019.34
583.089	40046.46
583.449	40056.63
583.809	40172.33
584.169	40093.24
584.529	40108.83
584.889	40411.2
585.249	40186.8
585.609	40124.65
585.969	40279
586.329	40304.31
586.688	40288.94
587.048	40334.36
587.408	40212.78
587.768	40117.19
588.127	40310.86
588.487	40199.68
588.846	40510.4
589.206	40267.47
589.565	40399.67
589.925	40474.47
590.284	40379.33
590.643	40453.91
591.003	40487.58
591.362	40624.98
591.721	40516.51
592.08	40635.37
592.44	40696.39
592.799	40743.84
593.158	40685.31
593.517	40562.38
593.876	40679.21
594.235	40625.2
594.593	40680.12
594.952	40794.92
595.311	40680.57
595.67	40702.04
596.029	41011.18
596.387	40944.74
596.746	41047.79
597.104	40760.34
597.463	40830.17
597.822	40944.06
598.18	40940
598.538	40880.11
598.897	41244.85
599.255	40950.84
599.613	41585.86
599.972	41211.4
600.33	41303.6
600.688	41058.19
601.046	41424.5
601.404	41364.39
601.762	41261.57
602.12	41477.61
602.478	41431.74
602.836	41433.77
603.194	41282.13
603.552	41441.68
603.91	41305.19
604.268	41652.75
604.625	41440.55
604.983	41572.97
605.341	41435.35
605.698	41625.18
606.056	41665.4
606.413	41680.32
606.771	41768.9
607.128	41926.86
607.485	41866.07
607.843	41919.63
608.2	42175.22
608.557	42087.09
608.914	42050.02
609.272	42120.53
609.629	42153.75
609.986	42252.96
610.343	42210.25
610.7	42549.67
611.057	42431.94
611.414	42464.7
611.771	42293.18
612.127	42642.33
612.484	42609.56
612.841	42625.38
613.198	42517.13
613.554	42578.82
613.911	42759.61
614.267	42743.57
614.624	42794.19
614.98	42808.42
615.337	42993.05
615.693	42900.62
616.05	42957.57
616.406	43220.39
616.762	43133.39
617.118	43006.16
617.475	43110.34
617.831	43146.72
618.187	43177.23
618.543	43221.29
618.899	43351.46
619.255	43241.63
619.611	43251.8
619.967	43358.01
620.323	43510.32
620.678	43243.89
621.034	43132.71
621.39	43159.37
621.746	43306.71
622.101	43664.22
622.457	43380.61
622.812	43497.44
623.168	43571.11
623.523	43499.03
623.879	43661.51
624.234	43406.6
624.589	43524.56
624.945	43541.06
625.3	43568.18
625.655	43478.24
626.01	43541.96
626.365	43521.62
626.72	43484.34
627.075	43519.36
627.43	43475.52
627.785	43416.32
628.14	43432.59
628.495	43519.82
628.85	43426.71
629.205	43154.18
629.559	43436.88
629.914	43165.7
630.269	43300.61
630.623	43243.44
630.978	43231.69
631.332	43279.14
631.687	43349.65
632.041	43026.95
632.396	43279.82
632.75	43037.57
633.104	43015.87
633.459	42766.84
633.813	42910.34
634.167	42741.76
634.521	42837.35
634.875	42809.1
635.229	42739.05
635.583	42517.81
635.937	42525.27
636.291	42667.64
636.645	42590.35
636.999	42514.42
637.352	42745.6
637.706	42389.9
638.06	42525.72
638.413	42378.38
638.767	42265.84
639.121	42313.07
639.474	42163.69
639.828	42047.54
640.181	42139.51
640.534	42201.43
640.888	42055.45
641.241	41945.85
641.594	41966.86
641.947	42043.24
642.301	41810.26
642.654	41906.53
643.007	41764.16
643.36	41864.94
643.713	41646.19
644.066	41929.58
644.419	41468.8
644.771	41248.01
645.124	40870.85
645.477	40752.88
645.83	40613.45
646.182	40271.09
646.535	40289.62
646.888	40135.05
647.24	40238.77
647.593	40453
647.945	40234.25
648.298	40031.09
648.65	40074.48
649.002	39818.22
649.355	40174.59
649.707	39983.41
650.059	39998.78
650.411	40625.43
650.763	40644.86
651.115	41033.33
651.467	40758.53
651.819	40831.75
652.171	40742.04
652.523	40601.25
652.875	40737.52
653.227	40476.96
653.578	40876.5
653.93	40682.6
654.282	40420.01
654.633	40375.49
654.985	40317.19
655.337	40393.12
655.688	40385.89
656.039	40515.6
656.391	40177.98
656.742	40235.83
657.094	40231.32
657.445	40326.23
657.796	40234.03
658.147	40183.86
658.498	40180.24
658.849	40129.4
659.2	40109.28
659.551	39915.84
659.902	40196.51
660.253	40052.56
660.604	40128.72
660.955	39972.34
661.306	40040.36
661.656	39912.68
662.007	40119.45
662.358	39947.48
662.708	39963.75
663.059	39998.55
663.409	39707.26
663.76	39827.48
664.11	39879.01
664.461	39947.71
664.811	39827.48
665.161	39912
665.511	39770.54
665.862	39698.22
666.212	39903.87
666.562	39838.56
666.912	39773.7
667.262	39729.41
667.612	39564.67
667.962	39569.19
668.312	39549.53
668.662	39875.84
669.011	39578
669.361	39448.28
669.711	39444.44
670.06	39413.26
670.41	39309.08
670.76	39402.41
671.109	39561.05
671.459	39356.76
671.808	39378.46
672.157	39397.21
672.507	39041.06
672.856	39165.35
673.205	39199.25
673.554	39273.83
673.904	39044.68
674.253	39457.1
674.602	39258.91
674.951	38704.8
675.3	38576.9
675.649	39147.95
675.998	39133.72
676.346	39069.31
676.695	39247.39
677.044	38840.39
677.393	38956.77
677.741	38821.63
678.09	38913.61
678.438	38847.17
678.787	38899.6
679.135	38789.55
679.484	38594.97
679.832	38894.85
680.181	38489.89
680.529	38749.77
680.877	38472.04
681.225	38493.28
681.573	38601.3
681.922	38358.82
682.27	38185.95
682.618	38230.69
682.966	38214.19
683.314	38334.87
683.661	38218.03
684.009	37988.66
684.357	37947.76
684.705	37829.34
685.053	37875.44
685.4	38033.63
685.748	37676.13
686.095	37720.19
686.443	37460.31
686.79	37514.55
687.138	37444.72
687.485	37414.21
687.832	37399.07
688.18	37227.1
688.527	37123.15
688.874	37174.67
689.221	36943.72
689.568	36965.41
689.915	36936.71
690.262	36861.23
690.609	36729.26
690.956	36712.31
691.303	36698.98
691.65	36425.54
691.997	36392.32
692.344	36313.9
692.69	36411.3
693.037	36504.63
693.383	36177.41
693.73	36285.66
694.077	35894.71
694.423	35983.74
694.769	35901.03
695.116	35556.86
695.462	35581.04
695.808	35497.43
696.155	35469.63
696.501	35215.4
696.847	35205.68
697.193	34986.03
697.539	35235.74
697.885	34895.86
698.231	34819.93
698.577	34767.5
698.923	34760.5
699.269	34527.74
699.614	34198.71
699.96	34328.87
700.306	34283.45
700.651	34265.82
700.997	34161.19
701.342	34064.92
701.688	33929.56
702.033	33855.89
702.379	33953.29
702.724	33863.12
703.069	33729.11
703.415	33359.41
703.76	33348.56
704.105	33293.42
704.45	33359.63
704.795	33127.1
705.14	32946.31
705.485	33035.57
705.83	32828.12
706.175	32850.04
706.52	32953.77
706.865	32732.76
707.209	32650.5
707.554	32581.12
707.899	32592.19
708.243	32448.92
708.588	32464.97
708.932	32165.54
709.277	32118.31
709.621	32194.01
709.966	31955.15
710.31	32139.55
710.654	31746.57
710.998	31765.32
711.342	31832.44
711.687	31697.08
712.031	31601.03
712.375	31562.84
712.719	31530.3
713.063	31370.76
713.407	31457.31
713.75	31270.87
714.094	31249.63
714.438	31260.03
714.782	31269.29
715.125	31097.09
715.469	31168.28
715.812	31059.8
716.156	30814.84
716.499	30820.26
716.843	30942.52
717.186	30673.15
717.53	30733.26
717.873	30747.5
718.216	30529.65
718.559	30572.59
718.902	30273.61
719.246	30566.48
719.589	30357.22
719.932	30147.96
720.275	30138.25
720.617	30054.86
720.96	30087.4
721.303	30030.23
721.646	30095.76
721.989	29785.04
722.331	29938.7
722.674	29782.78
723.016	29849.44
723.359	29815.77
723.701	29690.58
724.044	29539.84
724.386	29459.62
724.729	29492.61
725.071	29503.91
725.413	29473.63
725.755	29437.47
726.097	29224.15
726.439	29223.24
726.782	29125.17
727.124	29280.64
727.465	29049.01
727.807	29023.02
728.149	28928.79
728.491	28910.71
728.833	28960.42
729.175	28848.56
729.516	28769.24
729.858	28774.89
730.199	28763.59
730.541	28612.19
730.882	28629.59
731.224	28742.13
731.565	28545.07
731.906	28712.3
732.248	28425.3
732.589	28355.92
732.93	28332.64
733.271	28321.35
733.612	28408.58
733.953	28253.1
734.294	28196.15
734.635	28120.22
734.976	28353.66
735.317	28112.54
735.658	28066.21
735.999	27962.49
736.339	27952.32
736.68	28081.13
737.021	27899.66
737.361	27767.46
737.702	27814.24
738.042	27864.18
738.383	27688.37
738.723	27734.47
739.063	27601.14
739.404	27576.05
739.744	27552.1
740.084	27546
740.424	27529.05
740.764	27305.33
741.104	27523.85
741.444	27314.82
741.784	27197.76
742.124	27418.32
742.464	27217.42
742.804	27178.78
743.143	27067.82
743.483	27106.69
743.823	27059.68
744.162	27028.27
744.502	27011.1
744.841	26755.74
745.181	26884.77
745.52	26871.67
745.86	26821.27
746.199	26733.82
746.538	26635.06
746.877	26833.7
747.216	26707.15
747.556	26471.45
747.895	26503.99
748.234	26446.14
748.573	26346.71
748.911	26386.03
749.25	26430.32
749.589	26193.72
749.928	26172.48
750.267	26146.04
750.605	26099.26
750.944	25986.04
751.283	25978.58
751.621	26021.97
751.96	26000.28
752.298	25929.32
752.636	25790.11
752.975	25681.64
753.313	25576.56
753.651	25753.28
753.989	25511.25
754.327	25479.61
754.666	25326.17
755.004	25356.9
755.342	25364.36
755.679	25396
756.017	25269.22
756.355	25271.48
756.693	25201.88
757.031	25226.96
757.368	24909.23
757.706	24951.94
758.044	24848.44
758.381	24845.05
758.719	24812.06
759.056	24807.31
759.394	24711.72
759.731	24513.54
760.068	24562.8
760.405	24498.62
760.743	24382.24
761.08	24404.39
761.417	24260.44
761.754	24219.53
762.091	24176.82
762.428	24074.9
762.765	23822.93
763.102	23842.14
763.438	23815.25
763.775	23727.79
764.112	23748.58
764.449	23713.78
764.785	23630.17
765.122	23489.83
765.458	23427.69
765.795	23344.75
766.131	23334.58
766.467	23260.24
766.804	23120.58
767.14	22969.85
767.476	22953.8
767.812	22860.47
768.148	22863.64
768.485	22672.91
768.821	22487.83
769.157	22493.25
769.492	22452.8
769.828	22406.7
770.164	22285.57
770.5	22210.09
770.836	22235.86
771.171	22079.48
771.507	21963.09
771.842	21891.46
772.178	21879.03
772.513	21782.08
772.849	21773.27
773.184	21668.64
773.519	21629.32
773.855	21538.93
774.19	21415.31
774.525	21343
774.86	21331.7
775.195	21206.73
775.53	21099.84
775.865	21050.35
776.2	20928.77
776.535	20895.78
776.87	20715.67
777.205	20687.87
777.539	20582.11
777.874	20632.96
778.209	20490.59
778.543	20301.67
778.878	20324.95
779.212	20242.01
779.547	20172.18
779.881	20169.92
780.215	19935.8
780.55	20063.71
780.884	19875.01
781.218	19807.45
781.552	19708.46
781.886	19719.76
782.22	19637.51
782.554	19556.6
782.888	19376.04
783.222	19428.7
783.556	19308.25
783.889	19250.62
784.223	19123.17
784.557	19059.67
784.89	19064.64
785.224	18964.3
785.557	18931.99
785.891	18881.37
786.224	18749.39
786.558	18694.93
786.891	18546.01
787.224	18533.13
787.557	18509.4
787.891	18440.93
788.224	18409.97
788.557	18380.36
788.89	18300.82
789.223	18265.79
789.556	18118.22
789.888	18076.19
790.221	17878
790.554	17768.4
790.887	17840.04
791.219	17791.68
791.552	17811.34
791.884	17603.89
792.217	17572.93
792.549	17456.32
792.882	17483.89
793.214	17319.83
793.546	17325.25
793.879	17270.56
794.211	17058.82
794.543	17217.23
794.875	17177.91
795.207	17110.12
795.539	16973.17
795.871	17025.15
796.203	16898.37
796.535	16762.33
796.867	16775.43
797.198	16722.55
797.53	16558.04
797.862	16647.08
798.193	16601.65
798.525	16503.35
798.856	16480.3
799.188	16321.89
799.519	16319.85
799.85	16226.97
800.182	16273.98
800.513	16294.09
800.844	16119.18
801.175	16096.13
801.506	16094.1
801.837	15954.67
802.168	15862.46
802.499	15944.5
802.83	15818.17
803.161	15823.6
803.491	15844.16
803.822	15747.44
804.153	15639.42
804.483	15473.32
804.814	15401.46
805.145	15438.97
805.475	15442.81
805.805	15314.23
806.136	15363.49
806.466	15344.51
806.796	15450.72
807.126	15163.95
807.457	15208.02
807.787	15200.33
808.117	15029.27
808.447	15031.53
808.777	15009.38
809.107	14877.18
809.436	14903.85
809.766	14834.24
810.096	14927.8
810.426	14756.96
810.755	14757.41
811.085	14775.26
811.414	14686.22
811.744	14507.7
812.073	14525.78
812.403	14537.98
812.732	14465.21
813.061	14466.34
813.39	14408.94
813.719	14361.26
814.049	14413.01
814.378	14356.29
814.707	14255.27
815.036	14301.83
815.365	14157.2
815.693	14062.96
816.022	14107.26
816.351	14006.47
816.68	14005.56
817.008	14100.93
817.337	13950.2
817.665	13893.7
817.994	13879.24
818.322	13846.02
818.651	13822.07
818.979	13754.72
819.307	13838.56
819.636	13680.37
819.964	13660.04
820.292	13782.29
820.62	13714.05
820.948	13628.4
821.276	13630.21
821.604	13603.77
821.932	13611.45
822.259	13676.76
822.587	13549.98
822.915	13579.36
823.243	13530.1
823.57	13585.24
823.898	13606.25
824.225	13468.85
824.553	13484
824.88	13483.54
825.207	13605.57
825.535	13490.32
825.862	13515.18
826.189	13467.72
826.516	13492.13
826.843	13488.06
827.17	13586.59
827.497	13555.41
827.824	13538.23
828.151	13564.67
828.478	13493.94
828.805	13502.3
829.131	13488.52
829.458	13474.28
829.785	13357.22
830.111	13428.63
830.438	13433.83
830.764	13464.34
831.09	13476.76
831.417	13386.37
831.743	13382.53
832.069	13426.6
832.395	13257.56
832.722	13446.26
833.048	13300.72
833.374	13423.21
833.7	13339.14
834.026	13283.1
834.351	13357.67
834.677	13338.69
835.003	13355.86
835.329	13377.33
835.654	13259.59
835.98	13170.78
836.306	13249.88
836.631	13162.65
836.956	13291.68
837.282	13293.27
837.607	13220.5
837.932	13166.49
838.258	13135.08
838.583	13024.57
838.908	12991.13
839.233	13064.35
839.558	12984.35
839.883	12917.91
840.208	12941.64
840.533	12930.79
840.858	12874.97
841.182	12824.8
841.507	12867.29
841.832	12818.02
842.156	12758.37
842.481	12830.45
842.805	12717.69
843.13	12659.16
843.454	12755.2
843.778	12708.42
844.103	12636.11
844.427	12560.4
844.751	12651.7
845.075	12499.39
845.399	12511.59
845.723	12426.4
846.047	12438.83
846.371	12315.66
846.695	12357.02
847.019	12201.54
847.343	12112.73
847.666	12110.47
847.99	12042.9
848.313	12096.01
848.637	11992.96
848.96	12042.45
849.284	11957.93
849.607	11869.12
849.931	11876.58
850.254	11734.44
850.577	11743.93
850.9	11631.39
851.223	11695.79
851.546	11581.9
851.869	11488.57
852.192	11512.52
852.515	11369.02
852.838	11418.97
853.161	11320.66
853.483	11373.32
853.806	11266.65
854.129	11251.96
854.451	11224.85
854.774	11172.64
855.096	11171.51
855.419	11144.4
855.741	11071.18
856.063	10970.84
856.385	10938.98
856.708	10932.88
857.03	10937.85
857.352	10875.7
857.674	10830.73
857.996	10769.04
858.318	10674.58
858.64	10755.48
858.961	10640.45
859.283	10668.25
859.605	10625.09
859.926	10600.23
860.248	10537.63
860.57	10501.48
860.891	10522.49
861.212	10499.89
861.534	10436.39
861.855	10423.51
862.176	10444.75
862.498	10405.88
862.819	10464.41
863.14	10455.6
863.461	10346.9
863.782	10325.89
864.103	10378.77
864.424	10217.87
864.745	10275.27
865.065	10214.93
865.386	10166.79
865.707	10199.11
866.027	10231.2
866.348	10159.56
866.668	10221.26
866.989	10116.63
867.309	10018.55
867.63	10046.8
867.95	10028.95
868.27	10012.9
868.59	9994.6
868.91	10023.52
869.23	10014.48
869.55	9966.8
869.87	9992.56
870.19	9980.13
870.51	9957.31
870.83	9995.27
871.15	9858.1
871.469	9920.25
871.789	9926.35
872.109	9821.27
872.428	9756.41
872.748	9834.37
873.067	9859.46
873.386	9848.61
873.706	9786.24
874.025	9691.1
874.344	9702.63
874.663	9816.52
874.982	9750.08
875.301	9681.16
875.62	9659.92
875.939	9647.49
876.258	9614.72
876.577	9675.28
876.896	9615.17
877.214	9531.33
877.533	9521.84
877.852	9545.34
878.17	9563.42
878.489	9549.86
878.807	9552.35
879.125	9508.06
879.444	9528.39
879.762	9425.8
880.08	9459.69
880.398	9367.72
880.716	9318.68
881.034	9271.23
881.352	9352.8
881.67	9297.67
881.988	9334.95
882.306	9377.89
882.624	9344.9
882.941	9240.27
883.259	9256.08
883.577	9179.25
883.894	9193.49
884.212	9157.78
884.529	9132.02
884.846	9148.29
885.164	9074.39
885.481	9050.44
885.798	9077.33
886.115	9010.44
886.432	9002.76
886.75	8952.82
887.067	8980.84
887.383	8939.93
887.7	8997.56
888.017	8878.24
888.334	8951.01
888.651	8865.81
888.967	8862.42
889.284	8799.83
889.6	8774.97
889.917	8717.12
890.233	8788.07
890.55	8755.08
890.866	8765.48
891.182	8676.44
891.498	8696.78
891.815	8593.05
892.131	8581.07
892.447	8528.19
892.763	8533.39
893.079	8518.25
893.395	8454.07
893.71	8411.59
894.026	8457.69
894.342	8375.2
894.657	8390.57
894.973	8354.87
895.289	8380.85
895.604	8360.51
895.92	8256.79
896.235	8240.74
896.55	8202.55
896.865	8221.31
897.181	8153.74
897.496	8106.28
897.811	8049.79
898.126	8001.88
898.441	8084.14
898.756	8045.04
899.071	8045.27
899.386	7992.39
899.7	7933.63
900.015	7946.74
900.33	7821.55
900.644	7872.84
900.959	7843.24
901.273	7825.39
901.588	7801.89
901.902	7799.17
902.216	7731.38
902.531	7722.79
902.845	7629.46
903.159	7541.33
903.473	7597.6
903.787	7560.54
904.101	7481.89
904.415	7488
904.729	7464.27
905.042	7466.3
905.356	7424.72
905.67	7401.44
905.984	7354.67
906.297	7277.83
906.611	7274.44
906.924	7303.59
907.237	7206.87
907.551	7219.75
907.864	7163.48
908.177	7151.51
908.491	7148.57
908.804	7126.65
909.117	7054.56
909.43	7072.19
909.743	6943.15
910.056	7074.67
910.368	6991.29
910.681	6927.78
910.994	6917.84
911.307	6902.02
911.619	6795.58
911.932	6853.21
912.244	6783.38
912.557	6799.65
912.869	6764.85
913.181	6754.46
913.494	6744.96
913.806	6680.78
914.118	6619.77
914.43	6561.47
914.742	6580
915.054	6542.26
915.366	6542.26
915.678	6516.5
915.99	6532.31
916.302	6451.19
916.613	6412.32
916.925	6369.15
917.236	6411.87
917.548	6368.48
917.859	6356.27
918.171	6289.61
918.482	6245.77
918.794	6265.88
919.105	6218.2
919.416	6161.48
919.727	6151.31
920.038	6111.76
920.349	6078.31
920.66	6116.28
920.971	6071.08
921.282	6051.2
921.593	6040.35
921.903	5942.5
922.214	5957.87
922.525	5889.17
922.835	5897.53
923.146	5929.39
923.456	5849.39
923.767	5790.41
924.077	5841.03
924.387	5790.86
924.697	5729.62
925.008	5688.49
925.318	5660.92
925.628	5658.89
925.938	5641.72
926.248	5576.41
926.558	5656.86
926.867	5587.25
927.177	5558.55
927.487	5528.05
927.796	5497.99
928.106	5495.73
928.416	5447.82
928.725	5430.42
929.034	5405.11
929.344	5431.33
929.653	5398.78
929.962	5334.83
930.271	5323.08
930.581	5271.56
930.89	5280.82
931.199	5222.97
931.508	5235.17
931.817	5235.17
932.125	5163.76
932.434	5164.21
932.743	5168.28
933.051	5097.1
933.36	5085.57
933.669	5067.04
933.977	5024.56
934.286	5032.47
934.594	4992.02
934.902	4939.36
935.21	4976.65
935.519	5014.16
935.827	4923.77
936.135	4909.31
936.443	4852.58
936.751	4873.15
937.059	4836.09
937.367	4855.07
937.674	4793.6
937.982	4844.22
938.29	4728.52
938.597	4725.58
938.905	4751.34
939.213	4696.66
939.52	4689.88
939.827	4712.7
940.135	4664.57
940.442	4585.02
940.749	4612.82
941.056	4580.28
941.363	4546.15
941.67	4554.96
941.977	4553.16
942.284	4493.72
942.591	4456.89
942.898	4430.45
943.205	4431.13
943.511	4434.52
943.818	4376.21
944.125	4343.45
944.431	4362.65
944.738	4348.64
945.044	4331.47
945.35	4334.86
945.657	4296.89
945.963	4300.06
946.269	4269.1
946.575	4261.19
946.881	4212.6
947.187	4240.17
947.493	4196.78
947.799	4156.78
948.105	4150.68
948.41	4132.15
948.716	4109.1
949.022	4066.62
949.327	4060.74
949.633	4027.52
949.938	4072.27
950.244	4050.12
950.549	4025.94
950.854	3982.55
951.16	3943.23
951.465	3954.08
951.77	3919.95
952.075	3940.74
952.38	3915.43
952.685	3908.65
952.99	3877.92
953.294	3858.71
953.599	3843.12
953.904	3810.35
954.209	3797.47
954.513	3766.29
954.818	3735.33
955.122	3745.27
955.426	3719.73
955.731	3726.74
956.035	3683.8
956.339	3685.84
956.643	3700.3
956.948	3674.54
957.252	3620.3
957.556	3601.32
957.86	3618.49
958.163	3564.48
958.467	3543.47
958.771	3574.2
959.075	3529.91
959.378	3532.84
959.682	3517.93
959.985	3535.78
960.289	3475.9
960.592	3453.98
960.896	3453.53
961.199	3404.94
961.502	3404.49
961.805	3381.66
962.108	3354.32
962.411	3339.4
962.714	3392.74
963.017	3357.48
963.32	3341.89
963.623	3336.47
963.926	3328.56
964.228	3309.57
964.531	3235
964.833	3269.12
965.136	3231.84
965.438	3240.88
965.741	3179.18
966.043	3205.4
966.345	3192.74
966.648	3194.32
966.95	3130.14
967.252	3156.13
967.554	3159.07
967.856	3142.8
968.158	3109.13
968.46	3100.31
968.761	3070.94
969.063	3067.77
969.365	3033.65
969.666	3075
969.968	3030.03
970.269	3009.24
970.571	3038.85
970.872	2983.48
971.174	2965.85
971.475	2971.28
971.776	2962.46
972.077	2966.08
972.378	2912.3
972.679	2936.02
972.98	2937.38
973.281	2820.77
973.582	2893.09
973.883	2868.91
974.183	2849.93
974.484	2839.98
974.785	2849.47
975.085	2796.59
975.386	2808.34
975.686	2767.89
975.986	2821.23
976.287	2770.38
976.587	2762.92
976.887	2711.62
977.187	2717.95
977.487	2719.76
977.787	2747.33
978.087	2710.49
978.387	2687.9
978.687	2680.66
978.987	2683.38
979.286	2660.78
979.586	2656.26
979.885	2635.47
980.185	2638.41
980.484	2601.12
980.784	2601.12
981.083	2569.03
981.382	2569.25
981.682	2531.29
981.981	2543.49
982.28	2537.84
982.579	2480.44
982.878	2546.66
983.177	2511.4
983.475	2515.24
983.774	2515.02
984.073	2494.45
984.372	2456.72
984.67	2441.57
984.969	2445.64
985.267	2436.6
985.566	2411.97
985.864	2397.96
986.162	2399.77
986.461	2404.29
986.759	2350.28
987.057	2352.76
987.355	2355.02
987.653	2358.41
987.951	2302.37
988.249	2303.27
988.547	2306.44
988.844	2287.45
989.142	2290.62
989.44	2309.37
989.737	2284.74
990.035	2268.25
990.332	2261.01
990.63	2232.77
990.927	2225.53
991.224	2224.63
991.521	2217.17
991.819	2178.08
992.116	2205.65
992.413	2219.21
992.71	2177.63
993.006	2153.45
993.303	2138.76
993.6	2167.46
993.897	2099.21
994.193	2148.02
994.49	2065.09
994.787	2070.06
995.083	2033.22
995.379	2070.28
995.676	2084.75
995.972	2051.08
996.268	2057.63
996.565	2016.27
996.861	2030.06
997.157	2023.73
997.453	2002.26
997.749	1977.86
998.044	1979.21
998.34	1979.89
998.636	1955.94
998.932	1977.86
999.227	1948.25
999.523	1960.68
999.818	1943.73
1000.114	1926.79
1000.409	1884.07
1000.704	1912.32
1001	1878.43
1001.295	1830.97
1001.59	1871.87
1001.885	1898.31
1002.18	1860.35
1002.475	1837.75
1002.77	1848.37
1003.065	1790.74
1003.359	1820.12
1003.654	1821.25
1003.949	1816.28
1004.243	1769.95
1004.538	1784.87
1004.832	1754.59
1005.127	1776.28
1005.421	1745.77
1005.715	1727.69
1006.009	1716.17
1006.304	1709.84
1006.598	1729.73
1006.892	1707.13
1007.186	1721.59
1007.48	1711.88
1007.773	1649.73
1008.067	1658.32
1008.361	1668.49
1008.655	1638.66
1008.948	1652.44
1009.242	1661.48
1009.535	1621.03
1009.829	1651.31
1010.122	1607.47
1010.415	1608.15
1010.708	1548.72
1011.001	1586
1011.295	1564.31
1011.588	1572.67
1011.881	1515.95
1012.173	1566.57
1012.466	1513.01
1012.759	1525.44
1013.052	1529.06
1013.344	1536.51
1013.637	1525.21
1013.93	1513.69
1014.222	1489.96
1014.514	1460.13
1014.807	1455.16
1015.099	1441.83
1015.391	1428.04
1015.683	1437.31
1015.976	1454.26
1016.268	1420.58
1016.56	1428.72
1016.851	1414.26
1017.143	1402.28
1017.435	1428.27
1017.727	1380.13
1018.018	1379.23
1018.31	1387.36
1018.602	1364.77
1018.893	1353.47
1019.185	1340.36
1019.476	1308.72
1019.767	1335.39
1020.058	1310.76
1020.35	1306.46
1020.641	1285.22
1020.932	1272.11
1021.223	1289.51
1021.514	1260.14
1021.804	1244.54
1022.095	1275.96
1022.386	1266.46
1022.677	1230.31
1022.967	1234.6
1023.258	1236.18
1023.548	1200.48
1023.839	1204.32
1024.129	1192.79
1024.419	1196.18
1024.709	1172
1025	1167.26
1025.29	1179.01
1025.58	1144.66
1025.87	1132.46
1026.16	1152.34
1026.449	1122.74
1026.739	1122.51
1027.029	1132.91
1027.319	1117.77
1027.608	1116.86
1027.898	1115.51
1028.187	1103.08
1028.477	1098.11
1028.766	1099.46
1029.055	1096.98
1029.344	1073.47
1029.634	1070.08
1029.923	1047.49
1030.212	1082.74
1030.501	1059.69
1030.79	1032.35
1031.078	1045.9
1031.367	1047.26
1031.656	1013.59
1031.945	1018.33
1032.233	1001.84
1032.522	1006.81
1032.81	1001.61
1033.099	989.18
1033.387	1007.26
1033.675	961.16
1033.963	968.17
1034.251	962.74
1034.54	965.45
1034.828	958.68
1035.116	921.16
1035.403	936.53
1035.691	927.94
1035.979	922.74
1036.267	916.19
1036.554	898.11
1036.842	925.46
1037.129	939.24
1037.417	910.77
1037.704	885.91
1037.992	906.25
1038.279	901.05
1038.566	874.16
1038.853	874.16
1039.14	874.16
