Data from plate_porcelain_FLMS001491_029.txt Node
Date: Tue Feb 07 11:19:02 GMT 2017
User: dcchb
Spectrometer: FLMS00149
Trigger mode: 0
Integration Time (sec): 2.000000E-2
Scans to average: 10
Electric dark correction enabled: true
Nonlinearity correction enabled: false
Boxcar width: 0
XAxis mode: Wavelengths
Number of Pixels in Spectrum: 2048
>>>>>Begin Spectral Data<<<<<
341.393	-15.76
341.776	-15.76
342.16	-15.76
342.543	-58.25
342.927	-74.97
343.31	-86.04
343.693	-68.64
344.077	-62.31
344.46	-56.89
344.843	-38.81
345.226	-43.11
345.61	-49.66
345.993	-1.75
346.376	6.16
346.759	1.41
347.142	35.54
347.525	60.17
347.908	26.04
348.291	54.07
348.674	103.78
349.057	120.05
349.44	128.41
349.823	139.49
350.206	173.61
350.588	239.15
350.971	233.72
351.354	239.82
351.737	272.14
352.119	283.44
352.502	294.29
352.884	288.64
353.267	343.55
353.65	335.64
354.032	346.71
354.414	341.29
354.797	360.27
355.179	363.44
355.562	365.02
355.944	377.67
356.326	392.14
356.709	386.94
357.091	379.03
357.473	384.23
357.855	398.92
358.238	389.65
358.62	402.53
359.002	385.13
359.384	412.48
359.766	393.49
360.148	367.96
360.53	406.37
360.912	391.68
361.294	379.03
361.676	389.2
362.057	388.07
362.439	385.36
362.821	382.42
363.203	351.46
363.584	372.48
363.966	402.53
364.348	387.62
364.729	374.06
365.111	403.44
365.493	372.48
365.874	378.58
366.256	371.8
366.637	405.24
367.019	375.41
367.4	392.14
367.781	388.52
368.163	382.87
368.544	410.89
368.925	421.51
369.306	398.69
369.688	397.11
370.069	400.95
370.45	409.09
370.831	417.67
371.212	400.05
371.593	401.4
371.974	413.38
372.355	388.97
372.736	403.66
373.117	416.09
373.498	409.54
373.879	422.42
374.26	431.68
374.641	397.79
375.021	401.63
375.402	433.49
375.783	456.99
376.163	477.33
376.544	468.07
376.925	438.24
377.305	454.73
377.686	447.95
378.066	462.19
378.447	456.32
378.827	467.84
379.208	488.41
379.588	477.33
379.968	468.29
380.349	473.49
380.729	502.42
381.109	494.05
381.489	501.29
381.87	496.99
382.25	494.28
382.63	490.67
383.01	522.98
383.39	532.02
383.77	509.42
384.15	527.05
384.53	526.82
384.91	534.96
385.29	540.83
385.67	560.95
386.049	578.8
386.429	573.6
386.809	570.21
387.189	590.32
387.568	586.71
387.948	564.34
388.328	596.2
388.707	601.17
389.087	608.18
389.466	632.81
389.846	615.41
390.225	617.89
390.605	642.98
390.984	640.27
391.363	640.72
391.743	647.05
392.122	659.25
392.501	657.67
392.881	675.07
393.26	659.7
393.639	690.89
394.018	707.16
394.397	730.88
394.776	713.48
395.155	705.8
395.534	711.22
395.913	721.85
396.292	752.13
396.671	753.93
397.05	743.99
397.429	775.63
397.808	771.56
398.186	813.37
398.565	782.18
398.944	792.58
399.323	819.02
399.701	797.55
400.08	813.14
400.458	840.26
400.837	827.38
401.215	848.4
401.594	863.31
401.972	854.95
402.351	881.39
402.729	879.81
403.107	872.35
403.486	888.17
403.864	921.39
404.242	928.17
404.62	938.11
404.999	929.07
405.377	956.87
405.755	970.43
406.133	968.17
406.511	1011.33
406.889	1000.93
407.267	1038.45
407.645	1044.77
408.023	1033.25
408.401	1050.65
408.779	1070.76
409.156	1091.1
409.534	1132.23
409.912	1115.96
410.29	1142.17
410.667	1152.57
411.045	1157.31
411.422	1189.4
411.8	1176.52
412.178	1221.27
412.555	1225.11
412.933	1264.43
413.31	1280.93
413.687	1296.97
414.065	1299.23
414.442	1315.05
414.819	1324.99
415.197	1337.65
415.574	1384.65
415.951	1399.34
416.328	1390.98
416.705	1402.96
417.082	1412.67
417.46	1425.56
417.837	1506.68
418.214	1472.56
418.591	1491.54
418.967	1490.64
419.344	1547.36
419.721	1526.12
420.098	1558.89
420.475	1571.77
420.852	1559.34
421.228	1597.98
421.605	1607.7
421.982	1606.79
422.358	1646.11
422.735	1655.83
423.111	1683.18
423.488	1711.65
423.864	1741.93
424.241	1776.96
424.617	1778.09
424.994	1798.65
425.37	1795.94
425.746	1816.28
426.123	1861.02
426.499	1825.32
426.875	1845.88
427.251	1941.47
427.627	1920.68
428.003	1971.76
428.379	1988.7
428.756	2000.46
429.132	2064.41
429.507	2048.14
429.883	2109.61
430.259	2153.22
430.635	2163.84
431.011	2176.5
431.387	2244.07
431.763	2277.06
432.138	2270.51
432.514	2312.99
432.89	2325.42
433.265	2365.42
433.641	2451.52
434.016	2436.83
434.392	2484.06
434.767	2518.86
435.143	2520.89
435.518	2570.38
435.894	2593.43
436.269	2619.87
436.644	2683.6
437.02	2708.91
437.395	2724.05
437.77	2777.61
438.145	2805.18
438.52	2776.25
438.895	2845.18
439.271	2887.21
439.646	2922.92
440.021	2991.39
440.395	2959.98
440.77	2965.63
441.145	2993.42
441.52	3045.4
441.895	3059.19
442.27	3072.29
442.645	3084.04
443.019	3133.53
443.394	3161.1
443.769	3211.27
444.143	3164.72
444.518	3240.2
444.892	3254.89
445.267	3262.57
445.641	3352.51
446.016	3327.88
446.39	3334.21
446.764	3399.06
447.139	3403.13
447.513	3446.97
447.887	3450.14
448.262	3475.9
448.636	3522.68
449.01	3552.73
449.384	3587.53
449.758	3592.73
450.132	3685.84
450.506	3709.56
450.88	3703.24
451.254	3701.43
451.628	3783.69
452.002	3832.95
452.376	3831.37
452.75	3914.98
453.123	3933.29
453.497	4003.79
453.871	4067.97
454.244	4131.25
454.618	4187.29
454.992	4261.64
455.365	4251.92
455.739	4330.56
456.112	4388.19
456.486	4428.41
456.859	4432.71
457.232	4545.02
457.606	4555.42
457.979	4607.84
458.352	4725.58
458.725	4743.89
459.099	4775.3
459.472	4907.27
459.845	4907.5
460.218	4978
460.591	5014.39
460.964	5076.76
461.337	5241.05
461.71	5293.25
462.083	5368.73
462.456	5364.44
462.829	5404.21
463.201	5517.88
463.574	5505
463.947	5642.85
464.32	5787.93
464.692	5798.1
465.065	5856.17
465.438	5902.73
465.81	6028.37
466.183	6123.51
466.555	6205.32
466.928	6261.59
467.3	6230.63
467.672	6417.97
468.045	6563.95
468.417	6560.56
468.789	6632.65
469.161	6703.84
469.534	6864.96
469.906	6982.02
470.278	7002.36
470.65	7143.82
471.022	7239.41
471.394	7453.42
471.766	7408.22
472.138	7558.73
472.51	7705.39
472.882	7863.58
473.253	7936.57
473.625	8048.66
473.997	8253.17
474.369	8335.88
474.74	8394.19
475.112	8553.5
475.484	8730.67
475.855	8901.29
476.227	8951.23
476.598	9202.98
476.97	9299.25
477.341	9501.95
477.713	9626.24
478.084	9720.48
478.455	9977.42
478.827	10023.3
479.198	10418.99
479.569	10369.5
479.94	10653.79
480.311	10746.21
480.682	11138.52
481.053	11276.37
481.424	11480.43
481.795	11634.33
482.166	11724.49
482.537	11862.12
482.908	12189.79
483.279	12324.03
483.65	12494.87
484.021	12749.55
484.391	12985.03
484.762	13104.34
485.133	13202.65
485.503	13438.57
485.874	13628.85
486.244	13785.91
486.615	14092.79
486.985	14147.71
487.356	14515.16
487.726	14683.29
488.097	14956.5
488.467	14937.52
488.837	15374.79
489.207	15583.15
489.578	15763.94
489.948	15890.26
490.318	16155.34
490.688	16208.22
491.058	16468.78
491.428	16779.05
491.798	16934.75
492.168	17358.47
492.538	17261.75
492.908	17505.81
493.278	17796.42
493.648	17838.91
494.017	18128.17
494.387	18242.97
494.757	18388.95
495.126	18550.53
495.496	18708.49
495.866	18844.08
496.235	19066
496.605	19247.23
496.974	19394.35
497.344	19532.42
497.713	19633.21
498.082	19869.59
498.452	20018.97
498.821	20213.31
499.19	20253.54
499.559	20460.99
499.928	20568.33
500.298	20722.45
500.667	20995.66
501.036	20918.6
501.405	21242.44
501.774	21228.88
502.143	21451.7
502.512	21599.94
502.88	21813.72
503.249	21923.32
503.618	22053.26
503.987	22166.25
504.356	22408.73
504.724	22506.58
505.093	22528.96
505.462	22717.65
505.83	22927.82
506.199	23143.63
506.567	23299.56
506.936	23380.01
507.304	23773.67
507.672	23852.99
508.041	23886.66
508.409	24085.98
508.777	24390.83
509.145	24470.83
509.514	24575.46
509.882	24811.61
510.25	24876.92
510.618	24975.67
510.986	25229.68
511.354	25531.36
511.722	25740.4
512.09	25809.55
512.458	25856.1
512.826	26181.51
513.193	26228.75
513.561	26444.78
513.929	26694.04
514.297	26949.86
514.664	27191.43
515.032	27232.11
515.4	27563.63
515.767	27599.1
516.135	27898.53
516.502	27751.19
516.869	28240.67
517.237	28484.05
517.604	28455.81
517.972	28791.16
518.339	28931.5
518.706	29083.81
519.073	29175.79
519.44	29336.23
519.808	29840.63
520.175	29774.19
520.542	30135.99
520.909	30428.18
521.276	30423.44
521.643	30865.91
522.009	31044.21
522.376	31255.51
522.743	31530.98
523.11	31683.52
523.477	32059.78
523.843	32253.22
524.21	32702.25
524.577	32870.15
524.943	32997.38
525.31	33218.84
525.676	33528.21
526.043	33700.87
526.409	33911.48
526.776	34197.8
527.142	34327.74
527.508	34616.77
527.874	34881.63
528.241	35184.67
528.607	35152.35
528.973	35541.27
529.339	35593.02
529.705	35935.83
530.071	36235.49
530.437	36395.94
530.803	36669.6
531.169	37005.41
531.535	36807.9
531.901	36959.99
532.267	37183.71
532.632	37493.31
532.998	37596.58
533.364	37928.55
533.73	38035.21
534.095	38312.04
534.461	38342.78
534.826	38647.85
535.192	38811.69
535.557	39069.99
535.923	39019.6
536.288	39189.53
536.653	39514.05
537.019	39555.85
537.384	39634.04
537.749	39836.07
538.114	39916.75
538.479	39987.93
538.845	40265.44
539.21	40272.67
539.575	40407.81
539.94	40697.97
540.305	40882.82
540.67	40890.96
541.034	41121.91
541.399	41337.73
541.764	41355.81
542.129	41514.45
542.494	41570.71
542.858	41757.83
543.223	41887.54
543.587	42030.14
543.952	42094.09
544.316	42278.27
544.681	42359.39
545.045	42584.47
545.41	42756.22
545.774	42807.74
546.138	42800.51
546.503	43011.81
546.867	43021.75
547.231	43532.25
547.595	43441.63
547.959	43674.84
548.324	43694.73
548.688	43848.85
549.052	43871.9
549.416	44104.89
549.779	44197.99
550.143	44355.27
550.507	44585.78
550.871	44781.48
551.235	44837.52
551.599	45129.49
551.962	45114.35
552.326	45384.4
552.689	45533.1
553.053	45462.36
553.417	45586.88
553.78	46130.82
554.143	45953.65
554.507	46239.97
554.87	46432.51
555.234	46849.9
555.597	46531.26
555.96	46722.9
556.323	47034.98
556.686	46921.76
557.05	47253.5
557.413	47371.24
557.776	47509.54
558.139	47799.25
558.502	47744.79
558.865	47947.72
559.228	48236.08
559.59	48328.73
559.953	48406.69
560.316	48828.15
560.679	48852.11
561.041	49119.67
561.404	49307.23
561.767	49499.09
562.129	49364.18
562.492	49839.65
562.854	49777.5
563.217	49850.05
563.579	50011.62
563.941	50245.74
564.304	50466.75
564.666	50745.39
565.028	50724.15
565.39	51039.62
565.753	51010.01
566.115	51147.86
566.477	51283
566.839	51374.3
567.201	51583.56
567.563	51601.86
567.925	51857
568.287	51843.21
568.648	51998.24
569.01	52101.51
569.372	52316.87
569.734	52281.39
570.095	52579.46
570.457	52607.03
570.819	52659.91
571.18	52613.81
571.542	52876.18
571.903	52977.65
572.265	53046.12
572.626	53083.18
572.987	53211.09
573.349	53325.89
573.71	53439.78
574.071	53519.78
574.432	53498.99
574.794	53766.33
575.155	53753.67
575.516	53722.71
575.877	53797.51
576.238	53919.32
576.599	54039.77
576.96	54053.32
577.32	54064.17
577.681	54136.71
578.042	54282.7
578.403	54279.76
578.763	54335.12
579.124	54372.41
579.485	54436.37
579.845	54526.08
580.206	54432.3
580.566	54492.18
580.927	54571.05
581.287	54677.49
581.648	54472.75
582.008	54654.89
582.368	54757.94
582.728	54744.61
583.089	54654.21
583.449	54702.8
583.809	54790.03
584.169	54862.12
584.529	54775.79
584.889	54935.56
585.249	54701.22
585.609	54675
585.969	54832.74
586.329	54782.8
586.688	54884.49
587.048	54825.06
587.408	54812.4
587.768	54867.54
588.127	54809.69
588.487	54799.29
588.846	55024.37
589.206	54814.66
589.565	54882.68
589.925	54919.97
590.284	54843.36
590.643	54914.54
591.003	54998.16
591.362	55030.93
591.721	54995.45
592.08	55000.64
592.44	55040.19
592.799	55010.14
593.158	54999.74
593.517	55031.83
593.876	55008.1
594.235	55068.67
594.593	54961.55
594.952	55067.08
595.311	55078.16
595.67	55151.37
596.029	55241.09
596.387	55210.81
596.746	55284.93
597.104	55186.85
597.463	55131.94
597.822	55345.04
598.18	55254.87
598.538	55154.09
598.897	55348.21
599.255	55149.79
599.613	55477.02
599.972	55323.12
600.33	55515.21
600.688	55319.05
601.046	55401.54
601.404	55560.86
601.762	55446.06
602.12	55670.23
602.478	55610.57
602.836	55721.3
603.194	55499.16
603.552	55630.68
603.91	55524.92
604.268	55717.24
604.625	55639.95
604.983	55750.91
605.341	55554.53
605.698	55788.87
606.056	55784.58
606.413	55785.71
606.771	55898.25
607.128	55939.6
607.485	55803.11
607.843	55791.36
608.2	55942.31
608.557	55995.65
608.914	55940.51
609.272	56102.08
609.629	56155.42
609.986	56138.47
610.343	56044.23
610.7	56293.27
611.057	56224.34
611.414	56230.22
611.771	56270.44
612.127	56360.83
612.484	56368.52
612.841	56451
613.198	56285.13
613.554	56379.82
613.911	56552.92
614.267	56523.99
614.624	56421.62
614.98	56532.36
615.337	56679.02
615.693	56571.9
616.05	56624.56
616.406	56701.84
616.762	56638.57
617.118	56619.81
617.475	56669.53
617.831	56725.8
618.187	56691.9
618.543	56749.3
618.899	56874.49
619.255	56840.37
619.611	56797.89
619.967	56876.75
620.323	56930.99
620.678	56830.43
621.034	56811.9
621.39	56842.86
621.746	56771.67
622.101	57095.73
622.457	56869.75
622.812	56938.45
623.168	56962.63
623.523	56918.11
623.879	57075.17
624.234	56913.59
624.589	56952.01
624.945	56974.6
625.3	56969.63
625.655	56899.8
626.01	56976.41
626.365	57083.08
626.72	56979.35
627.075	56885.11
627.43	56961.5
627.785	56844.66
628.14	56861.16
628.495	56913.81
628.85	56838.11
629.205	56732.58
629.559	56894.83
629.914	56756.98
630.269	56787.49
630.623	56748.85
630.978	56649.64
631.332	56782.74
631.687	56821.84
632.041	56731.45
632.396	56793.14
632.75	56656.42
633.104	56582.98
633.459	56583.65
633.813	56472.24
634.167	56545.01
634.521	56556.76
634.875	56547.27
635.229	56489.87
635.583	56367.39
635.937	56356.09
636.291	56296.2
636.645	56193.16
636.999	56285.36
637.352	56257.11
637.706	56184.12
638.06	56241.06
638.413	56154.06
638.767	56089.66
639.121	56177.79
639.474	55914.29
639.828	55951.13
640.181	56008.08
640.534	55952.48
640.888	55918.81
641.241	55814.86
641.594	55860.51
641.947	55868.42
642.301	55817.57
642.654	55828.65
643.007	55804.69
643.36	55729.21
643.713	55722.43
644.066	55888.98
644.419	55582.55
644.771	55472.27
645.124	55135.56
645.477	55174.65
645.83	54886.75
646.182	54771.05
646.535	54717.71
646.888	54739.41
647.24	54614.44
647.593	54730.59
647.945	54665.06
648.298	54537.61
648.65	54436.37
649.002	54460.32
649.355	54559.75
649.707	54454.9
650.059	54578.96
650.411	54882.91
650.763	54959.06
651.115	55172.62
651.467	55078.83
651.819	55030.7
652.171	54974.66
652.523	54950.25
652.875	54936.92
653.227	54829.58
653.578	54884.72
653.93	54863.02
654.282	54691.5
654.633	54630.48
654.985	54713.42
655.337	54687.66
655.688	54650.14
656.039	54763.36
656.391	54578.06
656.742	54642.69
657.094	54628.22
657.445	54751.16
657.796	54691.73
658.147	54557.72
658.498	54571.05
658.849	54600.88
659.2	54544.39
659.551	54464.39
659.902	54623.7
660.253	54458.96
660.604	54448.57
660.955	54315.01
661.306	54448.79
661.656	54365.41
662.007	54399.3
662.358	54353.66
662.708	54388.68
663.059	54366.31
663.409	54211.74
663.76	54386.65
664.11	54294
664.461	54303.04
664.811	54254.9
665.161	54258.97
665.511	54214.45
665.862	54211.06
666.212	54350.94
666.562	54339.42
666.912	54242.02
667.262	54203.38
667.612	54247.9
667.962	54272.53
668.312	54173.55
668.662	54339.87
669.011	54197.28
669.361	54141.01
669.711	54154.34
670.06	54132.64
670.41	54019.2
670.76	53990.5
671.109	54094
671.459	54031.86
671.808	53996.38
672.157	54077.28
672.507	53934.23
672.856	53949.6
673.205	53984.63
673.554	54063.72
673.904	53838.87
674.253	53891.29
674.602	53740.34
674.951	53514.36
675.3	53331.31
675.649	53696.5
675.998	53765.42
676.346	53692.88
676.695	53743.95
677.044	53609.95
677.393	53671.19
677.741	53758.64
678.09	53638.19
678.438	53533.79
678.787	53612.88
679.135	53721.58
679.484	53377.64
679.832	53507.35
680.181	53327.02
680.529	53347.58
680.877	53320.24
681.225	53273.01
681.573	53507.35
681.922	53220.58
682.27	53212.44
682.618	53237.98
682.966	53106
683.314	53143.07
683.661	52975.61
684.009	52825.79
684.357	52789.18
684.705	52812.23
685.053	52854.26
685.4	52820.59
685.748	52614.94
686.095	52534.72
686.443	52397.55
686.79	52351
687.138	52474.38
687.485	52350.09
687.832	52327.72
688.18	52329.75
688.527	52174.05
688.874	52052.7
689.221	52051.8
689.568	51894.96
689.915	51812.03
690.262	51840.95
690.609	51706.95
690.956	51631.47
691.303	51654.97
691.65	51362.77
691.997	51374.52
692.344	51118.03
692.69	51146.28
693.037	51229.67
693.383	50939.51
693.73	51078.04
694.077	50782
694.423	50838.49
694.769	50714.43
695.116	50697.48
695.462	50626.3
695.808	50605.28
696.155	50612.74
696.501	50290.94
696.847	50292.52
697.193	50026.09
697.539	50102.92
697.885	49903.15
698.231	49864.06
698.577	49843.49
698.923	49757.17
699.269	49480.11
699.614	49335.93
699.96	49313.11
700.306	49417.97
700.651	49178.2
700.997	49116.96
701.342	49065.43
701.688	48968.03
702.033	48807.13
702.379	48741.15
702.724	48715.16
703.069	48721.26
703.415	48401.72
703.76	48333.02
704.105	48264.1
704.45	48145.23
704.795	47965.8
705.14	47802.64
705.485	47838.12
705.83	47536.66
706.175	47756.99
706.52	47653.49
706.865	47423.22
707.209	47417.11
707.554	47305.25
707.899	47442.65
708.243	47247.18
708.588	47183.45
708.932	46924.92
709.277	47002.66
709.621	46865.04
709.966	46608.32
710.31	46713.18
710.654	46371.27
710.998	46450.81
711.342	46405.39
711.687	46252.63
712.031	46105.74
712.375	45887.44
712.719	46029.13
713.063	45878.85
713.407	45925.4
713.75	45790.94
714.094	45720.21
714.438	45634.11
714.782	45578.97
715.125	45441.8
715.469	45381.01
715.812	45171.3
716.156	44917.97
716.499	45041.36
716.843	45048.82
717.186	44602.95
717.53	44947.8
717.873	44979.89
718.216	44785.09
718.559	44727.24
718.902	44407.93
719.246	44535.61
719.589	44365.67
719.932	44275.05
720.275	44217.88
720.617	44226.69
720.96	44016.98
721.303	44107.82
721.646	44190.08
721.989	43728.85
722.331	43993.48
722.674	43770.66
723.016	43896.76
723.359	43627.38
723.701	43710.09
724.044	43407.95
724.386	43228.75
724.729	43411.8
725.071	43311.46
725.413	43366.83
725.755	43103.1
726.097	43092.71
726.439	42818.59
726.782	42793.51
727.124	42904.24
727.465	42656.11
727.807	42586.06
728.149	42550.12
728.491	42557.58
728.833	42714.19
729.175	42445.95
729.516	42455.66
729.858	42305.38
730.199	42370.47
730.541	42180.42
730.882	42122.79
731.224	42179.74
731.565	41901.55
731.906	41855.68
732.248	41989.91
732.589	41779.07
732.93	41590.15
733.271	41758.05
733.612	41809.13
733.953	41735.46
734.294	41290.72
734.635	41319.65
734.976	41592.41
735.317	41147.45
735.658	41189.26
735.999	41242.36
736.339	41138.64
736.68	41081.69
737.021	41095.7
737.361	40734.58
737.702	41061.12
738.042	40812.54
738.383	40778.65
738.723	40808.02
739.063	40595.15
739.404	40810.73
739.744	40588.82
740.084	40329.84
740.424	40449.84
740.764	40407.58
741.104	40583.62
741.444	40102.73
741.784	39931.21
742.124	40099.34
742.464	40082.39
742.804	39879.23
743.143	39927.37
743.483	39917.88
743.823	39746.13
744.162	39737.32
744.502	39813.92
744.841	39676.3
745.181	39807.6
745.52	39451.45
745.86	39648.96
746.199	39434.95
746.538	39450.77
746.877	39343.65
747.216	39324.22
747.556	39100.95
747.895	39088.52
748.234	38941.86
748.573	38927.17
748.911	38840.62
749.25	38956.32
749.589	38760.85
749.928	38681.07
750.267	38619.61
750.605	38443.11
750.944	38438.37
751.283	38264.59
751.621	38495.54
751.96	38179.84
752.298	38185.04
752.636	38151.6
752.975	37919.51
753.313	37865.95
753.651	38033.18
753.989	37632.29
754.327	37555
754.666	37604.94
755.004	37585.96
755.342	37564.49
755.679	37516.36
756.017	37245.86
756.355	37284.27
756.693	37141.23
757.031	37186.42
757.368	36924.28
757.706	36832.99
758.044	36767.45
758.381	36621.47
758.719	36652.88
759.056	36562.71
759.394	36521.58
759.731	36187.58
760.068	36221.03
760.405	36047.47
760.743	35947.13
761.08	35920.02
761.417	35694.71
761.754	35699
762.091	35621.94
762.428	35541.04
762.765	35410.65
763.102	35538.11
763.438	35251.33
763.775	35034.62
764.112	35047.72
764.449	34905.58
764.785	34812.93
765.122	34473.27
765.458	34466.95
765.795	34614.74
766.131	34381.3
766.467	34164.58
766.804	34033.96
767.14	33857.92
767.476	33837.36
767.812	33633.07
768.148	33705.38
768.485	33559.85
768.821	33294.32
769.157	33417.93
769.492	33140.2
769.828	33201.9
770.164	32914.45
770.5	32770.95
770.836	32860.21
771.171	32500.9
771.507	32595.81
771.842	32353.1
772.178	32267.91
772.513	32198.08
772.849	32164.41
773.184	32088.03
773.519	32125.54
773.855	31832.44
774.19	31665.66
774.525	31556.74
774.86	31555.38
775.195	31394.49
775.53	31354.49
775.865	31088.05
776.2	30956.3
776.535	30740.04
776.87	30757.44
777.205	30625.01
777.539	30511.34
777.874	30512.7
778.209	30356.77
778.543	30115.42
778.878	29994.07
779.212	30079.72
779.547	29837.69
779.881	29931.92
780.215	29720.63
780.55	29727.18
780.884	29537.13
781.218	29500.98
781.552	29339.62
781.886	29289
782.22	29078.16
782.554	29038.84
782.888	28793.2
783.222	28633.43
783.556	28658.51
783.889	28567.67
784.223	28200.22
784.557	28273.66
784.89	28223.5
785.224	28125.19
785.557	28042.93
785.891	28016.95
786.224	27824.18
786.558	27828.93
786.891	27405.21
787.224	27426
787.557	27305.33
787.891	27293.58
788.224	27303.52
788.557	27243.18
788.89	27158.44
789.223	27067.82
789.556	26829.86
789.888	26789.63
790.221	26751.44
790.554	26470.77
790.887	26552.35
791.219	26387.16
791.552	26389.19
791.884	26233.72
792.217	26109.88
792.549	26064.46
792.882	25847.29
793.214	25828.98
793.546	25878.7
793.879	25655.65
794.211	25480.29
794.543	25461.53
794.875	25332.95
795.207	25489.1
795.539	25207.08
795.871	25276.45
796.203	25068.32
796.535	24998.5
796.867	24784.26
797.198	24837.37
797.53	24793.98
797.862	24512.18
798.193	24586.98
798.525	24479.41
798.856	24480.99
799.188	24231.28
799.519	24106.77
799.85	24122.13
800.182	24133.66
800.513	24163.26
800.844	23893.67
801.175	24005.3
801.506	23921.91
801.837	23747.68
802.168	23681.24
802.499	23605.09
802.83	23384.3
803.161	23415.49
803.491	23367.13
803.822	23320.35
804.153	23267.24
804.483	23075.61
804.814	23039.68
805.145	22942.73
805.475	22947.7
805.805	22909.74
806.136	22880.81
806.466	22822.06
806.796	22775.28
807.126	22639.91
807.457	22496.64
807.787	22514.27
808.117	22458.9
808.447	22288.28
808.777	22295.52
809.107	22343.88
809.436	22135.52
809.766	22135.52
810.096	22063.66
810.426	21960.61
810.755	21945.47
811.085	21918.35
811.414	21883.77
811.744	21723.33
812.073	21684.46
812.403	21686.72
812.732	21535.31
813.061	21638.13
813.39	21472.94
813.719	21333.73
814.049	21407.63
814.378	21315.65
814.707	21338.25
815.036	21264.36
815.365	21070.91
815.693	20813.52
816.022	20898.49
816.351	20872.05
816.68	20728.1
817.008	20802.22
817.337	20631.38
817.665	20578.05
817.994	20672.28
818.322	20546.18
818.651	20602.45
818.979	20294.89
819.307	20505.96
819.636	20371.95
819.964	20266.19
820.292	20375.34
820.62	20302.8
820.948	20208.79
821.276	20297.38
821.604	20121.56
821.932	20237.72
822.259	20282.46
822.587	20271.84
822.915	20213.31
823.243	20220.32
823.57	20154.1
823.898	20239.07
824.225	20182.12
824.553	20143.48
824.88	20098.51
825.207	20133.09
825.535	20099.19
825.862	20174.89
826.189	20124.27
826.516	20225.51
826.843	20324.04
827.17	20270.03
827.497	20270.71
827.824	20118.4
828.151	20109.36
828.478	20056.25
828.805	20074.56
829.131	19960.21
829.458	20046.99
829.785	19999.76
830.111	20000.89
830.438	20223.93
830.764	20032.3
831.09	20055.57
831.417	20003.82
831.743	20027.33
832.069	20084.5
832.395	19896.71
832.722	19966.09
833.048	19948.01
833.374	19912.98
833.7	19815.35
834.026	19915.01
834.351	19946.88
834.677	19958.4
835.003	19895.13
835.329	19831.63
835.654	19818.07
835.98	19629.37
836.306	19716.6
836.631	19692.87
836.956	19740.33
837.282	19747.33
837.607	19573.1
837.932	19593.21
838.258	19588.24
838.583	19493.78
838.908	19352.32
839.233	19368.59
839.558	19400.22
839.883	19367
840.208	19369.04
840.533	19428.25
840.858	19294.69
841.182	19287.68
841.507	19197.29
841.832	19184.86
842.156	19049.05
842.481	18953.23
842.805	19019.44
843.13	18974.92
843.454	18955.26
843.778	18815.38
844.103	18869.39
844.427	18800.92
844.751	18836.62
845.075	18684.99
845.399	18597.08
845.723	18581.49
846.047	18487.25
846.371	18446.58
846.695	18447.93
847.019	18261.95
847.343	18164.55
847.666	18087.26
847.99	17973.82
848.313	17972.01
848.637	17838.68
848.96	17844.56
849.284	17813.37
849.607	17721.17
849.931	17697.22
850.254	17532.25
850.577	17414.06
850.9	17330
851.223	17407.73
851.546	17209.77
851.869	17033.73
852.192	17182.88
852.515	17021.08
852.838	16879.84
853.161	17018.14
853.483	16888.2
853.806	16803.46
854.129	16786.73
854.451	16630.58
854.774	16558.72
855.096	16512.84
855.419	16498.61
855.741	16461.09
856.063	16365.28
856.385	16304.26
856.708	16298.39
857.03	16176.35
857.352	16179.07
857.674	16098.39
857.996	15913.54
858.318	15968.22
858.64	15961.67
858.961	15926.19
859.283	15930.71
859.605	15773.43
859.926	15863.37
860.248	15838.51
860.57	15701.34
860.891	15720.77
861.212	15622.24
861.534	15591.51
861.855	15484.62
862.176	15567.1
862.498	15621.34
862.819	15595.13
863.14	15381.12
863.461	15445.98
863.782	15372.31
864.103	15375.47
864.424	15332.08
864.745	15368.92
865.065	15337.28
865.386	15259.54
865.707	15279.43
866.027	15248.02
866.348	15266.1
866.668	15309.26
866.989	15153.56
867.309	14990.4
867.63	15078.76
867.95	15068.36
868.27	14899.33
868.59	15037.4
868.91	14983.39
869.23	14934.81
869.55	14852.55
869.87	14985.65
870.19	14998.76
870.51	14879.21
870.83	14797.41
871.15	14703.62
871.469	14642.84
871.789	14771.87
872.109	14657.07
872.428	14582.5
872.748	14639.67
873.067	14580.69
873.386	14615.49
873.706	14596.28
874.025	14553.8
874.344	14504.99
874.663	14529.39
874.982	14527.36
875.301	14456.4
875.62	14363.29
875.939	14336.4
876.258	14349.74
876.577	14416.4
876.896	14322.39
877.214	14353.35
877.533	14335.05
877.852	14238.55
878.17	14210.76
878.489	14195.84
878.807	14305.44
879.125	14080.59
879.444	14117.43
879.762	14106.58
880.08	14105
880.398	14048.95
880.716	14035.85
881.034	14013.02
881.352	14003.53
881.67	13930.09
881.988	13941.61
882.306	13825.91
882.624	13838.56
882.941	13801.95
883.259	13679.24
883.577	13688.06
883.894	13708.62
884.212	13614.61
884.529	13588.4
884.846	13537.55
885.164	13598.12
885.481	13491.23
885.798	13506.14
886.115	13418.01
886.432	13391.57
886.75	13337.11
887.067	13334.4
887.383	13394.73
887.7	13431.34
888.017	13311.12
888.334	13313.38
888.651	13221.86
888.967	13321.29
889.284	13086.72
889.6	13088.75
889.917	13058.24
890.233	13056.21
890.55	12950.22
890.866	13072.03
891.182	12913.16
891.498	12955.87
891.815	12902.99
892.131	12806.27
892.447	12731.93
892.763	12722.66
893.079	12700.97
893.395	12604.24
893.71	12541.65
894.026	12590.01
894.342	12576.45
894.657	12432.95
894.973	12522.44
895.289	12350.92
895.604	12361.09
895.92	12305.95
896.235	12246.29
896.55	12276.12
896.865	12270.02
897.181	12227.31
897.496	12237.25
897.811	12104.82
898.126	12079.51
898.441	12031.6
898.756	11967.65
899.071	11887.43
899.386	11973.75
899.7	11790.03
900.015	11824.38
900.33	11682.69
900.644	11673.65
900.959	11650.15
901.273	11696.25
901.588	11576.48
901.902	11533.09
902.216	11516.14
902.531	11429.36
902.845	11428.91
903.159	11245.18
903.473	11333.09
903.787	11211.29
904.101	11162.7
904.415	11173.1
904.729	11138.07
905.042	11037.96
905.356	11013.1
905.67	11034.12
905.984	10985.98
906.297	10988.69
906.611	10913.67
906.924	10909.37
907.237	10845.42
907.551	10872.76
907.864	10720.45
908.177	10731.98
908.491	10703.5
908.804	10635.71
909.117	10504.41
909.43	10463.28
909.743	10372.89
910.056	10439.78
910.368	10371.76
910.681	10367.47
910.994	10304.19
911.307	10219.45
911.619	10208.15
911.932	10178.32
912.244	10135.84
912.557	10111.43
912.869	10039.57
913.181	10005.22
913.494	10032.11
913.806	9908.27
914.118	9880.93
914.43	9893.36
914.742	9882.73
915.054	9788.27
915.366	9752.34
915.678	9737.88
915.99	9638.9
916.302	9612.23
916.613	9619.46
916.925	9506.7
917.236	9504.21
917.548	9433.48
917.859	9432.12
918.171	9360.71
918.482	9350.09
918.794	9283.2
919.105	9282.52
919.416	9226.48
919.727	9189.42
920.038	9127.05
920.349	9095.18
920.66	9041.85
920.971	9037.56
921.282	9003.66
921.593	8843.89
921.903	8831.01
922.214	8842.31
922.525	8856.09
922.835	8752.14
923.146	8726.61
923.456	8705.82
923.767	8679.83
924.077	8655.2
924.387	8615.2
924.697	8561.19
925.008	8530.23
925.318	8496.33
925.628	8439.38
925.938	8459.95
926.248	8342.66
926.558	8301.99
926.867	8320.29
927.177	8249.11
927.487	8220.63
927.796	8194.64
928.106	8168.2
928.416	8112.84
928.725	8114.19
929.034	7959.17
929.344	8044.14
929.653	7980.64
929.962	7968.66
930.271	7905.61
930.581	7843.92
930.89	7890.02
931.199	7807.99
931.508	7758.27
931.817	7742
932.125	7695.67
932.434	7730.25
932.743	7638.05
933.051	7574.09
933.36	7490.93
933.669	7565.06
933.977	7480.54
934.286	7510.37
934.594	7375.23
934.902	7345.4
935.21	7346.98
935.519	7310.15
935.827	7306.31
936.135	7239.64
936.443	7213.2
936.751	7195.8
937.059	7119.19
937.367	7092.98
937.674	7145.18
937.982	7092.75
938.29	7102.02
938.597	7038.29
938.905	6938.86
939.213	6961.68
939.52	6909.25
939.827	6931.4
940.135	6860.22
940.442	6821.35
940.749	6789.03
941.056	6857.73
941.363	6727.11
941.67	6728.02
941.977	6661.8
942.284	6641.69
942.591	6686.66
942.898	6600.33
943.205	6574.57
943.511	6582.71
943.818	6512.65
944.125	6463.62
944.431	6417.97
944.738	6434.01
945.044	6384.07
945.35	6330.96
945.657	6291.19
945.963	6350.4
946.269	6274.47
946.575	6270.85
946.881	6221.14
947.187	6181.36
947.493	6135.49
947.799	6082.83
948.105	6094.13
948.41	6052.78
948.716	6057.52
949.022	6028.37
949.327	6001.48
949.633	5915.38
949.938	5944.98
950.244	5909.05
950.549	5897.3
950.854	5894.82
951.16	5819.79
951.465	5795.16
951.77	5761.71
952.075	5775.5
952.38	5770.75
952.685	5744.31
952.99	5672.22
953.294	5642.85
953.599	5570.08
953.904	5612.56
954.209	5523.75
954.513	5561.49
954.818	5478.78
955.122	5516.75
955.426	5477.88
955.731	5441.04
956.035	5391.78
956.339	5387.26
956.643	5414.38
956.948	5352.91
957.252	5359.01
957.556	5329.63
957.86	5295.96
958.163	5298.45
958.467	5256.19
958.771	5222.07
959.075	5222.52
959.378	5200.15
959.682	5181.16
959.985	5159.24
960.289	5119.24
960.592	5120.37
960.896	5024.33
961.199	5063.43
961.502	4980.72
961.805	4976.42
962.108	4945.01
962.411	4925.35
962.714	4914.96
963.017	4881.06
963.32	4911.11
963.623	4825.69
963.926	4902.75
964.228	4796.54
964.531	4799.48
964.833	4820.72
965.136	4819.59
965.438	4768.52
965.741	4712.25
966.043	4734.4
966.345	4701.63
966.648	4633.61
966.95	4690.55
967.252	4635.64
967.554	4576.89
967.856	4580.05
968.158	4566.72
968.46	4553.16
968.761	4527.85
969.063	4490.56
969.365	4465.48
969.666	4469.32
969.968	4394.29
970.269	4386.16
970.571	4427.96
970.872	4330.11
971.174	4381.86
971.475	4330.56
971.776	4273.84
972.077	4284.01
972.378	4240.4
972.679	4260.06
972.98	4289.21
973.281	4170.34
973.582	4212.83
973.883	4210.57
974.183	4177.8
974.484	4154.75
974.785	4109.1
975.085	4145.26
975.386	4126.73
975.686	4093.73
975.986	4050.12
976.287	4040.85
976.587	4049.67
976.887	3978.48
977.187	3941.87
977.487	3992.72
977.787	3941.87
978.087	3879.05
978.387	3919.28
978.687	3893.06
978.987	3870.92
979.286	3831.59
979.586	3823.01
979.885	3816.45
980.185	3785.04
980.484	3765.83
980.784	3762.44
981.083	3711.37
981.382	3714.54
981.682	3719.28
981.981	3738.72
982.28	3683.12
982.579	3638.15
982.878	3654.2
983.177	3632.28
983.475	3635.44
983.774	3589.11
984.073	3583.69
984.372	3547.53
984.67	3536.69
984.969	3560.87
985.267	3514.99
985.566	3486.97
985.864	3499.63
986.162	3463.47
986.461	3465.95
986.759	3444.49
987.057	3399.06
987.355	3392.28
987.653	3395.22
987.951	3364.26
988.249	3355.67
988.547	3366.07
988.844	3311.83
989.142	3303.25
989.44	3318.84
989.737	3294.21
990.035	3248.33
990.332	3258.28
990.63	3269.35
990.927	3223.7
991.224	3180.99
991.521	3231.38
991.819	3190.93
992.116	3196.36
992.413	3171.27
992.71	3125.85
993.006	3114.32
993.303	3146.19
993.6	3067.77
993.897	3050.82
994.193	3054.89
994.49	3045.85
994.787	2988.9
995.083	2996.36
995.379	2989.81
995.676	2982.58
995.972	2955.68
996.268	2936.02
996.565	2915.46
996.861	2922.47
997.157	2914.78
997.453	2865.74
997.749	2838.85
998.044	2846.99
998.34	2820.1
998.636	2820.32
998.932	2806.31
999.227	2775.12
999.523	2783.03
999.818	2751.4
1000.114	2714.34
1000.409	2750.04
1000.704	2722.7
1001	2698.06
1001.295	2707.33
1001.59	2686.77
1001.885	2676.14
1002.18	2613.77
1002.475	2606.54
1002.77	2622.81
1003.065	2614
1003.359	2564.28
1003.654	2540.55
1003.949	2563.15
1004.243	2530.61
1004.538	2522.02
1004.832	2550.95
1005.127	2510.72
1005.421	2463.27
1005.715	2463.04
1006.009	2455.81
1006.304	2474.34
1006.598	2474.34
1006.892	2447.9
1007.186	2416.94
1007.48	2386.89
1007.773	2378.53
1008.067	2372.2
1008.361	2359.99
1008.655	2328.13
1008.948	2321.13
1009.242	2287.45
1009.535	2285.87
1009.829	2275.93
1010.122	2250.39
1010.415	2253.33
1010.708	2246.1
1011.001	2240.9
1011.295	2193.9
1011.588	2197.06
1011.881	2173.11
1012.173	2177.4
1012.466	2139.89
1012.759	2174.69
1013.052	2147.34
1013.344	2131.3
1013.637	2131.07
1013.93	2088.36
1014.222	2060.79
1014.514	2046.1
1014.807	2033.68
1015.099	2030.06
1015.391	2007.24
1015.683	2014.69
1015.976	2020.12
1016.268	1973.79
1016.56	1958.88
1016.851	1965.2
1017.143	1955.71
1017.435	1934.47
1017.727	1959.55
1018.018	1917.07
1018.31	1884.75
1018.602	1913.45
1018.893	1877.3
1019.185	1858.31
1019.476	1863.28
1019.767	1841.82
1020.058	1812.66
1020.35	1815.38
1020.641	1794.36
1020.932	1787.58
1021.223	1790.74
1021.514	1796.17
1021.804	1756.85
1022.095	1726.11
1022.386	1714.81
1022.677	1718.88
1022.967	1700.58
1023.258	1704.19
1023.548	1670.52
1023.839	1662.39
1024.129	1689.28
1024.419	1633.69
1024.709	1600.47
1025	1619.9
1025.29	1607.7
1025.58	1609.73
1025.87	1580.58
1026.16	1592.56
1026.449	1576.51
1026.739	1562.95
1027.029	1555.27
1027.319	1555.04
1027.608	1515.27
1027.898	1497.42
1028.187	1486.12
1028.477	1491.54
1028.766	1485.22
1029.055	1493.35
1029.344	1485.89
1029.634	1437.08
1029.923	1444.09
1030.212	1428.49
1030.501	1432.79
1030.79	1413.13
1031.078	1407.93
1031.367	1390.98
1031.656	1387.36
1031.945	1396.4
1032.233	1381.26
1032.522	1352.11
1032.81	1330.87
1033.099	1339.68
1033.387	1333.13
1033.675	1328.16
1033.963	1309.17
1034.251	1289.97
1034.54	1277.99
1034.828	1275.73
1035.116	1291.32
1035.403	1274.6
1035.691	1266.24
1035.979	1254.03
1036.267	1237.99
1036.554	1237.99
1036.842	1221.49
1037.129	1195.73
1037.417	1215.17
1037.704	1185.34
1037.992	1191.89
1038.279	1217.88
1038.566	1187.14
1038.853	1187.14
1039.14	1187.14
