Data from plate_porcelain_FLMS001491_100.txt Node
Date: Tue Feb 07 11:20:14 GMT 2017
User: dcchb
Spectrometer: FLMS00149
Trigger mode: 0
Integration Time (sec): 2.000000E-2
Scans to average: 10
Electric dark correction enabled: true
Nonlinearity correction enabled: false
Boxcar width: 0
XAxis mode: Wavelengths
Number of Pixels in Spectrum: 2048
>>>>>Begin Spectral Data<<<<<
341.393	-20.69
341.776	-20.69
342.16	-20.69
342.543	-48.26
342.927	-58.66
343.31	-71.99
343.693	-43.06
344.077	-75.38
344.46	-63.4
344.843	-56.62
345.226	-60.01
345.61	-29.73
345.993	-18.21
346.376	3.94
346.759	14.56
347.142	19.31
347.525	42.13
347.908	53.2
348.291	68.57
348.674	111.96
349.057	104.73
349.44	133.2
349.823	140.89
350.206	170.72
350.588	233.99
350.971	266.08
351.354	262.24
351.737	271.96
352.119	302.92
352.502	300.88
352.884	302.24
353.267	320.77
353.65	365.51
354.032	353.08
354.414	352.86
354.797	363.03
355.179	394.89
355.562	361.9
355.944	382.91
356.326	371.61
356.709	370.03
357.091	390.6
357.473	376.81
357.855	377.72
358.238	403.03
358.62	407.55
359.002	397.6
359.384	401.67
359.766	379.75
360.148	416.59
360.53	400.09
360.912	392.86
361.294	393.53
361.676	398.73
362.057	412.07
362.439	395.57
362.821	407.55
363.203	393.31
363.584	405.96
363.966	393.53
364.348	373.65
364.729	388.79
365.111	385.4
365.493	383.14
365.874	420.88
366.256	408.45
366.637	401.9
367.019	379.52
367.4	385.4
367.781	388.11
368.163	395.57
368.544	400.31
368.925	410.03
369.306	413.42
369.688	386.76
370.069	418.84
370.45	424.95
370.831	424.04
371.212	419.52
371.593	429.01
371.974	412.52
372.355	403.03
372.736	450.26
373.117	421.56
373.498	426.98
373.879	421.1
374.26	440.99
374.641	406.19
375.021	426.75
375.402	425.4
375.783	445.51
376.163	455.68
376.544	501.33
376.925	468.56
377.305	463.82
377.686	477.83
378.066	490.71
378.447	490.03
378.827	461.1
379.208	505.85
379.588	488.67
379.968	500.2
380.349	498.16
380.729	503.14
381.109	501.55
381.489	524.6
381.87	521.89
382.25	533.87
382.63	513.76
383.01	525.06
383.39	518.96
383.77	529.8
384.15	564.38
384.53	566.64
384.91	565.73
385.29	548.56
385.67	555.34
386.049	589.69
386.429	593.3
386.809	580.2
387.189	585.62
387.568	596.24
387.948	610.93
388.328	637.37
388.707	624.04
389.087	632.17
389.466	637.14
389.846	642.34
390.225	662.23
390.605	662.23
390.984	663.36
391.363	669.23
391.743	675.56
392.122	690.7
392.501	716.24
392.881	704.26
393.26	712.85
393.639	704.94
394.018	710.36
394.397	736.12
394.776	727.99
395.155	762.34
395.534	762.79
395.913	754.88
396.292	789
396.671	791.49
397.05	797.82
397.429	794.88
397.808	788.78
398.186	807.31
398.565	841.66
398.944	836.69
399.323	833.98
399.701	821.32
400.08	861.55
400.458	859.29
400.837	851.83
401.215	881.43
401.594	875.33
401.972	908.78
402.351	911.26
402.729	899.06
403.107	930.92
403.486	942.67
403.864	961.2
404.242	975.44
404.62	977.47
404.999	984.48
405.377	977.93
405.755	1010.02
406.133	1008.21
406.511	1033.52
406.889	1049.11
407.267	1065.16
407.645	1085.95
408.023	1088.21
408.401	1154.19
408.779	1111.26
409.156	1155.77
409.534	1145.61
409.912	1177.02
410.29	1196.23
410.667	1221.54
411.045	1237.58
411.422	1220.18
411.8	1266.05
412.178	1278.71
412.555	1326.17
412.933	1317.8
413.31	1318.48
413.687	1337.92
414.065	1358.48
414.442	1379.5
414.819	1388.31
415.197	1435.54
415.574	1438.93
415.951	1440.29
416.328	1497.91
416.705	1489.1
417.082	1500.4
417.46	1475.77
417.837	1526.61
418.214	1565.26
418.591	1539.04
418.967	1570.45
419.344	1582.2
419.721	1582.2
420.098	1615.42
420.475	1651.81
420.852	1658.36
421.228	1675.54
421.605	1711.01
421.982	1738.13
422.358	1758.92
422.735	1758.47
423.111	1764.12
423.488	1780.39
423.864	1822.88
424.241	1848.41
424.617	1847.06
424.994	1854.29
425.37	1916.66
425.746	1877.34
426.123	1927.05
426.499	1933.61
426.875	1969.54
427.251	2033.72
427.627	2069.65
428.003	2062.42
428.379	2115.3
428.756	2144
429.132	2166.37
429.507	2198.23
429.883	2253.37
430.259	2268.06
430.635	2297.89
431.011	2310.32
431.387	2373.82
431.763	2427.61
432.138	2446.14
432.514	2438.9
432.89	2461.05
433.265	2536.08
433.641	2556.19
434.016	2560.71
434.392	2626.7
434.767	2695.17
435.143	2690.88
435.518	2710.76
435.894	2777.65
436.269	2792.79
436.644	2831.66
437.02	2873.24
437.395	2874.83
437.77	2903.07
438.145	2984.65
438.52	2986.91
438.895	3040.02
439.271	3035.27
439.646	3116.63
440.021	3139.23
440.395	3136.29
440.77	3122.95
441.145	3162.28
441.52	3217.87
441.895	3203.63
442.27	3263.29
442.645	3269.17
443.019	3304.87
443.394	3350.29
443.769	3352.1
444.143	3375.38
444.518	3436.84
444.892	3452.66
445.267	3481.14
445.641	3496.05
446.016	3579.44
446.39	3581.02
446.764	3553.23
447.139	3586.22
447.513	3648.59
447.887	3655.37
448.262	3726.1
448.636	3718.87
449.01	3727.23
449.384	3787.34
449.758	3801.13
450.132	3908.24
450.506	3916.38
450.88	3924.97
451.254	3932.42
451.628	4032.08
452.002	4044.29
452.376	4088.8
452.75	4146.43
453.123	4175.81
453.497	4237.95
453.871	4243.38
454.244	4366.54
454.618	4394.33
454.992	4436.59
455.365	4490.15
455.739	4573.54
456.112	4614.44
456.486	4669.81
456.859	4728.56
457.232	4808.79
457.606	4839.75
457.979	4904.6
458.352	4985.73
458.725	5040.87
459.099	5104.37
459.472	5218.04
459.845	5277.93
460.218	5311.82
460.591	5353.4
460.964	5321.31
461.337	5537.81
461.71	5620.06
462.083	5690.34
462.456	5653.06
462.829	5695.54
463.201	5834.52
463.574	5826.39
463.947	5952.03
464.32	6101.63
464.692	6149.54
465.065	6191.8
465.438	6273.15
465.81	6371.68
466.183	6443.32
466.555	6608.29
466.928	6610.77
467.3	6621.62
467.672	6735.51
468.045	6899.35
468.417	6941.61
468.789	7007.37
469.161	7152.23
469.534	7267.48
469.906	7346.12
470.278	7457.98
470.65	7517.87
471.022	7731.2
471.394	7842.38
471.766	7907.69
472.138	8006.67
472.51	8208.47
472.882	8359.88
473.253	8437.84
473.625	8623.6
473.997	8755.12
474.369	8814.33
474.74	8967.55
475.112	9116.47
475.484	9176.35
475.855	9382
476.227	9533.41
476.598	9693.18
476.97	9874.19
477.341	10070.34
477.713	10192.15
478.084	10242.99
478.455	10573.38
478.827	10636.43
479.198	10969.08
479.569	11036.64
479.94	11445.67
480.311	11446.13
480.682	11737.42
481.053	11988.48
481.424	12205.2
481.795	12311.19
482.166	12545.76
482.537	12645.87
482.908	12918.86
483.279	13056.03
483.65	13365.4
484.021	13615.79
484.391	13731.26
484.762	13890.36
485.133	14050.12
485.503	14180.29
485.874	14503.9
486.244	14636.32
486.615	15018.24
486.985	15139.81
487.356	15407.15
487.726	15591.33
488.097	15945.89
488.467	15980.7
488.837	16284.87
489.207	16502.49
489.578	16829.94
489.948	16961.91
490.318	17192.64
490.688	17289.36
491.058	17558.96
491.428	17765.28
491.798	17919.85
492.168	18365.49
492.538	18485.26
492.908	18661.3
493.278	18877.57
493.648	18955.08
494.017	19264.23
494.387	19401.85
494.757	19610.66
495.126	19819.01
495.496	19936.3
495.866	20002.51
496.235	20307.81
496.605	20510.07
496.974	20569.05
497.344	20769.72
497.713	20943.5
498.082	21202.93
498.452	21244.96
498.821	21470.27
499.19	21534.67
499.559	21797.27
499.928	22011.5
500.298	22150.93
500.667	22347.76
501.036	22305.95
501.405	22589.11
501.774	22664.36
502.143	22858.48
502.512	22953.85
502.88	23183.67
503.249	23247.4
503.618	23368.52
503.987	23626.82
504.356	23788.4
504.724	23845.35
505.093	23988.62
505.462	24160.59
505.83	24298.89
506.199	24570.75
506.567	24846.9
506.936	24776.85
507.304	25153.11
507.672	25265.65
508.041	25473.78
508.409	25629.26
508.777	25871.73
509.145	26041.9
509.514	26170.71
509.882	26372.29
510.25	26370.48
510.618	26685.27
510.986	26649.57
511.354	27051.14
511.722	27321.41
512.09	27520.28
512.458	27525.48
512.826	27780.39
513.193	27955.07
513.561	28170.66
513.929	28366.81
514.297	28644.54
514.664	28832.34
515.032	28913.69
515.4	29302.38
515.767	29407.24
516.135	29712.54
516.502	29352.1
516.869	29932.19
517.237	30211.96
517.604	30279.75
517.972	30526.3
518.339	30824.83
518.706	30848.55
519.073	31060.53
519.44	31311.59
519.808	31633.62
520.175	31634.52
520.542	32014.17
520.909	32292.58
521.276	32159.48
521.643	32694.38
522.009	32894.15
522.376	33196.51
522.743	33328.71
523.11	33797.85
523.477	34074.68
523.843	34131.4
524.21	34559.64
524.577	34796.7
524.943	34917.6
525.31	35108.1
525.676	35485.72
526.043	35810.23
526.409	35955.09
526.776	36340.84
527.142	36495.64
527.508	36749.64
527.874	37035.74
528.241	37090.88
528.607	37364.99
528.973	37672.55
529.339	37585.55
529.705	38149.38
530.071	38378.52
530.437	38628.24
530.803	38912.97
531.169	39002.92
531.535	39110.71
531.901	39234.1
532.267	39394.32
532.632	39696.68
532.998	39919.95
533.364	40182.55
533.73	40253.5
534.095	40519.94
534.461	40789.31
534.826	40886.03
535.192	41146.14
535.557	41408.5
535.923	41377.09
536.288	41691.43
536.653	41743.18
537.019	41644.88
537.384	41968.71
537.749	42066.79
538.114	42262.26
538.479	42264.98
538.845	42545.42
539.21	42517.4
539.575	42727.56
539.94	42888.46
540.305	43323.48
540.67	43284.84
541.034	43341.78
541.399	43667.88
541.764	43672.4
542.129	43865.16
542.494	43891.37
542.858	44179.28
543.223	44077.58
543.587	44350.35
543.952	44430.12
544.316	44738.81
544.681	44752.82
545.045	45020.84
545.41	45123.88
545.774	45271
546.138	45175.63
546.503	45395.97
546.867	45446.81
547.231	45815.39
547.595	45767.94
547.959	46069.62
548.324	46041.37
548.688	46202.5
549.052	46446.11
549.416	46488.59
549.779	46560.68
550.143	46720.9
550.507	47043.83
550.871	47152.31
551.235	47154.79
551.599	47472.75
551.962	47514.1
552.326	47496.93
552.689	47924.71
553.053	47663.25
553.417	47911.38
553.78	48416
554.143	48194.54
554.507	48343.91
554.87	48601.08
555.234	49062.31
555.597	48820.74
555.96	48940.96
556.323	49221.18
556.686	49325.36
557.05	49556.99
557.413	49589.76
557.776	49728.96
558.139	49933.02
558.502	50009.63
558.865	50161.72
559.228	50439.68
559.59	50539.11
559.953	50559.22
560.316	50915.14
560.679	50977.52
561.041	51181.8
561.404	51317.39
561.767	51513.55
562.129	51423.38
562.492	51844.84
562.854	51710.38
563.217	51810.49
563.579	52052.74
563.941	52210.48
564.304	52445.73
564.666	52554.65
565.028	52554.88
565.39	52699.28
565.753	52905.6
566.115	53017.24
566.477	53120.74
566.839	53198.7
567.201	53446.6
567.563	53495.64
567.925	53636.2
568.287	53671.23
568.648	53783.77
569.01	53852.24
569.372	54144.44
569.734	53990.32
570.095	54333.59
570.457	54382.62
570.819	54491.77
571.18	54410.87
571.542	54581.04
571.903	54653.13
572.265	54827.13
572.626	54862.84
572.987	54905.55
573.349	55042.04
573.71	55107.35
574.071	55187.12
574.432	55256.5
574.794	55485.19
575.155	55416.72
575.516	55341.02
575.877	55512.99
576.238	55537.85
576.599	55690.84
576.96	55690.16
577.32	55712.31
577.681	55862.36
578.042	55908.46
578.403	55957.72
578.763	55993.2
579.124	56000.21
579.485	56105.06
579.845	56089.25
580.206	56066.2
580.566	56085.86
580.927	56160.43
581.287	56266.64
581.648	56181.45
582.008	56297.15
582.368	56265.29
582.728	56321.1
583.089	56318.84
583.449	56312.97
583.809	56338.5
584.169	56386.19
584.529	56316.13
584.889	56524.49
585.249	56322.91
585.609	56332.18
585.969	56359.07
586.329	56443.59
586.688	56392.74
587.048	56383.02
587.408	56296.25
587.768	56354.78
588.127	56372.18
588.487	56388.22
588.846	56584.83
589.206	56395
589.565	56404.04
589.925	56533.3
590.284	56465.73
590.643	56491.95
591.003	56604.49
591.362	56646.75
591.721	56562.23
592.08	56549.35
592.44	56642.9
592.799	56683.35
593.158	56559.29
593.517	56645.39
593.876	56595.9
594.235	56611.72
594.593	56721.09
594.952	56713.41
595.311	56588.22
595.67	56654.65
596.029	56776.23
596.387	56811.71
596.746	56857.13
597.104	56753.86
597.463	56680.87
597.822	56881.09
598.18	56788.21
598.538	56702.34
598.897	56953.18
599.255	56783.69
599.613	57112.72
599.972	56866.17
600.33	57022.78
600.688	56844.93
601.046	56995.44
601.404	57075.21
601.762	57004.25
602.12	57151.82
602.478	57141.65
602.836	57161.76
603.194	57035.66
603.552	57063.23
603.91	56920.41
604.268	57155.21
604.625	57170.35
604.983	57256.9
605.341	57112.72
605.698	57278.82
606.056	57302.77
606.413	57313.85
606.771	57371.7
607.128	57492.15
607.485	57366.95
607.843	57420.06
608.2	57540.05
608.557	57570.56
608.914	57514.74
609.272	57552.26
609.629	57638.36
609.986	57682.42
610.343	57533.28
610.7	57770.33
611.057	57724.91
611.414	57732.82
611.771	57751.12
612.127	57797
612.484	57764.68
612.841	57895.98
613.198	57817.11
613.554	57865.47
613.911	58013.94
614.267	57954.51
614.624	57913.6
614.98	57988.4
615.337	58131
615.693	58077.44
616.05	58038.57
616.406	58180.26
616.762	58118.8
617.118	58109.53
617.475	58172.81
617.831	58193.6
618.187	58206.7
618.543	58166.03
618.899	58403.76
619.255	58301.84
619.611	58293.26
619.967	58331.67
620.323	58418.45
620.678	58330.32
621.034	58240.83
621.39	58265.01
621.746	58236.53
622.101	58496.41
622.457	58309.07
622.812	58360.6
623.168	58413.48
623.523	58421.16
623.879	58466.58
624.234	58311.11
624.589	58407.6
624.945	58437.21
625.3	58442.4
625.655	58403.08
626.01	58340.49
626.365	58434.04
626.72	58409.64
627.075	58418
627.43	58301.39
627.785	58259.36
628.14	58355.4
628.495	58345.01
628.85	58298
629.205	58210.55
629.559	58361.5
629.914	58265.23
630.269	58232.69
630.623	58226.36
630.978	58201.05
631.332	58291.22
631.687	58264.33
632.041	58199.7
632.396	58244.22
632.75	58088.74
633.104	58137.33
633.459	57953.6
633.813	57989.31
634.167	58002.64
634.521	58045.13
634.875	58006.71
635.229	57953.38
635.583	57819.6
635.937	57878.8
636.291	57787.05
636.645	57809.2
636.999	57735.08
637.352	57796.09
637.706	57549.77
638.06	57750.22
638.413	57674.29
638.767	57641.75
639.121	57621.18
639.474	57484.01
639.828	57601.52
640.181	57464.12
640.534	57489.21
640.888	57417.57
641.241	57303.22
641.594	57343
641.947	57462.77
642.301	57316.11
642.654	57385.26
643.007	57318.14
643.36	57309.1
643.713	57202.44
644.066	57290.57
644.419	57071.82
644.771	56971.48
645.124	56740.98
645.477	56728.78
645.83	56456.47
646.182	56382.8
646.535	56282.01
646.888	56288.79
647.24	56232.97
647.593	56272.29
647.945	56306.41
648.298	56169.47
648.65	56032.75
649.002	55944.16
649.355	56026.65
649.707	56105.06
650.059	56182.58
650.411	56489.01
650.763	56449.46
651.115	56733.07
651.467	56583.92
651.819	56540.76
652.171	56462.57
652.523	56426.41
652.875	56407.43
653.227	56281.33
653.578	56475.9
653.93	56386.41
654.282	56245.4
654.633	56191.39
654.985	56285.62
655.337	56262.57
655.688	56260.54
656.039	56364.72
656.391	56113.2
656.742	56159.98
657.094	56184.16
657.445	56206.76
657.796	56161.79
658.147	56170.15
658.498	56077.49
658.849	56164.27
659.2	56086.53
659.551	56108.23
659.902	56128.34
660.253	56085.4
660.604	56092.86
660.955	55945.97
661.306	55983.26
661.656	55990.49
662.007	55947.55
662.358	55990.49
662.708	55992.07
663.059	55895.8
663.409	55664.85
663.76	55833.43
664.11	55856.26
664.461	55882.02
664.811	55879.76
665.161	55861.91
665.511	55777.84
665.862	55810.38
666.212	55874.11
666.562	55880.66
666.912	55799.08
667.262	55719.09
667.612	55810.16
667.962	55826.88
668.312	55765.64
668.662	55888.35
669.011	55713.21
669.361	55698.97
669.711	55689.48
670.06	55719.54
670.41	55588.69
670.76	55602.25
671.109	55713.89
671.459	55597.51
671.808	55536.27
672.157	55546.66
672.507	55366.78
672.856	55481.13
673.205	55522.25
673.554	55554.8
673.904	55465.08
674.253	55588.69
674.602	55559.09
674.951	55101.7
675.3	54950.29
675.649	55374.46
675.998	55268.02
676.346	55395.93
676.695	55370.85
677.044	55179.21
677.393	55322.26
677.741	55384.18
678.09	55245.88
678.438	55236.84
678.787	55303.05
679.135	55251.98
679.484	55089.05
679.832	55065.54
680.181	54963.63
680.529	55050.63
680.877	54918.65
681.225	54948.03
681.573	55102.83
681.922	54854.02
682.27	54813.12
682.618	54839.56
682.966	54707.36
683.314	54809.96
683.661	54624.43
684.009	54535.39
684.357	54512.79
684.705	54445.67
685.053	54475.28
685.4	54458.33
685.748	54283.42
686.095	54234.83
686.443	54133.82
686.79	54059.24
687.138	54084.33
687.485	54067.38
687.832	53949.19
688.18	54081.16
688.527	53883.65
688.874	53791.23
689.221	53650.67
689.568	53613.38
689.915	53557.11
690.262	53621.29
690.609	53503.32
690.956	53438.02
691.303	53337.68
691.65	53136.33
691.997	53158.02
692.344	52951.47
692.69	53019.04
693.037	53011.59
693.383	52734.76
693.73	52862.66
694.077	52665.15
694.423	52604.14
694.769	52488.89
695.116	52532.73
695.462	52490.47
695.808	52404.37
696.155	52405.95
696.501	52254.09
696.847	52236.92
697.193	51982.23
697.539	52070.82
697.885	51866.08
698.231	51799.87
698.577	51780.43
698.923	51709.47
699.269	51523.04
699.614	51249.82
699.96	51290.95
700.306	51272.42
700.651	51142.48
700.997	51061.36
701.342	50939.55
701.688	50945.65
702.033	50809.38
702.379	50597.41
702.724	50582.05
703.069	50595.38
703.415	50351.54
703.76	50372.56
704.105	50224.54
704.45	50157.88
704.795	49961.27
705.14	49779.13
705.485	49883.98
705.83	49758.79
706.175	49731.22
706.52	49622.75
706.865	49438.8
707.209	49536.65
707.554	49430.89
707.899	49462.3
708.243	49266.6
708.588	49254.62
708.932	49020.73
709.277	48973.27
709.621	48914.07
709.966	48693.28
710.31	48777.57
710.654	48307.53
710.998	48572.16
711.342	48574.19
711.687	48398.83
712.031	48267.76
712.375	48012.17
712.719	48141.21
713.063	47939.86
713.407	47988.67
713.75	47699.86
714.094	47847.65
714.438	47689.47
714.782	47656.25
715.125	47530.6
715.469	47480.66
715.812	47225.98
716.156	47070.27
716.499	47210.38
716.843	47194.11
717.186	46952.99
717.53	47110.27
717.873	47004.74
718.216	46874.57
718.559	46841.13
718.902	46699.21
719.246	46845.65
719.589	46585.99
719.932	46384.42
720.275	46401.36
720.617	46272.78
720.96	46135.61
721.303	46257.87
721.646	46198.88
721.989	46018.1
722.331	46085.67
722.674	46040.92
723.016	46005.89
723.359	45954.82
723.701	45766.58
724.044	45562.52
724.386	45418.57
724.729	45519.35
725.071	45396.87
725.413	45427.83
725.755	45351.22
726.097	45193.49
726.439	45056.32
726.782	45039.59
727.124	45153.71
727.465	44952.14
727.807	44946.49
728.149	44866.94
728.491	44735.65
728.833	44790.79
729.175	44535.43
729.516	44543.33
729.858	44557.35
730.199	44501.98
730.541	44386.95
730.882	44249.78
731.224	44454.3
731.565	44159.62
731.906	44125.04
732.248	44257.24
732.589	43985.83
732.93	43832.62
733.271	43817.03
733.612	43870.36
733.953	43951.71
734.294	43592.62
734.635	43558.5
734.976	43634.21
735.317	43390.82
735.658	43402.8
735.999	43337.49
736.339	43269.47
736.68	43293.88
737.021	43128
737.361	42930.04
737.702	43139.53
738.042	43029.7
738.383	42963.04
738.723	42955.35
739.063	42764.4
739.404	42766.66
739.744	42651.41
740.084	42613.22
740.424	42596.27
740.764	42396.05
741.104	42595.14
741.444	42365.09
741.784	42031.99
742.124	42194.92
742.464	42132.78
742.804	42106.56
743.143	41990.86
743.483	42116.05
743.823	41814.59
744.162	41833.35
744.502	41873.8
744.841	41540.02
745.181	41789.28
745.52	41477.88
745.86	41555.84
746.199	41586.8
746.538	41556.75
746.877	41460.7
747.216	41299.35
747.556	41278.56
747.895	41234.49
748.234	40902.75
748.573	40871.57
748.911	40848.29
749.25	40836.54
749.589	40680.61
749.928	40730.1
750.267	40597.68
750.605	40543.67
750.944	40400.62
751.283	40404.69
751.621	40452.37
751.96	40179.61
752.298	40223.22
752.636	40190.23
752.975	40096.9
753.313	39831.14
753.651	39886.73
753.989	39565.61
754.327	39594.09
754.666	39539.17
755.004	39584.14
755.342	39378.95
755.679	39507.31
756.017	39282.68
756.355	39345.96
756.693	39080.65
757.031	39125.85
757.368	38865.97
757.706	38815.35
758.044	38646.09
758.381	38779.42
758.719	38553.89
759.056	38467.11
759.394	38422.82
759.731	38249.04
760.068	38154.35
760.405	37952.77
760.743	37853.57
761.08	37847.69
761.417	37700.35
761.754	37588.72
762.091	37521.6
762.428	37480.47
762.765	37215.62
763.102	37237.99
763.438	37076.86
763.775	36813.82
764.112	36931.78
764.449	36680.94
764.785	36557.56
765.122	36431.46
765.458	36236.89
765.795	36270.33
766.131	36260.84
766.467	36042.32
766.804	35918.02
767.14	35712.61
767.476	35763
767.812	35529.79
768.148	35480.52
768.485	35228.55
768.821	35252.51
769.157	35140.64
769.492	35071.72
769.828	34977.71
770.164	34600.77
770.5	34672.63
770.836	34577.49
771.171	34312.64
771.507	34322.36
771.842	34043.27
772.178	34120.11
772.513	33959.66
772.849	34024.97
773.184	33698.2
773.519	33710.85
773.855	33551.76
774.19	33364.19
774.525	33216.63
774.86	33142.5
775.195	33240.13
775.53	33005.78
775.865	32808.28
776.2	32687.6
776.535	32549.53
776.87	32415.74
777.205	32286.48
777.539	32209.42
777.874	32336.2
778.209	32074.74
778.543	31877.23
778.878	31730.11
779.212	31597.23
779.547	31547.52
779.881	31535.99
780.215	31290.12
780.55	31273.85
780.884	31057.36
781.218	31063.91
781.552	30992.05
781.886	30836.8
782.22	30650.59
782.554	30520.88
782.888	30351.84
783.222	30236.59
783.556	30040.44
783.889	30045.86
784.223	29901.69
784.557	29681.13
784.89	29794.12
785.224	29574.24
785.557	29493.56
785.891	29389.38
786.224	29263.28
786.558	29246.79
786.891	28882.05
787.224	28799.79
787.557	28783.07
787.891	28795.73
788.224	28656.75
788.557	28753.24
788.89	28554.38
789.223	28470.08
789.556	28318.45
789.888	28184.67
790.221	28058.8
790.554	27906.03
790.887	27915.07
791.219	27774.96
791.552	27662.87
791.884	27649.77
792.217	27412.03
792.549	27506.72
792.882	27214.98
793.214	27174.98
793.546	27194.19
793.879	26955.55
794.211	26851.82
794.543	26842.78
794.875	26761.66
795.207	26799.62
795.539	26619.51
795.871	26577.71
796.203	26390.14
796.535	26233.31
796.867	26272.63
797.198	26088.23
797.53	26108.11
797.862	25987.66
798.193	26024.27
798.525	25762.81
798.856	25773.21
799.188	25541.8
799.519	25452.31
799.85	25385.19
800.182	25326.66
800.513	25354.46
800.844	25213.45
801.175	25416.61
801.506	25193.79
801.837	25108.59
802.168	24998.99
802.499	24835.6
802.83	24805.55
803.161	24674.03
803.491	24682.16
803.822	24649.39
804.153	24501.38
804.483	24249.63
804.814	24170.08
805.145	24259.35
805.475	24243.98
805.805	24100.93
806.136	24098.45
806.466	24046.02
806.796	24030.88
807.126	23783.88
807.457	23655.75
807.787	23683.09
808.117	23589.76
808.447	23494.85
808.777	23576.43
809.107	23371.46
809.436	23437
809.766	23460.72
810.096	23269.09
810.426	23217.79
810.755	23209.88
811.085	23085.59
811.414	23021.19
811.744	22822.78
812.073	22804.02
812.403	22807.18
812.732	22812.15
813.061	22641.54
813.39	22594.53
813.719	22431.83
814.049	22541.65
814.378	22476.12
814.707	22329.46
815.036	22379.62
815.365	22155.9
815.693	22025.06
816.022	22119.52
816.351	22047.2
816.68	21824.84
817.008	22056.69
817.337	21736.02
817.665	21818.06
817.994	21802.69
818.322	21777.83
818.651	21498.97
818.979	21599.98
819.307	21681.56
819.636	21541.23
819.964	21408.35
820.292	21492.87
820.62	21462.59
820.948	21259.65
821.276	21467.78
821.604	21264.85
821.932	21412.87
822.259	21384.4
822.587	21312.98
822.915	21304.4
823.243	21339.2
823.57	21231.63
823.898	21295.13
824.225	21136.49
824.553	21188.69
824.88	21188.47
825.207	21233.66
825.535	21153.89
825.862	21224.17
826.189	21160.22
826.516	21224.63
826.843	21296.71
827.17	21365.19
827.497	21354.57
827.824	21271.18
828.151	21216.49
828.478	21232.53
828.805	21236.15
829.131	21182.14
829.458	21195.93
829.785	21016.95
830.111	21090.39
830.438	21208.81
830.764	21171.29
831.09	21173.33
831.417	21086.55
831.743	21085.42
832.069	21053.33
832.395	20928.59
832.722	21030.73
833.048	21056.04
833.374	21006.55
833.7	20911.64
834.026	20890.85
834.351	20945.99
834.677	20865.54
835.003	20992.09
835.329	20947.12
835.654	20839.1
835.98	20753
836.306	20768.14
836.631	20729.72
836.956	20807.01
837.282	20694.47
837.607	20692.89
837.932	20698.31
838.258	20655.37
838.583	20530.63
838.908	20454.93
839.233	20457.87
839.558	20409.05
839.883	20402.5
840.208	20252
840.533	20199.34
840.858	20325.89
841.182	20308.72
841.507	20331.54
841.832	20235.72
842.156	20092.9
842.481	20087.25
842.805	20102.62
843.13	19967.26
843.454	19968.16
843.778	19857.43
844.103	19698.11
844.427	19786.02
844.751	19765.45
845.075	19657.44
845.399	19684.55
845.723	19514.84
846.047	19575.18
846.371	19411.34
846.695	19245.02
847.019	19124.34
847.343	19172.02
847.666	18914.18
847.99	18892.26
848.313	18933.84
848.637	18689.32
848.96	18720.06
849.284	18662.21
849.607	18574.53
849.931	18601.64
850.254	18412.04
850.577	18342.67
850.9	18184.03
851.223	18253.63
851.546	18143.58
851.869	17954.88
852.192	18109.23
852.515	17963.92
852.838	17807.09
853.161	17935.67
853.483	17807.99
853.806	17701.55
854.129	17638.51
854.451	17554.89
854.774	17490.94
855.096	17376.82
855.419	17357.16
855.741	17460.43
856.063	17269.48
856.385	17129.82
856.708	17145.64
857.03	17033.1
857.352	17127.33
857.674	17003.27
857.996	17015.47
858.318	16859.77
858.64	16846.66
858.961	16714.46
859.283	16703.39
859.605	16622.94
859.926	16685.99
860.248	16581.13
860.57	16525.54
860.891	16471.08
861.212	16489.61
861.534	16427.46
861.855	16333
862.176	16286
862.498	16438.54
862.819	16379.78
863.14	16293
863.461	16171.65
863.782	16172.33
864.103	16197.41
864.424	16067.92
864.745	16170.3
865.065	15957.87
865.386	16025.67
865.707	16084.65
866.027	16004.88
866.348	16041.94
866.668	16084.87
866.989	15942.96
867.309	15871.77
867.63	15850.98
867.95	15814.37
868.27	15646.69
868.59	15774.83
868.91	15723.53
869.23	15716.3
869.55	15689.63
869.87	15702.74
870.19	15667.03
870.51	15670.2
870.83	15622.96
871.15	15481.73
871.469	15485.79
871.789	15507.94
872.109	15531.22
872.428	15397.21
872.748	15463.65
873.067	15391.11
873.386	15471.56
873.706	15257.1
874.025	15189.08
874.344	15280.6
874.663	15252.58
874.982	15170.77
875.301	15118.12
875.62	15116.54
875.939	15100.04
876.258	15163.32
876.577	14993.6
876.896	14990.67
877.214	14967.16
877.533	15036.77
877.852	15016.2
878.17	14987.5
878.489	15017.33
878.807	14916.77
879.125	14856.21
879.444	14859.6
879.762	14807.17
880.08	14783.66
880.398	14719.71
880.716	14840.16
881.034	14702.76
881.352	14747.28
881.67	14667.51
881.988	14693.05
882.306	14625.7
882.624	14547.29
882.941	14475.65
883.259	14481.75
883.577	14443.79
883.894	14420.28
884.212	14331.25
884.529	14382.09
884.846	14267.29
885.164	14209.67
885.481	14215.54
885.798	14210.12
886.115	14060.29
886.432	14110.24
886.75	13981.2
887.067	14014.19
887.383	13977.58
887.7	13994.08
888.017	13893.74
888.334	13985.49
888.651	13883.35
888.967	13898.94
889.284	13865.72
889.6	13838.61
889.917	13732.85
890.233	13728.55
890.55	13622.11
890.866	13696.01
891.182	13642
891.498	13506.64
891.815	13470.03
892.131	13406.53
892.447	13427.09
892.763	13277.49
893.079	13300.99
893.395	13285.85
893.71	13290.6
894.026	13167.89
894.342	13216.02
894.657	13125.18
894.973	13061
895.289	13095.8
895.604	12962.7
895.92	13009.02
896.235	12875.01
896.55	12927.44
896.865	12923.15
897.181	12848.12
897.496	12851.06
897.811	12793.43
898.126	12634.79
898.441	12678.18
898.756	12586.66
899.071	12556.38
899.386	12533.33
899.7	12428.47
900.015	12419.66
900.33	12314.35
900.644	12332.2
900.959	12388.93
901.273	12293.56
901.588	12146.9
901.902	12154.81
902.216	12058.31
902.531	11971.31
902.845	11990.52
903.159	11847.02
903.473	11822.39
903.787	11761.82
904.101	11795.49
904.415	11744.2
904.729	11655.61
905.042	11680.02
905.356	11638.21
905.67	11585.33
905.984	11587.14
906.297	11533.35
906.611	11455.84
906.924	11404.54
907.237	11407.71
907.551	11359.57
907.864	11291.33
908.177	11262.85
908.491	11233.48
908.804	11194.61
909.117	11078.23
909.43	10991.9
909.743	10946.7
910.056	10961.17
910.368	10904.22
910.681	10875.97
910.994	10777.89
911.307	10789.65
911.619	10694.28
911.932	10763.21
912.244	10622.19
912.557	10668.29
912.869	10600.5
913.181	10559.14
913.494	10516.88
913.806	10471.46
914.118	10461.97
914.43	10346.27
914.742	10326.61
915.054	10304.91
915.366	10269.43
915.678	10197.57
915.99	10105.14
916.302	10129.55
916.613	10012.94
916.925	10027.18
917.236	10014.07
917.548	9928.43
917.859	9941.08
918.171	9854.76
918.482	9765.04
918.794	9725.94
919.105	9746.28
919.416	9666.74
919.727	9705.83
920.038	9557.81
920.349	9521.43
920.66	9461.09
920.971	9477.59
921.282	9391.04
921.593	9330.93
921.903	9300.65
922.214	9293.19
922.525	9199.41
922.835	9244.83
923.146	9203.02
923.456	9196.24
923.767	9090.93
924.077	9137.03
924.387	9049.58
924.697	8967.55
925.008	8941.33
925.318	8901.11
925.628	8929.36
925.938	8822.24
926.248	8720.32
926.558	8706.76
926.867	8707.89
927.177	8691.85
927.487	8666.54
927.796	8553.09
928.106	8556.71
928.416	8529.82
928.725	8539.99
929.034	8416.15
929.344	8429.48
929.653	8450.95
929.962	8333.89
930.271	8296.6
930.581	8283.27
930.89	8168.7
931.199	8117.85
931.508	8180.9
931.817	8102.71
932.125	8095.25
932.434	8102.94
932.743	7976.84
933.051	8010.51
933.36	7984.07
933.669	7880.34
933.977	7869.95
934.286	7801.7
934.594	7741.82
934.902	7711.76
935.21	7690.74
935.519	7668.37
935.827	7682.83
936.135	7640.35
936.443	7530.52
936.751	7497.08
937.059	7510.18
937.367	7397.19
937.674	7435.38
937.982	7428.15
938.29	7413.24
938.597	7400.81
938.905	7313.58
939.213	7299.34
939.52	7230.64
939.827	7276.74
940.135	7224.54
940.442	7138.44
940.749	7120.59
941.056	7115.39
941.363	7046.24
941.67	7019.35
941.977	6987.03
942.284	6962.18
942.591	6934.83
942.898	6944.1
943.205	6868.84
943.511	6836.76
943.818	6797.89
944.125	6723.31
944.431	6787.27
944.738	6741.16
945.044	6746.59
945.35	6600.6
945.657	6590.66
945.963	6576.88
946.269	6557.67
946.575	6624.11
946.881	6495.75
947.187	6479.7
947.493	6472.7
947.799	6422.53
948.105	6382.98
948.41	6314.28
948.716	6341.85
949.022	6296.2
949.327	6275.87
949.633	6206.72
949.938	6222.31
950.244	6187.73
950.549	6168.98
950.854	6146.6
951.16	6097.57
951.465	6080.84
951.77	6080.84
952.075	6078.36
952.38	6074.74
952.685	5990.45
952.99	5970.34
953.294	5962.65
953.599	5820.96
953.904	5841.75
954.209	5845.59
954.513	5802.21
954.818	5776.44
955.122	5767.63
955.426	5704.81
955.731	5741.19
956.035	5646.28
956.339	5661.64
956.643	5654.19
956.948	5621.87
957.252	5552.5
957.556	5522.21
957.86	5593.17
958.163	5547.75
958.467	5488.77
958.771	5467.07
959.075	5444.93
959.378	5404.48
959.682	5399.05
959.985	5373.74
960.289	5347.53
960.592	5317.47
960.896	5295.1
961.199	5256.46
961.502	5281.32
961.805	5235.67
962.108	5152.05
962.411	5186.18
962.714	5147.08
963.017	5146.18
963.32	5105.5
963.623	5073.19
963.926	5099.17
964.228	5065.5
964.531	5026.86
964.833	5027.76
965.136	4954.32
965.438	5004.94
965.741	4978.95
966.043	4924.72
966.345	4887.2
966.648	4879.52
966.95	4883.36
967.252	4828.9
967.554	4803.81
967.856	4807.2
968.158	4712.97
968.46	4747.54
968.761	4748.22
969.063	4720.43
969.365	4697.15
969.666	4674.1
969.968	4610.15
970.269	4628.23
970.571	4563.82
970.872	4616.02
971.174	4531.51
971.475	4505.97
971.776	4501.45
972.077	4515.23
972.378	4472.07
972.679	4456.48
972.98	4445.18
973.281	4389.81
973.582	4404.5
973.883	4392.98
974.183	4324.05
974.484	4331.28
974.785	4289.7
975.085	4322.25
975.386	4286.99
975.686	4253.09
975.986	4188.46
976.287	4229.82
976.587	4191.4
976.887	4186.2
977.187	4149.37
977.487	4161.57
977.787	4111.86
978.087	4087
978.387	4104.85
978.687	4063.95
978.987	4032.76
979.286	4021.24
979.586	3979.43
979.885	3959.54
980.185	3924.29
980.484	3948.02
980.784	3912.76
981.083	3917.06
981.382	3900.56
981.682	3884.06
981.981	3904.4
982.28	3857.4
982.579	3843.39
982.878	3835.93
983.177	3796.61
983.475	3766.1
983.774	3755.71
984.073	3735.37
984.372	3694.92
984.67	3719.55
984.969	3735.14
985.267	3708.7
985.566	3649.49
985.864	3660.79
986.162	3650.85
986.461	3614.69
986.759	3615.37
987.057	3567.01
987.355	3547.12
987.653	3578.54
987.951	3522.49
988.249	3485.66
988.547	3469.61
988.844	3449.5
989.142	3472.78
989.44	3443.62
989.737	3401.14
990.035	3412.21
990.332	3430.52
990.63	3421.48
990.927	3382.16
991.224	3353.01
991.521	3344.19
991.819	3327.02
992.116	3320.01
992.413	3300.35
992.71	3274.36
993.006	3235.49
993.303	3233.46
993.6	3218.09
993.897	3188.72
994.193	3190.98
994.49	3195.5
994.787	3137.87
995.083	3112.56
995.379	3117.31
995.676	3061.71
995.972	3077.98
996.268	3074.14
996.565	3034.37
996.861	3009.96
997.157	3019.91
997.453	3033.24
997.749	2982.17
998.044	2948.5
998.34	2964.31
998.636	2928.61
998.932	2892.9
999.227	2904.88
999.523	2880.7
999.818	2836.86
1000.114	2835.28
1000.409	2874.6
1000.704	2799.35
1001	2840.93
1001.295	2816.3
1001.59	2781.95
1001.885	2768.61
1002.18	2746.69
1002.475	2727.71
1002.77	2717.77
1003.065	2730.42
1003.359	2684.32
1003.654	2664.66
1003.949	2661.72
1004.243	2622.4
1004.538	2628.96
1004.832	2606.13
1005.127	2621.5
1005.421	2555.74
1005.715	2567.71
1006.009	2558.9
1006.304	2542.18
1006.598	2506.93
1006.892	2503.99
1007.186	2471.22
1007.48	2490.43
1007.773	2470.32
1008.067	2468.73
1008.361	2422.41
1008.655	2428.28
1008.948	2425.57
1009.242	2400.49
1009.535	2371.79
1009.829	2369.53
1010.122	2329.53
1010.415	2369.98
1010.708	2349.64
1011.001	2333.82
1011.295	2292.24
1011.588	2261.51
1011.881	2274.62
1012.173	2205.01
1012.466	2263.99
1012.759	2233.49
1013.052	2241.85
1013.344	2189.42
1013.637	2165.24
1013.93	2170.89
1014.222	2152.36
1014.514	2144.68
1014.807	2120.72
1015.099	2110.55
1015.391	2102.64
1015.683	2108.52
1015.976	2077.56
1016.268	2036.43
1016.56	2040.05
1016.851	2049.54
1017.143	2026.94
1017.435	2009.99
1017.727	2024.23
1018.018	1984.45
1018.31	1971.35
1018.602	1964.57
1018.893	1951.69
1019.185	1939.71
1019.476	1906.49
1019.767	1944.23
1020.058	1871.46
1020.35	1877.79
1020.641	1871.01
1020.932	1880.28
1021.223	1857.9
1021.514	1839.15
1021.804	1825.36
1022.095	1817.68
1022.386	1781.97
1022.677	1769.54
1022.967	1788.98
1023.258	1768.87
1023.548	1759.37
1023.839	1771.35
1024.129	1713.27
1024.419	1697
1024.709	1703.1
1025	1675.31
1025.29	1683.67
1025.58	1664.46
1025.87	1675.99
1026.16	1649.32
1026.449	1623.33
1026.739	1599.15
1027.029	1602.99
1027.319	1589.21
1027.608	1571.81
1027.898	1581.07
1028.187	1558.48
1028.477	1546.95
1028.766	1559.83
1029.055	1563.9
1029.344	1544.92
1029.634	1495.88
1029.923	1509.21
1030.212	1496.78
1030.501	1502.66
1030.79	1470.57
1031.078	1465.15
1031.367	1420.85
1031.656	1413.4
1031.945	1453.17
1032.233	1410.23
1032.522	1406.39
1032.81	1399.16
1033.099	1371.14
1033.387	1368.2
1033.675	1355.54
1033.963	1392.15
1034.251	1347.41
1034.54	1323.23
1034.828	1319.16
1035.116	1345.37
1035.403	1272.16
1035.691	1295.88
1035.979	1296.79
1036.267	1268.99
1036.554	1253.85
1036.842	1282.55
1037.129	1275.09
1037.417	1269.44
1037.704	1233.74
1037.992	1239.39
1038.279	1216.79
1038.566	1210.01
1038.853	1210.01
1039.14	1210.01
