Data from plate_ceramic_FLMS001491_045.txt Node
Date: Tue Feb 07 11:16:50 GMT 2017
User: dcchb
Spectrometer: FLMS00149
Trigger mode: 0
Integration Time (sec): 2.000000E-2
Scans to average: 10
Electric dark correction enabled: true
Nonlinearity correction enabled: false
Boxcar width: 0
XAxis mode: Wavelengths
Number of Pixels in Spectrum: 2048
>>>>>Begin Spectral Data<<<<<
341.393	-16.09
341.776	-16.09
342.16	-16.09
342.543	-64.9
342.927	-79.81
343.31	-56.76
343.693	-71.9
344.077	-77.55
344.46	-52.7
344.843	-44.56
345.226	-65.58
345.61	-26.93
345.993	-2.3
346.376	-27.16
346.759	20.3
347.142	35.44
347.525	45.38
347.908	56.23
348.291	84.7
348.674	86.96
349.057	96.45
349.44	131.25
349.823	142.55
350.206	163.57
350.588	195.43
350.971	212.83
351.354	231.59
351.737	241.76
352.119	244.7
352.502	255.77
352.884	277.46
353.267	279.95
353.65	308.42
354.032	299.16
354.414	305.71
354.797	326.73
355.179	325.15
355.562	340.97
355.944	340.97
356.326	359.5
356.709	341.64
357.091	342.55
357.473	343
357.855	345.71
358.238	346.16
358.62	368.54
359.002	360.17
359.384	368.99
359.766	335.09
360.148	368.54
360.53	349.55
360.912	354.07
361.294	364.24
361.676	345.71
362.057	367.63
362.439	340.29
362.821	353.85
363.203	364.92
363.584	330.57
363.966	357.91
364.348	334.19
364.729	344.36
365.111	330.57
365.493	364.92
365.874	349.55
366.256	353.85
366.637	341.64
367.019	347.75
367.4	343
367.781	330.57
368.163	347.52
368.544	342.32
368.925	338.48
369.306	335.77
369.688	354.52
370.069	344.13
370.45	328.54
370.831	354.3
371.212	369.67
371.593	344.81
371.974	350
372.355	342.55
372.736	343.45
373.117	348.65
373.498	363.56
373.879	347.07
374.26	350.91
374.641	354.07
375.021	360.4
375.402	349.33
375.783	365.6
376.163	363.11
376.544	388.42
376.925	387.52
377.305	378.48
377.686	374.64
378.066	380.51
378.447	390.23
378.827	374.19
379.208	399.72
379.588	390.23
379.968	398.14
380.349	379.83
380.729	400.4
381.109	408.99
381.489	424.81
381.87	393.39
382.25	404.92
382.63	411.25
383.01	410.79
383.39	417.35
383.77	414.18
384.15	423.22
384.53	412.6
384.91	416.44
385.29	431.81
385.67	431.58
386.049	422.32
386.429	441.3
386.809	435.65
387.189	445.14
387.568	446.73
387.948	455.54
388.328	458.7
388.707	448.31
389.087	454.41
389.466	460.51
389.846	475.2
390.225	470.68
390.605	492.6
390.984	488.98
391.363	453.51
391.743	490.57
392.122	500.06
392.501	504.13
392.881	490.11
393.26	500.28
393.639	498.48
394.018	529.21
394.397	520.62
394.776	531.47
395.155	515.65
395.534	522.2
395.913	533.28
396.292	535.54
396.671	551.81
397.05	545.71
397.429	545.71
397.808	553.62
398.186	552.49
398.565	576.21
398.944	581.64
399.323	587.74
399.701	581.64
400.08	586.38
400.458	591.35
400.837	585.7
401.215	599.26
401.594	591.81
401.972	625.25
402.351	619.38
402.729	604.24
403.107	625.03
403.486	637.23
403.864	638.81
404.242	627.74
404.62	648.53
404.999	676.32
405.377	669.09
405.755	648.3
406.133	696.44
406.511	693.72
406.889	701.18
407.267	721.75
407.645	701.41
408.023	705.48
408.401	732.82
408.779	724.91
409.156	754.29
409.534	755.42
409.912	754.74
410.29	772.59
410.667	784.34
411.045	793.38
411.422	820.95
411.8	802.87
412.178	838.58
412.555	813.04
412.933	846.49
413.31	845.59
413.687	858.01
414.065	863.44
414.442	864.34
414.819	886.94
415.197	892.59
415.574	898.92
415.951	894.4
416.328	936.66
416.705	930.78
417.082	938.24
417.46	922.87
417.837	950.89
418.214	958.12
418.591	969.65
418.967	975.75
419.344	1017.56
419.721	1014.62
420.098	1012.36
420.475	1032.7
420.852	1009.42
421.228	1036.99
421.605	1034.28
421.982	1058.69
422.358	1056.88
422.735	1049.65
423.111	1053.04
423.488	1115.63
423.864	1111.57
424.241	1120.61
424.617	1160.38
424.994	1169.42
425.37	1173.26
425.746	1157.22
426.123	1169.87
426.499	1185.46
426.875	1193.82
427.251	1221.17
427.627	1224.56
428.003	1251.68
428.379	1273.14
428.756	1291
429.132	1308.62
429.507	1295.06
429.883	1326.25
430.259	1342.3
430.635	1335.06
431.011	1369.41
431.387	1385.46
431.763	1436.3
432.138	1456.19
432.514	1445.12
432.89	1453.93
433.265	1495.51
433.641	1517.43
434.016	1498.22
434.392	1517.66
434.767	1565.57
435.143	1531.67
435.518	1599.69
435.894	1596.98
436.269	1608.95
436.644	1643.3
437.02	1660.48
437.395	1648.28
437.77	1711.78
438.145	1712
438.52	1741.61
438.895	1759.69
439.271	1738.89
439.646	1761.49
440.021	1782.51
440.395	1795.62
440.77	1798.33
441.145	1801.49
441.52	1829.06
441.895	1867.03
442.27	1871.09
442.645	1862.06
443.019	1902.96
443.394	1857.99
443.769	1923.75
444.143	1898.89
444.518	1942.96
444.892	1935.95
445.267	1956.74
445.641	1936.63
446.016	2008.27
446.39	1983.63
446.764	1997.42
447.139	2024.31
447.513	2049.4
447.887	2031.54
448.262	2022.73
448.636	2082.39
449.01	2113.12
449.384	2119.68
449.758	2140.47
450.132	2203.74
450.506	2192.44
450.88	2192.89
451.254	2186.34
451.628	2262.5
452.002	2253.23
452.376	2297.3
452.75	2320.35
453.123	2294.13
453.497	2400.35
453.871	2386.79
454.244	2409.84
454.618	2430.4
454.992	2488.71
455.365	2495.49
455.739	2515.37
456.112	2535.26
456.486	2582.71
456.859	2602.38
457.232	2684.41
457.606	2646.89
457.979	2692.54
458.352	2745.87
458.725	2753.33
459.099	2797.62
459.472	2834.91
459.845	2891.63
460.218	2880.11
460.591	2945.19
460.964	2972.53
461.337	2994
461.71	3038.07
462.083	3091.4
462.456	3098.63
462.829	3126.43
463.201	3171.17
463.574	3206.43
463.947	3245.52
464.32	3328.23
464.692	3368.91
465.065	3365.52
465.438	3376.59
465.81	3419.08
466.183	3480.77
466.555	3518.96
466.928	3563.48
467.3	3576.13
467.672	3662.69
468.045	3786.98
468.417	3773.64
468.789	3814.55
469.161	3862
469.534	3912.62
469.906	4001.43
470.278	3994.88
470.65	4107.65
471.022	4159.62
471.394	4231.94
471.766	4274.42
472.138	4317.81
472.51	4391.93
472.882	4480.07
473.253	4532.49
473.625	4589.22
473.997	4700.85
474.369	4687.29
474.74	4740.17
475.112	4880.51
475.484	4952.14
475.855	5000.96
476.227	5088.86
476.598	5206.6
476.97	5268.97
477.341	5353.49
477.713	5462.64
478.084	5477.1
478.455	5618.34
478.827	5632.58
479.198	5815.85
479.569	5882.06
479.94	6063.08
480.311	6081.61
480.682	6188.72
481.053	6330.19
481.424	6484.31
481.795	6513.91
482.166	6622.38
482.537	6678.43
482.908	6849.04
483.279	6897.63
483.65	7034.35
484.021	7141.01
484.391	7319.54
484.762	7338.97
485.133	7410.84
485.503	7451.74
485.874	7685.86
486.244	7767.21
486.615	7881.78
486.985	8053.08
487.356	8175.79
487.726	8240.42
488.097	8351.6
488.467	8392.96
488.837	8571.71
489.207	8654.65
489.578	8827.75
489.948	8888.99
490.318	8997.46
490.688	9099.15
491.058	9201.3
491.428	9377.34
491.798	9456.21
492.168	9619.14
492.538	9672.7
492.908	9780.49
493.278	9918.34
493.648	9978.23
494.017	10090.31
494.387	10174.83
494.757	10324.43
495.126	10478.55
495.496	10431.32
495.866	10559.91
496.235	10622.28
496.605	10811.2
496.974	10759
497.344	10925.09
497.713	11018.88
498.082	11113.79
498.452	11210.74
498.821	11200.34
499.19	11328.93
499.559	11447.57
499.928	11462.71
500.298	11563.27
500.667	11763.04
501.036	11674
501.405	11795.81
501.774	11838.29
502.143	11942.47
502.512	11968.23
502.88	12255.91
503.249	12208.45
503.618	12316.24
503.987	12315.11
504.356	12485.51
504.724	12490.25
505.093	12621.77
505.462	12688.44
505.83	12731.15
506.199	12861.99
506.567	13049.56
506.936	13097.69
507.304	13196.45
507.672	13297.69
508.041	13315.54
508.409	13481.41
508.777	13542.65
509.145	13701.52
509.514	13660.39
509.882	13799.59
510.25	13877.11
510.618	13960.04
510.986	14033.03
511.354	14142.18
511.722	14309.19
512.09	14451.56
512.458	14433.93
512.826	14574.04
513.193	14640.25
513.561	14744.43
513.929	14881.37
514.297	15005.44
514.664	15115.04
515.032	15227.13
515.4	15364.07
515.767	15374.02
516.135	15484.75
516.502	15478.65
516.869	15730.62
517.237	15847.68
517.604	15885.19
517.972	16049.93
518.339	16134.45
518.706	16188.46
519.073	16359.08
519.44	16457.15
519.808	16566.08
520.175	16691.5
520.542	16938.5
520.909	16996.12
521.276	17026.18
521.643	17137.59
522.009	17395.21
522.376	17479.72
522.743	17552.04
523.11	17790.68
523.477	17895.76
523.843	18016.21
524.21	18224.56
524.577	18354.5
524.943	18580.71
525.31	18536.87
525.676	18698.45
526.043	18821.84
526.409	18985
526.776	19199
527.142	19240.58
527.508	19387.47
527.874	19630.4
528.241	19715.37
528.607	19706.11
528.973	19913.78
529.339	19910.17
529.705	20076.94
530.071	20375.92
530.437	20397.39
530.803	20439.65
531.169	20669.24
531.535	20645.97
531.901	20779.98
532.267	20949.01
532.632	21030.37
532.998	21134.77
533.364	21216.12
533.73	21304.71
534.095	21465.83
534.461	21580.18
534.826	21725.71
535.192	21835.09
535.557	21993.73
535.923	21916.9
536.288	22054.29
536.653	22203.22
537.019	22151.24
537.384	22332.03
537.749	22453.83
538.114	22532.47
538.479	22452.7
538.845	22658.12
539.21	22608.63
539.575	22694.05
539.94	23032.12
540.305	22994.16
540.67	23096.53
541.034	23097.66
541.399	23250.42
541.764	23302.4
542.129	23463.07
542.494	23466.23
542.858	23627.58
543.223	23671.65
543.587	23798.65
543.952	23756.17
544.316	23923.85
544.681	24048.82
545.045	24037.07
545.41	24173.56
545.774	24238.64
546.138	24249.49
546.503	24343.72
546.867	24430.95
547.231	24634.11
547.595	24649.25
547.959	24700.55
548.324	24692.64
548.688	24839.76
549.052	24978.28
549.416	25075
549.779	25059.41
550.143	25197.26
550.507	25357.26
550.871	25584.6
551.235	25452.62
551.599	25819.17
551.962	25807.41
552.326	25924.7
552.689	26023
553.053	25976
553.417	26085.83
553.78	26400.62
554.143	26167.86
554.507	26415.31
554.87	26535.98
555.234	26862.08
555.597	26785.24
555.96	26805.81
556.323	26966.25
556.686	26911.57
557.05	27248.73
557.413	27361.05
557.776	27363.76
558.139	27433.13
558.502	27644.65
558.865	27798.55
559.228	27973.01
559.59	28059.78
559.953	28123.96
560.316	28361.47
560.679	28357.18
561.041	28529.83
561.404	28770.05
561.767	28852.31
562.129	28867.22
562.492	29121
562.854	29161.45
563.217	29130.94
563.579	29296.59
563.941	29539.07
564.304	29656.35
564.666	29870.58
565.028	30006.4
565.39	29996.68
565.753	30191.48
566.115	30325.04
566.477	30474.86
566.839	30553.28
567.201	30818.81
567.563	30768.19
567.925	31083.89
568.287	31015.87
568.648	31092.02
569.01	31394.84
569.372	31485.68
569.734	31546.47
570.095	31643.65
570.457	31722.74
570.819	31845.45
571.18	31868.27
571.542	32232.56
571.903	32080.24
572.265	32306.68
572.626	32463.28
572.987	32366.11
573.349	32561.36
573.71	32683.39
574.071	32751.19
574.432	32760.68
574.794	33034.8
575.155	33039.77
575.516	32997.96
575.877	33230.27
576.238	33209.93
576.599	33339.87
576.96	33197.28
577.32	33475.01
577.681	33463.26
578.042	33579.87
578.403	33705.51
578.763	33663.48
579.124	33900.08
579.485	33884.26
579.845	34019.63
580.206	33962.91
580.566	33917.94
580.927	33847.88
581.287	34021.89
581.648	34020.31
582.008	34049.68
582.368	34173.97
582.728	34216.69
583.089	34108.21
583.449	34070.93
583.809	34223.92
584.169	34380.3
584.529	34237.02
584.889	34499.84
585.249	34288.1
585.609	34235.89
585.969	34372.61
586.329	34351.6
586.688	34531.48
587.048	34437.24
587.408	34392.5
587.768	34391.37
588.127	34456
588.487	34320.64
588.846	34713.17
589.206	34358.6
589.565	34472.5
589.925	34507.3
590.284	34504.14
590.643	34371.26
591.003	34595.88
591.362	34655.77
591.721	34550.91
592.08	34595.66
592.44	34651.48
592.799	34666.39
593.158	34696.45
593.517	34613.96
593.876	34819.16
594.235	34630.23
594.593	34589.78
594.952	34688.31
595.311	34728.31
595.67	34845.14
596.029	34950.23
596.387	34980.73
596.746	35058.92
597.104	34831.36
597.463	34907.06
597.822	34978.25
598.18	34810.34
598.538	34841.98
598.897	35194.51
599.255	34817.8
599.613	35243.1
599.972	35180.73
600.33	35163.1
600.688	35131.01
601.046	35272.25
601.404	35400.61
601.762	35370.33
602.12	35495.75
602.478	35374.62
602.836	35398.57
603.194	35212.14
603.552	35417.33
603.91	35327.16
604.268	35505.69
604.625	35403.32
604.983	35448.07
605.341	35343.66
605.698	35587.5
606.056	35678.34
606.413	35688.51
606.771	35700.94
607.128	35846.92
607.485	35678.34
607.843	35751.11
608.2	35992.68
608.557	35862.52
608.914	35867.26
609.272	36001.95
609.629	36093.7
609.986	36218.44
610.343	36019.58
610.7	36277.2
611.057	36202.62
611.414	36192.68
611.771	36292.34
612.127	36371.2
612.484	36342.05
612.841	36383.41
613.198	36317.87
613.554	36445.33
613.911	36601.26
614.267	36559
614.624	36549.51
614.98	36578.43
615.337	36783.4
615.693	36779.1
616.05	36721.03
616.406	36933.9
616.762	36750.63
617.118	36725.09
617.475	36822.72
617.831	36936.39
618.187	36869.5
618.543	36895.71
618.899	37028.59
619.255	36993.34
619.611	36873.34
619.967	37025.88
620.323	37164.86
620.678	37012.54
621.034	36930.06
621.39	36952.43
621.746	36901.13
622.101	37343.38
622.457	37060.45
622.812	37050.06
623.168	37224.52
623.523	37014.58
623.879	37249.83
624.234	37110.39
624.589	37173.22
624.945	37147.46
625.3	37307
625.655	37233.33
626.01	37295.93
626.365	37331.18
626.72	37288.47
627.075	37065.65
627.43	37068.59
627.785	36968.48
628.14	37106.1
628.495	37163.73
628.85	37058.87
629.205	36899.33
629.559	37226.32
629.914	36899.1
630.269	36965.77
630.623	36860.23
630.978	36777.3
631.332	36992.21
631.687	36974.8
632.041	36688.94
632.396	36830.18
632.75	36662.72
633.104	36622.27
633.459	36595.61
633.813	36547.02
634.167	36429.06
634.521	36469.96
634.875	36507.25
635.229	36422.95
635.583	36341.6
635.937	36367.14
636.291	36415.05
636.645	36160.36
636.999	36162.85
637.352	36348.61
637.706	36045.79
638.06	36195.62
638.413	36083.08
638.767	35974.83
639.121	36086.47
639.474	35930.54
639.828	35814.84
640.181	35930.54
640.534	35986.13
640.888	35771.45
641.241	35575.52
641.594	35546.59
641.947	35723.09
642.301	35532.13
642.654	35683.09
643.007	35598.34
643.36	35599.93
643.713	35401.06
644.066	35609.64
644.419	35330.1
644.771	35046.27
645.124	34655.32
645.477	34641.53
645.83	34439.5
646.182	34317.93
646.535	34350.24
646.888	34307.08
647.24	34168.78
647.593	34387.75
647.945	34265.27
648.298	34128.33
648.65	34067.31
649.002	33819.41
649.355	34144.82
649.707	33989.12
650.059	34112.06
650.411	34451.48
650.763	34523.34
651.115	34755.65
651.467	34743
651.819	34672.04
652.171	34660.29
652.523	34583
652.875	34667.29
653.227	34411.48
653.578	34657.8
653.93	34522.67
654.282	34497.36
654.633	34249.45
654.985	34310.47
655.337	34284.71
655.688	34390.24
656.039	34486.51
656.391	34080.42
656.742	34249.23
657.094	34110.02
657.445	34277.47
657.796	34227.98
658.147	34016.92
658.498	34062.34
658.849	34140.53
659.2	34094.88
659.551	33990.02
659.902	34164.48
660.253	33985.05
660.604	34016.92
660.955	33931.49
661.306	34016.46
661.656	33796.13
662.007	33781.67
662.358	33973.98
662.708	33892.17
663.059	33761.56
663.409	33667.55
663.76	33888.11
664.11	33900.54
664.461	33849.01
664.811	33918.61
665.161	33871.61
665.511	33610.83
665.862	33709.81
666.212	33649.24
666.562	33800.42
666.912	33676.59
667.262	33566.08
667.612	33606.31
667.962	33654.67
668.312	33574.89
668.662	33682.91
669.011	33677.49
669.361	33597.94
669.711	33465.97
670.06	33378.06
670.41	33427.55
670.76	33383.26
671.109	33445.41
671.459	33492.41
671.808	33382.36
672.157	33480.43
672.507	33239.08
672.856	33268.69
673.205	33212.64
673.554	33315.69
673.904	33203.6
674.253	33411.28
674.602	33121.12
674.951	32888.13
675.3	32652.43
675.649	33200.21
675.998	33193.44
676.346	33159.54
676.695	33223.72
677.044	32922.48
677.393	33022.82
677.741	33164.96
678.09	32988.02
678.438	33043.16
678.787	33048.58
679.135	32948.92
679.484	32699.66
679.832	32803.84
680.181	32635.26
680.529	32858.53
680.877	32610.85
681.225	32491.08
681.573	32769.27
681.922	32497.86
682.27	32403.4
682.618	32519.78
682.966	32356.17
683.314	32414.47
683.661	32191.43
684.009	31973.81
684.357	32095.38
684.705	32007.48
685.053	32096.97
685.4	31923.64
685.748	31987.37
686.095	31914.15
686.443	31749.86
686.79	31630.99
687.138	31630.76
687.485	31627.83
687.832	31503.31
688.18	31620.6
688.527	31428.28
688.874	31439.58
689.221	31376.53
689.568	31303.99
689.915	31110.55
690.262	31187.84
690.609	31133.83
690.956	30954.85
691.303	30832.37
691.65	30830.33
691.997	30875.53
692.344	30714.63
692.69	30654.74
693.037	30674.86
693.383	30388.54
693.73	30570.68
694.077	30398.03
694.423	30511.92
694.769	30269.44
695.116	30168.2
695.462	30081.65
695.808	29962.33
696.155	30096.12
696.501	29752.85
696.847	29616.81
697.193	29502.91
697.539	29690.48
697.885	29409.58
698.231	29296.14
698.577	29280.32
698.923	29336.81
699.269	29115.8
699.614	28983.38
699.96	28926.88
700.306	28973.89
700.651	28821.35
700.997	28708.13
701.342	28682.59
701.688	28574.8
702.033	28518.08
702.379	28547.23
702.724	28382.26
703.069	28550.17
703.415	28009.39
703.76	28167.13
704.105	28322.15
704.45	28090.29
704.795	27931.2
705.14	27874.03
705.485	27731.88
705.83	27780.24
706.175	27772.56
706.52	27700.92
706.865	27581.15
707.209	27591.1
707.554	27426.13
707.899	27503.87
708.243	27360.37
708.588	27274.27
708.932	27096.87
709.277	27099.13
709.621	27140.26
709.966	26917.89
710.31	27014.39
710.654	26735.98
710.998	26844.9
711.342	26901.85
711.687	26768.29
712.031	26573.72
712.375	26510.9
712.719	26629.09
713.063	26524.46
713.407	26533.5
713.75	26460.5
714.094	26423.9
714.438	26303.22
714.782	26378.25
715.125	26147.07
715.469	26209.89
715.812	26135.54
716.156	25915.21
716.499	25932.61
716.843	25905.72
717.186	25828.66
717.53	25910.69
717.873	25947.52
718.216	25788.43
718.559	25604.48
718.902	25554.99
719.246	25592.73
719.589	25438.84
719.932	25442.9
720.275	25424.83
720.617	25274.32
720.96	25333.08
721.303	25227.32
721.646	25290.37
721.989	25049.02
722.331	25170.82
722.674	24989.36
723.016	25020.99
723.359	24929.02
723.701	25028
724.044	24763.83
724.386	24830.27
724.729	24846.08
725.071	24659.42
725.413	24776.03
725.755	24757.27
726.097	24688.35
726.439	24490.39
726.782	24471.18
727.124	24688.8
727.465	24432.76
727.807	24454.68
728.149	24470.73
728.491	24353.22
728.833	24272.77
729.175	24257.17
729.516	24280.68
729.858	24145.31
730.199	24220.34
730.541	24170.62
730.882	23997.52
731.224	24092.66
731.565	23946.9
731.906	24034.81
732.248	23986.45
732.589	23876.39
732.93	23848.82
733.271	23891.53
733.612	23794.59
733.953	23818.99
734.294	23739.45
734.635	23587.13
734.976	23639.34
735.317	23529.06
735.658	23580.58
735.999	23531.54
736.339	23435.5
736.68	23534.93
737.021	23443.18
737.361	23247.71
737.702	23457.19
738.042	23212.68
738.383	23220.59
738.723	23327.48
739.063	23136.98
739.404	23160.7
739.744	23142.4
740.084	23155.51
740.424	23161.16
740.764	23021.73
741.104	23102.18
741.444	22925.91
741.784	22844.78
742.124	22989.64
742.464	22768.85
742.804	22788.28
743.143	22776.53
743.483	22651.34
743.823	22634.39
744.162	22612.24
744.502	22575.86
744.841	22617.89
745.181	22676.88
745.52	22435.53
745.86	22506.48
746.199	22331.12
746.538	22422.64
746.877	22425.81
747.216	22507.16
747.556	22312.59
747.895	22424.68
748.234	22244.8
748.573	22201.86
748.911	22055.2
749.25	22125.25
749.589	21953.73
749.928	22070.11
750.267	21998.48
750.605	21952.15
750.944	21932.94
751.283	21766.39
751.621	21940.85
751.96	21709.67
752.298	21661.08
752.636	21655.89
752.975	21630.8
753.313	21509.67
753.651	21545.15
753.989	21481.65
754.327	21406.17
754.666	21417.47
755.004	21344.26
755.342	21340.19
755.679	21235.78
756.017	21094.09
756.355	21251.6
756.693	21098.84
757.031	21090.93
757.368	20918.73
757.706	20944.72
758.044	20830.37
758.381	20814.55
758.719	20865.62
759.056	20784.95
759.394	20690.04
759.731	20479.42
760.068	20557.38
760.405	20414.11
760.743	20341.57
761.08	20406.65
761.417	20316.26
761.754	20217.28
762.091	20214.34
762.428	20052.76
762.765	19921.69
763.102	20038.75
763.438	19897.51
763.775	19863.39
764.112	19833.11
764.449	19835.37
764.785	19665.66
765.122	19551.99
765.458	19546.34
765.795	19450.07
766.131	19482.84
766.467	19379.56
766.804	19300.02
767.14	19114.26
767.476	19189.28
767.812	19077.65
768.148	19195.39
768.485	18989.06
768.821	18944.77
769.157	18809.41
769.492	18838.56
769.828	18779.12
770.164	18700.03
770.5	18624.78
770.836	18638.34
771.171	18455.52
771.507	18471.34
771.842	18321.96
772.178	18291.68
772.513	18224.56
772.849	18194.51
773.184	18105.24
773.519	18117.45
773.855	17921.75
774.19	17849.43
774.525	17828.42
774.86	17781.64
775.195	17815.99
775.53	17588.42
775.865	17591.81
776.2	17505.49
776.535	17328.32
776.87	17418.71
777.205	17293.74
777.539	17199.51
777.874	17165.61
778.209	17084.48
778.543	17099.17
778.878	16950.25
779.212	16860.98
779.547	16858.5
779.881	16801.32
780.215	16756.13
780.55	16675
780.884	16570.82
781.218	16495.12
781.552	16514.78
781.886	16505.06
782.22	16316.36
782.554	16270.72
782.888	16222.81
783.222	16146.88
783.556	16134.67
783.889	16021.01
784.223	15883.38
784.557	15893.1
784.89	15876.6
785.224	15762.71
785.557	15736.04
785.891	15638.87
786.224	15617.85
786.558	15485.43
786.891	15519.32
787.224	15386.45
787.557	15349.16
787.891	15314.81
788.224	15318.42
788.557	15234.59
788.89	15205.66
789.223	15268.48
789.556	15091.76
789.888	15104.19
790.221	15004.08
790.554	14792.34
790.887	14855.16
791.219	14792.56
791.552	14795.95
791.884	14676.86
792.217	14611.78
792.549	14571.33
792.882	14503.76
793.214	14442.97
793.546	14513.25
793.879	14376.3
794.211	14273.71
794.543	14411.33
794.875	14297.66
795.207	14298.11
795.539	14205.46
795.871	14119.59
796.203	14042.75
796.535	13968.63
796.867	13907.84
797.198	13915.3
797.53	13955.3
797.862	13833.04
798.193	13773.15
798.525	13737.45
798.856	13733.38
799.188	13618.36
799.519	13601.41
799.85	13464.91
800.182	13521.86
800.513	13515.76
800.844	13341.3
801.175	13452.71
801.506	13379.72
801.837	13336.33
802.168	13302.66
802.499	13215.43
802.83	13154.64
803.161	13075.32
803.491	13068.09
803.822	13105.15
804.153	13006.4
804.483	12964.14
804.814	12922.78
805.145	12817.02
805.475	12803.91
805.805	12857.92
806.136	12766.85
806.466	12789.9
806.796	12761.66
807.126	12673.07
807.457	12584.71
807.787	12580.19
808.117	12524.6
808.447	12443.92
808.777	12484.6
809.107	12471.04
809.436	12407.77
809.766	12425.17
810.096	12344.04
810.426	12334.55
810.755	12304.27
811.085	12268.79
811.414	12256.13
811.744	12170.94
812.073	12116.02
812.403	12078.28
812.732	11996.7
813.061	11993.09
813.39	11976.59
813.719	11919.64
814.049	11971.62
814.378	11942.02
814.707	11829.25
815.036	11874.67
815.365	11797.84
815.693	11652.31
816.022	11697.96
816.351	11702.02
816.68	11634.91
817.008	11581.8
817.337	11613.21
817.665	11539.54
817.994	11520.33
818.322	11525.3
818.651	11489.15
818.979	11440.11
819.307	11451.86
819.636	11401.47
819.964	11349.94
820.292	11403.95
820.62	11339.32
820.948	11301.13
821.276	11394.69
821.604	11335.48
821.932	11314.91
822.259	11330.96
822.587	11262.03
822.915	11217.52
823.243	11260.68
823.57	11217.74
823.898	11326.44
824.225	11196.95
824.553	11186.78
824.88	11232.2
825.207	11249.38
825.535	11195.82
825.862	11226.1
826.189	11265.42
826.516	11227.01
826.843	11330.73
827.17	11217.97
827.497	11228.59
827.824	11182.71
828.151	11205.09
828.478	11167.35
828.805	11276.27
829.131	11153.79
829.458	11176.16
829.785	11119.44
830.111	11190.85
830.438	11170.06
830.764	11141.36
831.09	11165.31
831.417	11050.51
831.743	11121.7
832.069	11159.21
832.395	11122.38
832.722	11148.59
833.048	11100
833.374	11106.33
833.7	10989.95
834.026	11022.72
834.351	11002.15
834.677	11047.58
835.003	11069.72
835.329	11034.92
835.654	10992.89
835.98	10916.73
836.306	10955.83
836.631	10922.83
836.956	11010.29
837.282	10937.07
837.607	10854.59
837.932	10866.34
838.258	10831.99
838.583	10831.99
838.908	10778.21
839.233	10807.58
839.558	10725.55
839.883	10690.07
840.208	10702.05
840.533	10747.02
840.858	10735.49
841.182	10720.13
841.507	10658.89
841.832	10632.67
842.156	10640.13
842.481	10637.19
842.805	10575.95
843.13	10568.95
843.454	10515.39
843.778	10514.94
844.103	10486.91
844.427	10469.96
844.751	10423.19
845.075	10340.25
845.399	10321.27
845.723	10249.63
846.047	10279.91
846.371	10118.56
846.695	10229.97
847.019	10118.11
847.343	10120.6
847.666	10065.46
847.99	9961.96
848.313	10017.77
848.637	9883.54
848.96	9907.72
849.284	9911.11
849.607	9817.55
849.931	9803.77
850.254	9713.37
850.577	9672.25
850.9	9601.97
851.223	9573.72
851.546	9617.11
851.869	9508.86
852.192	9526.71
852.515	9467.73
852.838	9436.09
853.161	9458.47
853.483	9317.45
853.806	9359.49
854.129	9368.3
854.451	9245.14
854.774	9220.05
855.096	9188.64
855.419	9058.02
855.741	9172.82
856.063	9055.99
856.385	9132.82
856.708	9070.91
857.03	9031.13
857.352	8953.62
857.674	8983.45
857.996	8904.36
858.318	8849.44
858.64	8825.94
858.961	8806.05
859.283	8780.74
859.605	8773.74
859.926	8774.87
860.248	8750.46
860.57	8785.49
860.891	8703.68
861.212	8687.86
861.534	8704.36
861.855	8618.71
862.176	8674.76
862.498	8646.96
862.819	8614.65
863.14	8649.9
863.461	8592.95
863.782	8606.96
864.103	8585.95
864.424	8554.53
864.745	8556.34
865.065	8441.54
865.386	8429.34
865.707	8429.34
866.027	8413.07
866.348	8402
866.668	8437.93
866.989	8306.63
867.309	8278.16
867.63	8342.34
867.95	8313.19
868.27	8292.39
868.59	8343.47
868.91	8299.85
869.23	8244.26
869.55	8199.97
869.87	8244.71
870.19	8302.11
870.51	8265.28
870.83	8271.38
871.15	8155.45
871.469	8148.44
871.789	8190.02
872.109	8184.38
872.428	8135.34
872.748	8134.43
873.067	8108.67
873.386	8130.59
873.706	8040.88
874.025	8045.62
874.344	8016.47
874.663	8030.25
874.982	8055.57
875.301	7996.81
875.62	7964.72
875.939	7924.5
876.258	7947.09
876.577	8005.4
876.896	7972.18
877.214	7900.77
877.533	7908.68
877.852	7879.98
878.17	7858.51
878.489	7933.99
878.807	7925.62
879.125	7823.03
879.444	7878.17
879.762	7855.12
880.08	7764.95
880.398	7796.59
880.716	7742.58
881.034	7803.37
881.352	7738.29
881.67	7699.87
881.988	7719.98
882.306	7717.95
882.624	7681.56
882.941	7630.49
883.259	7598.4
883.577	7588.46
883.894	7622.58
884.212	7525.86
884.529	7541.91
884.846	7492.19
885.164	7494.22
885.481	7503.04
885.798	7416.71
886.115	7431.4
886.432	7424.17
886.75	7425.75
887.067	7372.19
887.383	7365.41
887.7	7377.84
888.017	7266.66
888.334	7328.13
888.651	7364.06
888.967	7342.36
889.284	7280.22
889.6	7235.25
889.917	7158.19
890.233	7237.06
890.55	7217.85
890.866	7221.69
891.182	7118.19
891.498	7107.12
891.815	7155.25
892.131	7032.09
892.447	7075.93
892.763	7027.57
893.079	6929.49
893.395	7021.92
893.71	6957.06
894.026	6955.71
894.342	6875.26
894.657	6859.44
894.973	6892.21
895.289	6887.69
895.604	6847.91
895.92	6758.42
896.235	6790.74
896.55	6742.38
896.865	6765.2
897.181	6747.12
897.496	6721.81
897.811	6691.53
898.126	6673.23
898.441	6618.09
898.756	6628.94
899.071	6629.61
899.386	6588.26
899.7	6541.48
900.015	6474.82
900.33	6467.81
900.644	6460.35
900.959	6449.05
901.273	6420.81
901.588	6376.29
901.902	6362.95
902.216	6350.3
902.531	6341.26
902.845	6316.63
903.159	6230.08
903.473	6276.18
903.787	6181.04
904.101	6160.93
904.415	6200.7
904.729	6155.73
905.042	6187.59
905.356	6089.97
905.67	6109.85
905.984	6124.77
906.297	6045
906.611	6056.07
906.924	6019.91
907.237	6011.78
907.551	5985.11
907.864	5974.94
908.177	5935.62
908.491	5885.9
908.804	5838.67
909.117	5900.37
909.43	5768.17
909.743	5775.85
910.056	5862.4
910.368	5757.55
910.681	5701.95
910.994	5721.84
911.307	5669.41
911.619	5603.43
911.932	5649.07
912.244	5635.52
912.557	5587.83
912.869	5532.92
913.181	5549.87
913.494	5563.65
913.806	5523.43
914.118	5445.92
914.43	5447.95
914.742	5470.77
915.054	5415.63
915.366	5408.4
915.678	5301.74
915.99	5381.96
916.302	5312.59
916.613	5287.05
916.925	5273.04
917.236	5277.33
917.548	5219.03
917.859	5228.75
918.171	5220.61
918.482	5202.08
918.794	5181.74
919.105	5155.98
919.416	5094.74
919.727	5094.51
920.038	5100.16
920.349	5066.27
920.66	4970.67
920.971	4998.7
921.282	4978.81
921.593	4942.43
921.903	4932.71
922.214	4951.01
922.525	4919.6
922.835	4866.5
923.146	4821.98
923.456	4847.51
923.767	4798.02
924.077	4747.86
924.387	4806.84
924.697	4708.53
925.008	4764.8
925.318	4749.89
925.628	4730.23
925.938	4669.67
926.248	4630.12
926.558	4574.3
926.867	4624.24
927.177	4617.24
927.487	4595.09
927.796	4588.09
928.106	4562.78
928.416	4547.86
928.725	4527.3
929.034	4480.97
929.344	4445.26
929.653	4441.2
929.962	4422.21
930.271	4445.26
930.581	4389.22
930.89	4364.59
931.199	4377.7
931.508	4305.83
931.817	4323.69
932.125	4311.26
932.434	4271.03
932.743	4217.47
933.051	4272.84
933.36	4233.52
933.669	4207.98
933.977	4189.45
934.286	4129.57
934.594	4118.72
934.902	4101.77
935.21	4115.78
935.519	4114.43
935.827	4099.74
936.135	4051.38
936.443	4047.08
936.751	3971.83
937.059	4033.3
937.367	4000.3
937.674	3989.23
937.982	3923.7
938.29	3920.53
938.597	3957.14
938.905	3919.4
939.213	3870.59
939.52	3875.56
939.827	3841.66
940.135	3831.27
940.442	3833.08
940.749	3815.22
941.056	3818.16
941.363	3789.91
941.67	3733.19
941.977	3724.83
942.284	3756.02
942.591	3729.35
942.898	3664.72
943.205	3713.76
943.511	3638.28
943.818	3614.78
944.125	3625.4
944.431	3656.58
944.738	3654.32
945.044	3568
945.35	3557.38
945.657	3549.47
945.963	3571.16
946.269	3515.12
946.575	3554.67
946.881	3509.92
947.187	3506.76
947.493	3459.98
947.799	3432.18
948.105	3409.81
948.41	3425.63
948.716	3415.24
949.022	3399.19
949.327	3404.39
949.633	3392.41
949.938	3357.38
950.244	3327.1
950.549	3336.14
950.854	3306.76
951.16	3332.53
951.465	3284.17
951.77	3313.77
952.075	3281
952.38	3203.04
952.685	3260.44
952.99	3196.03
953.294	3196.03
953.599	3183.38
953.904	3196.03
954.209	3104.73
954.513	3128.01
954.818	3143.15
955.122	3106.77
955.426	3071.29
955.731	3073.55
956.035	3078.75
956.339	3055.47
956.643	3085.3
956.948	3017.73
957.252	3053.21
957.556	3005.53
957.86	3024.06
958.163	2988.35
958.467	2962.37
958.771	2943.61
959.075	2941.58
959.378	2932.31
959.682	2915.59
959.985	2893.21
960.289	2904.51
960.592	2862.26
960.896	2878.98
961.199	2862.03
961.502	2874.46
961.805	2831.75
962.108	2827.23
962.411	2790.84
962.714	2802.6
963.017	2797.62
963.32	2775.93
963.623	2751.52
963.926	2716.27
964.228	2740.45
964.531	2719.43
964.833	2734.57
965.136	2710.17
965.438	2692.77
965.741	2671.75
966.043	2675.82
966.345	2665.65
966.648	2651.64
966.95	2662.26
967.252	2657.06
967.554	2642.37
967.856	2577.97
968.158	2580.23
968.46	2584.97
968.761	2573.9
969.063	2543.17
969.365	2579.1
969.666	2526.22
969.968	2562.6
970.269	2549.95
970.571	2519.67
970.872	2514.92
971.174	2454.13
971.475	2479.67
971.776	2439.22
972.077	2471.31
972.378	2450.06
972.679	2379.56
972.98	2472.66
973.281	2412.78
973.582	2403.96
973.883	2375.49
974.183	2371.19
974.484	2393.34
974.785	2367.8
975.085	2366
975.386	2340.24
975.686	2392.66
975.986	2338.88
976.287	2322.83
976.587	2304.53
976.887	2302.04
977.187	2300.69
977.487	2331.87
977.787	2248.94
978.087	2224.31
978.387	2230.18
978.687	2219.56
978.987	2204.42
979.286	2232.22
979.586	2197.87
979.885	2177.3
980.185	2186.11
980.484	2167.13
980.784	2192.89
981.083	2210.75
981.382	2158.54
981.682	2127.13
981.981	2114.03
982.28	2118.77
982.579	2083.07
982.878	2108.6
983.177	2073.12
983.475	2077.87
983.774	2064.99
984.073	2057.98
984.372	2068.83
984.67	2027.02
984.969	2016.63
985.267	2035.16
985.566	2043.29
985.864	2018.21
986.162	1984.54
986.461	1974.14
986.759	1964.65
987.057	1981.83
987.355	1970.3
987.653	1928.72
987.951	1963.75
988.249	1935.95
988.547	1970.53
988.844	1891.43
989.142	1923.3
989.44	1905.9
989.737	1896.86
990.035	1905.67
990.332	1874.48
990.63	1874.48
990.927	1869.74
991.224	1866.58
991.521	1860.93
991.819	1871.32
992.116	1836.75
992.413	1818.89
992.71	1813.7
993.006	1790.19
993.303	1814.37
993.6	1788.39
993.897	1783.64
994.193	1773.24
994.49	1783.87
994.787	1765.79
995.083	1733.92
995.379	1769.4
995.676	1722.85
995.972	1722.4
996.268	1724.66
996.565	1708.39
996.861	1700.93
997.157	1674.72
997.453	1672.46
997.749	1666.13
998.044	1708.39
998.34	1696.41
998.636	1680.82
998.932	1674.04
999.227	1651.21
999.523	1640.14
999.818	1611.21
1000.114	1637.88
1000.409	1645.34
1000.704	1589.97
1001	1606.24
1001.295	1592.01
1001.59	1570.54
1001.885	1609.41
1002.18	1556.53
1002.475	1543.19
1002.77	1559.69
1003.065	1534.83
1003.359	1549.97
1003.654	1536.87
1003.949	1481.27
1004.243	1523.99
1004.538	1503.42
1004.832	1493.7
1005.127	1491.22
1005.421	1491.44
1005.715	1476.53
1006.009	1443.99
1006.304	1436.3
1006.598	1457.77
1006.892	1429.3
1007.186	1439.47
1007.48	1446.7
1007.773	1429.07
1008.067	1419.13
1008.361	1408.73
1008.655	1398.56
1008.948	1383.2
1009.242	1363.54
1009.535	1358.57
1009.829	1357.66
1010.122	1348.85
1010.415	1338
1010.708	1352.46
1011.001	1298.45
1011.295	1319.02
1011.588	1325.8
1011.881	1309.98
1012.173	1308.85
1012.466	1317.21
1012.759	1295.74
1013.052	1260.26
1013.344	1279.7
1013.637	1290.77
1013.93	1273.37
1014.222	1266.14
1014.514	1266.82
1014.807	1244.22
1015.099	1236.76
1015.391	1212.81
1015.683	1233.82
1015.976	1226.37
1016.268	1206.93
1016.56	1217.33
1016.851	1186.59
1017.143	1199.25
1017.435	1181.17
1017.727	1166.93
1018.018	1167.38
1018.31	1181.17
1018.602	1149.98
1018.893	1128.52
1019.185	1127.39
1019.476	1137.33
1019.767	1139.36
1020.058	1130.32
1020.35	1124.9
1020.641	1114.96
1020.932	1101.85
1021.223	1103.43
1021.514	1085.13
1021.804	1086.71
1022.095	1062.08
1022.386	1080.61
1022.677	1071.12
1022.967	1063.66
1023.258	1039.48
1023.548	1043.09
1023.839	1037.22
1024.129	1032.02
1024.419	1013.49
1024.709	1014.62
1025	1022.08
1025.29	989.31
1025.58	992.02
1025.87	1000.16
1026.16	993.38
1026.449	973.72
1026.739	975.07
1027.029	978.01
1027.319	954.06
1027.608	956.09
1027.898	960.38
1028.187	939.37
1028.477	943.44
1028.766	908.86
1029.055	915.41
1029.344	924.45
1029.634	907.96
1029.923	921.52
1030.212	907.28
1030.501	900.5
1030.79	920.39
1031.078	883.55
1031.367	880.39
1031.656	888.3
1031.945	896.21
1032.233	865.25
1032.522	860.5
1032.81	868.41
1033.099	850.78
1033.387	868.64
1033.675	872.48
1033.963	864.12
1034.251	836.09
1034.54	841.74
1034.828	839.71
1035.116	813.5
1035.403	826.6
1035.691	813.95
1035.979	801.74
1036.267	821.4
1036.554	810.78
1036.842	787.06
1037.129	781.63
1037.417	774.4
1037.704	772.59
1037.992	771.46
1038.279	765.14
1038.566	756.32
1038.853	756.32
1039.14	756.32
