Data from plate_porcelain_FLMS001491_037.txt Node
Date: Tue Feb 07 11:19:13 GMT 2017
User: dcchb
Spectrometer: FLMS00149
Trigger mode: 0
Integration Time (sec): 2.000000E-2
Scans to average: 10
Electric dark correction enabled: true
Nonlinearity correction enabled: false
Boxcar width: 0
XAxis mode: Wavelengths
Number of Pixels in Spectrum: 2048
>>>>>Begin Spectral Data<<<<<
341.393	-23.9
341.776	-23.9
342.16	-23.9
342.543	-66.16
342.927	-76.55
343.31	-57.12
343.693	-83.78
344.077	-80.39
344.46	-49.21
344.843	-25.48
345.226	-30
345.61	-28.42
345.993	-2.2
346.376	-15.76
346.759	3.9
347.142	28.3
347.525	25.82
347.908	52.94
348.291	71.92
348.674	72.14
349.057	117.34
349.44	141.07
349.823	162.54
350.206	170
350.588	237.34
350.971	236.66
351.354	260.39
351.737	261.07
352.119	300.61
352.502	304.46
352.884	315.75
353.267	348.97
353.65	348.75
354.032	337.22
354.414	357.34
354.797	367.73
355.179	349.2
355.562	356.43
355.944	379.26
356.326	379.03
356.709	367.73
357.091	384.45
357.473	400.27
357.855	371.57
358.238	383.78
358.62	390.33
359.002	390.55
359.384	382.87
359.766	371.57
360.148	369.54
360.53	389.42
360.912	375.41
361.294	367.96
361.676	383.32
362.057	379.26
362.439	387.62
362.821	395.75
363.203	383.78
363.584	388.07
363.966	396.43
364.348	379.93
364.729	391.46
365.111	389.2
365.493	381.29
365.874	389.65
366.256	379.93
366.637	389.42
367.019	391.91
367.4	372.48
367.781	383.78
368.163	379.48
368.544	384.91
368.925	391.23
369.306	405.7
369.688	377.67
370.069	372.25
370.45	408.86
370.831	410.22
371.212	409.76
371.593	414.51
371.974	391.91
372.355	429.65
372.736	410.67
373.117	439.59
373.498	426.26
373.879	428.52
374.26	429.88
374.641	408.41
375.021	432.14
375.402	453.38
375.783	443.21
376.163	473.94
376.544	466.26
376.925	466.71
377.305	449.99
377.686	424.9
378.066	461.06
378.447	459.71
378.827	480.04
379.208	482.76
379.588	492.25
379.968	460.84
380.349	482.08
380.729	516.65
381.109	491.57
381.489	501.51
381.87	490.67
382.25	515.98
382.63	516.43
383.01	512.81
383.39	508.52
383.77	508.97
384.15	529.31
384.53	528.63
384.91	540.83
385.29	537.9
385.67	543.77
386.049	553.04
386.429	547.16
386.809	543.09
387.189	536.54
387.568	563.21
387.948	570.44
388.328	567.95
388.707	609.08
389.087	602.53
389.466	588.97
389.846	614.28
390.225	604.56
390.605	633.71
390.984	617.89
391.363	656.31
391.743	665.58
392.122	678.23
392.501	633.03
392.881	670.55
393.26	690.89
393.639	696.08
394.018	703.09
394.397	670.32
394.776	718.46
395.155	725.69
395.534	711.68
395.913	722.52
396.292	736.53
396.671	735.18
397.05	760.49
397.429	779.7
397.808	762.75
398.186	761.84
398.565	768.17
398.944	786.02
399.323	778.34
399.701	801.17
400.08	818.34
400.458	807.49
400.837	839.13
401.215	834.38
401.594	852.46
401.972	874.38
402.351	863.76
402.729	865.8
403.107	877.55
403.486	894.5
403.864	906.93
404.242	918.9
404.62	910.32
404.999	937.43
405.377	948.28
405.755	957.09
406.133	959.58
406.511	993.48
406.889	989.63
407.267	1024.44
407.645	1019.92
408.023	1056.3
408.401	1061.5
408.779	1063.76
409.156	1073.47
409.534	1099.46
409.912	1089.07
410.29	1136.75
410.667	1149.86
411.045	1142.85
411.422	1152.57
411.8	1163.87
412.178	1191.89
412.555	1227.82
412.933	1225.79
413.31	1295.62
413.687	1267.37
414.065	1274.83
414.442	1300.81
414.819	1319.8
415.197	1333.35
415.574	1360.25
415.951	1360.25
416.328	1404.99
416.705	1389.85
417.082	1424.2
417.46	1419.68
417.837	1448.61
418.214	1457.19
418.591	1483.86
418.967	1474.14
419.344	1506.91
419.721	1529.51
420.098	1510.07
420.475	1576.74
420.852	1555.5
421.228	1579.68
421.605	1590.75
421.982	1629.62
422.358	1643.18
422.735	1635.49
423.111	1643.4
423.488	1731.31
423.864	1714.14
424.241	1718.66
424.617	1765.66
424.994	1762.95
425.37	1789.61
425.746	1797.75
426.123	1821.48
426.499	1821.48
426.875	1855.83
427.251	1884.07
427.627	1940.34
428.003	1958.42
428.379	1978.54
428.756	2018.76
429.132	2015.14
429.507	2070.96
429.883	2080.45
430.259	2164.52
430.635	2139.89
431.011	2155.93
431.387	2220.79
431.763	2217.4
432.138	2275.7
432.514	2299.88
432.89	2327.23
433.265	2357.96
433.641	2378.75
434.016	2417.62
434.392	2439.54
434.767	2486.54
435.143	2520.44
435.518	2544.85
435.894	2586.2
436.269	2600.21
436.644	2641.79
437.02	2658.74
437.395	2695.8
437.77	2760.44
438.145	2752.75
438.52	2768.57
438.895	2811.96
439.271	2793.2
439.646	2891.05
440.021	2947.55
440.395	2934.22
440.77	2966.76
441.145	2985.74
441.52	3056.7
441.895	3026.64
442.27	3047.66
442.645	3047.43
443.019	3119.75
443.394	3122.01
443.769	3121.78
444.143	3146.41
444.518	3202.91
444.892	3230.93
445.267	3245.39
445.641	3308.22
446.016	3289.69
446.39	3336.47
446.764	3351.38
447.139	3354.54
447.513	3389.57
447.887	3436.35
448.262	3440.42
448.636	3486.52
449.01	3517.03
449.384	3542.79
449.758	3561.09
450.132	3676.12
450.506	3647.87
450.88	3681.09
451.254	3674.54
451.628	3744.82
452.002	3797.24
452.376	3839.5
452.75	3803.8
453.123	3895.77
453.497	3951.59
453.871	4013.51
454.244	4063.23
454.618	4110.91
454.992	4166.95
455.365	4150.23
455.739	4321.52
456.112	4305.93
456.486	4376.44
456.859	4418.7
457.232	4486.94
457.606	4486.94
457.979	4618.69
458.352	4656.21
458.725	4729.2
459.099	4801.96
459.472	4852.58
459.845	4867.95
460.218	4935.97
460.591	4975.29
460.964	5005.35
461.337	5154.72
461.71	5206.25
462.083	5298
462.456	5296.87
462.829	5336.64
463.201	5493.92
463.574	5455.96
463.947	5615.28
464.32	5700.47
464.692	5750.64
465.065	5786.57
465.438	5910.64
465.81	5963.52
466.183	6029.5
466.555	6144.3
466.928	6172.1
467.3	6195.83
467.672	6325.09
468.045	6476.72
468.417	6493.67
468.789	6561.01
469.161	6646.21
469.534	6765.08
469.906	6908.35
470.278	6946.54
470.65	7077.16
471.022	7209.13
471.394	7307.66
471.766	7354.44
472.138	7525.51
472.51	7633.3
472.882	7795.56
473.253	7869.23
473.625	7973.63
473.997	8113.74
474.369	8200.74
474.74	8337.92
475.112	8480.06
475.484	8667.4
475.855	8784.46
476.227	8807.96
476.598	9073.72
476.97	9174.05
477.341	9407.72
477.713	9520.48
478.084	9620.37
478.455	9855.84
478.827	9980.13
479.198	10261.26
479.569	10271.88
479.94	10517.97
480.311	10657.86
480.682	10935.59
481.053	11140.1
481.424	11337.39
481.795	11445.63
482.166	11700.09
482.537	11778.05
482.908	12022.79
483.279	12112.05
483.65	12374.19
484.021	12623
484.391	12743
484.762	12945.25
485.133	13032.93
485.503	13175.76
485.874	13528.97
486.244	13693.48
486.615	13933.93
486.985	14199.01
487.356	14346.35
487.726	14508.83
488.097	14830.4
488.467	14800.8
488.837	15208.92
489.207	15327.79
489.578	15633.32
489.948	15767.1
490.318	15916.93
490.688	16046.19
491.058	16316.46
491.428	16495.22
491.798	16660.86
492.168	17101.98
492.538	17228.98
492.908	17419.03
493.278	17611.8
493.648	17624.68
494.017	17825.8
494.387	18011.56
494.757	18253.81
495.126	18435.96
495.496	18460.36
495.866	18697.87
496.235	18969.5
496.605	18988.71
496.974	19156.16
497.344	19389.15
497.713	19468.47
498.082	19605.87
498.452	19836.15
498.821	19918.4
499.19	20016.03
499.559	20360.43
499.928	20406.3
500.298	20591.61
500.667	20763.58
501.036	20712.05
501.405	20914.31
501.774	21134.19
502.143	21284.47
502.512	21335.77
502.88	21607.62
503.249	21690.33
503.618	21817.79
503.987	21920.16
504.356	22096.42
504.724	22264.33
505.093	22323.99
505.462	22481.5
505.83	22646.01
506.199	22846.46
506.567	23128.04
506.936	23156.74
507.304	23476.73
507.672	23567.8
508.041	23592.88
508.409	23852.31
508.777	24012.98
509.145	24315.12
509.514	24253.43
509.882	24501.11
510.25	24622.01
510.618	24795.11
510.986	24913.98
511.354	25158.27
511.722	25294.53
512.09	25546.28
512.458	25601.87
512.826	25824.01
513.193	26101.74
513.561	26214.96
513.929	26417.67
514.297	26628.06
514.664	26770.2
515.032	26900.59
515.4	27264.2
515.767	27333.12
516.135	27498.09
516.502	27522.04
516.869	27965.87
517.237	28028.7
517.604	27995.93
517.972	28464.84
518.339	28609.02
518.706	28553.2
519.073	28812.18
519.44	29103.7
519.808	29389.57
520.175	29397.25
520.542	29858.93
520.909	29908.2
521.276	30003.79
521.643	30426.6
522.009	30664.79
522.376	30868.62
522.743	31085.11
523.11	31310.65
523.477	31704.76
523.843	31821.82
524.21	32193.56
524.577	32349.26
524.943	32549.71
525.31	32732.3
525.676	33066.53
526.043	33191.5
526.409	33357.82
526.776	33662.45
527.142	33993.51
527.508	34167.52
527.874	34443.67
528.241	34649.31
528.607	34729.09
528.973	35076.42
529.339	35121.84
529.705	35503.76
530.071	35701.26
530.437	35983.52
530.803	36090.41
531.169	36420.79
531.535	36247.24
531.901	36488.59
532.267	36730.62
532.632	36946.88
532.998	37280.21
533.364	37405.63
533.73	37535.79
534.095	37834.54
534.461	37980.07
534.826	38207.64
535.192	38240.63
535.557	38536.67
535.923	38579.61
536.288	38805.82
536.653	39035.64
537.019	38905.7
537.384	39054.62
537.749	39249.19
538.114	39388.63
538.479	39556.76
538.845	39820.93
539.21	39770.31
539.575	39916.97
539.94	39951.1
540.305	40380.69
540.67	40270.64
541.034	40416.39
541.399	40613.45
541.764	40673.79
542.129	40864.74
542.494	41082.82
542.858	41237.62
543.223	41208.24
543.587	41422.92
543.952	41519.87
544.316	41630.83
544.681	41787.43
545.045	42067.42
545.41	42198.95
545.774	42220.19
546.138	42197.14
546.503	42261.54
546.867	42425.16
547.231	42908.08
547.595	42906.05
547.959	43114.4
548.324	43214.51
548.688	43192.82
549.052	43407.95
549.416	43509.87
549.779	43622.41
550.143	43759.81
550.507	44101.72
550.871	44255.84
551.235	44272.79
551.599	44505.78
551.962	44625.1
552.326	44713.01
552.689	44903.06
553.053	44816.73
553.417	44931.3
553.78	45604.96
554.143	45352.99
554.507	45477.05
554.87	45716.59
555.234	46062.12
555.597	45862.81
555.96	46096.02
556.323	46354.09
556.686	46451.94
557.05	46693.74
557.413	46812.61
557.776	46892.61
558.139	47139.83
558.502	47207.18
558.865	47331.02
559.228	47626.37
559.59	47741.63
559.953	47903.88
560.316	48250.09
560.679	48360.82
561.041	48586.8
561.404	48675.39
561.767	48899.11
562.129	48835.16
562.492	49178.65
562.854	49172.55
563.217	49281.92
563.579	49389.27
563.941	49684.4
564.304	49853.66
564.666	50025.18
565.028	50217.27
565.39	50302.24
565.753	50487.32
566.115	50713.75
566.477	50812.28
566.839	50856.12
567.201	51010.92
567.563	51080.07
567.925	51309.22
568.287	51322.55
568.648	51474.86
569.01	51587.4
569.372	51901.97
569.734	51671.92
570.095	52068.52
570.457	52148.52
570.819	52104.9
571.18	52268.74
571.542	52273.94
571.903	52447.27
572.265	52640.93
572.626	52575.85
572.987	52655.85
573.349	52825.56
573.71	52931.77
574.071	52896.52
574.432	53103.52
574.794	53283.18
575.155	53248.6
575.516	53094.93
575.877	53359.33
576.238	53444.75
576.599	53563.62
576.96	53469.16
577.32	53518.2
577.681	53691.75
578.042	53737.17
578.403	53794.12
578.763	53853.1
579.124	53883.39
579.485	53908.47
579.845	53996.6
580.206	53917.96
580.566	54044.74
580.927	54044.96
581.287	54213.55
581.648	53992.99
582.008	54220.33
582.368	54253.09
582.728	54252.42
583.089	54209.25
583.449	54209.7
583.809	54218.52
584.169	54366.99
584.529	54262.13
584.889	54418.96
585.249	54165.64
585.609	54163.38
585.969	54343.03
586.329	54261
586.688	54409.47
587.048	54365.41
587.408	54318.63
587.768	54342.36
588.127	54283.6
588.487	54259.19
588.846	54477.72
589.206	54346.2
589.565	54372.19
589.925	54479.08
590.284	54422.35
590.643	54499.41
591.003	54560.66
591.362	54630.03
591.721	54538.74
592.08	54514.33
592.44	54629.58
592.799	54642.91
593.158	54491.05
593.517	54541.22
593.876	54622.8
594.235	54515.69
594.593	54584.61
594.952	54655.57
595.311	54571.5
595.67	54593.2
596.029	54763.81
596.387	54777.15
596.746	54768.56
597.104	54734.21
597.463	54705.51
597.822	54882.23
598.18	54662.8
598.538	54734.66
598.897	54917.71
599.255	54660.54
599.613	55046.29
599.972	54808.33
600.33	54892.17
600.688	54823.25
601.046	54988.67
601.404	55128.78
601.762	54964.71
602.12	55080.87
602.478	55030.02
602.836	55149.11
603.194	55024.37
603.552	54996.58
603.91	54928.1
604.268	55162
604.625	55082.45
604.983	55225.5
605.341	55156.35
605.698	55305.95
606.056	55256.46
606.413	55302.33
606.771	55368.77
607.128	55447.64
607.485	55282.9
607.843	55285.83
608.2	55489.44
608.557	55533.29
608.914	55427.3
609.272	55606.96
609.629	55645.15
609.986	55675.88
610.343	55634.53
610.7	55772.15
611.057	55808.76
611.414	55718.82
611.771	55790.23
612.127	55838.81
612.484	55835.42
612.841	55907.74
613.198	55836.55
613.554	55853.28
613.911	56012.82
614.267	55961.52
614.624	55944.8
614.98	56087.17
615.337	56170.78
615.693	56125.81
616.05	56095.53
616.406	56167.62
616.762	56189.77
617.118	56178.47
617.475	56157
617.831	56220.95
618.187	56251.68
618.543	56280.61
618.899	56366.48
619.255	56343.66
619.611	56332.13
619.967	56404.68
620.323	56422.08
620.678	56342.08
621.034	56284.68
621.39	56337.33
621.746	56355.86
622.101	56561.51
622.457	56395.64
622.812	56475.63
623.168	56497.1
623.523	56495.07
623.879	56566.48
624.234	56396.31
624.589	56467.05
624.945	56467.05
625.3	56533.94
625.655	56491.23
626.01	56363.32
626.365	56483.77
626.72	56404.45
627.075	56401.51
627.43	56379.59
627.785	56361.29
628.14	56357.67
628.495	56361.51
628.85	56309.76
629.205	56279.93
629.559	56338.24
629.914	56204.45
630.269	56253.94
630.623	56230.89
630.978	56139.37
631.332	56280.61
631.687	56324.45
632.041	56174.4
632.396	56260.27
632.75	56120.61
633.104	56082.88
633.459	56010.11
633.813	56002.88
634.167	56048.75
634.521	56022.99
634.875	56079.71
635.229	55981.64
635.583	55830.23
635.937	55862.99
636.291	55824.58
636.645	55800.17
636.999	55750.46
637.352	55827.06
637.706	55527.64
638.06	55742.09
638.413	55710.46
638.767	55568.31
639.121	55664.58
639.474	55444.02
639.828	55516.56
640.181	55442.21
640.534	55505.49
640.888	55503.46
641.241	55279.28
641.594	55284.7
641.947	55440.63
642.301	55356.57
642.654	55317.47
643.007	55295.55
643.36	55290.58
643.713	55201.54
644.066	55243.58
644.419	55066.86
644.771	54930.59
645.124	54634.33
645.477	54588.45
645.83	54479.75
646.182	54302.81
646.535	54177.62
646.888	54325.18
647.24	54085.19
647.593	54298.06
647.945	54136.49
648.298	54004.06
648.65	53883.39
649.002	53795.48
649.355	53988.02
649.707	53873.89
650.059	53984.17
650.411	54334.67
650.763	54339.42
651.115	54593.88
651.467	54577.38
651.819	54526.08
652.171	54404.95
652.523	54331.96
652.875	54335.35
653.227	54255.58
653.578	54314.33
653.93	54247.9
654.282	54186.65
654.633	54024.85
654.985	54136.26
655.337	54193.21
655.688	54159.31
656.039	54243.83
656.391	53924.29
656.742	54007.9
657.094	54115.02
657.445	54094.91
657.796	54002.93
658.147	53987.79
658.498	53958.41
658.849	53990.95
659.2	53956.15
659.551	53885.19
659.902	53979.2
660.253	53891.52
660.604	53986.43
660.955	53716.84
661.306	53849.04
661.656	53870.05
662.007	53762.03
662.358	53814.46
662.708	53753.22
663.059	53772.88
663.409	53542.38
663.76	53753.67
664.11	53676.39
664.461	53729.27
664.811	53654.24
665.161	53731.3
665.511	53699.89
665.862	53640.45
666.212	53774.91
666.562	53713.22
666.912	53602.71
667.262	53682.26
667.612	53571.53
667.962	53731.98
668.312	53553.45
668.662	53740.79
669.011	53531.76
669.361	53526.11
669.711	53528.59
670.06	53440.69
670.41	53437.52
670.76	53482.04
671.109	53470.74
671.459	53489.72
671.808	53387.81
672.157	53494.92
672.507	53249.73
672.856	53215.61
673.205	53337.86
673.554	53420.35
673.904	53275.27
674.253	53414.47
674.602	53216.51
674.951	52837.54
675.3	52659.69
675.649	53268.26
675.998	53165.21
676.346	53159.56
676.695	53195.04
677.044	53009.51
677.393	53061.49
677.741	53199.34
678.09	53085.21
678.438	53008.83
678.787	53019.91
679.135	53027.59
679.484	52701.72
679.832	52967.03
680.181	52748.95
680.529	52796.86
680.877	52745.11
681.225	52661.04
681.573	52783.3
681.922	52734.72
682.27	52569.07
682.618	52605.9
682.966	52458.34
683.314	52558.9
683.661	52395.06
684.009	52282.98
684.357	52122.08
684.705	52091.12
685.053	52244.11
685.4	52095.18
685.748	52021.97
686.095	51848.41
686.443	51776.32
686.79	51731.35
687.138	51779.26
687.485	51793.5
687.832	51697
688.18	51734.06
688.527	51470.79
688.874	51395.54
689.221	51313.06
689.568	51313.51
689.915	51168.65
690.262	51113.51
690.609	51084.59
690.956	50977.93
691.303	50964.37
691.65	50760.76
691.997	50712.17
692.344	50541.78
692.69	50457.03
693.037	50545.39
693.383	50269.92
693.73	50442.35
694.077	50086.2
694.423	50164.16
694.769	49920.1
695.116	49951.29
695.462	49967.56
695.808	49703.16
696.155	49907.9
696.501	49547.68
696.847	49611.63
697.193	49264.75
697.539	49300
697.885	49203.06
698.231	49134.36
698.577	49190.63
698.923	49035.6
699.269	48758.77
699.614	48451.21
699.96	48527.59
700.306	48655.95
700.651	48400.59
700.997	48392.23
701.342	48231.33
701.688	48172.35
702.033	48027.72
702.379	47982.75
702.724	47799.25
703.069	47804
703.415	47517
703.76	47419.83
704.105	47555.87
704.45	47383.44
704.795	47023.45
705.14	47037.01
705.485	46973.74
705.83	46821.2
706.175	46929.44
706.52	46921.53
706.865	46396.12
707.209	46587.76
707.554	46462.56
707.899	46534.65
708.243	46326.97
708.588	46360.65
708.932	45911.39
709.277	46010.15
709.621	45935.8
709.966	45776.03
710.31	45864.84
710.654	45458.75
710.998	45570.61
711.342	45512.31
711.687	45313.67
712.031	45189.6
712.375	44985.99
712.719	45089.94
713.063	44955.48
713.407	45161.13
713.75	44948.93
714.094	44907.12
714.438	44661.26
714.782	44891.53
715.125	44538.77
715.469	44619.67
715.812	44299.91
716.156	44126.13
716.499	44198.67
716.843	44094.72
717.186	43845.23
717.53	44022.18
717.873	44054.27
718.216	43986.92
718.559	43779.47
718.902	43485.01
719.246	43875.51
719.589	43523.88
719.932	43402.08
720.275	43393.72
720.617	43296.09
720.96	43186.04
721.303	43216.55
721.646	43192.59
721.989	42920.51
722.331	43085.03
722.674	42899.27
723.016	43002.32
723.359	42718.03
723.701	42834.64
724.044	42720.06
724.386	42423.8
724.729	42594.42
725.071	42446.62
725.413	42385.61
725.755	42405.04
726.097	42133.19
726.439	41844.15
726.782	41967.09
727.124	42088.22
727.465	41840.54
727.807	41858.84
728.149	41691.16
728.491	41677.6
728.833	41753.99
729.175	41527.1
729.516	41589.7
729.858	41392.87
730.199	41465.18
730.541	41337.73
730.882	41273.1
731.224	41364.39
731.565	41074
731.906	41287.11
732.248	41068.58
732.589	40968.92
732.93	40756.27
733.271	40831.07
733.612	40917.17
733.953	40776.84
734.294	40547.69
734.635	40535.26
734.976	40629.04
735.317	40274.93
735.658	40336.85
735.999	40420.91
736.339	40323.06
736.68	40340.69
737.021	39940.93
737.361	39898.22
737.702	40171.2
738.042	40059.34
738.383	39974.6
738.723	39900.02
739.063	39761.04
739.404	39905.45
739.744	39616.87
740.084	39493.48
740.424	39682.85
740.764	39545.91
741.104	39553.14
741.444	39488.51
741.784	39239.7
742.124	39172.81
742.464	39180.95
742.804	39210.1
743.143	39125.36
743.483	39145.47
743.823	38917.68
744.162	38975.98
744.502	38889.88
744.841	38661.64
745.181	38849.66
745.52	38617.35
745.86	38869.99
746.199	38751.13
746.538	38529.66
746.877	38610.11
747.216	38407.86
747.556	38285.6
747.895	38377.58
748.234	38122.44
748.573	38217.36
748.911	38110.24
749.25	37994.31
749.589	37797.71
749.928	37921.55
750.267	37870.93
750.605	37626.64
750.944	37554.55
751.283	37581.89
751.621	37566.75
751.96	37262.13
752.298	37264.84
752.636	37325.4
752.975	37157.95
753.313	37006.54
753.651	37134.45
753.989	36840.22
754.327	36893.55
754.666	36721.12
755.004	36725.42
755.342	36831.86
755.679	36735.14
756.017	36457.4
756.355	36463.05
756.693	36272.32
757.031	36374.02
757.368	36151.2
757.706	36004.99
758.044	35885.89
758.381	35821.49
758.719	35774.71
759.056	35767.48
759.394	35657.88
759.731	35515.28
760.068	35308.96
760.405	35325
760.743	35128.85
761.08	35183.54
761.417	34869.65
761.754	35053.15
762.091	34995.97
762.428	34706.49
762.765	34484.8
763.102	34692.03
763.438	34371.58
763.775	34245.94
764.112	34230.57
764.449	34162.1
764.785	33998.26
765.122	33854.76
765.458	33704.48
765.795	33673.07
766.131	33687.98
766.467	33467.65
766.804	33323.93
767.14	33107.43
767.476	33249.13
767.812	33032.63
768.148	33063.14
768.485	32784.05
768.821	32651.18
769.157	32506.09
769.492	32517.17
769.828	32559.2
770.164	32230.85
770.5	32198.31
770.836	32156.5
771.171	31872.89
771.507	31897.97
771.842	31697.98
772.178	31627.25
772.513	31540.24
772.849	31568.72
773.184	31380.25
773.519	31334.83
773.855	31141.38
774.19	30841.96
774.525	30843.31
774.86	30823.88
775.195	30790.89
775.53	30610.78
775.865	30446.26
776.2	30222.54
776.535	30100.73
776.87	30235.42
777.205	30013.96
777.539	29883.56
777.874	29877.46
778.209	29571.71
778.543	29532.39
778.878	29337.82
779.212	29373.52
779.547	29145.28
779.881	29218.05
780.215	29038.39
780.55	29030.48
780.884	28922.91
781.218	28780.54
781.552	28720.21
781.886	28572.19
782.22	28559.98
782.554	28259.65
782.888	28116.15
783.222	28024.4
783.556	27861.24
783.889	27783.96
784.223	27687.69
784.557	27704.41
784.89	27700.8
785.224	27452.89
785.557	27330.64
785.891	27240.47
786.224	27122.96
786.558	27143.52
786.891	26881.84
787.224	26760.03
787.557	26744.44
787.891	26708.51
788.224	26731.11
788.557	26606.14
788.89	26544.22
789.223	26473.48
789.556	26196.43
789.888	26162.98
790.221	25961.41
790.554	25824.91
790.887	25788.53
791.219	25748.08
791.552	25623.79
791.884	25447.07
792.217	25450.69
792.549	25393.97
792.882	25346.73
793.214	25171.15
793.546	25221.99
793.879	25055.67
794.211	24940.19
794.543	24920.98
794.875	24705.4
795.207	24774.77
795.539	24653.87
795.871	24716.24
796.203	24454.33
796.535	24380.88
796.867	24309.25
797.198	24221.11
797.53	24158.52
797.862	24091.63
798.193	24030.84
798.525	23827.23
798.856	23905.42
799.188	23609.61
799.519	23687.12
799.85	23456.84
800.182	23563.73
800.513	23495.26
800.844	23354.24
801.175	23518.99
801.506	23365.32
801.837	23263.63
802.168	23107.7
802.499	22966.68
802.83	22935.95
803.161	22905.22
803.491	22768.72
803.822	22872.68
804.153	22609.86
804.483	22477.66
804.814	22440.6
805.145	22530.31
805.475	22353.37
805.805	22360.15
806.136	22226.36
806.466	22278.79
806.796	22198.79
807.126	22088.74
807.457	21865.47
807.787	22057.56
808.117	21982.76
808.447	21774.85
808.777	21821.63
809.107	21724.01
809.436	21686.72
809.766	21643.78
810.096	21599.49
810.426	21469.32
810.755	21453.96
811.085	21442.66
811.414	21346.61
811.744	21211.7
812.073	21133.96
812.403	21153.85
812.732	20988.88
813.061	20974.87
813.39	20901.43
813.719	20848.32
814.049	20957.7
814.378	20872.5
814.707	20772.17
815.036	20668.67
815.365	20618.05
815.693	20392.06
816.022	20364.72
816.351	20363.14
816.68	20402.68
817.008	20291.73
817.337	20136.7
817.665	20166.76
817.994	20177.61
818.322	20089.92
818.651	20006.99
818.979	19957.5
819.307	20066.42
819.636	19833.43
819.964	19834.56
820.292	19913.66
820.62	19819.87
820.948	19773.55
821.276	19884.73
821.604	19646.55
821.932	19787.78
822.259	19791.4
822.587	19768.58
822.915	19769.48
823.243	19731.29
823.57	19705.3
823.898	19846.99
824.225	19561.8
824.553	19696.26
824.88	19712.53
825.207	19727.22
825.535	19682.48
825.862	19726.32
826.189	19596.38
826.516	19822.36
826.843	19634.34
827.17	19757.73
827.497	19686.32
827.824	19712.08
828.151	19679.99
828.478	19634.79
828.805	19658.52
829.131	19465.08
829.458	19514.8
829.785	19585.98
830.111	19621.91
830.438	19702.14
830.764	19631.63
831.09	19576.72
831.417	19530.39
831.743	19562.93
832.069	19581.69
832.395	19402.48
832.722	19572.2
833.048	19456.95
833.374	19453.33
833.7	19329.94
834.026	19480.9
834.351	19463.95
834.677	19377.17
835.003	19431.41
835.329	19290.4
835.654	19261.02
835.98	19272.09
836.306	19177.18
836.631	19220.12
836.956	19231.87
837.282	19278.65
837.607	19144.19
837.932	19157.97
838.258	19144.41
838.583	18973.57
838.908	18929.73
839.233	19005.66
839.558	18889.5
839.883	18881.14
840.208	18835.27
840.533	18868.94
840.858	18932.44
841.182	18717.3
841.507	18757.3
841.832	18707.14
842.156	18631.66
842.481	18635.5
842.805	18541.49
843.13	18525.45
843.454	18526.35
843.778	18280.03
844.103	18284.77
844.427	18336.07
844.751	18306.02
845.075	18234.38
845.399	18202.06
845.723	18115.06
846.047	18091.78
846.371	17995.06
846.695	18011.79
847.019	17751.68
847.343	17677.78
847.666	17617.45
847.99	17527.96
848.313	17524.12
848.637	17479.37
848.96	17308.75
849.284	17379.26
849.607	17243.22
849.931	17239.6
850.254	17065.37
850.577	17021.3
850.9	16956.22
851.223	16906.05
851.546	16775.66
851.869	16558.49
852.192	16693.63
852.515	16671.48
852.838	16560.3
853.161	16636.23
853.483	16454.31
853.806	16367.76
854.129	16315.33
854.451	16295.67
854.774	16297.71
855.096	16239.63
855.419	16085.96
855.741	16085.28
856.063	15985.17
856.385	16004.38
856.708	15898.62
857.03	15923.71
857.352	15781.56
857.674	15740.21
857.996	15749.25
858.318	15592.64
858.64	15610.27
858.961	15593.77
859.283	15491.63
859.605	15433.1
859.926	15532.76
860.248	15450.95
860.57	15296.6
860.891	15286.43
861.212	15233.1
861.534	15174.35
861.855	15152.2
862.176	15158.75
862.498	15167.12
862.819	15216.38
863.14	15069.94
863.461	15025.88
863.782	14998.98
864.103	14969.15
864.424	14906.33
864.745	15001.47
865.065	14841.25
865.386	14774.36
865.707	14853.23
866.027	14861.13
866.348	14881.25
866.668	14806.9
866.989	14752.66
867.309	14612.55
867.63	14694.81
867.95	14641.03
868.27	14597.64
868.59	14661.59
868.91	14570.97
869.23	14535.04
869.55	14561.48
869.87	14588.6
870.19	14559
870.51	14469.05
870.83	14472.44
871.15	14284.88
871.469	14299.12
871.789	14263.86
872.109	14335.5
872.428	14334.14
872.748	14380.24
873.067	14275.84
873.386	14266.12
873.706	14257.08
874.025	14146.58
874.344	14108.39
874.663	14133.92
874.982	14048.5
875.301	14072
875.62	13937.09
875.939	13961.72
876.258	14045.11
876.577	13958.33
876.896	13899.35
877.214	13917.43
877.533	13937.09
877.852	13884.44
878.17	13928.05
878.489	13892.57
878.807	13868.39
879.125	13756.53
879.444	13802.41
879.762	13760.82
880.08	13786.36
880.398	13682.18
880.716	13782.07
881.034	13634.05
881.352	13764.21
881.67	13597.67
881.988	13594.73
882.306	13520.83
882.624	13540.27
882.941	13348.41
883.259	13367.61
883.577	13352.93
883.894	13363.77
884.212	13270.44
884.529	13269.76
884.846	13214.17
885.164	13223.89
885.481	13139.82
885.798	13185.47
886.115	13065.7
886.432	13068.41
886.75	13024.8
887.067	13076.32
887.383	12979.6
887.7	13055.53
888.017	12901.41
888.334	12995.2
888.651	12957.91
888.967	12928.53
889.284	12785.48
889.6	12707.07
889.917	12666.39
890.233	12719.72
890.55	12599.27
890.866	12683.11
891.182	12598.14
891.498	12543
891.815	12444.02
892.131	12443.12
892.447	12481.31
892.763	12377.36
893.079	12329.68
893.395	12308.89
893.71	12239.06
894.026	12225.95
894.342	12159.96
894.657	12130.81
894.973	12128.55
895.289	12077.71
895.604	12065.28
895.92	11910.7
896.235	11968.56
896.55	11965.39
896.865	11945.51
897.181	11894.21
897.496	11874.32
897.811	11770.59
898.126	11713.19
898.441	11742.35
898.756	11633.65
899.071	11616.47
899.386	11670.03
899.7	11522.24
900.015	11576.7
900.33	11457.61
900.644	11435.24
900.959	11447.21
901.273	11375.8
901.588	11306.2
901.902	11259.2
902.216	11197.05
902.531	11260.78
902.845	11080.9
903.159	11053.55
903.473	10988.69
903.787	11013.55
904.101	10836.16
904.415	10810.85
904.729	10824.63
905.042	10805.42
905.356	10798.87
905.67	10757.29
905.984	10739.66
906.297	10733.79
906.611	10623.73
906.924	10657.86
907.237	10591.87
907.551	10511.64
907.864	10480.91
908.177	10468.03
908.491	10410.86
908.804	10371.76
909.117	10362.95
909.43	10154.14
909.743	10185.33
910.056	10122.95
910.368	10138.1
910.681	10033.69
910.994	9974.03
911.307	10028.04
911.619	9939.23
911.932	9982.62
912.244	9867.59
912.557	9871.89
912.869	9756.86
913.181	9736.75
913.494	9743.76
913.806	9672.12
914.118	9623.31
914.43	9544.21
914.742	9547.6
915.054	9492.69
915.366	9504.44
915.678	9480.26
915.99	9376.31
916.302	9372.92
916.613	9263.77
916.925	9249.98
917.236	9250.66
917.548	9219.93
917.859	9223.54
918.171	9140.83
918.482	9082.3
918.794	9032.14
919.105	9004.11
919.416	8903.33
919.727	8945.13
920.038	8938.35
920.349	8859.71
920.66	8819.03
920.971	8751.46
921.282	8810.45
921.593	8723.67
921.903	8593.28
922.214	8594.18
922.525	8578.36
922.835	8541.53
923.146	8512.83
923.456	8516.89
923.767	8459.72
924.077	8484.58
924.387	8363.68
924.697	8330.91
925.008	8248.43
925.318	8279.84
925.628	8203
925.938	8096.79
926.248	8088.88
926.558	8109.45
926.867	8011.37
927.177	8020.86
927.487	8039.62
927.796	7963.46
928.106	7894.09
928.416	7885.05
928.725	7944.25
929.034	7826.97
929.344	7832.84
929.653	7789
929.962	7745.84
930.271	7693.87
930.581	7621.1
930.89	7585.62
931.199	7557.82
931.508	7523.47
931.817	7572.06
932.125	7546.75
932.434	7448.45
932.743	7377.72
933.051	7394.44
933.36	7371.16
933.669	7357.15
933.977	7299.98
934.286	7267.89
934.594	7267.66
934.902	7157.16
935.21	7162.81
935.519	7116.03
935.827	7071.28
936.135	7082.13
936.443	6958.29
936.751	6997.61
937.059	6976.37
937.367	6944.28
937.674	6940.21
937.982	6888.01
938.29	6799.43
938.597	6812.98
938.905	6722.37
939.213	6786.32
939.52	6776.38
939.827	6749.71
940.135	6647.57
940.442	6647.34
940.749	6647.11
941.056	6657.73
941.363	6540.9
941.67	6535.93
941.977	6557.4
942.284	6469.26
942.591	6469.49
942.898	6413.67
943.205	6433.33
943.511	6372.32
943.818	6356.95
944.125	6270.17
944.431	6238.54
944.738	6250.51
945.044	6274.02
945.35	6181.36
945.657	6130.74
945.963	6163.06
946.269	6084.87
946.575	6123.51
946.881	6061.82
947.187	6048.94
947.493	6014.81
947.799	5974.36
948.105	5986.57
948.41	5930.3
948.716	5899.56
949.022	5776.85
949.327	5851.65
949.633	5740.47
949.938	5753.35
950.244	5769.4
950.549	5702.28
950.854	5685.33
951.16	5651.43
951.465	5655.73
951.77	5653.92
952.075	5604.65
952.38	5582.28
952.685	5575.28
952.99	5514.71
953.294	5474.26
953.599	5477.43
953.904	5435.17
954.209	5408.5
954.513	5385.9
954.818	5428.61
955.122	5332.8
955.426	5366.92
955.731	5281.27
956.035	5245.57
956.339	5274.04
956.643	5250.99
956.948	5164.21
957.252	5177.1
957.556	5190.2
957.86	5149.3
958.163	5114.05
958.467	5112.01
958.771	5070.43
959.075	5071.79
959.378	5022.75
959.682	5046.7
959.985	5004.22
960.289	5018.91
960.592	4948.63
960.896	4940.72
961.199	4887.84
961.502	4905.01
961.805	4878.8
962.108	4856.43
962.411	4870.89
962.714	4786.82
963.017	4762.19
963.32	4803.09
963.623	4770.55
963.926	4703.44
964.228	4723.77
964.531	4658.92
964.833	4673.61
965.136	4700.95
965.438	4614.85
965.741	4608.52
966.043	4622.99
966.345	4573.27
966.648	4592.25
966.95	4560.16
967.252	4488.53
967.554	4470.67
967.856	4472.26
968.158	4451.69
968.46	4422.09
968.761	4422.77
969.063	4400.62
969.365	4354.52
969.666	4340.51
969.968	4335.76
970.269	4284.24
970.571	4282.88
970.872	4305.25
971.174	4239.49
971.475	4198.82
971.776	4251.02
972.077	4203.11
972.378	4167.18
972.679	4143.9
972.98	4098.03
973.281	4127.86
973.582	4112.04
973.883	4102.77
974.183	4077.24
974.484	4030.91
974.785	4030.01
975.085	3992.95
975.386	4016.45
975.686	4010.8
975.986	3941.42
976.287	3945.72
976.587	3884.93
976.887	3882.67
977.187	3892.61
977.487	3880.86
977.787	3825.04
978.087	3826.85
978.387	3827.75
978.687	3805.83
978.987	3783.46
979.286	3756.79
979.586	3757.92
979.885	3746.85
980.185	3681.99
980.484	3658.04
980.784	3630.7
981.083	3648.1
981.382	3650.13
981.682	3662.56
981.981	3609
982.28	3591.6
982.579	3579.17
982.878	3607.42
983.177	3559.96
983.475	3506.86
983.774	3470.02
984.073	3511.83
984.372	3479.51
984.67	3483.58
984.969	3470.47
985.267	3453.3
985.566	3425.05
985.864	3407.88
986.162	3369.46
986.461	3356.8
986.759	3353.87
987.057	3327.43
987.355	3285.39
987.653	3316.13
987.951	3332.62
988.249	3260.31
988.547	3280.65
988.844	3265.28
989.142	3224.15
989.44	3218.28
989.737	3207.66
990.035	3157.04
990.332	3160.2
990.63	3147.77
990.927	3150.48
991.224	3141.67
991.521	3078.62
991.819	3103.7
992.116	3056.47
992.413	3065.96
992.71	3016.7
993.006	3072.07
993.303	3028.9
993.6	2978.96
993.897	3015.57
994.193	2970.6
994.49	2900.55
994.787	2930.83
995.083	2949.36
995.379	2922.92
995.676	2886.31
995.972	2905.74
996.268	2888.79
996.565	2843.15
996.861	2845.41
997.157	2848.12
997.453	2806.08
997.749	2794.11
998.044	2790.49
998.34	2769.48
998.636	2755.92
998.932	2715.47
999.227	2740.1
999.523	2704.84
999.818	2695.58
1000.114	2682.25
1000.409	2681.57
1000.704	2618.74
1001	2618.97
1001.295	2603.15
1001.59	2581.68
1001.885	2597.73
1002.18	2589.14
1002.475	2566.09
1002.77	2532.19
1003.065	2541.23
1003.359	2512.76
1003.654	2466.88
1003.949	2513.44
1004.243	2475.25
1004.538	2497.39
1004.832	2464.62
1005.127	2469.82
1005.421	2442.48
1005.715	2394.12
1006.009	2400.9
1006.304	2358.41
1006.598	2385.98
1006.892	2376.27
1007.186	2329.94
1007.48	2326.32
1007.773	2325.19
1008.067	2299.21
1008.361	2288.36
1008.655	2274.35
1008.948	2284.52
1009.242	2266.21
1009.535	2221.02
1009.829	2231.86
1010.122	2192.32
1010.415	2254.23
1010.708	2199.77
1011.001	2163.39
1011.295	2176.72
1011.588	2125.65
1011.881	2136.27
1012.173	2105.31
1012.466	2126.78
1012.759	2099.89
1013.052	2100.79
1013.344	2063.96
1013.637	2072.77
1013.93	2004.07
1014.222	2023.96
1014.514	2015.37
1014.807	2018.53
1015.099	1951.87
1015.391	2003.85
1015.683	1959.78
1015.976	1943.51
1016.268	1950.51
1016.56	1921.59
1016.851	1914.81
1017.143	1881.59
1017.435	1915.94
1017.727	1881.36
1018.018	1873
1018.31	1830.52
1018.602	1809.27
1018.893	1857.86
1019.185	1814.47
1019.476	1794.81
1019.767	1791.2
1020.058	1762.27
1020.35	1767.24
1020.641	1790.97
1020.932	1748.26
1021.223	1739.22
1021.514	1739.9
1021.804	1699.67
1022.095	1707.58
1022.386	1707.81
1022.677	1677.3
1022.967	1657.19
1023.258	1640.92
1023.548	1632.78
1023.839	1666.23
1024.129	1650.63
1024.419	1598.21
1024.709	1619
1025	1593.01
1025.29	1594.36
1025.58	1555.04
1025.87	1546.23
1026.16	1533.8
1026.449	1547.81
1026.739	1507.81
1027.029	1520.69
1027.319	1511.43
1027.608	1502.84
1027.898	1476.18
1028.187	1462.84
1028.477	1489.73
1028.766	1443.18
1029.055	1450.19
1029.344	1422.62
1029.634	1431.88
1029.923	1414.03
1030.212	1411.54
1030.501	1405.44
1030.79	1395.5
1031.078	1338.55
1031.367	1367.03
1031.656	1384.65
1031.945	1342.17
1032.233	1327.25
1032.522	1300.81
1032.81	1321.6
1033.099	1332.9
1033.387	1300.81
1033.675	1288.38
1033.963	1291.77
1034.251	1251.77
1034.54	1237.76
1034.828	1251.55
1035.116	1261.94
1035.403	1222.62
1035.691	1230.08
1035.979	1220.36
1036.267	1205.45
1036.554	1209.74
1036.842	1169.52
1037.129	1179.69
1037.417	1161.38
1037.704	1183.3
1037.992	1162.96
1038.279	1135.85
1038.566	1150.76
1038.853	1150.76
1039.14	1150.76
