Data from plate_porcelain_FLMS001491_071.txt Node
Date: Tue Feb 07 11:19:51 GMT 2017
User: dcchb
Spectrometer: FLMS00149
Trigger mode: 0
Integration Time (sec): 2.000000E-2
Scans to average: 10
Electric dark correction enabled: true
Nonlinearity correction enabled: false
Boxcar width: 0
XAxis mode: Wavelengths
Number of Pixels in Spectrum: 2048
>>>>>Begin Spectral Data<<<<<
341.393	-14.05
341.776	-14.05
342.16	-14.05
342.543	-58.8
342.927	-77.33
343.31	-71.9
343.693	-70.55
344.077	-68.29
344.46	-55.63
344.843	-39.14
345.226	-46.14
345.61	-49.98
345.993	2.67
346.376	-7.27
346.759	0.18
347.142	24.14
347.525	40.41
347.908	60.52
348.291	69.33
348.674	107.53
349.057	104.14
349.44	128.77
349.823	142.55
350.206	165.6
350.588	252.38
350.971	276.56
351.354	263
351.737	299.16
352.119	286.05
352.502	314.53
352.884	346.16
353.267	329.21
353.65	346.62
354.032	349.1
354.414	360.85
354.797	337.12
355.179	371.47
355.562	388.42
355.944	413.73
356.326	380.74
356.709	380.06
357.091	377.12
357.473	400.63
357.855	412.38
358.238	396.56
358.62	390.91
359.002	403.79
359.384	430.91
359.766	424.13
360.148	411.02
360.53	421.64
360.912	403.56
361.294	396.33
361.676	400.17
362.057	408.08
362.439	404.69
362.821	415.77
363.203	396.33
363.584	413.73
363.966	418.03
364.348	411.02
364.729	408.76
365.111	395.2
365.493	389.55
365.874	416.22
366.256	402.43
366.637	428.42
367.019	413.28
367.4	413.05
367.781	424.81
368.163	411.92
368.544	422.55
368.925	421.42
369.306	435.43
369.688	418.7
370.069	429.1
370.45	423
370.831	445.37
371.212	456.22
371.593	432.49
371.974	438.82
372.355	424.81
372.736	427.29
373.117	444.69
373.498	441.3
373.879	455.31
374.26	433.17
374.641	439.72
375.021	451.02
375.402	455.76
375.783	479.27
376.163	504.35
376.544	491.7
376.925	477.69
377.305	488.76
377.686	498.93
378.066	505.93
378.447	497.57
378.827	508.19
379.208	510.23
379.588	496.67
379.968	508.42
380.349	529.89
380.729	520.4
381.109	518.59
381.489	538.25
381.87	538.02
382.25	562.2
382.63	544.8
383.01	559.72
383.39	546.61
383.77	557.68
384.15	573.28
384.53	597
384.91	589.55
385.29	595.42
385.67	605.82
386.049	620.96
386.429	609.89
386.809	643.33
387.189	624.35
387.568	645.59
387.948	654.86
388.328	648.3
388.707	649.21
389.087	670.9
389.466	664.57
389.846	676.78
390.225	681.07
390.605	696.66
390.984	678.58
391.363	708.64
391.743	722.88
392.122	723.78
392.501	736.21
392.881	756.77
393.26	762.65
393.639	778.24
394.018	752.25
394.397	773.95
394.776	773.27
395.155	793.61
395.534	770.78
395.913	814.85
396.292	806.49
396.671	833.83
397.05	840.16
397.429	854.4
397.808	855.08
398.186	859.6
398.565	868.86
398.944	869.54
399.323	851.46
399.701	902.98
400.08	906.6
400.458	917.9
400.837	945.92
401.215	937.33
401.594	948.18
401.972	951.35
402.351	973.04
402.729	997.45
403.107	996.54
403.486	985.02
403.864	1001.06
404.242	1023.21
404.62	1026.15
404.999	1057.33
405.377	1064.79
405.755	1108.63
406.133	1096.88
406.511	1092.36
406.889	1124
407.267	1126.26
407.645	1144.33
408.023	1143.66
408.401	1179.59
408.779	1204.9
409.156	1225.24
409.534	1265.01
409.912	1273.14
410.29	1279.02
410.667	1321.05
411.045	1297.1
411.422	1340.04
411.8	1364.67
412.178	1345.91
412.555	1386.14
412.933	1394.27
413.31	1425.23
413.687	1453.03
414.065	1488.05
414.442	1510.65
414.819	1511.78
415.197	1517.66
415.574	1570.99
415.951	1585.9
416.328	1573.02
416.705	1594.04
417.082	1591.78
417.46	1618.67
417.837	1643.3
418.214	1662.29
418.591	1688.95
418.967	1681.27
419.344	1713.81
419.721	1747.26
420.098	1757.43
420.475	1759.46
420.852	1806.46
421.228	1821.15
421.605	1806.69
421.982	1844.43
422.358	1880.81
422.735	1910.87
423.111	1901.83
423.488	1941.83
423.864	1978.89
424.241	1999.45
424.617	2016.4
424.994	2022.96
425.37	2041.49
425.746	2065.44
426.123	2096.17
426.499	2104.31
426.875	2136.62
427.251	2204.19
427.627	2226.34
428.003	2250.29
428.379	2288.94
428.756	2318.09
429.132	2333.91
429.507	2343.85
429.883	2434.02
430.259	2478.54
430.635	2453.68
431.011	2484.19
431.387	2577.07
431.763	2592.88
432.138	2623.39
432.514	2708.59
432.89	2680.11
433.265	2717.85
433.641	2737.51
434.016	2784.29
434.392	2847.79
434.767	2905.64
435.143	2932.99
435.518	2952.65
435.894	2978.41
436.269	3024.28
436.644	3106.99
437.02	3119.42
437.395	3109.48
437.77	3172.98
438.145	3220.89
438.52	3224.28
438.895	3254.11
439.271	3254.11
439.646	3365.74
440.021	3382.92
440.395	3377.95
440.77	3396.93
441.145	3435.35
441.52	3481.9
441.895	3484.16
442.27	3557.15
442.645	3539.98
443.019	3653.19
443.394	3651.84
443.769	3698.39
444.143	3639.64
444.518	3719.63
444.892	3731.16
445.267	3736.36
445.641	3810.25
446.016	3828.11
446.39	3835.11
446.764	3890.02
447.139	3899.29
447.513	3906.97
447.887	3936.58
448.262	3978.61
448.636	3998.5
449.01	4079.85
449.384	4110.58
449.758	4118.27
450.132	4196.01
450.506	4230.58
450.88	4263.12
451.254	4306.29
451.628	4360.75
452.002	4396.45
452.376	4428.77
452.75	4478.94
453.123	4471.93
453.497	4623.56
453.871	4618.37
454.244	4715.54
454.618	4748.99
454.992	4861.52
455.365	4772.94
455.739	4991.92
456.112	5042.54
456.486	5108.3
456.859	5120.5
457.232	5235.98
457.606	5202.53
457.979	5341.74
458.352	5472.36
458.725	5473.94
459.099	5492.92
459.472	5596.19
459.845	5693.82
460.218	5766.59
460.591	5846.58
460.964	5800.26
461.337	5979.91
461.71	6108.27
462.083	6156.41
462.456	6134.94
462.829	6223.75
463.201	6281.37
463.574	6369.06
463.947	6488.15
464.32	6611.99
464.692	6659.67
465.065	6767.92
465.438	6800.68
465.81	6936.5
466.183	7016.95
466.555	7170.39
466.928	7179.66
467.3	7213.1
467.672	7326.77
468.045	7581.91
468.417	7588.23
468.789	7608.8
469.161	7790.26
469.534	7865.51
469.906	8101.44
470.278	8140.31
470.65	8201.32
471.022	8399.96
471.394	8545.04
471.766	8606.74
472.138	8726.06
472.51	8865.04
472.882	9069.1
473.253	9163.56
473.625	9305.7
473.997	9484.68
474.369	9558.12
474.74	9658.01
475.112	9851
475.484	10074.27
475.855	10188.16
476.227	10392.9
476.598	10569.17
476.97	10729.17
477.341	10967.35
477.713	11104.07
478.084	11194.24
478.455	11514.91
478.827	11553.1
479.198	12009.81
479.569	11999.87
479.94	12307.43
480.311	12446.41
480.682	12750.81
481.053	13033.29
481.424	13263.34
481.795	13329.32
482.166	13538.36
482.537	13733.83
482.908	14010.66
483.279	14207.27
483.65	14399.13
484.021	14740.81
484.391	14877.31
484.762	15068.04
485.133	15156.17
485.503	15507.8
485.874	15788.24
486.244	15910.05
486.615	16230.27
486.985	16435.46
487.356	16755.45
487.726	16907.54
488.097	17254.65
488.467	17331.93
488.837	17653.5
489.207	17952.03
489.578	18222.53
489.948	18441.96
490.318	18683.08
490.688	18757.88
491.058	19001.72
491.428	19278.09
491.798	19463.4
492.168	19958.98
492.538	19988.36
492.908	20228.13
493.278	20544.05
493.648	20534.11
494.017	20827.21
494.387	21011.38
494.757	21220.42
495.126	21386.97
495.496	21516.45
495.866	21591.93
496.235	22041.64
496.605	22128.87
496.974	22312.37
497.344	22482.08
497.713	22612.92
498.082	22856.98
498.452	23242.51
498.821	23254.71
499.19	23315.73
499.559	23528.6
499.928	23602.5
500.298	23871.87
500.667	24150.51
501.036	24156.61
501.405	24443.38
501.774	24484.96
502.143	24778.29
502.512	24888.79
502.88	25063.48
503.249	25137.6
503.618	25430.93
503.987	25419.85
504.356	25782.1
504.724	25816.68
505.093	25910.69
505.462	26185.26
505.83	26276.33
506.199	26560.16
506.567	26872.7
506.936	26798.35
507.304	27192.46
507.672	27335.28
508.041	27497.77
508.409	27631.1
508.777	27861.37
509.145	28049.39
509.514	28255.71
509.882	28379.32
510.25	28499.77
510.618	28827.9
510.986	28861.57
511.354	29197.38
511.722	29471.95
512.09	29689.35
512.458	29672.4
512.826	29911.71
513.193	30021.32
513.561	30243.68
513.929	30557.8
514.297	30891.35
514.664	31082.98
515.032	31302.64
515.4	31496.53
515.767	31694.27
516.135	31948.72
516.502	31667.15
516.869	32351.2
517.237	32446.34
517.604	32311.88
517.972	32861.47
518.339	33119.76
518.706	33243.83
519.073	33331.06
519.44	33682.46
519.808	34075.9
520.175	34150.25
520.542	34660.74
520.909	34743.45
521.276	34773.05
521.643	35277.67
522.009	35435.64
522.376	35736.87
522.743	35893.7
523.11	36291.43
523.477	36713.12
523.843	36906.33
524.21	37248.92
524.577	37522.81
524.943	37593.32
525.31	37763.48
525.676	38215.68
526.043	38534.99
526.409	38588.32
526.776	39120.74
527.142	39331.35
527.508	39453.38
527.874	39737.22
528.241	40107.6
528.607	40023.09
528.973	40594.6
529.339	40643.86
529.705	40933.12
530.071	41241.13
530.437	41401.13
530.803	41762.48
531.169	41992.3
531.535	41992.07
531.901	42120.21
532.267	42358.39
532.632	42719.96
532.998	42787.99
533.364	43067.98
533.73	43304.13
534.095	43461.19
534.461	43644.46
534.826	43866.15
535.192	43972.59
535.557	44489.64
535.923	44314.72
536.288	44480.82
536.653	44737.09
537.019	44711.55
537.384	44925.56
537.749	45135.72
538.114	45177.75
538.479	45399.22
538.845	45632.2
539.21	45552.66
539.575	45747.68
539.94	45891.41
540.305	46181.79
540.67	46157.16
541.034	46330.72
541.399	46548.79
541.764	46635.34
542.129	46702.23
542.494	46909.68
542.858	47067.42
543.223	47085.05
543.587	47473.51
543.952	47387.86
544.316	47586.28
544.681	47635.99
545.045	47801.64
545.41	48022.2
545.774	48019.03
546.138	48188.75
546.503	48328.63
546.867	48305.81
547.231	48680.49
547.595	48758.45
547.959	48963.42
548.324	48964.09
548.688	49081.6
549.052	49192.34
549.416	49358.66
549.779	49337.87
550.143	49541.25
550.507	49817.18
550.871	49917.74
551.235	49907.8
551.599	50203.61
551.962	50238.18
552.326	50209.71
552.689	50598.63
553.053	50485.18
553.417	50638.4
553.78	50986.41
554.143	50869.81
554.507	51063.93
554.87	51266.18
555.234	51654.64
555.597	51507.76
555.96	51609.9
556.323	51822.1
556.686	51867.07
557.05	52119.94
557.413	52152.71
557.776	52237.68
558.139	52496.66
558.502	52502.31
558.865	52607.39
559.228	52789.53
559.59	52887.61
559.953	52979.81
560.316	53287.14
560.679	53347.71
561.041	53465.44
561.404	53610.07
561.767	53826.79
562.129	53709.28
562.492	54028.14
562.854	54103.39
563.217	54188.14
563.579	54332.99
563.941	54529.37
564.304	54612.98
564.666	54836.03
565.028	54807.78
565.39	54961.9
565.753	55055.23
566.115	55166.64
566.477	55320.31
566.839	55372.96
567.201	55589.91
567.563	55572.96
567.925	55819.96
568.287	55882.33
568.648	55887.75
569.01	55997.36
569.372	56246.39
569.734	56152.15
570.095	56363
570.457	56488.87
570.819	56527.28
571.18	56501.75
571.542	56727.28
571.903	56666.72
572.265	56873.04
572.626	56856.77
572.987	56934.96
573.349	57012.7
573.71	57050.66
574.071	57204.78
574.432	57248.62
574.794	57464.21
575.155	57379.01
575.516	57339.47
575.877	57482.29
576.238	57509.41
576.599	57668.72
576.96	57644.77
577.32	57682.28
577.681	57756.63
578.042	57812.22
578.403	57926.8
578.763	57941.03
579.124	57996.17
579.485	58025.78
579.845	58054.25
580.206	58022.16
580.566	58028.94
580.927	58028.04
581.287	58203.17
581.648	58116.4
582.008	58257.86
582.368	58165.21
582.728	58248.82
583.089	58214.7
583.449	58189.61
583.809	58208.14
584.169	58326.79
584.529	58287.46
584.889	58431.64
585.249	58342.6
585.609	58176.28
585.969	58393.22
586.329	58270.97
586.688	58398.42
587.048	58397.97
587.408	58373.11
587.768	58323.17
588.127	58314.13
588.487	58276.84
588.846	58426.44
589.206	58240.01
589.565	58317.75
589.925	58483.62
590.284	58421.47
590.643	58480.23
591.003	58467.8
591.362	58508.25
591.721	58462.15
592.08	58532.66
592.44	58541.02
592.799	58604.29
593.158	58448.14
593.517	58438.65
593.876	58497.4
594.235	58475.93
594.593	58531.98
594.952	58620.11
595.311	58496.05
595.67	58576.27
596.029	58660.34
596.387	58705.76
596.746	58652.2
597.104	58583.73
597.463	58637.74
597.822	58697.85
598.18	58718.64
598.538	58693.78
598.897	58855.81
599.255	58653.33
599.613	58996.37
599.972	58749.37
600.33	58845.19
600.688	58809.94
601.046	58864.85
601.404	58955.92
601.762	58956.83
602.12	58986.66
602.478	59053.55
602.836	59039.99
603.194	58904.4
603.552	58953.44
603.91	58872.53
604.268	59090.38
604.625	59039.76
604.983	59168.8
605.341	58999.76
605.698	59181.23
606.056	59194.56
606.413	59191.17
606.771	59252.86
607.128	59279.53
607.485	59205.41
607.843	59239.76
608.2	59302.58
608.557	59345.97
608.914	59334.67
609.272	59503.93
609.629	59475.91
609.986	59507.32
610.343	59392.75
610.7	59603.81
611.057	59512.97
611.414	59502.8
611.771	59480.2
612.127	59617.6
612.484	59636.81
612.841	59708.9
613.198	59667.77
613.554	59698.27
613.911	59852.85
614.267	59728.78
614.624	59752.28
614.98	59865.5
615.337	59959.29
615.693	59941.43
616.05	59884.03
616.406	59938.72
616.762	59948.66
617.118	59963.35
617.475	59919.51
617.831	59970.81
618.187	59988.44
618.543	60006.52
618.899	60170.8
619.255	60147.75
619.611	60063.24
619.967	60182.56
620.323	60213.29
620.678	60100.52
621.034	60040.41
621.39	60092.39
621.746	60047.42
622.101	60386.62
622.457	60114.31
622.812	60184.59
623.168	60202.67
623.523	60192.5
623.879	60300.29
624.234	60129.68
624.589	60242.44
624.945	60209.67
625.3	60210.58
625.655	60116.34
626.01	60219.62
626.365	60232.72
626.72	60202.44
627.075	60174.87
627.43	60150.92
627.785	60112.28
628.14	60110.02
628.495	60188.88
628.85	60065.04
629.205	60031.6
629.559	60124.25
629.914	60049
630.269	60142.33
630.623	60042.9
630.978	59925.16
631.332	60006.06
631.687	60008.78
632.041	59953.41
632.396	59952.96
632.75	59871.6
633.104	59933.75
633.459	59797.26
633.813	59750.25
634.167	59864.6
634.521	59807.88
634.875	59787.76
635.229	59724.04
635.583	59656.47
635.937	59626.19
636.291	59568.11
636.645	59615.34
636.999	59537.6
637.352	59567.66
637.706	59415.57
638.06	59542.8
638.413	59462.35
638.767	59494.44
639.121	59505.51
639.474	59243.82
639.828	59256.93
640.181	59305.74
640.534	59307.1
640.888	59229.81
641.241	59154.79
641.594	59171.96
641.947	59202.47
642.301	59129.48
642.654	59119.31
643.007	59142.81
643.36	59084.05
643.713	59046.31
644.066	59070.49
644.419	58957.05
644.771	58840.9
645.124	58585.99
645.477	58491.53
645.83	58322.27
646.182	58190.07
646.535	58176.28
646.888	58234.13
647.24	58057.87
647.593	58212.44
647.945	58181.48
648.298	58034.14
648.65	57974.48
649.002	57798.21
649.355	57990.3
649.707	57873.92
650.059	57989.39
650.411	58357.07
650.763	58301.7
651.115	58539.66
651.467	58440.68
651.819	58402.94
652.171	58395.71
652.523	58343.06
652.875	58274.58
653.227	58162.95
653.578	58339.44
653.93	58239.78
654.282	58152.78
654.633	58082.05
654.985	58154.13
655.337	58068.04
655.688	58143.74
656.039	58212.44
656.391	57979.68
656.742	58023.74
657.094	58080.69
657.445	58141.03
657.796	58183.29
658.147	58026.68
658.498	58002.73
658.849	58016.74
659.2	57982.61
659.551	57882.73
659.902	58007.7
660.253	57985.78
660.604	57923.86
660.955	57800.02
661.306	57983.07
661.656	57894.48
662.007	57854.03
662.358	57860.81
662.708	57845.89
663.059	57812.9
663.409	57659.23
663.76	57752.11
664.11	57695.84
664.461	57783.97
664.811	57823.75
665.161	57715.05
665.511	57650.42
665.862	57715.28
666.212	57801.83
666.562	57792.11
666.912	57761.83
667.262	57690.87
667.612	57635.05
667.962	57737.2
668.312	57659.46
668.662	57774.94
669.011	57647.26
669.361	57587.14
669.711	57619.46
670.06	57582.4
670.41	57563.42
670.76	57545.56
671.109	57587.6
671.459	57514.6
671.808	57490.88
672.157	57542.4
672.507	57369.07
672.856	57365.91
673.205	57413.36
673.554	57544.66
673.904	57435.28
674.253	57516.86
674.602	57406.81
674.951	57031.45
675.3	56927.05
675.649	57380.82
675.998	57249.3
676.346	57287.72
676.695	57315.96
677.044	57158.23
677.393	57349.86
677.741	57265.57
678.09	57252.92
678.438	57195.06
678.787	57178.79
679.135	57166.82
679.484	57060.6
679.832	57209.3
680.181	56939.48
680.529	57060.38
680.877	56922.98
681.225	56921.17
681.573	56987.16
681.922	56932.25
682.27	56730.67
682.618	56724.12
682.966	56709.43
683.314	56676.66
683.661	56641.18
684.009	56489.77
684.357	56425.82
684.705	56402.32
685.053	56429.43
685.4	56331.81
685.748	56268.53
686.095	56198.48
686.443	56166.62
686.79	56051.59
687.138	56129.33
687.485	56137.92
687.832	56069.44
688.18	56062.89
688.527	55924.14
688.874	55822.44
689.221	55757.14
689.568	55683.69
689.915	55603.69
690.262	55619.74
690.609	55533.41
690.956	55406.64
691.303	55449.12
691.65	55177.72
691.997	55331.84
692.344	55136.81
692.69	55117.38
693.037	55161.45
693.383	54941.79
693.73	55009.13
694.077	54778.86
694.423	54833.77
694.769	54711.74
695.116	54675.81
695.462	54576.83
695.808	54498.41
696.155	54616.83
696.501	54349.94
696.847	54448.02
697.193	54038.76
697.539	54246.67
697.885	54005.77
698.231	53929.61
698.577	53984.07
698.923	53927.81
699.269	53665.44
699.614	53584.76
699.96	53514.03
700.306	53522.39
700.651	53420.47
700.997	53275.17
701.342	53234.49
701.688	53280.14
702.033	53103.19
702.379	53053.03
702.724	52976.64
703.069	53041.95
703.415	52734.84
703.76	52726.48
704.105	52622.75
704.45	52603.09
704.795	52432.48
705.14	52228.87
705.485	52313.84
705.83	52219.38
706.175	52230.45
706.52	52061.64
706.865	51975.31
707.209	51961.76
707.554	51829.33
707.899	51800.4
708.243	51728.54
708.588	51755.21
708.932	51473.41
709.277	51461.88
709.621	51493.07
709.966	51334.43
710.31	51328.55
710.654	50997.26
710.998	51095.11
711.342	51049.69
711.687	50932.18
712.031	50750.94
712.375	50697.61
712.719	50753.65
713.063	50710.94
713.407	50655.57
713.75	50536.26
714.094	50603.82
714.438	50449.7
714.782	50367.22
715.125	50315.02
715.469	50239.09
715.812	50089.94
716.156	49871.64
716.499	49874.58
716.843	49791.64
717.186	49684.07
717.53	49805.43
717.873	49775.37
718.216	49640.23
718.559	49614.25
718.902	49379.9
719.246	49508.26
719.589	49306.91
719.932	49207.25
720.275	49160.25
720.617	49092.23
720.96	49051.32
721.303	48989.86
721.646	48997.09
721.989	48798.9
722.331	48825.34
722.674	48724.55
723.016	48773.82
723.359	48535.4
723.701	48577.66
724.044	48295.41
724.386	48162.76
724.729	48367.05
725.071	48224.23
725.413	48179.93
725.755	48151.91
726.097	48029.88
726.439	47807.51
726.782	47796.22
727.124	47969.77
727.465	47634.86
727.807	47641.64
728.149	47539.05
728.491	47513.74
728.833	47614.98
729.175	47323.23
729.516	47428.99
729.858	47356.9
730.199	47307.19
730.541	47173.63
730.882	47197.13
731.224	47223.12
731.565	46816.13
731.906	46967.99
732.248	47030.59
732.589	46806.64
732.93	46696.58
733.271	46641.44
733.612	46663.59
733.953	46762.57
734.294	46460.2
734.635	46469.24
734.976	46492.75
735.317	46257.27
735.658	46195.35
735.999	46234.67
736.339	46162.81
736.68	46195.13
737.021	46034.68
737.361	45729.83
737.702	46081.68
738.042	45885.76
738.383	45759.88
738.723	45765.53
739.063	45666.55
739.404	45754.69
739.744	45631.3
740.084	45455.03
740.424	45499.1
740.764	45369.61
741.104	45483.73
741.444	45233.12
741.784	45005.78
742.124	45101.14
742.464	44996.74
742.804	44975.05
743.143	44962.39
743.483	44772.11
743.823	44708.39
744.162	44658.44
744.502	44647.6
744.841	44346.81
745.181	44544.78
745.52	44332.58
745.86	44381.39
746.199	44344.78
746.538	44369.86
746.877	44249.42
747.216	44095.07
747.556	43938.24
747.895	44009.87
748.234	43772.82
748.573	43706.61
748.911	43720.16
749.25	43778.24
749.589	43420.51
749.928	43620.96
750.267	43493.96
750.605	43348.42
750.944	43218.71
751.283	43026.17
751.621	43329.67
751.96	43133.51
752.298	42834.54
752.636	42917.47
752.975	42756.35
753.313	42573.08
753.651	42791.37
753.989	42486.75
754.327	42408.79
754.666	42258.96
755.004	42442.23
755.342	42454.89
755.679	42316.13
756.017	42024.39
756.355	41951.4
756.693	41746.2
757.031	41899.42
757.368	41616.26
757.706	41492.65
758.044	41395.71
758.381	41371.07
758.719	41265.77
759.056	41300.79
759.394	41098.76
759.731	40908.26
760.068	40775.83
760.405	40616.06
760.743	40612.45
761.08	40614.03
761.417	40307.82
761.754	40291.55
762.091	40158.9
762.428	40159.58
762.765	39858.34
763.102	40004.1
763.438	39727.5
763.775	39537
764.112	39381.52
764.449	39412.03
764.785	39209.55
765.122	38947.63
765.458	38902.66
765.795	38897.69
766.131	38821.54
766.467	38662.9
766.804	38443.47
767.14	38159.86
767.476	38253.64
767.812	38036.92
768.148	37943.59
768.485	37842.58
768.821	37678.97
769.157	37704.28
769.492	37595.81
769.828	37645.97
770.164	37288.24
770.5	37170.28
770.836	37123.05
771.171	36895.71
771.507	36797.41
771.842	36597.41
772.178	36477.42
772.513	36488.94
772.849	36433.35
773.184	36176.63
773.519	36239.91
773.855	35909.75
774.19	35810.09
774.525	35692.13
774.86	35632.69
775.195	35487.61
775.53	35328.97
775.865	35157.68
776.2	34965.37
776.535	34820.06
776.87	34812.15
777.205	34633.17
777.539	34497.36
777.874	34533.51
778.209	34162.22
778.543	34225.72
778.878	33977.82
779.212	33987.31
779.547	33846.07
779.881	33896.69
780.215	33618.06
780.55	33655.8
780.884	33396.59
781.218	33310.95
781.552	33240.21
781.886	33044.06
782.22	32950.96
782.554	32736.5
782.888	32615.82
783.222	32394.13
783.556	32315.27
783.889	32235.04
784.223	31964.99
784.557	31972
784.89	31934.49
785.224	31761.16
785.557	31635.74
785.891	31570.2
786.224	31493.59
786.558	31327.5
786.891	31159.82
787.224	30959.82
787.557	30980.84
787.891	30928.41
788.224	30868.98
788.557	30826.49
788.89	30613.16
789.223	30649.55
789.556	30286.84
789.888	30249.78
790.221	30214.53
790.554	29994.2
790.887	30002.78
791.219	29865.61
791.552	29769.34
791.884	29527.99
792.217	29572.06
792.549	29569.8
792.882	29210.94
793.214	29083.49
793.546	29219.53
793.879	28871.06
794.211	28815.47
794.543	28874.23
794.875	28828.13
795.207	28755.36
795.539	28551.07
795.871	28609.6
796.203	28376.39
796.535	28164.41
796.867	28134.36
797.198	28034.02
797.53	28001.26
797.862	27900.92
798.193	27851.2
798.525	27711.77
798.856	27773.01
799.188	27386.58
799.519	27302.06
799.85	27306.13
800.182	27307.04
800.513	27213.25
800.844	26952.02
801.175	27060.04
801.506	27067.27
801.837	26868.4
802.168	26780.72
802.499	26661.86
802.83	26639.26
803.161	26446.95
803.491	26531.46
803.822	26474.52
804.153	26285.14
804.483	26041.98
804.814	25990.69
805.145	26004.92
805.475	25992.27
805.805	25785.72
806.136	25841.99
806.466	25892.61
806.796	25623.01
807.126	25568.1
807.457	25531.94
807.787	25557.03
808.117	25297.6
808.447	25307.54
808.777	25329.91
809.107	25094.44
809.436	25117.49
809.766	25103.03
810.096	24987.78
810.426	24969.47
810.755	24933.31
811.085	24803.6
811.414	24756.37
811.744	24492.42
812.073	24423.5
812.403	24526.77
812.732	24370.84
813.061	24231.86
813.39	24238.19
813.719	24088.14
814.049	24337.85
814.378	24054.47
814.707	23964.53
815.036	23988.03
815.365	23873
815.693	23649.73
816.022	23754.14
816.351	23547.14
816.68	23555.72
817.008	23579.9
817.337	23350.3
817.665	23355.95
817.994	23321.6
818.322	23323.86
818.651	23255.17
818.979	23087.49
819.307	23217.43
819.636	23112.12
819.964	22877.1
820.292	23029.86
820.62	23096.07
820.948	22911.67
821.276	23036.87
821.604	22834.39
821.932	22878.23
822.259	22907.83
822.587	22869.64
822.915	22892.69
823.243	22771.11
823.57	22757.33
823.898	22822.41
824.225	22794.16
824.553	22767.49
824.88	22791.67
825.207	22900.82
825.535	22690.66
825.862	22831.45
826.189	22769.08
826.516	22903.54
826.843	22980.82
827.17	22911.22
827.497	22881.16
827.824	22817.21
828.151	22917.55
828.478	22765.23
828.805	22738.79
829.131	22746.03
829.458	22637.33
829.785	22608.18
830.111	22625.8
830.438	22746.25
830.764	22706.93
831.09	22780.6
831.417	22649.31
831.743	22623.77
832.069	22628.52
832.395	22567.05
832.722	22526.82
833.048	22554.84
833.374	22620.61
833.7	22500.61
834.026	22392.36
834.351	22480.04
834.677	22454.73
835.003	22431.46
835.329	22400.72
835.654	22307.39
835.98	22185.81
836.306	22342.65
836.631	22289.99
836.956	22282.31
837.282	22296.77
837.607	22167.51
837.932	22138.36
838.258	22075.54
838.583	22178.13
838.908	21984.92
839.233	21956.22
839.558	22016.55
839.883	21827.41
840.208	21808.65
840.533	21765.04
840.858	21737.24
841.182	21741.98
841.507	21794.64
841.832	21646.62
842.156	21593.74
842.481	21588.32
842.805	21485.95
843.13	21444.14
843.454	21338.38
843.778	21262.45
844.103	21299.06
844.427	21196.01
844.751	21143.36
845.075	21163.02
845.399	21107.88
845.723	21017.94
846.047	20932.06
846.371	20785.85
846.695	20755.34
847.019	20548.34
847.343	20497.27
847.666	20403.71
847.99	20339.99
848.313	20292.98
848.637	20146.55
848.96	20201.69
849.284	20219.99
849.607	19989.71
849.931	19936.38
850.254	19766.22
850.577	19703.39
850.9	19641.25
851.223	19691.19
851.546	19387.02
851.869	19317.64
852.192	19476.96
852.515	19342.27
852.838	19210.07
853.161	19249.62
853.483	19117.42
853.806	19058.44
854.129	18984.77
854.451	18823.64
854.774	18771.89
855.096	18748.84
855.419	18725.79
855.741	18680.6
856.063	18537.78
856.385	18502.3
856.708	18392.24
857.03	18357.89
857.352	18342.53
857.674	18190.89
857.996	18202.42
858.318	18031.12
858.64	18035.64
858.961	18044.68
859.283	17964.68
859.605	17901.86
859.926	17975.98
860.248	17892.37
860.57	17687.85
860.891	17806.27
861.212	17595.88
861.534	17597.69
861.855	17561.53
862.176	17580.06
862.498	17639.49
862.819	17645.6
863.14	17428.65
863.461	17398.6
863.782	17374.42
864.103	17440.85
864.424	17316.34
864.745	17410.35
865.065	17228.88
865.386	17268.2
865.707	17185.72
866.027	17248.77
866.348	17143.46
866.668	17154.76
866.989	17085.61
867.309	16986.18
867.63	17001.32
867.95	17073.18
868.27	16813.07
868.59	16917.25
868.91	16880.64
869.23	16922.45
869.55	16808.78
869.87	16934.2
870.19	16799.52
870.51	16806.3
870.83	16764.26
871.15	16575.79
871.469	16609.69
871.789	16651.5
872.109	16604.72
872.428	16449.92
872.748	16579.41
873.067	16450.15
873.386	16461.45
873.706	16469.81
874.025	16444.72
874.344	16324.5
874.663	16479.75
874.982	16338.74
875.301	16387.32
875.62	16191.62
875.939	16174.9
876.258	16215.58
876.577	16070.04
876.896	16179.65
877.214	16105.3
877.533	16146.2
877.852	16121.57
878.17	16115.24
878.489	16062.36
878.807	16059.87
879.125	15936.71
879.444	15896.71
879.762	15866.89
880.08	15903.72
880.398	15871.86
880.716	15955.47
881.034	15778.53
881.352	15759.09
881.67	15851.74
881.988	15735.36
882.306	15726.1
882.624	15601.13
882.941	15584.41
883.259	15497.86
883.577	15419.21
883.894	15501.7
884.212	15376.73
884.529	15371.08
884.846	15235.49
885.164	15310.74
885.481	15238.2
885.798	15197.98
886.115	15142.61
886.432	15089.05
886.75	15114.59
887.067	15102.84
887.383	14987.13
887.7	15040.92
888.017	14984.87
888.334	15076.85
888.651	14923.18
888.967	14832.79
889.284	14775.61
889.6	14701.72
889.917	14690.64
890.233	14725.45
890.55	14620.82
890.866	14697.42
891.182	14569.97
891.498	14491.1
891.815	14473.7
892.131	14350.77
892.447	14364.33
892.763	14311.9
893.079	14306.02
893.395	14258.11
893.71	14245.23
894.026	14216.98
894.342	14192.35
894.657	14067.84
894.973	14044.79
895.289	13998.01
895.604	14023.32
895.92	13860.61
896.235	13734.51
896.55	13748.3
896.865	13787.84
897.181	13742.87
897.496	13776.32
897.811	13692.25
898.126	13648.41
898.441	13616.32
898.756	13610.45
899.071	13497
899.386	13507.63
899.7	13287.29
900.015	13271.47
900.33	13167.97
900.644	13341.3
900.959	13172.94
901.273	13124.81
901.588	13024.02
901.902	13002.1
902.216	12948.32
902.531	12921.88
902.845	12840.52
903.159	12823.58
903.473	12709
903.787	12697.02
904.101	12617.25
904.415	12591.26
904.729	12470.36
905.042	12432.63
905.356	12436.24
905.67	12305.62
905.984	12392.85
906.297	12363.7
906.611	12237.83
906.924	12243.25
907.237	12244.83
907.551	12116.48
907.864	12121.22
908.177	12080.77
908.491	12078.28
908.804	11983.37
909.117	11891.4
909.43	11819.76
909.743	11739.54
910.056	11789.03
910.368	11695.47
910.681	11652.31
910.994	11627.45
911.307	11562.37
911.619	11503.61
911.932	11446.21
912.244	11409.83
912.557	11384.29
912.869	11304.97
913.181	11297.06
913.494	11278.76
913.806	11165.77
914.118	11107.46
914.43	11130.29
914.742	11017.52
915.054	10983.17
915.366	10977.07
915.678	10837.64
915.99	10854.36
916.302	10745.89
916.613	10758.32
916.925	10705.89
917.236	10679.9
917.548	10631.54
917.859	10651.65
918.171	10461.38
918.482	10495.5
918.794	10462.06
919.105	10415.28
919.416	10393.36
919.727	10358.33
920.038	10290.99
920.349	10206.47
920.66	10168.28
920.971	10129.18
921.282	10103.87
921.593	10059.35
921.903	9970.32
922.214	9956.31
922.525	9841.96
922.835	9892.13
923.146	9784.33
923.456	9771.23
923.767	9704.34
924.077	9681.51
924.387	9675.41
924.697	9620.04
925.008	9540.72
925.318	9522.42
925.628	9497.34
925.938	9489.43
926.248	9319.49
926.558	9335.08
926.867	9329.88
927.177	9256.44
927.487	9206.72
927.796	9174.86
928.106	9150.9
928.416	9060.06
928.725	9072.49
929.034	9053.5
929.344	8973.73
929.653	8978.25
929.962	8874.53
930.271	8854.19
930.581	8788.65
930.89	8823
931.199	8773.51
931.508	8714.53
931.817	8729.9
932.125	8672.95
932.434	8530.58
932.743	8520.19
933.051	8518.15
933.36	8482.45
933.669	8415.1
933.977	8421.66
934.286	8371.26
934.594	8360.87
934.902	8285.62
935.21	8210.59
935.519	8189.8
935.827	8222.79
936.135	8191.38
936.443	8068.22
936.751	8087.88
937.059	8012.63
937.367	7996.36
937.674	7998.39
937.982	7959.75
938.29	7885.4
938.597	7902.57
938.905	7846.3
939.213	7840.66
939.52	7771.96
939.827	7855.34
940.135	7680.43
940.442	7694.9
940.749	7668.68
941.056	7673.88
941.363	7473.21
941.67	7464.62
941.977	7479.76
942.284	7438.63
942.591	7349.37
942.898	7369.93
943.205	7391.4
943.511	7331.52
943.818	7312.08
944.125	7219.65
944.431	7230.5
944.738	7160.45
945.044	7134.01
945.35	7146.44
945.657	7085.42
945.963	7028.93
946.269	7050.62
946.575	7055.14
946.881	6955.03
947.187	7027.8
947.493	6877.97
947.799	6871.87
948.105	6838.42
948.41	6741.25
948.716	6773.79
949.022	6741.7
949.327	6740.12
949.633	6672.78
949.938	6648.14
950.244	6628.26
950.549	6580.58
950.854	6600.46
951.16	6564.98
951.465	6489.05
951.77	6473.69
952.075	6452.22
952.38	6386.23
952.685	6390.52
952.99	6340.58
953.294	6303.97
953.599	6305.55
953.904	6260.81
954.209	6213.58
954.513	6124.09
954.818	6204.09
955.122	6094.94
955.426	6148.5
955.731	6077.99
956.035	6108.95
956.339	6011.78
956.643	6012
956.948	5962.06
957.252	5960.93
957.556	5957.99
957.86	5876.41
958.163	5900.14
958.467	5828.28
958.771	5851.78
959.075	5866.7
959.378	5768.85
959.682	5821.73
959.985	5729.98
960.289	5694.72
960.592	5610.43
960.896	5666.7
961.199	5609.08
961.502	5630.77
961.805	5553.03
962.108	5561.85
962.411	5536.99
962.714	5540.15
963.017	5533.6
963.32	5442.07
963.623	5473.26
963.926	5458.57
964.228	5400.72
964.531	5362.3
964.833	5339.25
965.136	5279.82
965.438	5267.39
965.741	5260.38
966.043	5249.31
966.345	5215.41
966.648	5212.25
966.95	5175.87
967.252	5171.57
967.554	5152.82
967.856	5120.5
968.158	5100.84
968.46	5080.73
968.761	5030.56
969.063	5004.8
969.365	4993.05
969.666	4991.24
969.968	4861.3
970.269	4895.2
970.571	4898.81
970.872	4847.51
971.174	4840.28
971.475	4828.76
971.776	4799.61
972.077	4821.07
972.378	4740.85
972.679	4699.72
972.98	4683.22
973.281	4751.7
973.582	4657.69
973.883	4629.89
974.183	4668.99
974.484	4629.21
974.785	4578.59
975.085	4582.66
975.386	4571.59
975.686	4523.91
975.986	4528.2
976.287	4473.06
976.587	4513.51
976.887	4451.59
977.187	4429.9
977.487	4414.08
977.787	4382.89
978.087	4438.26
978.387	4321.2
978.687	4340.41
978.987	4338.6
979.286	4262.9
979.586	4246.63
979.885	4227.19
980.185	4217.25
980.484	4224.93
980.784	4201.88
981.083	4168.89
981.382	4179.06
981.682	4134.54
981.981	4121.66
982.28	4124.59
982.579	4061.09
982.878	4091.6
983.177	4015.67
983.475	4037.14
983.774	4019.51
984.073	3960.08
984.372	3932.96
984.67	3938.61
984.969	3942.23
985.267	3880.99
985.566	3896.58
985.864	3891.38
986.162	3813.87
986.461	3793.98
986.759	3796.02
987.057	3786.07
987.355	3807.32
987.653	3777.03
987.951	3752.4
988.249	3716.02
988.547	3760.54
988.844	3714.44
989.142	3677.83
989.44	3687.32
989.737	3638.73
990.035	3619.75
990.332	3605.51
990.63	3579.98
990.927	3551.73
991.224	3579.98
991.521	3562.58
991.819	3544.27
992.116	3540.2
992.413	3493.88
992.71	3466.31
993.006	3439.42
993.303	3457.49
993.6	3412.98
993.897	3426.08
994.193	3386.08
994.49	3367.33
994.787	3344.95
995.083	3353.77
995.379	3307.44
995.676	3278.74
995.972	3274.9
996.268	3233.09
996.565	3228.57
996.861	3262.7
997.157	3212.98
997.453	3171.17
997.749	3147.22
998.044	3165.3
998.34	3160.78
998.636	3108.58
998.932	3114.45
999.227	3048.69
999.523	3036.71
999.818	3021.12
1000.114	3037.17
1000.409	3033.32
1000.704	3000.56
1001	2987.45
1001.295	2982.7
1001.59	2969.6
1001.885	2979.54
1002.18	2896.83
1002.475	2891.86
1002.77	2891.41
1003.065	2918.3
1003.359	2836.49
1003.654	2818.64
1003.949	2856.83
1004.243	2820
1004.538	2763.05
1004.832	2795.36
1005.127	2755.82
1005.421	2712.88
1005.715	2740.22
1006.009	2712.65
1006.304	2702.49
1006.598	2692.09
1006.892	2656.38
1007.186	2653.67
1007.48	2629.04
1007.773	2622.26
1008.067	2594.01
1008.361	2581.36
1008.655	2587.01
1008.948	2567.12
1009.242	2546.78
1009.535	2510.85
1009.829	2518.08
1010.122	2480.8
1010.415	2511.08
1010.708	2493.68
1011.001	2419.33
1011.295	2449.16
1011.588	2426.11
1011.881	2392.66
1012.173	2352.44
1012.466	2371.65
1012.759	2367.35
1013.052	2351.31
1013.344	2332.78
1013.637	2340.69
1013.93	2304.3
1014.222	2309.73
1014.514	2262.95
1014.807	2256.85
1015.099	2236.73
1015.391	2208.04
1015.683	2217.53
1015.976	2200.35
1016.268	2206.68
1016.56	2128.72
1016.851	2149.28
1017.143	2170.75
1017.435	2150.41
1017.727	2068.15
1018.018	2094.59
1018.31	2122.39
1018.602	2108.83
1018.893	2062.95
1019.185	2035.16
1019.476	2028.15
1019.767	2046.46
1020.058	2012.56
1020.35	2010.75
1020.641	1963.75
1020.932	1965.56
1021.223	1926.23
1021.514	1929.17
1021.804	1927.82
1022.095	1889.63
1022.386	1882.17
1022.677	1888.27
1022.967	1857.31
1023.258	1873.35
1023.548	1816.18
1023.839	1839.46
1024.129	1806.69
1024.419	1809.4
1024.709	1776.63
1025	1773.02
1025.29	1761.27
1025.58	1757.65
1025.87	1725.79
1026.16	1724.43
1026.449	1712
1026.739	1686.92
1027.029	1709.74
1027.319	1693.47
1027.608	1671.78
1027.898	1650.31
1028.187	1642.17
1028.477	1618.45
1028.766	1591.33
1029.055	1638.11
1029.344	1590.2
1029.634	1585.23
1029.923	1578
1030.212	1547.71
1030.501	1559.46
1030.79	1523.99
1031.078	1501.84
1031.367	1518.34
1031.656	1531.89
1031.945	1505
1032.233	1483.08
1032.522	1469.98
1032.81	1463.87
1033.099	1461.16
1033.387	1446.02
1033.675	1449.86
1033.963	1416.19
1034.251	1408.96
1034.54	1408.06
1034.828	1374.84
1035.116	1358.34
1035.403	1360.83
1035.691	1352.46
1035.979	1344.33
1036.267	1357.66
1036.554	1346.36
1036.842	1345.91
1037.129	1345.68
1037.417	1305.01
1037.704	1274.95
1037.992	1304.1
1038.279	1266.82
1038.566	1245.12
1038.853	1245.12
1039.14	1245.12
