Data from plate_porcelain_FLMS001491_049.txt Node
Date: Tue Feb 07 11:19:23 GMT 2017
User: dcchb
Spectrometer: FLMS00149
Trigger mode: 0
Integration Time (sec): 2.000000E-2
Scans to average: 10
Electric dark correction enabled: true
Nonlinearity correction enabled: false
Boxcar width: 0
XAxis mode: Wavelengths
Number of Pixels in Spectrum: 2048
>>>>>Begin Spectral Data<<<<<
341.393	-21.1
341.776	-21.1
342.16	-21.1
342.543	-61.33
342.927	-62
343.31	-75.11
343.693	-64.72
344.077	-59.97
344.46	-59.52
344.843	-80.08
345.226	-36.02
345.61	-11.16
345.993	-22.46
346.376	-18.84
346.759	-12.74
347.142	36.98
347.525	53.25
347.908	63.64
348.291	79.01
348.674	96.41
349.057	111.32
349.44	126.24
349.823	136.18
350.206	177.31
350.588	236.75
350.971	227.71
351.354	272.22
351.737	285.11
352.119	289.85
352.502	293.92
352.884	311.55
353.267	316.74
353.65	345.67
354.032	337.99
354.414	357.19
354.797	358.78
355.179	359.45
355.562	376.63
355.944	389.74
356.326	356.06
356.709	378.66
357.091	399.68
357.473	400.13
357.855	388.38
358.238	392.22
358.62	403.52
359.002	415.05
359.384	388.83
359.766	378.21
360.148	391.32
360.53	401.49
360.912	390.87
361.294	394.71
361.676	404.65
362.057	400.58
362.439	387.93
362.821	398.32
363.203	393.58
363.584	398.77
363.966	392.22
364.348	406.91
364.729	398.77
365.111	395.16
365.493	384.09
365.874	390.19
366.256	412.79
366.637	391.54
367.019	373.92
367.4	377.76
367.781	406.91
368.163	416.63
368.544	365.78
368.925	407.59
369.306	418.89
369.688	418.21
370.069	409.4
370.45	406.46
370.831	396.29
371.212	415.27
371.593	423.63
371.974	427.47
372.355	421.37
372.736	427.7
373.117	441.03
373.498	439
373.879	432.67
374.26	404.88
374.641	429.73
375.021	415.05
375.402	447.81
375.783	463.41
376.163	461.82
376.544	497.76
376.925	456.17
377.305	452.11
377.686	483.07
378.066	468.6
378.447	479.45
378.827	477.42
379.208	468.38
379.588	467.25
379.968	479.45
380.349	488.49
380.729	497.3
381.109	523.29
381.489	493.46
381.87	511.09
382.25	502.05
382.63	494.37
383.01	524.87
383.39	539.56
383.77	531.88
384.15	537.98
384.53	566.91
384.91	537.53
385.29	562.16
385.67	561.48
386.049	578.66
386.429	566.45
386.809	573.69
387.189	575.04
387.568	582.27
387.948	590.63
388.328	600.35
388.707	600.8
389.087	636.96
389.466	596.06
389.846	637.19
390.225	650.97
390.605	647.13
390.984	652.55
391.363	645.55
391.743	666.11
392.122	674.25
392.501	659.78
392.881	693
393.26	668.6
393.639	700.69
394.018	711.31
394.397	722.16
394.776	716.05
395.155	733.91
395.534	728.94
395.913	747.01
396.292	728.71
396.671	766.45
397.05	773.68
397.429	753.57
397.808	769.84
398.186	793.34
398.565	828.37
398.944	804.41
399.323	808.93
399.701	797.18
400.08	827.01
400.458	855.03
400.837	841.7
401.215	867.01
401.594	849.84
401.972	866.11
402.351	918.08
402.729	883.28
403.107	903.85
403.486	902.04
403.864	902.49
404.242	927.12
404.62	943.85
404.999	974.8
405.377	947.69
405.755	990.62
406.133	1007.57
406.511	1003.5
406.889	1001.7
407.267	1039.21
407.645	1048.7
408.023	1057.06
408.401	1094.58
408.779	1083.73
409.156	1113.78
409.534	1107.91
409.912	1122.82
410.29	1158.3
410.667	1189.94
411.045	1178.19
411.422	1225.42
411.8	1200.11
412.178	1231.3
412.555	1274.23
412.933	1237.62
413.31	1303.38
413.687	1306.77
414.065	1303.16
414.442	1337.06
414.819	1336.6
415.197	1344.29
415.574	1372.99
415.951	1391.07
416.328	1401.69
416.705	1435.58
417.082	1462.7
417.46	1473.55
417.837	1464.96
418.214	1477.16
418.591	1498.41
418.967	1506.09
419.344	1528.69
419.721	1548.58
420.098	1563.04
420.475	1568.91
420.852	1596.71
421.228	1618.4
421.605	1634.9
421.982	1660.44
422.358	1655.92
422.735	1704.96
423.111	1687.1
423.488	1726.42
423.864	1737.5
424.241	1782.24
424.617	1794.22
424.994	1811.17
425.37	1820.66
425.746	1831.73
426.123	1862.47
426.499	1885.52
426.875	1901.79
427.251	1922.58
427.627	1990.37
428.003	2009.35
428.379	2030.14
428.756	2007.55
429.132	2091.39
429.507	2112.63
429.883	2128.67
430.259	2179.74
430.635	2185.62
431.011	2207.77
431.387	2256.58
431.763	2306.3
432.138	2311.27
432.514	2365.28
432.89	2351.04
433.265	2418.38
433.641	2445.05
434.016	2484.37
434.392	2513.52
434.767	2568.66
435.143	2570.24
435.518	2578.83
435.894	2636.23
436.269	2689.11
436.644	2698.15
437.02	2746.96
437.395	2703.8
437.77	2803.23
438.145	2840.52
438.52	2880.97
438.895	2900.4
439.271	2897.92
439.646	3022.66
440.021	3001.87
440.395	2991.93
440.77	2965.04
441.145	3017.69
441.52	3069.67
441.895	3099.72
442.27	3118.03
442.645	3081.19
443.019	3190.57
443.394	3179.04
443.769	3233.5
444.143	3205.03
444.518	3297.91
444.892	3280.73
445.267	3290.22
445.641	3326.16
446.016	3376.78
446.39	3393.27
446.764	3435.76
447.139	3405.93
447.513	3436.66
447.887	3515.08
448.262	3507.39
448.636	3529.31
449.01	3594.62
449.384	3639.14
449.758	3649.54
450.132	3760.27
450.506	3737.67
450.88	3741.96
451.254	3753.49
451.628	3833.49
452.002	3864.67
452.376	3877.33
452.75	3965.91
453.123	3972.01
453.497	4026.25
453.871	4062.86
454.244	4158.68
454.618	4153.03
454.992	4233.7
455.365	4207.49
455.739	4390.76
456.112	4416.75
456.486	4477.76
456.859	4486.58
457.232	4576.07
457.606	4589.4
457.979	4648.38
458.352	4785.55
458.725	4817.42
459.099	4843.4
459.472	4960.69
459.845	4979.67
460.218	5045.88
460.591	5127.01
460.964	5134.24
461.337	5278.65
461.71	5337.4
462.083	5383.95
462.456	5407.23
462.829	5433.22
463.201	5549.15
463.574	5524.29
463.947	5661.24
464.32	5768.35
464.692	5800.89
465.065	5881.79
465.438	6043.82
465.81	6050.38
466.183	6099.19
466.555	6242.69
466.928	6311.84
467.3	6256.7
467.672	6392.29
468.045	6590.02
468.417	6572.85
468.789	6633.87
469.161	6735.56
469.534	6873.86
469.906	7042.67
470.278	7072.95
470.65	7134.42
471.022	7273.85
471.394	7406.95
471.766	7500.73
472.138	7595.42
472.51	7796.77
472.882	7931.01
473.253	7963.55
473.625	8151.34
473.997	8253.26
474.369	8351.79
474.74	8461.16
475.112	8624.55
475.484	8772.34
475.855	8902.28
476.227	8988.83
476.598	9246.45
476.97	9276.28
477.341	9521.47
477.713	9708.13
478.084	9768.47
478.455	10061.8
478.827	10097.95
479.198	10418.85
479.569	10401
479.94	10740.2
480.311	10782.68
480.682	11119.4
481.053	11297.7
481.424	11530.69
481.795	11637.35
482.166	11829.21
482.537	11998.24
482.908	12221.74
483.279	12449.08
483.65	12529.08
484.021	12837.09
484.391	13038.22
484.762	13121.83
485.133	13290.19
485.503	13438.88
485.874	13797.74
486.244	13916.84
486.615	14231.18
486.985	14321.12
487.356	14486.31
487.726	14747.32
488.097	15041.33
488.467	15053.53
488.837	15402.22
489.207	15660.75
489.578	15790.69
489.948	16028.42
490.318	16263.44
490.688	16270.9
491.058	16574.39
491.428	16753.6
491.798	16977.32
492.168	17300.93
492.538	17394.03
492.908	17593.8
493.278	17893.46
493.648	17966.67
494.017	18147.46
494.387	18344.97
494.757	18451.41
495.126	18661.12
495.496	18751.96
495.866	18899.31
496.235	19191.05
496.605	19269.92
496.974	19454.77
497.344	19684.6
497.713	19642.34
498.082	19994.64
498.452	20089.1
498.821	20231.93
499.19	20365.93
499.559	20569.54
499.928	20735.19
500.298	20850.67
500.667	20991.91
501.036	21074.16
501.405	21288.4
501.774	21383.76
502.143	21531.55
502.512	21708.72
502.88	21946.23
503.249	21979.68
503.618	22101.71
503.987	22281.82
504.356	22350.74
504.724	22541.24
505.093	22725.19
505.462	22722.48
505.83	22948.01
506.199	23119.99
506.567	23460.09
506.936	23421.45
507.304	23852.17
507.672	23832.96
508.041	23898.27
508.409	24308.2
508.777	24404.92
509.145	24515.43
509.514	24543.22
509.882	24856.21
510.25	24867.06
510.618	25154.51
510.986	25168.74
511.354	25552.46
511.722	25775.28
512.09	25857.09
512.458	25897.09
512.826	26299.56
513.193	26376.17
513.561	26514.25
513.929	26684.41
514.297	27001.01
514.664	27155.36
515.032	27351.29
515.4	27553.09
515.767	27691.39
516.135	27822.91
516.502	27798.05
516.869	28259.29
517.237	28466.74
517.604	28448.43
517.972	28770.01
518.339	29047.74
518.706	29102.65
519.073	29226.94
519.44	29552.36
519.808	29861.95
520.175	29847.72
520.542	30286.35
520.909	30430.3
521.276	30453.13
521.643	30835.94
522.009	31057.4
522.376	31247.68
522.743	31476.38
523.11	31754.79
523.477	32122.23
523.843	32306.41
524.21	32666.4
524.577	32819.84
524.943	32917.24
525.31	33070.01
525.676	33524.46
526.043	33786.6
526.409	33960.83
526.776	34255.96
527.142	34356.53
527.508	34718.32
527.874	34892.11
528.241	35200.57
528.607	35309.27
528.973	35601.92
529.339	35667
529.705	36063.15
530.071	36297.49
530.437	36440.54
530.803	36615.9
531.169	36899.28
531.535	36859.06
531.901	37056.79
532.267	37290.69
532.632	37381.76
532.998	37628.08
533.364	37893.61
533.73	38158.01
534.095	38453.37
534.461	38410.2
534.826	38705.56
535.192	38811.55
535.557	39117.08
535.923	38985.33
536.288	39365.43
536.653	39390.29
537.019	39524.98
537.384	39635.94
537.749	39854.23
538.114	39859.66
538.479	40028.47
538.845	40238.86
539.21	40262.13
539.575	40554.78
539.94	40706.42
540.305	40874.32
540.67	40879.52
541.034	41061.43
541.399	41232.28
541.764	41271.82
542.129	41514.76
542.494	41622.78
542.858	41966.04
543.223	41883.33
543.587	42100.5
543.952	42043.1
544.316	42321.74
544.681	42361.97
545.045	42547.05
545.41	42876.75
545.774	42861.84
546.138	42803.54
546.503	42969.86
546.867	43074.94
547.231	43566
547.595	43513.12
547.959	43731.87
548.324	43611.65
548.688	43842.6
549.052	44058.19
549.416	44169.15
549.779	44255.93
550.143	44326.89
550.507	44774.78
550.871	44828.12
551.235	44801.22
551.599	45180.2
551.962	45304.26
552.326	45297.71
552.689	45445.73
553.053	45414.31
553.417	45524.59
553.78	46092.71
554.143	46009.33
554.507	46232.37
554.87	46372.26
555.234	46699.7
555.597	46522.53
555.96	46742.87
556.323	47073.03
556.686	46900.83
557.05	47367.26
557.413	47569.06
557.776	47608.38
558.139	47888.6
558.502	47893.35
558.865	48006.79
559.228	48347.8
559.59	48401.35
559.953	48470.73
560.316	48839.54
560.679	48725.64
561.041	49073.2
561.404	49270.94
561.767	49517.48
562.129	49423.93
562.492	49809.68
562.854	49855.55
563.217	49998.83
563.579	50067.3
563.941	50292.83
564.304	50563.56
564.666	50653.5
565.028	50710.22
565.39	50924
565.753	51033.38
566.115	51132.36
566.477	51304.55
566.839	51439.69
567.201	51529.86
567.563	51576.86
567.925	51846.91
568.287	51872
568.648	52074.7
569.01	52135.95
569.372	52358.09
569.734	52286
570.095	52473.11
570.457	52656.61
570.819	52697.29
571.18	52720.34
571.542	52890.28
571.903	52982.25
572.265	53086.65
572.626	53185.86
572.987	53214.11
573.349	53341.56
573.71	53461.33
574.071	53535.23
574.432	53528
574.794	53868.33
575.155	53704.04
575.516	53677.37
575.877	53829.91
576.238	53993.07
576.599	54051.6
576.96	54038.04
577.32	54065.61
577.681	54205.27
578.042	54195.55
578.403	54278.94
578.763	54374.53
579.124	54344.25
579.485	54464.02
579.845	54575.43
580.206	54430.8
580.566	54516
580.927	54564.81
581.287	54691.36
581.648	54516.22
582.008	54678.93
582.368	54649.1
582.728	54786.95
583.089	54711.47
583.449	54741.3
583.809	54802.99
584.169	54808.19
584.529	54770.45
584.889	54941.52
585.249	54715.54
585.609	54679.16
585.969	54904.01
586.329	54756.89
586.688	54883.67
587.048	54843.22
587.408	54811.81
587.768	54802.32
588.127	54828.98
588.487	54778.59
588.846	54972.26
589.206	54762.09
589.565	54844.8
589.925	54950.56
590.284	54889.09
590.643	54933.61
591.003	55032.14
591.362	54973.84
591.721	54961.41
592.08	55036.66
592.44	55139.03
592.799	55096.55
593.158	55071.91
593.517	55004.57
593.876	55089.09
594.235	55043.21
594.593	55091.12
594.952	55167.05
595.311	55083.89
595.67	55121.63
596.029	55235.3
596.387	55253.83
596.746	55286.6
597.104	55139.26
597.463	55144
597.822	55268.97
598.18	55155.98
598.538	55188.29
598.897	55343.77
599.255	55212.7
599.613	55572.92
599.972	55324.11
600.33	55445.01
600.688	55333.15
601.046	55430.77
601.404	55602.3
601.762	55497.89
602.12	55585.12
602.478	55675.06
602.836	55659.69
603.194	55438.91
603.552	55538.57
603.91	55492.24
604.268	55619.24
604.625	55599.81
604.983	55714.83
605.341	55597.1
605.698	55803.65
606.056	55777.43
606.413	55801.84
606.771	55812.46
607.128	55903.76
607.485	55793.7
607.843	55849.07
608.2	55984.43
608.557	56082.73
608.914	55921.16
609.272	56065.33
609.629	56100.36
609.986	56190.3
610.343	56062.17
610.7	56242.96
611.057	56227.36
611.414	56176.52
611.771	56197.53
612.127	56259.68
612.484	56210.64
612.841	56402.73
613.198	56343.74
613.554	56327.93
613.911	56458.77
614.267	56450.86
614.624	56391.88
614.98	56484.53
615.337	56612.21
615.693	56589.61
616.05	56524.3
616.406	56658.99
616.762	56608.82
617.118	56607.69
617.475	56646.11
617.831	56649.5
618.187	56716.62
618.543	56711.87
618.899	56906.44
619.255	56840
619.611	56811.3
619.967	56886.78
620.323	56923.39
620.678	56792.55
621.034	56726.11
621.39	56763.39
621.746	56797.52
622.101	57068.7
622.457	56784.64
622.812	56871.19
623.168	56873.45
623.523	56870.06
623.879	56963.39
624.234	56865.99
624.589	56998.42
624.945	56902.15
625.3	56917.51
625.655	56920
626.01	56949.38
626.365	56979.43
626.72	56933.79
627.075	56860.34
627.43	56873.45
627.785	56856.5
628.14	56762.49
628.495	56854.69
628.85	56886.78
629.205	56704.86
629.559	56901.02
629.914	56772.66
630.269	56779.44
630.623	56714.81
630.978	56726.11
631.332	56679.55
631.687	56775.37
632.041	56684.75
632.396	56738.76
632.75	56597.52
633.104	56573.79
633.459	56492.22
633.813	56533.8
634.167	56543.06
634.521	56464.19
634.875	56485.21
635.229	56409.51
635.583	56278.21
635.937	56249.96
636.291	56273.01
636.645	56324.31
636.999	56331.77
637.352	56312.78
637.706	56170.87
638.06	56164.77
638.413	56173.81
638.767	56117.76
639.121	56209.51
639.474	56019.69
639.828	55959.35
640.181	55965.9
640.534	55972.45
640.888	55937.2
641.241	55814.72
641.594	55769.75
641.947	55934.72
642.301	55812.23
642.654	55806.13
643.007	55793.02
643.36	55753.25
643.713	55654.72
644.066	55677.1
644.419	55571.79
644.771	55461.06
645.124	55128.86
645.477	55102.87
645.83	54826.72
646.182	54720.06
646.535	54693.39
646.888	54708.99
647.24	54607.29
647.593	54862.88
647.945	54647.52
648.298	54510.35
648.65	54432.83
649.002	54350.35
649.355	54486.84
649.707	54455.21
650.059	54558.71
650.411	54807.29
650.763	54807.74
651.115	55181.97
651.467	54999.6
651.819	54977.68
652.171	54848.87
652.523	54927.51
652.875	54831.02
653.227	54719.61
653.578	54904.91
653.93	54739.49
654.282	54678.25
654.633	54623.34
654.985	54697.01
655.337	54685.93
655.688	54680.06
656.039	54755.31
656.391	54462.89
656.742	54572.72
657.094	54556.67
657.445	54696.1
657.796	54574.75
658.147	54562.55
658.498	54510.57
658.849	54533.62
659.2	54455.66
659.551	54403.46
659.902	54536.33
660.253	54491.36
660.604	54478.71
660.955	54358.26
661.306	54461.76
661.656	54342.22
662.007	54406.85
662.358	54280.52
662.708	54311.26
663.059	54270.58
663.409	54027.2
663.76	54294.53
664.11	54229.68
664.461	54291.6
664.811	54302.44
665.161	54285.95
665.511	54149.23
665.862	54253.86
666.212	54255.44
666.562	54309.45
666.912	54198.04
667.262	54181.09
667.612	54206.85
667.962	54220.41
668.312	54112.16
668.662	54236.68
669.011	54080.53
669.361	54177.93
669.711	54113.52
670.06	54116.46
670.41	53984.26
670.76	53941.77
671.109	54036.23
671.459	53964.6
671.808	53932.28
672.157	54062.67
672.507	53791.27
672.856	53863.58
673.205	53869.23
673.554	53881.66
673.904	53726.64
674.253	53945.39
674.602	53746.98
674.951	53447.78
675.3	53297.04
675.649	53721.67
675.998	53628.11
676.346	53669.01
676.695	53806.64
677.044	53553.99
677.393	53690.03
677.741	53597.83
678.09	53566.64
678.438	53526.64
678.787	53596.92
679.135	53587.88
679.484	53368.91
679.832	53537.72
680.181	53222.7
680.529	53368.46
680.877	53175.01
681.225	53173.21
681.573	53366.65
681.922	53224.05
682.27	53107.22
682.618	53052.98
682.966	52966.43
683.314	52992.87
683.661	52877.62
684.009	52769.6
684.357	52716.27
684.705	52676.5
685.053	52772.54
685.4	52638.98
685.748	52513.34
686.095	52489.16
686.443	52352.89
686.79	52300.46
687.138	52295.04
687.485	52397.18
687.832	52268.82
688.18	52376.84
688.527	52116.29
688.874	52023.18
689.221	52007.14
689.568	51835.61
689.915	51822.28
690.262	51781.15
690.609	51663.64
690.956	51520.82
691.303	51546.13
691.65	51238.57
691.997	51270.88
692.344	51104.56
692.69	51141.85
693.037	51199.47
693.383	50847.84
693.73	51053.49
694.077	50905.7
694.423	50756.09
694.769	50764
695.116	50531.92
695.462	50635.87
695.808	50541.41
696.155	50512.71
696.501	50175.09
696.847	50232.27
697.193	49983.23
697.539	50142.1
697.885	49857.14
698.231	49898.04
698.577	49844.93
698.923	49656.91
699.269	49399.97
699.614	49343.7
699.96	49226.64
700.306	49299.41
700.651	49191.39
700.997	49043.6
701.342	48974.67
701.688	48866.43
702.033	48758.41
702.379	48666.88
702.724	48552.31
703.069	48649.94
703.415	48195.03
703.76	48216.73
704.105	48204.98
704.45	48073.23
704.795	47956.39
705.14	47733.8
705.485	47779.45
705.83	47663.52
706.175	47612
706.52	47559.79
706.865	47393.47
707.209	47253.36
707.554	47233.93
707.899	47354.38
708.243	46883.2
708.588	46897.21
708.932	46735.18
709.277	46757.1
709.621	46750.32
709.966	46466.49
710.31	46632.81
710.654	46163.22
710.998	46292.94
711.342	46250.22
711.687	46217.68
712.031	45995.32
712.375	45726.17
712.719	45854.3
713.063	45746.96
713.407	45839.61
713.75	45607.53
714.094	45572.05
714.438	45387.87
714.782	45488.66
715.125	45231.27
715.469	45306.97
715.812	45068.11
716.156	44859.75
716.499	44808.23
716.843	44978.17
717.186	44706.99
717.53	44732.07
717.873	44703.82
718.216	44734.11
718.559	44476.49
718.902	44302.71
719.246	44558.07
719.589	44336.15
719.932	44111.52
720.275	44028.59
720.617	44066.78
720.96	43955.37
721.303	43836.5
721.646	44013.22
721.989	43662.72
722.331	43823.85
722.674	43719.9
723.016	43723.51
723.359	43488.72
723.701	43516.96
724.044	43282.62
724.386	43162.62
724.729	43201.49
725.071	43262.28
725.413	43109.74
725.755	43113.36
726.097	42954.94
726.439	42671.56
726.782	42828.39
727.124	42878.56
727.465	42601.28
727.807	42474.5
728.149	42453.94
728.491	42348.41
728.833	42509.98
729.175	42312.7
729.516	42168.98
729.858	42207.17
730.199	42137.11
730.541	42108.41
730.882	42024.8
731.224	42016.89
731.565	41777.12
731.906	41899.6
732.248	41769.21
732.589	41740.74
732.93	41531.93
733.271	41578.48
733.612	41677.92
733.953	41586.39
734.294	41301.2
734.635	41364.25
734.976	41269.11
735.317	41286.06
735.658	41161.09
735.999	41082.45
736.339	41052.62
736.68	41069.34
737.021	40795.23
737.361	40706.19
737.702	40932.85
738.042	40799.75
738.383	40692.86
738.723	40764.04
739.063	40568.34
739.404	40480.21
739.744	40460.77
740.084	40357.05
740.424	40392.75
740.764	40281.34
741.104	40415.12
741.444	40031.18
741.784	40089.93
742.124	40011.52
742.464	39994.8
742.804	39848.13
743.143	39793.9
743.483	39784.63
743.823	39711.64
744.162	39626.9
744.502	39759.55
744.841	39334.25
745.181	39595.71
745.52	39563.62
745.86	39413.34
746.199	39380.8
746.538	39214.7
746.877	39157.98
747.216	39154.14
747.556	39007.93
747.895	39018.78
748.234	38799.8
748.573	38673.47
748.911	38649.75
749.25	38662.18
749.589	38445.91
749.928	38527.94
750.267	38550.77
750.605	38432.13
750.944	38372.24
751.283	38209.53
751.621	38336.31
751.96	37995.53
752.298	38121.85
752.636	38138.57
752.975	37849.54
753.313	37642.77
753.651	37843.67
753.989	37664.01
754.327	37454.75
754.666	37343.34
755.004	37468.08
755.342	37542.43
755.679	37283.45
756.017	37164.14
756.355	37205.94
756.693	37075.78
757.031	37019.73
757.368	36810.92
757.706	36678.05
758.044	36480.99
758.381	36640.99
758.719	36550.37
759.056	36452.29
759.394	36323.71
759.731	36095.24
760.068	36097.27
760.405	35857.5
760.743	35855.24
761.08	35859.09
761.417	35618.19
761.754	35462.49
762.091	35659.99
762.428	35489.38
762.765	35282.15
763.102	35341.58
763.438	35072.67
763.775	34859.34
764.112	34745.44
764.449	34747.25
764.785	34663.41
765.122	34346.13
765.458	34339.8
765.795	34336.64
766.131	34330.99
766.467	33879.02
766.804	33855.3
767.14	33780.27
767.476	33830.21
767.812	33594.74
768.148	33509.99
768.485	33392.48
768.821	33246.27
769.157	33209.89
769.492	33142.32
769.828	33089.21
770.164	32681.09
770.5	32723.8
770.836	32769.22
771.171	32477.93
771.507	32471.83
771.842	31992.29
772.178	32195.45
772.513	32251.04
772.849	32144.38
773.184	31941.67
773.519	31956.82
773.855	31651.29
774.19	31526.77
774.525	31455.59
774.86	31511.4
775.195	31233.67
775.53	31142.15
775.865	31065.09
776.2	30866.45
776.535	30626
776.87	30616.29
777.205	30565.67
777.539	30454.26
777.874	30357.08
778.209	30153.25
778.543	30231.66
778.878	29894.04
779.212	29900.6
779.547	29694.95
779.881	29809.53
780.215	29494.51
780.55	29601.62
780.884	29379.03
781.218	29374.51
781.552	29299.03
781.886	29021.07
782.22	28982.43
782.554	28860.4
782.888	28594.19
783.222	28586.51
783.556	28413.41
783.889	28400.98
784.223	28139.74
784.557	28207.31
784.89	28313.75
785.224	28016.58
785.557	27829.92
785.891	27926.64
786.224	27646.87
786.558	27535.01
786.891	27364.85
787.224	27316.26
787.557	27169.6
787.891	27110.84
788.224	27177.73
788.557	27021.8
788.89	27156.04
789.223	26921.24
789.556	26760.57
789.888	26692.32
790.221	26574.81
790.554	26320.58
790.887	26441.71
791.219	26210.07
791.552	26172.56
791.884	26112.67
792.217	26013.24
792.549	25961.04
792.882	25842.4
793.214	25620.26
793.546	25667.49
793.879	25463.88
794.211	25419.36
794.543	25301.17
794.875	25265.92
795.207	25342.53
795.539	25062.08
795.871	25108.86
796.203	24949.77
796.535	24846.49
796.867	24790.68
797.198	24599.49
797.53	24726.27
797.862	24435.2
798.193	24590.68
798.525	24345.49
798.856	24390.01
799.188	24056.23
799.519	24025.72
799.85	23822.57
800.182	23957.25
800.513	24016.23
800.844	23758.61
801.175	23850.36
801.506	23833.19
801.837	23620.76
802.168	23526.98
802.499	23519.3
802.83	23375.57
803.161	23361.79
803.491	23232.75
803.822	23408.57
804.153	23101.23
804.483	23023.94
804.814	22840.9
805.145	22838.41
805.475	22988.92
805.805	22757.96
806.136	22855.81
806.466	22798.64
806.796	22679.32
807.126	22646.78
807.457	22532.66
807.787	22418.31
808.117	22344.41
808.447	22242.72
808.777	22271.87
809.107	22194.13
809.436	22155.49
809.766	22120.69
810.096	21927.25
810.426	22011.31
810.755	21955.95
811.085	21790.98
811.414	21784.43
811.744	21686.12
812.073	21486.36
812.403	21529.07
812.732	21453.14
813.061	21407.49
813.39	21270.09
813.719	21277.1
814.049	21361.61
814.378	21260.6
814.707	21110.09
815.036	21031.45
815.365	20990.55
815.693	20829.42
816.022	20791.68
816.351	20745.36
816.68	20658.81
817.008	20804.57
817.337	20564.12
817.665	20518.7
817.994	20640.05
818.322	20544.23
818.651	20458.59
818.979	20372.71
819.307	20445.48
819.636	20386.72
819.964	20224.24
820.292	20240.06
820.62	20211.36
820.948	20121.19
821.276	20284.35
821.604	20072.61
821.932	20210.68
822.259	20217.01
822.587	20179.5
822.915	20117.35
823.243	20140.18
823.57	20160.06
823.898	20051.59
824.225	20040.29
824.553	19950.58
824.88	20028.32
825.207	20110.12
825.535	20005.72
825.862	20172.49
826.189	20038.03
826.516	20185.37
826.843	20265.6
827.17	20163.23
827.497	20121.65
827.824	20078.03
828.151	20045.04
828.478	20014.76
828.805	20157.13
829.131	19984.93
829.458	19947.87
829.785	19884.36
830.111	20000.52
830.438	20006.17
830.764	19979.05
831.09	20106.28
831.417	19860.18
831.743	19971.14
832.069	19964.81
832.395	19802.56
832.722	19895.89
833.048	19919.84
833.374	19851.82
833.7	19712.62
834.026	19739.51
834.351	19794.2
834.677	19766.18
835.003	19768.44
835.329	19683.69
835.654	19612.28
835.98	19640.53
836.306	19700.64
836.631	19491.83
836.956	19647.53
837.282	19611.83
837.607	19566.41
837.932	19566.18
838.258	19582.23
838.583	19405.51
838.908	19360.54
839.233	19333.19
839.558	19327.09
839.883	19213.65
840.208	19186.98
840.533	19216.13
840.858	19239.86
841.182	19295.23
841.507	19109.24
841.832	19109.24
842.156	19078.28
842.481	19060.88
842.805	18885.52
843.13	18855.01
843.454	18862.47
843.778	18808.23
844.103	18783.38
844.427	18748.12
844.751	18665.64
845.075	18706.77
845.399	18597.62
845.723	18451.86
846.047	18433.33
846.371	18322.15
846.695	18273.56
847.019	18033.79
847.343	18031.76
847.666	17970.29
847.99	17962.38
848.313	17873.57
848.637	17747.92
848.96	17741.82
849.284	17737.3
849.607	17545.22
849.931	17613.46
850.254	17431.77
850.577	17344.09
850.9	17228.84
851.223	17249.41
851.546	17109.97
851.869	17014.84
852.192	17161.27
852.515	16931
852.838	16833.37
853.161	16879.47
853.483	16864.78
853.806	16720.61
854.129	16665.69
854.451	16618.91
854.774	16622.3
855.096	16463.66
855.419	16389.09
855.741	16441.97
856.063	16361.07
856.385	16240.62
856.708	16250.56
857.03	16085.37
857.352	16192.03
857.674	16001.75
857.996	15990.46
858.318	16015.54
858.64	15910.01
858.961	15856.9
859.283	15766.28
859.605	15652.84
859.926	15812.15
860.248	15611.03
860.57	15656.23
860.891	15699.16
861.212	15581.43
861.534	15571.94
861.855	15448.77
862.176	15532.61
862.498	15448.32
862.819	15478.83
863.14	15449
863.461	15409.45
863.782	15306.41
864.103	15356.8
864.424	15266.63
864.745	15367.87
865.065	15217.14
865.386	15192.96
865.707	15146.64
866.027	15173.08
866.348	15207.42
866.668	15143.47
866.989	15114.09
867.309	14939.86
867.63	14999.52
867.95	14964.95
868.27	14895.12
868.59	14973.76
868.91	14879.07
869.23	14951.39
869.55	14843.59
869.87	14900.99
870.19	14886.3
870.51	14819.41
870.83	14740.54
871.15	14610.15
871.469	14652.19
871.789	14662.58
872.109	14630.94
872.428	14502.58
872.748	14563.37
873.067	14518.18
873.386	14613.32
873.706	14554.56
874.025	14439.99
874.344	14392.76
874.663	14331.52
874.982	14408.12
875.301	14422.59
875.62	14381.01
875.939	14351.18
876.258	14318.86
876.577	14217.39
876.896	14260.11
877.214	14239.54
877.533	14228.02
877.852	14183.05
878.17	14154.57
878.489	14169.49
878.807	14209.49
879.125	14129.26
879.444	14070.05
879.762	14079.77
880.08	14032.31
880.398	13998.64
880.716	13945.99
881.034	13910.51
881.352	13968.81
881.67	13869.61
881.988	13913
882.306	13888.36
882.624	13802.72
882.941	13745.09
883.259	13655.83
883.577	13655.6
883.894	13624.64
884.212	13596.17
884.529	13553.23
884.846	13617.41
885.164	13506
885.481	13433.01
885.798	13544.64
886.115	13403.86
886.432	13350.52
886.75	13290.87
887.067	13375.16
887.383	13261.49
887.7	13310.3
888.017	13215.16
888.334	13252.45
888.651	13210.87
888.967	13082.74
889.284	13072.57
889.6	13030.53
889.917	12941.72
890.233	13016.75
890.55	12912.34
890.866	12928.16
891.182	12884.1
891.498	12777.21
891.815	12805.91
892.131	12658.34
892.447	12692.01
892.763	12643.2
893.079	12675.29
893.395	12597.78
893.71	12536.31
894.026	12497.89
894.342	12461.06
894.657	12396.88
894.973	12435.29
895.289	12336.31
895.604	12324.56
895.92	12191.69
896.235	12211.12
896.55	12202.53
896.865	12233.72
897.181	12153.49
897.496	12173.38
897.811	12076.43
898.126	12087.06
898.441	11977
898.756	11921.64
899.071	11829.89
899.386	11870.56
899.7	11758.25
900.015	11812.71
900.33	11659.04
900.644	11675.31
900.959	11640.97
901.273	11572.72
901.588	11454.3
901.902	11494.98
902.216	11388.54
902.531	11480.74
902.845	11374.08
903.159	11331.59
903.473	11262.9
903.787	11131.37
904.101	11166.4
904.415	11144.71
904.729	11050.47
905.042	10993.98
905.356	11018.16
905.67	10972.06
905.984	10990.81
906.297	10870.36
906.611	10887.09
906.924	10847.54
907.237	10836.69
907.551	10733.87
907.864	10645.06
908.177	10719.63
908.491	10608.9
908.804	10640.99
909.117	10446.42
909.43	10404.39
909.743	10408
910.056	10394.67
910.368	10438.96
910.681	10346.76
910.994	10244.39
911.307	10228.12
911.619	10129.37
911.932	10169.82
912.244	10115.81
912.557	10038.3
912.869	9985.64
913.181	9966.21
913.494	9926.89
913.806	9818.41
914.118	9844.4
914.43	9865.87
914.742	9788.58
915.054	9793.56
915.366	9623.39
915.678	9654.35
915.99	9614.8
916.302	9543.85
916.613	9553.34
916.925	9434.02
917.236	9475.6
917.548	9424.53
917.859	9408.26
918.171	9318.77
918.482	9271.99
918.794	9222.27
919.105	9181.37
919.416	9119.9
919.727	9114.93
920.038	9085.78
920.349	8984.31
920.66	8935.27
920.971	8994.71
921.282	8912.68
921.593	8886.46
921.903	8813.47
922.214	8764.2
922.525	8824.09
922.835	8780.02
923.146	8696.64
923.456	8747.48
923.767	8655.96
924.077	8663.64
924.387	8580.03
924.697	8497.32
925.008	8507.71
925.318	8469.07
925.628	8405.8
925.938	8336.42
926.248	8319.92
926.558	8299.58
926.867	8267.95
927.177	8255.07
927.487	8160.38
927.796	8110.21
928.106	8083.54
928.416	8026.37
928.725	8086.48
929.034	7931.23
929.344	7982.98
929.653	7954.51
929.962	7931.23
930.271	7834.51
930.581	7818.69
930.89	7816.21
931.199	7740.05
931.508	7738.92
931.817	7689.66
932.125	7655.08
932.434	7601.3
932.743	7598.36
933.051	7500.28
933.36	7472.26
933.669	7460.28
933.977	7455.31
934.286	7444.69
934.594	7382.32
934.902	7333.73
935.21	7312.04
935.519	7281.76
935.827	7265.71
936.135	7225.94
936.443	7117.92
936.751	7127.41
937.059	7140.29
937.367	7082.89
937.674	7067.98
937.982	6975.1
938.29	7006.96
938.597	7004.48
938.905	6927.19
939.213	6881.32
939.52	6938.94
939.827	6933.29
940.135	6845.61
940.442	6739.85
940.749	6775.1
941.056	6744.14
941.363	6661.66
941.67	6676.8
941.977	6643.58
942.284	6625.96
942.591	6598.39
942.898	6522.46
943.205	6546.41
943.511	6468.9
943.818	6498.95
944.125	6499.86
944.431	6350.26
944.738	6340.77
945.044	6349.13
945.35	6354.78
945.657	6295.79
945.963	6242.01
946.269	6263.71
946.575	6195.23
946.881	6199.53
947.187	6178.51
947.493	6106.87
947.799	6061
948.105	6075.24
948.41	6010.38
948.716	6010.38
949.022	5975.35
949.327	5946.65
949.633	5909.82
949.938	5915.24
950.244	5857.61
950.549	5841.57
950.854	5860.55
951.16	5800.21
951.465	5777.39
951.77	5780.78
952.075	5696.49
952.38	5745.07
952.685	5691.97
952.99	5649.26
953.294	5664.17
953.599	5622.37
953.904	5552.99
954.209	5524.52
954.513	5520.9
954.818	5491.07
955.122	5462.14
955.426	5502.6
955.731	5391.86
956.035	5379.21
956.339	5386.67
956.643	5357.97
956.948	5339.44
957.252	5343.05
957.556	5324.52
957.86	5257.63
958.163	5287.91
958.467	5230.29
958.771	5195.48
959.075	5247.01
959.378	5163.85
959.682	5157.07
959.985	5148.71
960.289	5077.3
960.592	5054.7
960.896	5011.31
961.199	5022.38
961.502	5000.01
961.805	5016.28
962.108	4965.43
962.411	4905.77
962.714	4852.89
963.017	4924.31
963.32	4871.65
963.623	4830.52
963.926	4872.33
964.228	4820.58
964.531	4747.81
964.833	4833.23
965.136	4739.9
965.438	4730.86
965.741	4715.95
966.043	4666.01
966.345	4690.87
966.648	4646.8
966.95	4625.1
967.252	4590.3
967.554	4579.68
967.856	4590.3
968.158	4522.73
968.46	4530.42
968.761	4505.11
969.063	4496.29
969.365	4448.84
969.666	4434.15
969.968	4393.7
970.269	4385.56
970.571	4388.95
970.872	4340.59
971.174	4315.73
971.475	4330.87
971.776	4294.27
972.077	4287.03
972.378	4243.19
972.679	4190.31
972.98	4166.36
973.281	4184.21
973.582	4172.69
973.883	4178.56
974.183	4173.14
974.484	4142.18
974.785	4083.2
975.085	4078
975.386	4086.81
975.686	4024.89
975.986	4041.62
976.287	4016.98
976.587	3949.64
976.887	4005.69
977.187	3972.24
977.487	3910.55
977.787	3903.32
978.087	3867.16
978.387	3859.02
978.687	3869.42
978.987	3843.88
979.286	3800.95
979.586	3828.52
979.885	3800.72
980.185	3792.36
980.484	3757.56
980.784	3728.4
981.083	3727.05
981.382	3741.74
981.682	3721.63
981.981	3704.9
982.28	3704.68
982.579	3657.9
982.878	3649.31
983.177	3639.37
983.475	3615.87
983.774	3568.63
984.073	3530.44
984.372	3526.83
984.67	3506.94
984.969	3509.88
985.267	3506.72
985.566	3503.33
985.864	3478.02
986.162	3487.96
986.461	3443.21
986.759	3413.61
987.057	3365.25
987.355	3378.36
987.653	3348.75
987.951	3360.73
988.249	3343.1
988.547	3334.97
988.844	3312.37
989.142	3310.56
989.44	3279.83
989.737	3266.95
990.035	3272.6
990.332	3195.54
990.63	3221.53
990.927	3238.25
991.224	3177.91
991.521	3157.57
991.819	3168.87
992.116	3174.52
992.413	3073.96
992.71	3131.81
993.006	3094.07
993.303	3063.56
993.6	3057.24
993.897	3058.14
994.193	3057.24
994.49	3053.39
994.787	2945.83
995.083	3011.59
995.379	2993.28
995.676	2946.73
995.972	2948.54
996.268	2921.65
996.565	2894.3
996.861	2901.31
997.157	2894.53
997.453	2840.52
997.749	2864.02
998.044	2806.85
998.34	2838.03
998.636	2805.04
998.932	2807.98
999.227	2793.97
999.523	2794.87
999.818	2722.56
1000.114	2757.81
1000.409	2735.44
1000.704	2704.93
1001	2664.48
1001.295	2637.81
1001.59	2657.47
1001.885	2624.93
1002.18	2656.57
1002.475	2628.77
1002.77	2570.92
1003.065	2549.9
1003.359	2562.79
1003.654	2552.62
1003.949	2558.94
1004.243	2514.88
1004.538	2520.07
1004.832	2485.95
1005.127	2465.16
1005.421	2462
1005.715	2426.74
1006.009	2425.84
1006.304	2431.49
1006.598	2408.44
1006.892	2412.73
1007.186	2385.84
1007.48	2354.88
1007.773	2340.19
1008.067	2315.33
1008.361	2341.32
1008.655	2303.36
1008.948	2269.91
1009.242	2278.05
1009.535	2260.19
1009.829	2290.93
1010.122	2264.04
1010.415	2226.3
1010.708	2216.35
1011.001	2183.81
1011.295	2187.65
1011.588	2178.39
1011.881	2183.13
1012.173	2153.98
1012.466	2172.97
1012.759	2157.82
1013.052	2125.28
1013.344	2098.84
1013.637	2100.2
1013.93	2088.22
1014.222	2074.21
1014.514	2072.63
1014.807	2051.39
1015.099	2043.48
1015.391	2029.47
1015.683	2030.14
1015.976	1973.87
1016.268	1961.67
1016.56	1961.45
1016.851	1965.51
1017.143	1944.72
1017.435	1928.68
1017.727	1925.97
1018.018	1868.34
1018.31	1899.75
1018.602	1878.06
1018.893	1842.13
1019.185	1856.14
1019.476	1826.99
1019.767	1835.35
1020.058	1833.31
1020.35	1810.49
1020.641	1794.9
1020.932	1779.76
1021.223	1770.49
1021.514	1735.91
1021.804	1745.63
1022.095	1740.43
1022.386	1752.64
1022.677	1713.32
1022.967	1710.15
1023.258	1678.29
1023.548	1685.07
1023.839	1645.3
1024.129	1653.43
1024.419	1643.71
1024.709	1667.22
1025	1617.5
1025.29	1601.23
1025.58	1603.71
1025.87	1587.67
1026.16	1563.26
1026.449	1581.57
1026.739	1567.11
1027.029	1557.16
1027.319	1536.37
1027.608	1528.24
1027.898	1522.81
1028.187	1478.07
1028.477	1487.11
1028.766	1467.45
1029.055	1461.8
1029.344	1445.3
1029.634	1450.5
1029.923	1433.32
1030.212	1450.95
1030.501	1415.47
1030.79	1382.7
1031.078	1401.69
1031.367	1376.83
1031.656	1372.53
1031.945	1361.46
1032.233	1361.24
1032.522	1363.04
1032.81	1369.37
1033.099	1346.09
1033.387	1328.92
1033.675	1306.55
1033.963	1302.93
1034.251	1307.9
1034.54	1285.76
1034.828	1276.27
1035.116	1286.44
1035.403	1281.69
1035.691	1255.25
1035.979	1260.22
1036.267	1221.58
1036.554	1246.21
1036.842	1215.02
1037.129	1219.32
1037.417	1220.67
1037.704	1202.37
1037.992	1192.43
1038.279	1170.51
1038.566	1165.76
1038.853	1165.76
1039.14	1165.76
