Data from plate_ceramic_FLMS001491_020.txt Node
Date: Tue Feb 07 11:16:23 GMT 2017
User: dcchb
Spectrometer: FLMS00149
Trigger mode: 0
Integration Time (sec): 2.000000E-2
Scans to average: 10
Electric dark correction enabled: true
Nonlinearity correction enabled: false
Boxcar width: 0
XAxis mode: Wavelengths
Number of Pixels in Spectrum: 2048
>>>>>Begin Spectral Data<<<<<
341.393	-19.48
341.776	-19.48
342.16	-19.48
342.543	-68.29
342.927	-67.61
343.31	-67.84
343.693	-75.29
344.077	-67.61
344.46	-52.02
344.843	-54.05
345.226	-31.91
345.61	-22.19
345.993	-45.69
346.376	-10.21
346.759	8.32
347.142	26.4
347.525	48.77
347.908	55.1
348.291	81.31
348.674	90.58
349.057	116.34
349.44	128.77
349.823	156.34
350.206	164.7
350.588	193.85
350.971	238.37
351.354	259.16
351.737	263
352.119	273.85
352.502	255.09
352.884	280.85
353.267	296.67
353.65	295.32
354.032	331.47
354.414	314.07
354.797	346.84
355.179	324.02
355.562	346.62
355.944	355.65
356.326	353.85
356.709	359.27
357.091	360.17
357.473	380.06
357.855	363.56
358.238	383.68
358.62	373.51
359.002	372.15
359.384	365.6
359.766	350.91
360.148	366.73
360.53	383.68
360.912	368.99
361.294	358.82
361.676	382.77
362.057	364.92
362.439	369.44
362.821	371.47
363.203	377.57
363.584	369.21
363.966	387.97
364.348	361.98
364.729	356.78
365.111	353.17
365.493	342.32
365.874	345.49
366.256	361.08
366.637	374.41
367.019	376.9
367.4	367.18
367.781	358.14
368.163	345.03
368.544	368.54
368.925	353.62
369.306	378.93
369.688	366.05
370.069	380.29
370.45	376.67
370.831	352.94
371.212	373.96
371.593	383.9
371.974	357.46
372.355	383.68
372.736	396.78
373.117	367.41
373.498	370.8
373.879	413.51
374.26	390.68
374.641	387.29
375.021	387.97
375.402	400.4
375.783	395.43
376.163	428.65
376.544	422.55
376.925	425.03
377.305	406.05
377.686	397.91
378.066	402.66
378.447	404.24
378.827	418.7
379.208	422.77
379.588	404.69
379.968	433.17
380.349	430.45
380.729	438.36
381.109	418.03
381.489	432.26
381.87	442.43
382.25	430.91
382.63	442.43
383.01	472.26
383.39	452.38
383.77	475.43
384.15	464.8
384.53	449.44
384.91	468.87
385.29	471.36
385.67	481.98
386.049	486.27
386.429	468.19
386.809	468.42
387.189	490.11
387.568	492.15
387.948	510.9
388.328	499.61
388.707	502.77
389.087	493.05
389.466	538.25
389.846	516.33
390.225	525.82
390.605	512.94
390.984	521.07
391.363	512.26
391.743	547.29
392.122	560.17
392.501	556.33
392.881	545.93
393.26	557.68
393.639	567.17
394.018	591.81
394.397	598.36
394.776	575.54
395.155	572.82
395.534	578.93
395.913	609.89
396.292	601.75
396.671	622.99
397.05	614.63
397.429	639.04
397.808	630.45
398.186	634.29
398.565	639.04
398.944	640.62
399.323	656.21
399.701	635.2
400.08	649.66
400.458	667.96
400.837	673.84
401.215	693.5
401.594	687.85
401.972	681.3
402.351	684.69
402.729	698.47
403.107	716.77
403.486	718.36
403.864	734.63
404.242	730.11
404.62	746.38
404.999	728.98
405.377	758.36
405.755	758.81
406.133	781.86
406.511	784.57
406.889	761.29
407.267	811.24
407.645	805.81
408.023	827.96
408.401	794.29
408.779	831.8
409.156	868.18
409.534	846.26
409.912	854.85
410.29	884.91
410.667	883.1
411.045	897.56
411.422	898.92
411.8	925.58
412.178	922.19
412.555	981.17
412.933	966.49
413.31	974.4
413.687	967.16
414.065	1001.97
414.442	986.82
414.819	1000.38
415.197	1015.07
415.574	1029.76
415.951	1046.94
416.328	1073.83
416.705	1072.92
417.082	1076.54
417.46	1079.93
417.837	1116.09
418.214	1111.57
418.591	1129.19
418.967	1140.27
419.344	1142.98
419.721	1145.46
420.098	1165.8
420.475	1174.16
420.852	1191.56
421.228	1194.5
421.605	1219.36
421.982	1240.38
422.358	1267.72
422.735	1248.29
423.111	1260.94
423.488	1281.51
423.864	1315.4
424.241	1290.55
424.617	1331.67
424.994	1318.79
425.37	1327.83
425.746	1327.38
426.123	1383.42
426.499	1388.4
426.875	1419.36
427.251	1425.46
427.627	1432.24
428.003	1465.46
428.379	1472.46
428.756	1491.22
429.132	1497.55
429.507	1540.71
429.883	1532.35
430.259	1592.91
430.635	1584.77
431.011	1606.92
431.387	1662.29
431.763	1670.87
432.138	1680.82
432.514	1684.43
432.89	1714.04
433.265	1735.96
433.641	1780.25
434.016	1778.44
434.392	1814.37
434.767	1841.94
435.143	1843.07
435.518	1884.43
435.894	1879.46
436.269	1939.12
436.644	1927.36
437.02	1946.12
437.395	1954.93
437.77	1987.02
438.145	2043.97
438.52	2027.7
438.895	2038.77
439.271	2052.56
439.646	2098.43
440.021	2116.51
440.395	2150.86
440.77	2141.14
441.145	2135.04
441.52	2210.75
441.895	2211.2
442.27	2231.76
442.645	2212.78
443.019	2246.68
443.394	2264.08
443.769	2260.92
444.143	2234.7
444.518	2307.69
444.892	2336.85
445.267	2293.68
445.641	2369.39
446.016	2350.4
446.39	2404.41
446.764	2426.79
447.139	2418.88
447.513	2461.14
447.887	2453.68
448.262	2478.31
448.636	2478.54
449.01	2528.7
449.384	2529.83
449.758	2532.77
450.132	2608.48
450.506	2620.68
450.88	2604.63
451.254	2621.36
451.628	2658.42
452.002	2691.86
452.376	2750.17
452.75	2720.79
453.123	2768.02
453.497	2826.55
453.871	2829.26
454.244	2893.67
454.618	2956.49
454.992	2965.53
455.365	2976.6
455.739	3037.17
456.112	3043.04
456.486	3131.17
456.859	3091.4
457.232	3205.52
457.606	3252.08
457.979	3216.82
458.352	3264.5
458.725	3344.73
459.099	3377.27
459.472	3419.98
459.845	3446.65
460.218	3519.19
460.591	3541.79
460.964	3557.6
461.337	3664.49
461.71	3687.32
462.083	3742.91
462.456	3783.59
462.829	3753.08
463.201	3835.34
463.574	3818.61
463.947	3923.92
464.32	4017.93
464.692	4055.67
465.065	4080.08
465.438	4126.85
465.81	4155.78
466.183	4221.77
466.555	4288.66
466.928	4332.27
467.3	4338.6
467.672	4427.64
468.045	4555.32
468.417	4554.64
468.789	4619.05
469.161	4636.22
469.534	4721.64
469.906	4835.76
470.278	4884.12
470.65	4910.11
471.022	5001.86
471.394	5162.31
471.766	5160.95
472.138	5234.85
472.51	5329.31
472.882	5411.79
473.253	5458.8
473.625	5541.28
473.997	5661.28
474.369	5692.46
474.74	5750.99
475.112	5917.09
475.484	5961.38
475.855	6077.54
476.227	6106.01
476.598	6311.88
476.97	6389.39
477.341	6487.7
477.713	6682.27
478.084	6662.83
478.455	6828.7
478.827	6888.14
479.198	7057.85
479.569	7121.13
479.94	7313.44
480.311	7392.31
480.682	7534.22
481.053	7757.27
481.424	7836.14
481.795	7923.59
482.166	8068.67
482.537	8120.2
482.908	8386.86
483.279	8481.32
483.65	8611.03
484.021	8791.14
484.391	8871.81
484.762	8991.36
485.133	9022.32
485.503	9171.69
485.874	9378.69
486.244	9380.73
486.615	9667.05
486.985	9751.57
487.356	9978.23
487.726	10030.65
488.097	10288.73
488.467	10294.6
488.837	10423.41
489.207	10589.74
489.578	10773.23
489.948	10893.23
490.318	10960.8
490.688	11096.62
491.058	11283.95
491.428	11409.6
491.798	11467.45
492.168	11728.91
492.538	11714.68
492.908	11959.87
493.278	12050.26
493.648	12194.44
494.017	12302.68
494.387	12358.28
494.757	12589.23
495.126	12676.46
495.496	12727.08
495.866	12853.4
496.235	12984.93
496.605	13062.89
496.974	13183.11
497.344	13275.77
497.713	13412.71
498.082	13519.15
498.452	13612.93
498.821	13702.65
499.19	13735.19
499.559	13933.83
499.928	14044.79
500.298	14154.16
500.667	14290.88
501.036	14252.69
501.405	14411.1
501.774	14572.68
502.143	14557.77
502.512	14727.25
502.88	14828.04
503.249	14945.78
503.618	15059.22
503.987	15118.2
504.356	15233
504.724	15258.09
505.093	15416.05
505.462	15427.35
505.83	15592.09
506.199	15732.43
506.567	15954.57
506.936	15885.19
507.304	16110.04
507.672	16144.84
508.041	16335.57
508.409	16467.55
508.777	16504.61
509.145	16656.02
509.514	16671.61
509.882	16860.98
510.25	16912.73
510.618	17144.37
510.986	17127.87
511.354	17387.98
511.722	17580.06
512.09	17596.56
512.458	17637.01
512.826	17825.7
513.193	17955.87
513.561	18050.78
513.929	18166.03
514.297	18422.3
514.664	18522.86
515.032	18571.67
515.4	18738.45
515.767	18888.27
516.135	18968.95
516.502	18864.32
516.869	19317.64
517.237	19408.94
517.604	19418.66
517.972	19579.56
518.339	19772.32
518.706	19797.18
519.073	19973.22
519.44	20082.59
519.808	20420.44
520.175	20365.75
520.542	20698.4
520.909	20776.36
521.276	20763.48
521.643	21016.35
522.009	21285.95
522.376	21251.15
522.743	21391.49
523.11	21635.09
523.477	21854.75
523.843	21968.19
524.21	22266.72
524.577	22421.06
524.943	22635.97
525.31	22627.61
525.676	22882.07
526.043	23048.39
526.409	23141.72
526.776	23400.02
527.142	23557.08
527.508	23620.58
527.874	23926.79
528.241	23996.61
528.607	24060.79
528.973	24352.76
529.339	24365.64
529.705	24694.9
530.071	24892.41
530.437	24922.47
530.803	25171.05
531.169	25209.24
531.535	25292.4
531.901	25346.86
532.267	25472.28
532.632	25665.95
532.998	25844.25
533.364	25983.46
533.73	26148.2
534.095	26389.77
534.461	26438.13
534.826	26582.54
535.192	26606.72
535.557	26822.76
535.923	26873.38
536.288	27077.21
536.653	27185.46
537.019	27071.79
537.384	27301.84
537.749	27499.12
538.114	27357.66
538.479	27580.02
538.845	27848.26
539.21	27787.02
539.575	27948.6
539.94	27941.14
540.305	28276.5
540.67	28198.54
541.034	28333.22
541.399	28491.19
541.764	28537.29
542.129	28634.01
542.494	28741.12
542.858	28878.97
543.223	28968.91
543.587	29178.63
543.952	29131.4
544.316	29185.86
544.681	29273.31
545.045	29439.41
545.41	29677.14
545.774	29715.11
546.138	29766.41
546.503	29834.65
546.867	29879.4
547.231	30236.68
547.595	30137.92
547.959	30350.8
548.324	30450.91
548.688	30484.35
549.052	30555.54
549.416	30712.6
549.779	30803.22
550.143	30898.13
550.507	31112.13
550.871	31215.18
551.235	31326.37
551.599	31510.32
551.962	31501.5
552.326	31567.26
552.689	31685.45
553.053	31769.97
553.417	31909.4
553.78	32411.31
554.143	32173.12
554.507	32364.76
554.87	32538.76
555.234	32897.17
555.597	32676.39
555.96	32799.77
556.323	33082.7
556.686	32962.71
557.05	33348.46
557.413	33475.91
557.776	33562.92
558.139	33865.51
558.502	33929.69
558.865	34117.93
559.228	34276.57
559.59	34264.59
559.953	34374.65
560.316	34808.76
560.679	34749.78
561.041	34970.56
561.404	35098.92
561.767	35434.73
562.129	35288.3
562.492	35771.22
562.854	35678.79
563.217	35896.64
563.579	36111.1
563.941	36249.85
564.304	36372.33
564.666	36759.22
565.028	36743.17
565.39	36855.26
565.753	37040.11
566.115	37130.51
566.477	37325.3
566.839	37380.44
567.201	37623.83
567.563	37715.35
567.925	37836.02
568.287	37933.88
568.648	38094.32
569.01	38147.66
569.372	38464.71
569.734	38350.59
570.095	38629.22
570.457	38934.08
570.819	39042.32
571.18	39111.02
571.542	39289.55
571.903	39402.76
572.265	39491.35
572.626	39553.49
572.987	39680.72
573.349	39822.64
573.71	39910.77
574.071	40011.33
574.432	39925.01
574.794	40212.01
575.155	40238.9
575.516	40214.72
575.877	40526.58
576.238	40569.06
576.599	40668.27
576.96	40749.62
577.32	40692.22
577.681	41032.33
578.042	41070.06
578.403	41233.22
578.763	41155.03
579.124	41165.2
579.485	41429.38
579.845	41418.53
580.206	41376.04
580.566	41407
580.927	41484.29
581.287	41657.39
581.648	41529.26
582.008	41702.36
582.368	41565.87
582.728	41666.21
583.089	41653.55
583.449	41709.37
583.809	41708.47
584.169	41743.04
584.529	41767
584.889	42000.66
585.249	41810.38
585.609	41657.17
585.969	42011.28
586.329	41884.28
586.688	41982.13
587.048	42078.4
587.408	41925.41
587.768	41920.44
588.127	41844.28
588.487	41879.99
588.846	42129.47
589.206	41851.51
589.565	41984.39
589.925	42058.51
590.284	41969.93
590.643	42145.97
591.003	42284.72
591.362	42275
591.721	42124.5
592.08	42074.56
592.44	42423.7
592.799	42394.32
593.158	42472.29
593.517	42189.36
593.876	42352.29
594.235	42279.98
594.593	42398.62
594.952	42457.6
595.311	42169.47
595.67	42397.94
596.029	42522.46
596.387	42673.64
596.746	42598.61
597.104	42661.21
597.463	42580.31
597.822	42898.94
598.18	42523.36
598.538	42566.07
598.897	42869.79
599.255	42390.03
599.613	42990.01
599.972	42885.84
600.33	42968.09
600.688	42700.53
601.046	42959.05
601.404	43143.68
601.762	42948.66
602.12	43158.6
602.478	43284.92
602.836	43211.7
603.194	42993.18
603.552	43076.79
603.91	42892.39
604.268	43252.61
604.625	43100.97
604.983	43326.95
605.341	43363.34
605.698	43464.13
606.056	43561.07
606.413	43471.81
606.771	43654.4
607.128	43674.97
607.485	43409.66
607.843	43581.18
608.2	43663.67
608.557	43845.58
608.914	43544.35
609.272	43940.05
609.629	44010.33
609.986	44004.68
610.343	43885.81
610.7	44165.8
611.057	44084.9
611.414	44006.03
611.771	44144.33
612.127	44386.81
612.484	44328.74
612.841	44209.42
613.198	44322.63
613.554	44259.13
613.911	44524.66
614.267	44458.22
614.624	44421.61
614.98	44610.54
615.337	44846.69
615.693	44682.4
616.05	44626.81
616.406	44930.3
616.762	44608.95
617.118	44774.37
617.475	44719.23
617.831	44858.89
618.187	44927.82
618.543	44918.32
618.899	45111.09
619.255	44927.82
619.611	44979.11
619.967	45247.81
620.323	45186.34
620.678	45189.5
621.034	44975.72
621.39	45020.02
621.746	45074.93
622.101	45494.58
622.457	45189.28
622.812	45146.57
623.168	45257.98
623.523	45277.64
623.879	45449.38
624.234	45160.58
624.589	45312.66
624.945	45366.9
625.3	45240.58
625.655	45173.69
626.01	45212.33
626.365	45235.38
626.72	45357.64
627.075	45360.35
627.43	45274.7
627.785	45163.06
628.14	45199.45
628.495	45159.45
628.85	45229.28
629.205	45008.72
629.559	45289.61
629.914	44919.23
630.269	45121.03
630.623	44785.22
630.978	44875.16
631.332	44960.58
631.687	45128.94
632.041	44876.97
632.396	44881.04
632.75	44678.1
633.104	44783.64
633.459	44421.84
633.813	44530.54
634.167	44616.19
634.521	44641.72
634.875	44613.93
635.229	44572.57
635.583	44192.24
635.937	44337.55
636.291	44278.79
636.645	44231.56
636.999	44253.03
637.352	44253.03
637.706	44095.3
638.06	44156.54
638.413	44206.03
638.767	43995.19
639.121	43940.27
639.474	43792.7
639.828	43847.62
640.181	43858.92
640.534	43899.37
640.888	43880.84
641.241	43516.78
641.594	43690.56
641.947	43733.95
642.301	43699.15
642.654	43653.95
643.007	43551.35
643.36	43534.18
643.713	43558.13
644.066	43458.48
644.419	43331.93
644.771	43052.61
645.124	42517.48
645.477	42535.79
645.83	42234.33
646.182	42156.82
646.535	42060.77
646.888	42127.21
647.24	41936.48
647.593	42315.23
647.945	42140.54
648.298	42069.59
648.65	41828.46
649.002	41707.11
649.355	41854.9
649.707	41766.32
650.059	41830.27
650.411	42395
650.763	42431.16
651.115	42869.56
651.467	42687.42
651.819	42526.75
652.171	42363.14
652.523	42244.27
652.875	42469.12
653.227	42256.93
653.578	42496.92
653.93	42276.13
654.282	42193.88
654.633	42055.12
654.985	42160.66
655.337	42292.86
655.688	42189.13
656.039	42316.13
656.391	41825.98
656.742	41998.63
657.094	41935.8
657.445	42058.96
657.796	42095.57
658.147	41812.87
658.498	41840.89
658.849	41877.27
659.2	41810.16
659.551	41738.97
659.902	41844.28
660.253	41696.04
660.604	41920.66
660.955	41683.16
661.306	41660.56
661.656	41702.59
662.007	41585.3
662.358	41597.51
662.708	41625.08
663.059	41562.48
663.409	41215.6
663.76	41366.33
664.11	41470.73
664.461	41447.91
664.811	41460.56
665.161	41423.95
665.511	41443.84
665.862	41454.46
666.212	41547.34
666.562	41647
666.912	41554.8
667.262	41474.12
667.612	41584.17
667.962	41554.57
668.312	41310.74
668.662	41571.75
669.011	41485.87
669.361	41351.19
669.711	41295.14
670.06	41169.04
670.41	41169.5
670.76	41043.85
671.109	41370.85
671.459	41199.33
671.808	41200
672.157	41280.45
672.507	40881.59
672.856	41006.34
673.205	41026.45
673.554	41040.69
673.904	40803.63
674.253	41024.42
674.602	40914.36
674.951	40446.13
675.3	40231.44
675.649	40897.87
675.998	40829.17
676.346	40633.47
676.695	40836.62
677.044	40616.74
677.393	40752.56
677.741	40859.22
678.09	40654.93
678.438	40535.61
678.787	40642.5
679.135	40760.69
679.484	40289.97
679.832	40528.84
680.181	40418.56
680.529	40385.79
680.877	40300.14
681.225	40070.09
681.573	40295.85
681.922	40154.83
682.27	40004.78
682.618	40000.04
682.966	39981.73
683.314	40097.43
683.661	39819.02
684.009	39762.53
684.357	39602.53
684.705	39394.85
685.053	39592.14
685.4	39614.96
685.748	39498.13
686.095	39406.61
686.443	39235.54
686.79	39182.43
687.138	39071.92
687.485	39152.83
687.832	39129.1
688.18	39061.3
688.527	38974.07
688.874	38796
689.221	38767.98
689.568	38588.32
689.915	38592.84
690.262	38673.74
690.609	38495.44
690.956	38452.51
691.303	38281.44
691.65	37971.16
691.997	38259.52
692.344	37906.76
692.69	37954.89
693.037	38073.98
693.383	37703.83
693.73	37717.38
694.077	37561.91
694.423	37655.01
694.769	37485.07
695.116	37467.67
695.462	37407.56
695.808	37078.3
696.155	37246.44
696.501	36852.1
696.847	36773
697.193	36650.29
697.539	36922.83
697.885	36518.32
698.231	36462.73
698.577	36532.78
698.923	36324.2
699.269	36133.92
699.614	35960.82
699.96	35890.31
700.306	36010.08
700.651	35955.17
700.997	35846.02
701.342	35719.7
701.688	35615.07
702.033	35557.67
702.379	35435.18
702.724	35343.21
703.069	35448.52
703.415	35004.01
703.76	35002.43
704.105	34975.99
704.45	34804.01
704.795	34688.54
705.14	34572.61
705.485	34595.21
705.83	34384.36
706.175	34455.32
706.52	34327.64
706.865	34376
707.209	34267.53
707.554	34222.56
707.899	34239.74
708.243	34031.61
708.588	33879.97
708.932	33686.76
709.277	33711.61
709.621	33738.51
709.966	33480.66
710.31	33578.28
710.654	33270.95
710.998	33599.3
711.342	33509.36
711.687	33321.12
712.031	33070.73
712.375	32955.48
712.719	33013.78
713.063	32965.64
713.407	33057.85
713.75	32855.14
714.094	32887.45
714.438	32639.55
714.782	32728.59
715.125	32619.21
715.469	32870.05
715.812	32495.15
716.156	32407.02
716.499	32278.43
716.843	32326.11
717.186	32090.64
717.53	32273.69
717.873	32166.57
718.216	32103.52
718.559	32110.75
718.902	31953.92
719.246	32029.17
719.589	31903.3
719.932	31779.01
720.275	31589.41
720.617	31615.4
720.96	31683.64
721.303	31559.13
721.646	31596.64
721.989	31296.76
722.331	31505.34
722.674	31354.61
723.016	31451.11
723.359	31247.05
723.701	31274.16
724.044	31059.25
724.386	30840.95
724.729	31000.5
725.071	31031.01
725.413	30920.5
725.755	30867.39
726.097	30780.62
726.439	30577.68
726.782	30677.57
727.124	30740.62
727.465	30533.62
727.807	30528.65
728.149	30440.51
728.491	30544.47
728.833	30497.91
729.175	30462.43
729.516	30328.88
729.858	30200.07
730.199	30159.62
730.541	30115.32
730.882	30220.63
731.224	30234.87
731.565	30002.11
731.906	30141.54
732.248	30004.14
732.589	29812.51
732.93	29787.87
733.271	29793.52
733.612	29849.34
733.953	29897.48
734.294	29631.95
734.635	29746.97
734.976	29691.38
735.317	29641.66
735.658	29499.07
735.999	29621.55
736.339	29386.08
736.68	29446.42
737.021	29382.46
737.361	29194.44
737.702	29442.57
738.042	29256.59
738.383	29131.4
738.723	29317.6
739.063	29074.45
739.404	29063.37
739.744	28993.55
740.084	29024.28
740.424	28897.73
740.764	29024.96
741.104	28958.74
741.444	28802.82
741.784	28709.26
742.124	28700.67
742.464	28761.01
742.804	28668.58
743.143	28536.61
743.483	28560.56
743.823	28501.36
744.162	28478.3
744.502	28406.22
744.841	28263.85
745.181	28402.37
745.52	28158.77
745.86	28326.9
746.199	28080.58
746.538	28075.38
746.877	28184.08
747.216	27989.05
747.556	27885.55
747.895	28129.84
748.234	27860.02
748.573	27776.63
748.911	27861.6
749.25	27746.57
749.589	27638.78
749.928	27641.72
750.267	27712.9
750.605	27652.34
750.944	27571.21
751.283	27354.04
751.621	27396.53
751.96	27317.66
752.298	27292.8
752.636	27224.33
752.975	27113.82
753.313	27003.99
753.651	27150.66
753.989	26919.02
754.327	26826.14
754.666	26786.15
755.004	26897.1
755.342	26781.4
755.679	26750.44
756.017	26640.84
756.355	26699.37
756.693	26522.42
757.031	26549.99
757.368	26370.34
757.706	26336.44
758.044	26281.53
758.381	26400.39
758.719	26288.31
759.056	26239.04
759.394	26095.32
759.731	26003.79
760.068	25895.1
760.405	25738.72
760.743	25834.53
761.08	25744.14
761.417	25499.17
761.754	25541.88
762.091	25515.67
762.428	25365.17
762.765	25244.72
763.102	25234.77
763.438	25138.96
763.775	25084.5
764.112	24870.26
764.449	24901.68
764.785	24776.03
765.122	24595.92
765.458	24733.54
765.795	24541.23
766.131	24634.34
766.467	24444.74
766.804	24305.99
767.14	24183.73
767.476	24256.72
767.812	24093.11
768.148	24193.22
768.485	23977.86
768.821	23884.75
769.157	23932.44
769.492	23804.08
769.828	23746.68
770.164	23551.88
770.5	23484.09
770.836	23486.35
771.171	23273.02
771.507	23255.39
771.842	23091.55
772.178	23121.16
772.513	22998.45
772.849	22860.15
773.184	22786.7
773.519	22784.22
773.855	22712.35
774.19	22555.3
774.525	22530.66
774.86	22479.59
775.195	22357.56
775.53	22338.58
775.865	22284.8
776.2	22051.13
776.535	21938.59
776.87	21900.4
777.205	21805.49
777.539	21781.76
777.874	21901.08
778.209	21501.09
778.543	21538.15
778.878	21454.53
779.212	21486.4
779.547	21355.55
779.881	21367.08
780.215	21245.73
780.55	21219.51
780.884	21027.43
781.218	21045.51
781.552	21007.99
781.886	20744.5
782.22	20741.79
782.554	20626.76
782.888	20396.03
783.222	20512.19
783.556	20414.56
783.889	20330.95
784.223	20143.16
784.557	20116.04
784.89	20148.81
785.224	20029.26
785.557	19945.2
785.891	19874.46
786.224	19805.76
786.558	19814.13
786.891	19628.14
787.224	19564.64
787.557	19534.81
787.891	19596.5
788.224	19406.9
788.557	19441.48
788.89	19343.86
789.223	19257.08
789.556	19101.6
789.888	19099.57
790.221	19045.11
790.554	18912.68
790.887	18930.08
791.219	18831.33
791.552	18683.76
791.884	18633.14
792.217	18603.08
792.549	18592.69
792.882	18451.68
793.214	18430.89
793.546	18370.55
793.879	18325.58
794.211	18161.51
794.543	18219.14
794.875	18128.07
795.207	18085.13
795.539	18002.87
795.871	17923.1
796.203	17886.27
796.535	17825.48
796.867	17838.36
797.198	17685.37
797.53	17665.26
797.862	17499.38
798.193	17546.84
798.525	17421.65
798.856	17439.5
799.188	17475.88
799.519	17272.95
799.85	17111.82
800.182	17105.95
800.513	17187.98
800.844	17028.66
801.175	17103.46
801.506	17100.3
801.837	16972.84
802.168	16815.11
802.499	16792.51
802.83	16686.98
803.161	16676.13
803.491	16726.07
803.822	16690.59
804.153	16517.04
804.483	16368.34
804.814	16413.54
805.145	16432.75
805.475	16417.15
805.805	16387.1
806.136	16328.12
806.466	16326.99
806.796	16249.25
807.126	16208.57
807.457	16053.77
807.787	16020.55
808.117	16003.83
808.447	15882.93
808.777	15880.44
809.107	15801.12
809.436	15770.62
809.766	15920.67
810.096	15733.33
810.426	15667.79
810.755	15627.8
811.085	15545.09
811.414	15596.61
811.744	15436.84
812.073	15333.11
812.403	15399.78
812.732	15311.87
813.061	15305.32
813.39	15271.42
813.719	15226.68
814.049	15174.93
814.378	15136.73
814.707	15161.14
815.036	15102.61
815.365	14995.04
815.693	15051.54
816.022	14953.91
816.351	14899.45
816.68	14704.2
817.008	14829.17
817.337	14682.74
817.665	14639.12
817.994	14713.47
818.322	14701.94
818.651	14656.75
818.979	14551.89
819.307	14680.02
819.636	14569.52
819.964	14532.46
820.292	14404.1
820.62	14410.2
820.948	14362.52
821.276	14463.76
821.604	14352.35
821.932	14477.09
822.259	14468.96
822.587	14451.1
822.915	14326.81
823.243	14427.37
823.57	14404.1
823.898	14328.17
824.225	14331.56
824.553	14348.51
824.88	14319.36
825.207	14334.27
825.535	14262.63
825.862	14379.92
826.189	14289.3
826.516	14409.52
826.843	14477.09
827.17	14426.02
827.497	14408.17
827.824	14408.17
828.151	14426.47
828.478	14350.09
828.805	14417.88
829.131	14300.6
829.458	14247.72
829.785	14132.02
830.111	14299.24
830.438	14400.71
830.764	14335.17
831.09	14346.47
831.417	14167.95
831.743	14231.22
832.069	14188.06
832.395	14146.7
832.722	14158.46
833.048	14240.26
833.374	14221.96
833.7	14141.28
834.026	14163.43
834.351	14192.13
834.677	14143.54
835.003	14130.21
835.329	14092.02
835.654	14150.55
835.98	13956.2
836.306	14027.61
836.631	13961.17
836.956	14051.57
837.282	14059.47
837.607	13967.05
837.932	13901.06
838.258	13872.59
838.583	13980.83
838.908	13830.78
839.233	13822.87
839.558	13836.66
839.883	13710.56
840.208	13703.55
840.533	13741.97
840.858	13766.6
841.182	13716.89
841.507	13747.17
841.832	13620.62
842.156	13653.38
842.481	13607.74
842.805	13504.69
843.13	13478.25
843.454	13398.93
843.778	13429.44
844.103	13376.1
844.427	13395.76
844.751	13419.94
845.075	13387.85
845.399	13270.12
845.723	13232.15
846.047	13213.62
846.371	13150.12
846.695	13054.3
847.019	12920.07
847.343	12841.88
847.666	12897.7
847.99	12836.46
848.313	12826.74
848.637	12712.84
848.96	12731.15
849.284	12648.66
849.607	12591.26
849.931	12537.48
850.254	12501.32
850.577	12500.65
850.9	12293.42
851.223	12300.43
851.546	12223.14
851.869	12206.87
852.192	12269.69
852.515	12158.06
852.838	12019.53
853.161	12050.71
853.483	11960.77
853.806	11919.19
854.129	11974.33
854.451	11901.79
854.774	11862.24
855.096	11813.66
855.419	11831.06
855.741	11772.08
856.063	11730.04
856.385	11667.22
856.708	11640.1
857.03	11537.28
857.352	11580.44
857.674	11501.58
857.996	11504.97
858.318	11421.58
858.64	11425.42
858.961	11416.61
859.283	11318.76
859.605	11289.83
859.926	11344.29
860.248	11229.49
860.57	11243.5
860.891	11214.35
861.212	11189.49
861.534	11076.28
861.855	11175.03
862.176	11135.94
862.498	11170.29
862.819	11106.56
863.14	11052.1
863.461	11037.86
863.782	11004.64
864.103	10991.76
864.424	10912.89
864.745	10942.49
865.065	10881.93
865.386	10815.49
865.707	10858.88
866.027	10890.07
866.348	10873.34
866.668	10909.73
866.989	10842.38
867.309	10814.59
867.63	10771.2
867.95	10696.17
868.27	10661.37
868.59	10696.4
868.91	10720.35
869.23	10650.98
869.55	10601.49
869.87	10696.63
870.19	10658.66
870.51	10626.34
870.83	10549.74
871.15	10439.91
871.469	10481.94
871.789	10546.12
872.109	10483.98
872.428	10352.68
872.748	10472.22
873.067	10434.26
873.386	10462.73
873.706	10454.37
874.025	10365.79
874.344	10342.96
874.663	10357.65
874.982	10293.02
875.301	10299.57
875.62	10239.24
875.939	10199.92
876.258	10251.21
876.577	10159.46
876.896	10255.96
877.214	10173.02
877.533	10163.98
877.852	10132.35
878.17	10125.12
878.489	10085.57
878.807	10088.05
879.125	10050.31
879.444	10152.23
879.762	10001.05
880.08	10104.78
880.398	9954.95
880.716	10019.13
881.034	9959.47
881.352	9975.51
881.67	9904.56
881.988	9957.44
882.306	9948.85
882.624	9846.7
882.941	9770.77
883.259	9792.92
883.577	9789.08
883.894	9805.12
884.212	9795.18
884.529	9726.48
884.846	9731.23
885.164	9722.87
885.481	9673.38
885.798	9742.3
886.115	9567.62
886.432	9582.98
886.75	9528.75
887.067	9572.14
887.383	9538.69
887.7	9509.99
888.017	9509.76
888.334	9477.22
888.651	9475.87
888.967	9442.87
889.284	9379.37
889.6	9381.63
889.917	9315.64
890.233	9317.9
890.55	9323.55
890.866	9280.39
891.182	9235.2
891.498	9204.69
891.815	9146.84
892.131	9078.36
892.447	9112.03
892.763	9093.5
893.079	9077.23
893.395	9055.31
893.71	9019.38
894.026	9009.66
894.342	8953.62
894.657	8868.88
894.973	8870.91
895.289	8910.68
895.604	8901.87
895.92	8839.27
896.235	8723.8
896.55	8716.56
896.865	8679.05
897.181	8761.08
897.496	8716.11
897.811	8682.44
898.126	8580.75
898.441	8578.04
898.756	8619.39
899.071	8520.19
899.386	8529.68
899.7	8427.98
900.015	8433.63
900.33	8373.97
900.644	8370.58
900.959	8392.96
901.273	8374.2
901.588	8286.97
901.902	8250.81
902.216	8239.97
902.531	8261.66
902.845	8108.9
903.159	8112.74
903.473	8093.98
903.787	7980.31
904.101	7968.56
904.415	7997.71
904.729	7903.93
905.042	7900.99
905.356	7934.21
905.67	7943.25
905.984	7905.96
906.297	7908.68
906.611	7828
906.924	7785.52
907.237	7786.87
907.551	7764.05
907.864	7680.89
908.177	7690.6
908.491	7636.14
908.804	7653.54
909.117	7547.1
909.43	7554.79
909.743	7525.86
910.056	7496.26
910.368	7477.5
910.681	7412.64
910.994	7335.13
911.307	7370.39
911.619	7284.96
911.932	7288.81
912.244	7268.47
912.557	7224.4
912.869	7183.72
913.181	7178.07
913.494	7201.35
913.806	7125.65
914.118	7061.01
914.43	7024.41
914.742	7028.47
915.054	6958.19
915.366	6959.1
915.678	6874.35
915.99	6936.27
916.302	6860.57
916.613	6817.41
916.925	6894.24
917.236	6780.57
917.548	6763.17
917.859	6811.08
918.171	6682.95
918.482	6706.22
918.794	6683.62
919.105	6642.95
919.416	6622.83
919.727	6570.18
920.038	6548.71
920.349	6484.08
920.66	6499.67
920.971	6480.01
921.282	6415.61
921.593	6429.85
921.903	6350.07
922.214	6314.37
922.525	6334.93
922.835	6291.32
923.146	6253.13
923.456	6290.64
923.767	6248.15
924.077	6181.72
924.387	6185.78
924.697	6147.82
925.008	6043.87
925.318	6056.52
925.628	6086.8
925.938	6017.43
926.248	6013.36
926.558	6028.95
926.867	5941.95
927.177	5918.22
927.487	5899.69
927.796	5869.86
928.106	5817.21
928.416	5798.68
928.725	5861.5
929.034	5769.07
929.344	5748.28
929.653	5701.28
929.962	5671.67
930.271	5675.06
930.581	5618.34
930.89	5626.25
931.199	5581.96
931.508	5542.64
931.817	5573.37
932.125	5490.21
932.434	5492.92
932.743	5418.12
933.051	5490.43
933.36	5468.06
933.669	5421.96
933.977	5370.21
934.286	5364.56
934.594	5334.96
934.902	5304.22
935.21	5297.9
935.519	5343.09
935.827	5282.53
936.135	5268.97
936.443	5200.27
936.751	5188.52
937.059	5174.28
937.367	5112.14
937.674	5128.86
937.982	5120.5
938.29	5133.83
938.597	5113.27
938.905	5044.57
939.213	5020.16
939.52	4991.01
939.827	5055.19
940.135	4975.87
940.442	4906.95
940.749	4942.88
941.056	4932.48
941.363	4846.84
941.67	4878.25
941.977	4802.09
942.284	4769.32
942.591	4753.05
942.898	4713.73
943.205	4774.3
943.511	4735.43
943.818	4694.07
944.125	4660.4
944.431	4653.17
944.738	4636.45
945.044	4616.56
945.35	4609.55
945.657	4584.02
945.963	4525.94
946.269	4539.5
946.575	4525.94
946.881	4508.09
947.187	4496.34
947.493	4438.71
947.799	4441.65
948.105	4442.55
948.41	4404.14
948.716	4372.27
949.022	4404.36
949.327	4339.96
949.633	4288.66
949.938	4320.07
950.244	4316.45
950.549	4288.66
950.854	4263.12
951.16	4215.21
951.465	4260.64
951.77	4252.73
952.075	4184.25
952.38	4192.62
952.685	4167.98
952.99	4154.2
953.294	4080.3
953.599	4100.19
953.904	4029.68
954.209	4043.92
954.513	4002.34
954.818	4018.16
955.122	4060.42
955.426	3993.98
955.731	3965.5
956.035	3949.46
956.339	3935.9
956.643	3949.23
956.948	3869.91
957.252	3867.2
957.556	3878.95
957.86	3855.9
958.163	3878.5
958.467	3869.46
958.771	3784.72
959.075	3795.56
959.378	3781.55
959.682	3766.64
959.985	3744.94
960.289	3671.05
960.592	3684.38
960.896	3682.57
961.199	3694.78
961.502	3643.7
961.805	3650.03
962.108	3642.8
962.411	3566.87
962.714	3565.51
963.017	3602.12
963.32	3556.25
963.623	3494.78
963.926	3539.53
964.228	3552.86
964.531	3496.59
964.833	3532.29
965.136	3478.96
965.438	3454.78
965.741	3423.6
966.043	3459.3
966.345	3450.49
966.648	3429.25
966.95	3394.22
967.252	3352.86
967.554	3390.83
967.856	3359.87
968.158	3320.77
968.46	3336.14
968.761	3281.45
969.063	3289.14
969.365	3280.1
969.666	3286.42
969.968	3249.14
970.269	3255.47
970.571	3196.71
970.872	3215.24
971.174	3172.98
971.475	3193.77
971.776	3147.9
972.077	3157.84
972.378	3147.45
972.679	3136.6
972.98	3084.17
973.281	3091.85
973.582	3100.67
973.883	3050.5
974.183	3014.34
974.484	3041.46
974.785	2997.17
975.085	3021.12
975.386	3021.35
975.686	3001.69
975.986	2965.53
976.287	2956.94
976.587	2946.77
976.887	2914.68
977.187	2946.77
977.487	2928.92
977.787	2872.65
978.087	2881.24
978.387	2885.08
978.687	2850.05
978.987	2867.23
979.286	2823.61
979.586	2812.31
979.885	2801.47
980.185	2792.2
980.484	2787.23
980.784	2766.89
981.083	2767.12
981.382	2738.19
981.682	2740.9
981.981	2724.41
982.28	2723.28
982.579	2674.92
982.878	2692.77
983.177	2678.31
983.475	2657.51
983.774	2652.09
984.073	2630.85
984.372	2642.83
984.67	2589.95
984.969	2617.97
985.267	2584.97
985.566	2619.78
985.864	2554.69
986.162	2553.11
986.461	2535.48
986.759	2539.1
987.057	2515.15
987.355	2548.14
987.653	2516.05
987.951	2483.06
988.249	2474.92
988.547	2492.1
988.844	2455.71
989.142	2467.01
989.44	2435.83
989.737	2418.43
990.035	2442.83
990.332	2443.06
990.63	2389.73
990.927	2384.53
991.224	2376.84
991.521	2401.7
991.819	2338.2
992.116	2343.62
992.413	2288.49
992.71	2302.72
993.006	2313.12
993.303	2300.91
993.6	2293.46
993.897	2305.21
994.193	2268.6
994.49	2257.75
994.787	2262.72
995.083	2236.51
995.379	2215.04
995.676	2223.63
995.972	2182.05
996.268	2182.5
996.565	2149.96
996.861	2181.37
997.157	2168.94
997.453	2160.58
997.749	2144.08
998.044	2114.7
998.34	2107.02
998.636	2087.13
998.932	2069.06
999.227	2096.17
999.523	2098.43
999.818	2029.73
1000.114	2037.87
1000.409	2023.86
1000.704	2021.15
1001	2030.41
1001.295	1959
1001.59	2008.72
1001.885	1990.87
1002.18	1972.79
1002.475	1966.01
1002.77	1956.29
1003.065	1942.73
1003.359	1945.67
1003.654	1909.74
1003.949	1929.85
1004.243	1919
1004.538	1878.55
1004.832	1880.59
1005.127	1888.95
1005.421	1861.83
1005.715	1857.31
1006.009	1881.26
1006.304	1841.49
1006.598	1844.65
1006.892	1812.57
1007.186	1805.33
1007.48	1795.16
1007.773	1797.88
1008.067	1784.77
1008.361	1747.26
1008.655	1727.82
1008.948	1755.84
1009.242	1740.48
1009.535	1754.49
1009.829	1734.83
1010.122	1679.69
1010.415	1700.25
1010.708	1662.06
1011.001	1677.43
1011.295	1652.57
1011.588	1638.78
1011.881	1678.78
1012.173	1627.03
1012.466	1641.72
1012.759	1608.28
1013.052	1634.04
1013.344	1596.98
1013.637	1598.33
1013.93	1551.56
1014.222	1604.44
1014.514	1541.16
1014.807	1558.11
1015.099	1572.12
1015.391	1536.41
1015.683	1522.86
1015.976	1519.24
1016.268	1512.23
1016.56	1489.64
1016.851	1483.99
1017.143	1500.26
1017.435	1469.98
1017.727	1479.69
1018.018	1452.12
1018.31	1441.05
1018.602	1409.19
1018.893	1433.59
1019.185	1432.46
1019.476	1410.09
1019.767	1408.06
1020.058	1399.92
1020.35	1363.54
1020.641	1344.1
1020.932	1377.55
1021.223	1355.4
1021.514	1336.87
1021.804	1340.94
1022.095	1358.79
1022.386	1334.39
1022.677	1335.06
1022.967	1284.44
1023.258	1306.36
1023.548	1280.38
1023.839	1292.58
1024.129	1284.44
1024.419	1279.92
1024.709	1214.61
1025	1258.91
1025.29	1235.41
1025.58	1247.61
1025.87	1231.79
1026.16	1211.68
1026.449	1186.59
1026.739	1219.13
1027.029	1193.15
1027.319	1195.41
1027.608	1180.27
1027.898	1175.75
1028.187	1173.49
1028.477	1169.64
1028.766	1136.2
1029.055	1141.85
1029.344	1125.8
1029.634	1112.92
1029.923	1120.15
1030.212	1093.04
1030.501	1105.47
1030.79	1107.5
1031.078	1086.93
1031.367	1071.57
1031.656	1097.33
1031.945	1079.93
1032.233	1055.07
1032.522	1062.08
1032.81	1030.21
1033.099	1044.68
1033.387	1054.62
1033.675	1038.57
1033.963	1021.17
1034.251	1029.99
1034.54	1015.07
1034.828	1008.29
1035.116	982.98
1035.403	977.79
1035.691	998.12
1035.979	977.11
1036.267	976.43
1036.554	950.44
1036.842	957.67
1037.129	953.83
1037.417	946.37
1037.704	932.59
1037.992	929.65
1038.279	934.17
1038.566	931.46
1038.853	931.46
1039.14	931.46
