Data from plate_ceramic_FLMS001491_087.txt Node
Date: Tue Feb 07 11:17:25 GMT 2017
User: dcchb
Spectrometer: FLMS00149
Trigger mode: 0
Integration Time (sec): 2.000000E-2
Scans to average: 10
Electric dark correction enabled: true
Nonlinearity correction enabled: false
Boxcar width: 0
XAxis mode: Wavelengths
Number of Pixels in Spectrum: 2048
>>>>>Begin Spectral Data<<<<<
341.393	-15.61
341.776	-15.61
342.16	-15.61
342.543	-67.58
342.927	-63.97
343.31	-56.96
343.693	-79.11
344.077	-61.26
344.46	-53.57
344.843	-56.28
345.226	-47.7
345.61	-30.07
345.993	-27.81
346.376	-3.63
346.759	1.34
347.142	36.14
347.525	45.41
347.908	55.35
348.291	72.07
348.674	99.64
349.057	106.42
349.44	132.86
349.823	157.04
350.206	166.31
350.588	194.11
350.971	216.03
351.354	223.71
351.737	266.42
352.119	251.05
352.502	270.26
352.884	286.31
353.267	313.42
353.65	291.05
354.032	298.28
354.414	328.11
354.797	336.02
355.179	341.9
355.562	329.69
355.944	335.57
356.326	356.36
356.709	332.41
357.091	345.74
357.473	334.89
357.855	368.56
358.238	358.85
358.62	336.47
359.002	364.5
359.384	377.6
359.766	366.98
360.148	371.5
360.53	377.6
360.912	357.94
361.294	366.98
361.676	355.68
362.057	359.3
362.439	373.54
362.821	376.25
363.203	348.68
363.584	361.78
363.966	360.43
364.348	360.65
364.729	360.65
365.111	355.68
365.493	337.38
365.874	324.27
366.256	358.85
366.637	359.3
367.019	356.36
367.4	355.68
367.781	355.46
368.163	357.72
368.544	367.21
368.925	348.9
369.306	360.2
369.688	351.16
370.069	341.45
370.45	375.12
370.831	353.65
371.212	369.47
371.593	360.88
371.974	355.68
372.355	363.82
372.736	369.47
373.117	372.63
373.498	359.07
373.879	375.34
374.26	355
374.641	370.15
375.021	349.58
375.402	394.55
375.783	382.35
376.163	390.26
376.544	383.25
376.925	384.38
377.305	396.13
377.686	387.09
378.066	384.83
378.447	389.81
378.827	391.84
379.208	399.75
379.588	422.12
379.968	403.37
380.349	413.76
380.729	416.92
381.109	421.67
381.489	393.87
381.87	425.06
382.25	417.15
382.63	402.24
383.01	408.34
383.39	423.03
383.77	437.71
384.15	422.12
384.53	450.14
384.91	430.71
385.29	459.41
385.67	437.04
386.049	442.69
386.429	445.62
386.809	456.92
387.189	456.7
387.568	456.92
387.948	493.31
388.328	468.45
388.707	457.83
389.087	486.07
389.466	475.68
389.846	470.03
390.225	485.4
390.605	504.83
390.984	494.66
391.363	498.5
391.743	516.58
392.122	511.38
392.501	524.94
392.881	527.88
393.26	534.89
393.639	522.23
394.018	536.02
394.397	543.93
394.776	545.73
395.155	533.31
395.534	548.22
395.913	546.86
396.292	574.66
396.671	587.09
397.05	568.56
397.429	568.11
397.808	565.39
398.186	577.6
398.565	583.25
398.944	593.19
399.323	576.92
399.701	614.21
400.08	613.76
400.458	615.11
400.837	616.69
401.215	630.48
401.594	638.16
401.972	635
402.351	636.81
402.729	666.64
403.107	650.82
403.486	680.65
403.864	672.28
404.242	655.56
404.62	674.09
404.999	700.08
405.377	667.54
405.755	688.1
406.133	703.24
406.511	714.09
406.889	739.63
407.267	730.14
407.645	736.01
408.023	725.62
408.401	763.13
408.779	745.05
409.156	756.8
409.534	774.65
409.912	786.41
410.29	801.55
410.667	791.38
411.045	809.91
411.422	842
411.8	834.31
412.178	853.97
412.555	862.56
412.933	873.41
413.31	865.73
413.687	880.64
414.065	893.07
414.442	908.89
414.819	933.75
415.197	951.37
415.574	950.24
415.951	937.14
416.328	923.35
416.705	964.03
417.082	953.18
417.46	985.72
417.837	1007.19
418.214	1004.93
418.591	1015.55
418.967	1003.35
419.344	1026.85
419.721	1023.46
420.098	1035.89
420.475	1056.46
420.852	1066.4
421.228	1067.75
421.605	1113.63
421.982	1105.95
422.358	1134.19
422.735	1118.83
423.111	1117.02
423.488	1166.96
423.864	1144.59
424.241	1184.36
424.617	1187.3
424.994	1183.01
425.37	1191.14
425.746	1200.41
426.123	1231.82
426.499	1233.63
426.875	1234.3
427.251	1281.99
427.627	1297.8
428.003	1297.8
428.379	1328.31
428.756	1339.84
429.132	1363.11
429.507	1355.2
429.883	1363.34
430.259	1421.64
430.635	1405.6
431.011	1431.59
431.387	1466.84
431.763	1488.53
432.138	1514.97
432.514	1510.91
432.89	1524.47
433.265	1553.84
433.641	1571.02
434.016	1589.1
434.392	1617.57
434.767	1645.14
435.143	1613.05
435.518	1659.15
435.894	1684.01
436.269	1709.55
436.644	1712.71
437.02	1715.65
437.395	1764.69
437.77	1762.88
438.145	1804.68
438.52	1813.05
438.895	1844.23
439.271	1809.66
439.646	1867.06
440.021	1872.25
440.395	1907.96
440.77	1902.53
441.145	1905.25
441.52	1935.75
441.895	1903.21
442.27	1928.52
442.645	1968.3
443.019	1960.16
443.394	2004.45
443.769	2035.64
444.143	1982.31
444.518	2037.22
444.892	2020.05
445.267	2081.29
445.641	2067.73
446.016	2083.55
446.39	2115.64
446.764	2134.62
447.139	2169.42
447.513	2106.6
447.887	2171
448.262	2182.98
448.636	2172.36
449.01	2206.26
449.384	2250.32
449.758	2257.33
450.132	2277.21
450.506	2262.3
450.88	2303.2
451.254	2315.86
451.628	2338.46
452.002	2369.19
452.376	2386.36
452.75	2406.93
453.123	2408.28
453.497	2465.01
453.871	2488.28
454.244	2522.18
454.618	2525.12
454.992	2551.78
455.365	2592.91
455.739	2653.93
456.112	2652.35
456.486	2717.65
456.859	2724.21
457.232	2791.32
457.606	2778.22
457.979	2807.6
458.352	2855.05
458.725	2916.75
459.099	2922.62
459.472	2994.94
459.845	3010.75
460.218	3022.28
460.591	3026.8
460.964	3077.19
461.337	3175.72
461.71	3166
462.083	3262.27
462.456	3246
462.829	3242.84
463.201	3364.19
463.574	3403.96
463.947	3367.58
464.32	3508.82
464.692	3508.14
465.065	3523.28
465.438	3558.99
465.81	3598.99
466.183	3690.51
466.555	3721.02
466.928	3727.12
467.3	3785.42
467.672	3865.42
468.045	3942.48
468.417	3996.04
468.789	4009.15
469.161	4012.54
469.534	4106.77
469.906	4161.23
470.278	4236.03
470.65	4253.66
471.022	4370.04
471.394	4392.41
471.766	4440.77
472.138	4508.79
472.51	4583.82
472.882	4672.18
473.253	4728.68
473.625	4803.02
473.997	4914.21
474.369	4882.12
474.74	4995.33
475.112	5128.21
475.484	5156.46
475.855	5257.02
476.227	5312.61
476.598	5414.08
476.97	5445.27
477.341	5566.85
477.713	5681.19
478.084	5782.66
478.455	5883
478.827	5960.51
479.198	6081.63
479.569	6143.55
479.94	6305.81
480.311	6374.06
480.682	6499.93
481.053	6675.52
481.424	6727.72
481.795	6720.71
482.166	6909.41
482.537	6989.41
482.908	7173.81
483.279	7252.9
483.65	7339
484.021	7500.81
484.391	7564.53
484.762	7741.25
485.133	7731.99
485.503	7886.11
485.874	8063.95
486.244	8113.44
486.615	8232.31
486.985	8359.54
487.356	8499.88
487.726	8565.86
488.097	8755.91
488.467	8790.26
488.837	9021.9
489.207	9099.41
489.578	9195.9
489.948	9315.22
490.318	9460.75
490.688	9493.07
491.058	9641.09
491.428	9688.32
491.798	9797.92
492.168	10072.72
492.538	10100.29
492.908	10224.8
493.278	10282.88
493.648	10338.02
494.017	10526.26
494.387	10565.13
494.757	10756.31
495.126	10843.09
495.496	10924.9
495.866	10985.46
496.235	11123.31
496.605	11199.01
496.974	11259.8
497.344	11413.47
497.713	11428.16
498.082	11487.14
498.452	11703.41
498.821	11751.32
499.19	11780.92
499.559	11867.02
499.928	11949.73
500.298	12010.07
500.667	12165.77
501.036	12181.59
501.405	12304.75
501.774	12370.73
502.143	12471.07
502.512	12664.74
502.88	12621.35
503.249	12719.65
503.618	12893.21
503.987	12785.19
504.356	12961
504.724	12988.34
505.093	13121.9
505.462	13075.35
505.83	13259.75
506.199	13433.76
506.567	13579.52
506.936	13602.34
507.304	13819.28
507.672	13761.43
508.041	13901.09
508.409	14111.71
508.777	14136.56
509.145	14252.72
509.514	14223.79
509.882	14382.66
510.25	14423.34
510.618	14638.47
510.986	14657.45
511.354	14716.44
511.722	14882.08
512.09	15022.64
512.458	15043.21
512.826	15245.46
513.193	15252.92
513.561	15327.04
513.929	15467.38
514.297	15625.34
514.664	15764.77
515.032	15821.04
515.4	16001.37
515.767	15974.93
516.135	16164.08
516.502	16063.74
516.869	16517.07
517.237	16469.16
517.604	16448.37
517.972	16648.36
518.339	16854.01
518.706	16872.54
519.073	16978.52
519.44	17087.22
519.808	17258.74
520.175	17374.9
520.542	17594.55
520.909	17679.52
521.276	17731.72
521.643	17858.05
522.009	18015.78
522.376	18128.77
522.743	18297.13
523.11	18458.03
523.477	18648.54
523.843	18729.89
524.21	19006.94
524.577	19109.99
524.943	19188.86
525.31	19251.91
525.676	19527.16
526.043	19618.68
526.409	19683.76
526.776	19989.74
527.142	20039.46
527.508	20216.86
527.874	20229.28
528.241	20457.75
528.607	20477.87
528.973	20713.57
529.339	20709.27
529.705	20979.77
530.071	20964.41
530.437	21219.99
530.803	21419.76
531.169	21565.75
531.535	21472.87
531.901	21598.29
532.267	21748.79
532.632	21755.35
532.998	21980.2
533.364	22155.79
533.73	22184.26
534.095	22444.59
534.461	22461.99
534.826	22626.96
535.192	22695.43
535.557	22807.75
535.923	22796.22
536.288	22988.53
536.653	23057.23
537.019	23034.63
537.384	23158.02
537.749	23277.79
538.114	23405.92
538.479	23376.09
538.845	23480.27
539.21	23401.63
539.575	23748.29
539.94	23752.58
540.305	23954.16
540.67	23860.15
541.034	24087.04
541.399	24230.54
541.764	24255.17
542.129	24402.28
542.494	24437.54
542.858	24592.56
543.223	24576.06
543.587	24833.23
543.952	24823.06
544.316	24856.96
544.681	24924.98
545.045	25074.81
545.41	25207.46
545.774	25197.06
546.138	25269.15
546.503	25366.32
546.867	25373.33
547.231	25628.01
547.595	25784.39
547.959	25778.52
548.324	25971.05
548.688	25979.19
549.052	26004.27
549.416	26152.29
549.779	26179.64
550.143	26224.61
550.507	26541.21
550.871	26681.54
551.235	26583.02
551.599	26743.01
551.962	26776.68
552.326	26824.82
552.689	27041.08
553.053	26972.84
553.417	27134.41
553.78	27480.85
554.143	27338.93
554.507	27564.23
554.87	27486.72
555.234	27938.69
555.597	27795.41
555.96	28050.55
556.323	28033.6
556.686	28236.53
557.05	28403.98
557.413	28491.89
557.776	28624.54
558.139	28733.02
558.502	28841.49
558.865	28972.11
559.228	29234.92
559.59	29243.28
559.953	29311.08
560.316	29596.04
560.679	29605.31
561.041	29817.51
561.404	29930.5
561.767	30230.15
562.129	30140.66
562.492	30441.67
562.854	30403.25
563.217	30555.57
563.579	30811.61
563.941	30937.7
564.304	31054.99
564.666	31106.06
565.028	31254.76
565.39	31481.64
565.753	31501.3
566.115	31708.98
566.477	31697.01
566.839	31889.32
567.201	32250.66
567.563	32259.93
567.925	32467.38
568.287	32475.06
568.648	32575.85
569.01	32673.7
569.372	32940.59
569.734	32784.89
570.095	32926.13
570.457	33143.97
570.819	33315.27
571.18	33363.18
571.542	33432.1
571.903	33533.79
572.265	33770.85
572.626	33950.05
572.987	33932.88
573.349	34059.2
573.71	34237.05
574.071	34322.7
574.432	34310.27
574.794	34537.16
575.155	34595.46
575.516	34495.58
575.877	34592.07
576.238	34828.22
576.599	34958.61
576.96	34936.24
577.32	35002
577.681	35013.08
578.042	35319.96
578.403	35274.99
578.763	35324.48
579.124	35409.22
579.485	35536.9
579.845	35684.25
580.206	35564.7
580.566	35553.85
580.927	35583.68
581.287	35765.83
581.648	35617.58
582.008	35764.24
582.368	35630.01
582.728	35742.77
583.089	35870.91
583.449	35723.79
583.809	35903.45
584.169	35918.14
584.529	35790.91
584.889	36218.02
585.249	35869.55
585.609	35851.47
585.969	36022.09
586.329	35860.29
586.688	36017.57
587.048	35919.72
587.408	36062.09
587.768	35985.48
588.127	36002.2
588.487	36114.97
588.846	36318.35
589.206	36019.38
589.565	36036.1
589.925	36184.12
590.284	36044.01
590.643	36168.53
591.003	36287.39
591.362	36309.77
591.721	36155.65
592.08	36388.41
592.44	36322.42
592.799	36451.91
593.158	36337.79
593.517	36357.45
593.876	36426.37
594.235	36467.95
594.593	36378.92
594.952	36558.35
595.311	36375.75
595.67	36493.94
596.029	36770.77
596.387	36649.42
596.746	36749.53
597.104	36546.37
597.463	36534.84
597.822	36858.68
598.18	36453.04
598.538	36563.54
598.897	36896.42
599.255	36582.53
599.613	37097.09
599.972	36778
600.33	36933.25
600.688	36760.38
601.046	36928.73
601.404	37178.44
601.762	37072.68
602.12	37180.93
602.478	37078.56
602.836	37293.47
603.194	37007.83
603.552	37034.27
603.91	36941.39
604.268	37162.17
604.625	37088.5
604.983	37187.48
605.341	37230.42
605.698	37384.99
606.056	37480.81
606.413	37312.68
606.771	37552.22
607.128	37714.93
607.485	37412.11
607.843	37445.78
608.2	37588.6
608.557	37720.58
608.914	37493.46
609.272	37680.13
609.629	37915.83
609.986	37935.71
610.343	37749.05
610.7	38048.93
611.057	38024.3
611.414	38012.55
611.771	38078.98
612.127	38171.86
612.484	38091.64
612.841	38251.41
613.198	38160.79
613.554	38202.82
613.911	38422.48
614.267	38465.87
614.624	38519.65
614.98	38398.98
615.337	38697.73
615.693	38522.59
616.05	38382.48
616.406	38709.25
616.762	38462.93
617.118	38647.33
617.475	38648.91
617.831	38737.72
618.187	38617.05
618.543	38810.94
618.899	38831.96
619.255	38873.09
619.611	38755.35
619.967	38870.6
620.323	39010.94
620.678	38835.35
621.034	38859.3
621.39	38907.89
621.746	38787.44
622.101	39329.12
622.457	38673.77
622.812	38898.85
623.168	38987.89
623.523	38912.64
623.879	39102.46
624.234	38884.61
624.589	39206.19
624.945	38996.02
625.3	38956.02
625.655	39075.12
626.01	39075.12
626.365	39117.38
626.72	38907.21
627.075	39022.91
627.43	38898.85
627.785	38886.87
628.14	39004.16
628.495	39056.59
628.85	38924.16
629.205	38789.47
629.559	39091.39
629.914	38754.45
630.269	38796.25
630.623	38815.91
630.978	38824.73
631.332	38882.35
631.687	38808.68
632.041	38702.92
632.396	38660.89
632.75	38646.88
633.104	38577.95
633.459	38575.69
633.813	38486.66
634.167	38381.35
634.521	38539.76
634.875	38426.77
635.229	38377.51
635.583	38190.17
635.937	38203.5
636.291	38296.38
636.645	38265.42
636.999	38106.1
637.352	38082.15
637.706	37951.76
638.06	38139.55
638.413	37940.91
638.767	37733.91
639.121	37813
639.474	37635.15
639.828	37823.85
640.181	37823.17
640.534	37751.76
640.888	37687.81
641.241	37638.09
641.594	37608.71
641.947	37647.81
642.301	37566.68
642.654	37550.41
643.007	37542.73
643.36	37435.16
643.713	37392.9
644.066	37505.21
644.419	37361.49
644.771	36922.63
645.124	36468.63
645.477	36450.1
645.83	36233.16
646.182	36203.1
646.535	36219.6
646.888	36295.75
647.24	35986.16
647.593	36178.47
647.945	36079.26
648.298	35994.07
648.65	35896.9
649.002	35801.3
649.355	35970.34
649.707	35798.59
650.059	35842.66
650.411	36260.28
650.763	36315.19
651.115	36759.7
651.467	36674.5
651.819	36584.33
652.171	36447.39
652.523	36412.81
652.875	36494.62
653.227	36354.96
653.578	36521.29
653.93	36289.88
654.282	36272.93
654.633	36160.62
654.985	36204.68
655.337	36209.2
655.688	36300.5
656.039	36411.01
656.391	35990
656.742	36001.3
657.094	35935.54
657.445	36191.35
657.796	35999.27
658.147	36052.15
658.498	35994.52
658.849	36097.57
659.2	36024.12
659.551	35879.49
659.902	36003.56
660.253	35900.96
660.604	35880.85
660.955	35834.3
661.306	35747.29
661.656	35731.02
662.007	35879.95
662.358	35750.91
662.708	35727.18
663.059	35696.22
663.409	35470.01
663.76	35779.61
664.11	35565.15
664.461	35786.16
664.811	35682.66
665.161	35620.07
665.511	35597.02
665.862	35611.7
666.212	35709.56
666.562	35709.56
666.912	35660.97
667.262	35579.39
667.612	35365.38
667.962	35440.64
668.312	35425.5
668.662	35533.74
669.011	35587.3
669.361	35585.26
669.711	35496.91
670.06	35399.73
670.41	35203.81
670.76	35218.72
671.109	35306.85
671.459	35359.96
671.808	35298.04
672.157	35390.47
672.507	34968.33
672.856	35088.55
673.205	35152.28
673.554	35252.84
673.904	35089.23
674.253	35251.94
674.602	35186.41
674.951	34715.01
675.3	34530.38
675.649	35058.27
675.998	35037.03
676.346	35037.48
676.695	35224.6
677.044	34781.22
677.393	35058.73
677.741	34969.91
678.09	34751.61
678.438	34716.14
678.787	34961.55
679.135	34771.27
679.484	34543.48
679.832	34800.88
680.181	34476.14
680.529	34622.58
680.877	34456.03
681.225	34374
681.573	34673.2
681.922	34354.56
682.27	34356.14
682.618	34303.72
682.966	34143.49
683.314	34407.44
683.661	34227.11
684.009	33943.5
684.357	33920
684.705	33895.14
685.053	33925.87
685.4	33797.74
685.748	33750.28
686.095	33784.41
686.443	33564.53
686.79	33516.62
687.138	33724.75
687.485	33534.25
687.832	33491.08
688.18	33509.61
688.527	33329.73
688.874	33341.03
689.221	33145.78
689.568	33079.57
689.915	32992.79
690.262	33039.34
690.609	32885.45
690.956	32726.58
691.303	32817.43
691.65	32557.55
691.997	32647.94
692.344	32430.09
692.69	32442.07
693.037	32604.55
693.383	32291.34
693.73	32320.94
694.077	32118.01
694.423	32144.68
694.769	32098.58
695.116	32012.25
695.462	31865.59
695.808	31639.38
696.155	31779.26
696.501	31581.08
696.847	31525.03
697.193	31244.14
697.539	31389.22
697.885	31156.45
698.231	31181.76
698.577	31099.73
698.923	30923.92
699.269	30979.28
699.614	30678.5
699.96	30720.08
700.306	30686.41
700.651	30692.06
700.997	30508.11
701.342	30490.03
701.688	30300.43
702.033	30289.58
702.379	30178.63
702.724	30200.32
703.069	30122.81
703.415	29798.52
703.76	29899.99
704.105	29863.83
704.45	29868.13
704.795	29558.98
705.14	29530.73
705.485	29443.51
705.83	29433.79
706.175	29541.58
706.52	29330.97
706.865	29276.5
707.209	29254.81
707.554	29074.93
707.899	29163.51
708.243	29038.77
708.588	29053.69
708.932	28855.95
709.277	28880.36
709.621	28677.42
709.966	28591.78
710.31	28795.39
710.654	28429.07
710.998	28609.4
711.342	28523.3
711.687	28248.73
712.031	28323.76
712.375	28188.85
712.719	28125.8
713.063	28162.64
713.407	28256.87
713.75	28059.81
714.094	28011.45
714.438	27938.69
714.782	27931.68
715.125	27789.31
715.469	27895.75
715.812	27663.89
716.156	27573.5
716.499	27663.21
716.843	27643.78
717.186	27446.27
717.53	27588.64
717.873	27489.43
718.216	27388.87
718.559	27313.62
718.902	27124.7
719.246	27121.53
719.589	27132.38
719.932	26959.28
720.275	27008.99
720.617	26913.85
720.96	26856.91
721.303	26831.37
721.646	26874.08
721.989	26557.93
722.331	26675.22
722.674	26665.73
723.016	26687.19
723.359	26686.52
723.701	26625.5
724.044	26507.09
724.386	26258.96
724.729	26464.6
725.071	26325.17
725.413	26347.09
725.755	26155.68
726.097	26081.33
726.439	26062.58
726.782	26023.03
727.124	26161.56
727.465	26010.15
727.807	25882.24
728.149	25940.77
728.491	25881.57
728.833	25809.93
729.175	25836.59
729.516	25657.39
729.858	25679.54
730.199	25658.97
730.541	25604.74
730.882	25664.85
731.224	25651.29
731.565	25540.33
731.906	25512.54
732.248	25531.07
732.589	25416.94
732.93	25356.61
733.271	25372.65
733.612	25362.71
733.953	25312.09
734.294	25179.21
734.635	25141.7
734.976	25125.2
735.317	25163.39
735.658	25025.09
735.999	25067.58
736.339	24999.1
736.68	25022.38
737.021	24981.93
737.361	24802.72
737.702	24897.41
738.042	24734.02
738.383	24715.49
738.723	24802.5
739.063	24696.96
739.404	24794.36
739.744	24588.72
740.084	24464.43
740.424	24623.52
740.764	24665.33
741.104	24666.91
741.444	24518.89
741.784	24375.39
742.124	24536.29
742.464	24351.66
742.804	24248.84
743.143	24234.38
743.483	24262.17
743.823	24179.01
744.162	24243.87
744.502	24173.14
744.841	23969.75
745.181	24090.88
745.52	23860.38
745.86	23998.9
746.199	23934.27
746.538	23807.27
746.877	23974.72
747.216	23813.15
747.556	23797.55
747.895	23772.47
748.234	23673.71
748.573	23582.64
748.911	23530.89
749.25	23557.11
749.589	23505.81
749.928	23433.04
750.267	23502.64
750.605	23362.54
750.944	23301.07
751.283	23172.03
751.621	23250.9
751.96	23160.05
752.298	23110.34
752.636	23182.88
752.975	22924.58
753.313	22879.16
753.651	22950.12
753.989	22768.43
754.327	22688.43
754.666	22715.77
755.004	22801.42
755.342	22745.38
755.679	22772.04
756.017	22556.91
756.355	22600.75
756.693	22470.36
757.031	22561.65
757.368	22323.24
757.706	22429.45
758.044	22276.91
758.381	22242.56
758.719	22141.55
759.056	22209.12
759.394	22158.95
759.731	21995.11
760.068	21943.14
760.405	21793.31
760.743	21814.78
761.08	21910.82
761.417	21670.15
761.754	21672.64
762.091	21618.17
762.428	21536.59
762.765	21418.63
763.102	21485.75
763.438	21354.45
763.775	21250.5
764.112	21308.58
764.449	21273.32
764.785	21104.97
765.122	20999.89
765.458	20925.99
765.795	20927.57
766.131	20777.29
766.467	20718.09
766.804	20736.62
767.14	20518.77
767.476	20536.17
767.812	20440.13
768.148	20511.08
768.485	20363.97
768.821	20131.66
769.157	20189.51
769.492	20025.9
769.828	20128.5
770.164	19922.63
770.5	19971.89
770.836	19911.78
771.171	19871.55
771.507	19713.82
771.842	19545.46
772.178	19603.09
772.513	19504.56
772.849	19422.98
773.184	19385.92
773.519	19277.45
773.855	19231.12
774.19	19154.06
774.525	19084.68
774.86	19041.52
775.195	18964.91
775.53	18925.14
775.865	18922.43
776.2	18737.35
776.535	18612.6
776.87	18655.31
777.205	18511.59
777.539	18446.73
777.874	18493.28
778.209	18374.42
778.543	18254.87
778.878	18129.23
779.212	18173.75
779.547	18076.8
779.881	17993.64
780.215	17929.46
780.55	17928.78
780.884	17842.91
781.218	17799.97
781.552	17709.8
781.886	17645.85
782.22	17597.49
782.554	17575.79
782.888	17356.82
783.222	17272.53
783.556	17247.67
783.889	17171.29
784.223	17120.44
784.557	17136.48
784.89	17091.97
785.224	16947.56
785.557	16784.4
785.891	16965.19
786.224	16797.51
786.558	16790.05
786.891	16667.12
787.224	16665.31
787.557	16573.79
787.891	16538.53
788.224	16482.49
788.557	16367.69
788.89	16345.54
789.223	16360.69
789.556	16195.27
789.888	16154.36
790.221	16027.36
790.554	15914.14
790.887	15947.59
791.219	15912.11
791.552	15922.51
791.884	15888.38
792.217	15773.36
792.549	15722.74
792.882	15607.26
793.214	15454.27
793.546	15557.99
793.879	15449.3
794.211	15326.81
794.543	15415.85
794.875	15273.03
795.207	15363.88
795.539	15271.67
795.871	15273.26
796.203	15087.95
796.535	15033.94
796.867	15026.71
797.198	14997.11
797.53	14938.58
797.862	14884.57
798.193	14941.74
798.525	14784.68
798.856	14824.23
799.188	14624.23
799.519	14685.7
799.85	14607.96
800.182	14591.24
800.513	14537.91
800.844	14450
801.175	14502.43
801.506	14461.98
801.837	14366.84
802.168	14270.35
802.499	14318.25
802.83	14260.4
803.161	14109.67
803.491	14186.05
803.822	14082.78
804.153	14029.22
804.483	13941.31
804.814	13850.47
805.145	13922.11
805.475	13794.2
805.805	13749
806.136	13784.26
806.466	13780.64
806.796	13713.98
807.126	13638.72
807.457	13577.93
807.787	13568.89
808.117	13561.44
808.447	13433.53
808.777	13561.66
809.107	13372.74
809.436	13374.32
809.766	13335.68
810.096	13268.56
810.426	13272.63
810.755	13212.07
811.085	13180.66
811.414	13206.42
811.744	13081
812.073	13036.48
812.403	13037.84
812.732	12979.31
813.061	12948.57
813.39	12867.44
813.719	12810.5
814.049	12966.2
814.378	12808.69
814.707	12789.03
815.036	12758.52
815.365	12689.82
815.693	12553.55
816.022	12688.47
816.351	12553.1
816.68	12563.72
817.008	12626.55
817.337	12416.16
817.665	12446.66
817.994	12391.75
818.322	12469.04
818.651	12385.87
818.979	12303.84
819.307	12481.47
819.636	12354.46
819.964	12278.99
820.292	12294.13
820.62	12305.65
820.948	12253.45
821.276	12308.81
821.604	12221.59
821.932	12248.48
822.259	12292.77
822.587	12188.14
822.915	12231.53
823.243	12230.17
823.57	12183.39
823.898	12135.49
824.225	12095.94
824.553	12116.73
824.88	12092.78
825.207	12185.2
825.535	12120.8
825.862	12144.53
826.189	12127.35
826.516	12180.23
826.843	12022.49
827.17	12188.14
827.497	12179.78
827.824	12131.19
828.151	12153.11
828.478	12089.84
828.805	12196.73
829.131	12082.83
829.458	12074.92
829.785	11912.89
830.111	12140.91
830.438	12105.66
830.764	12076.73
831.09	12097.52
831.417	11953.57
831.743	11991.31
832.069	12039.67
832.395	12011.65
832.722	12075.6
833.048	11992.66
833.374	12097.75
833.7	11883.74
834.026	11864.08
834.351	11998.54
834.677	11975.72
835.003	11973.23
835.329	11968.26
835.654	11999.67
835.98	11905.66
836.306	11944.76
836.631	11813.46
836.956	11912.44
837.282	11858.88
837.607	11731.65
837.932	11716.51
838.258	11750.64
838.583	11700.7
838.908	11646.69
839.233	11705.44
839.558	11702.5
839.883	11679.45
840.208	11598.78
840.533	11684.42
840.858	11573.24
841.182	11655.5
841.507	11566.91
841.832	11495.05
842.156	11489.63
842.481	11542.28
842.805	11450.53
843.13	11426.8
843.454	11361.95
843.778	11356.07
844.103	11297.32
844.427	11324.43
844.751	11359.69
845.075	11236.53
845.399	11186.36
845.723	11149.75
846.047	11197.21
846.371	11130.54
846.695	11068.62
847.019	10968.96
847.343	10994.95
847.666	10848.06
847.99	10929.87
848.313	10862.3
848.637	10744.11
848.96	10726.03
849.284	10707.05
849.607	10642.19
849.931	10628.18
850.254	10552.48
850.577	10519.03
850.9	10514.51
851.223	10428.86
851.546	10472.93
851.869	10350
852.192	10377.34
852.515	10211.02
852.838	10297.79
853.161	10181.87
853.483	10187.06
853.806	10103.45
854.129	10054.41
854.451	10067.52
854.774	10006.5
855.096	10020.74
855.419	9923.57
855.741	9952.72
856.063	9898.48
856.385	9881.08
856.708	9847.64
857.03	9865.26
857.352	9860.52
857.674	9711.59
857.996	9680.41
858.318	9636.57
858.64	9657.13
858.961	9606.06
859.283	9533.75
859.605	9515.89
859.926	9618.94
860.248	9567.87
860.57	9492.62
860.891	9480.87
861.212	9474.99
861.534	9429.12
861.855	9367.65
862.176	9445.39
862.498	9411.94
862.819	9337.14
863.14	9391.15
863.461	9338.95
863.782	9299.4
864.103	9230.7
864.424	9310.25
864.745	9278.84
865.065	9202.91
865.386	9188.22
865.707	9208.56
866.027	9190.48
866.348	9126.3
866.668	9184.6
866.989	9088.79
867.309	9056.24
867.63	9073.87
867.95	9086.07
868.27	8982.12
868.59	9004.27
868.91	8999.3
869.23	8998.85
869.55	8993.65
869.87	9020.99
870.19	8943.93
870.51	8956.36
870.83	9046.3
871.15	8949.81
871.469	8946.87
871.789	8965.4
872.109	8851.05
872.428	8799.75
872.748	8900.32
873.067	8813.99
873.386	8827.78
873.706	8802.01
874.025	8857.61
874.344	8707.55
874.663	8785.29
874.982	8737.38
875.301	8755.01
875.62	8753.65
875.939	8716.59
876.258	8629.36
876.577	8748
876.896	8628.46
877.214	8585.75
877.533	8604.73
877.852	8539.87
878.17	8571.51
878.489	8570.16
878.807	8582.81
879.125	8559.53
879.444	8562.7
879.762	8481.12
880.08	8475.7
880.398	8483.38
880.716	8465.07
881.034	8378.3
881.352	8436.37
881.67	8355.02
881.988	8428.24
882.306	8366.32
882.624	8387.56
882.941	8317.51
883.259	8298.07
883.577	8272.99
883.894	8249.26
884.212	8241.35
884.529	8278.19
884.846	8290.84
885.164	8240
885.481	8188.02
885.798	8189.6
886.115	8056.95
886.432	8141.01
886.75	8111.41
887.067	8072.77
887.383	8063.28
887.7	8077.74
888.017	8035.71
888.334	8025.54
888.651	8012.66
888.967	7954.8
889.284	7862.38
889.6	7941.47
889.917	7835.26
890.233	7843.85
890.55	7825.99
890.866	7876.39
891.182	7828.25
891.498	7844.07
891.815	7731.31
892.131	7701.48
892.447	7654.7
892.763	7683.4
893.079	7685.21
893.395	7596.17
893.71	7669.39
894.026	7621.48
894.342	7613.35
894.657	7589.16
894.973	7564.98
895.289	7617.64
895.604	7474.59
895.92	7443.86
896.235	7442.5
896.55	7449.06
896.865	7342.84
897.181	7349.4
897.496	7314.37
897.811	7276.18
898.126	7257.87
898.441	7338.55
898.756	7211.1
899.071	7137.2
899.386	7203.86
899.7	7179.01
900.015	7141.49
900.33	7074.83
900.644	7084.09
900.959	7079.12
901.273	7067.37
901.588	6999.35
901.902	7025.34
902.216	6971.33
902.531	6919.8
902.845	6892.01
903.159	6889.97
903.473	6841.16
903.787	6809.98
904.101	6752.8
904.415	6749.64
904.729	6718.68
905.042	6731.33
905.356	6703.76
905.67	6655.18
905.984	6671.9
906.297	6634.39
906.611	6548.97
906.924	6564.56
907.237	6553.71
907.551	6534.96
907.864	6516.42
908.177	6455.64
908.491	6453.38
908.804	6487.5
909.117	6407.73
909.43	6383.09
909.743	6307.16
910.056	6314.4
910.368	6257
910.681	6247.73
910.994	6187.62
911.307	6199.37
911.619	6208.18
911.932	6162.76
912.244	6200.27
912.557	6163.21
912.869	6073.27
913.181	6104.91
913.494	6051.35
913.806	5999.15
914.118	5998.25
914.43	5960.51
914.742	5935.87
915.054	5925.71
915.366	5868.53
915.678	5865.59
915.99	5822.21
916.302	5808.42
916.613	5754.41
916.925	5760.06
917.236	5751.25
917.548	5726.16
917.859	5733.85
918.171	5701.76
918.482	5620.86
918.794	5631.93
919.105	5609.33
919.416	5556.22
919.727	5591.25
920.038	5555.55
920.349	5475.32
920.66	5496.34
920.971	5523
921.282	5463.8
921.593	5418.15
921.903	5418.83
922.214	5383.12
922.525	5368.66
922.835	5299.28
923.146	5292.05
923.456	5278.04
923.767	5248.44
924.077	5274.2
924.387	5242.56
924.697	5179.51
925.008	5179.28
925.318	5135.67
925.628	5108.78
925.938	5120.08
926.248	5074.2
926.558	5069.23
926.867	5082.34
927.177	5051.6
927.487	5011.38
927.796	4939.97
928.106	4956.01
928.416	4960.76
928.725	4923.92
929.034	4866.52
929.344	4865.62
929.653	4826.3
929.962	4801.89
930.271	4811.38
930.581	4781.56
930.89	4733.19
931.199	4709.24
931.508	4706.98
931.817	4725.29
932.125	4715.12
932.434	4647.32
932.743	4684.61
933.051	4601.9
933.36	4603.48
933.669	4560.54
933.977	4564.39
934.286	4537.27
934.594	4532.75
934.902	4517.16
935.21	4484.84
935.519	4466.54
935.827	4475.8
936.135	4418.17
936.443	4422.02
936.751	4399.87
937.059	4407.1
937.367	4320.32
937.674	4373.66
937.982	4331.17
938.29	4281
938.597	4312.87
938.905	4280.55
939.213	4245.3
939.52	4260.66
939.827	4218.41
940.135	4204.62
940.442	4175.02
940.749	4121.46
941.056	4172.76
941.363	4083.27
941.67	4117.62
941.977	4108.8
942.284	4034.46
942.591	4049.37
942.898	4007.79
943.205	4043.5
943.511	3995.81
943.818	3951.29
944.125	3963.72
944.431	3930.28
944.738	3944.74
945.044	3899.09
945.35	3902.48
945.657	3848.02
945.963	3866.55
946.269	3854.57
946.575	3857.74
946.881	3869.71
947.187	3836.95
947.493	3788.13
947.799	3767.34
948.105	3732.32
948.41	3727.57
948.716	3738.87
949.022	3708.36
949.327	3697.52
949.633	3660.23
949.938	3671.3
950.244	3673.34
950.549	3682.6
950.854	3620.46
951.16	3613
951.465	3578.87
951.77	3580
952.075	3542.72
952.38	3500.46
952.685	3522.15
952.99	3495.04
953.294	3489.84
953.599	3491.42
953.904	3460.23
954.209	3455.26
954.513	3444.19
954.818	3442.83
955.122	3409.61
955.426	3409.16
955.731	3370.29
956.035	3360.12
956.339	3368.94
956.643	3365.77
956.948	3296.4
957.252	3326.68
957.556	3303.18
957.86	3274.7
958.163	3237.64
958.467	3276.06
958.771	3215.04
959.075	3256.17
959.378	3185.89
959.682	3208.26
959.985	3173.46
960.289	3148.83
960.592	3135.72
960.896	3129.62
961.199	3116.97
961.502	3105.67
961.805	3091.43
962.108	3064.99
962.411	3041.94
962.714	3023.86
963.017	3071.54
963.32	3025.9
963.623	3032.22
963.926	3003.97
964.228	2994.03
964.531	2958.1
964.833	2972.11
965.136	2987.03
965.438	2959
965.741	2945.45
966.043	2932.56
966.345	2916.52
966.648	2885.33
966.95	2873.58
967.252	2886.92
967.554	2849.63
967.856	2843.53
968.158	2825
968.46	2803.3
968.761	2777.31
969.063	2801.72
969.365	2768.5
969.666	2767.6
969.968	2773.92
970.269	2748.16
970.571	2755.85
970.872	2727.37
971.174	2709.52
971.475	2724.21
971.776	2661.38
972.077	2692.34
972.378	2701.38
972.679	2641.5
972.98	2666.58
973.281	2644.44
973.582	2627.94
973.883	2618.9
974.183	2604.66
974.484	2598.11
974.785	2567.15
975.085	2591.33
975.386	2548.85
975.686	2533.48
975.986	2538.68
976.287	2542.97
976.587	2500.49
976.887	2485.34
977.187	2493.03
977.487	2489.41
977.787	2476.53
978.087	2471.79
978.387	2450.09
978.687	2432.01
978.987	2431.79
979.286	2432.46
979.586	2405.35
979.885	2389.98
980.185	2398.11
980.484	2363.99
980.784	2380.49
981.083	2354.27
981.382	2374.84
981.682	2367.61
981.981	2341.17
982.28	2315.63
982.579	2297.55
982.878	2309.98
983.177	2286.48
983.475	2293.26
983.774	2255.07
984.073	2262.75
984.372	2218.46
984.67	2228.63
984.969	2215.97
985.267	2215.75
985.566	2180.04
985.864	2201.51
986.162	2179.36
986.461	2166.48
986.759	2168.52
987.057	2149.31
987.355	2156.31
987.653	2116.54
987.951	2139.14
988.249	2103.21
988.547	2081.29
988.844	2090.33
989.142	2129.65
989.44	2112.92
989.737	2072.47
990.035	2085.58
990.332	2089.2
990.63	2051.23
990.927	2036.32
991.224	2017.79
991.521	2001.97
991.819	2007.62
992.116	2006.49
992.413	2020.72
992.71	1996.09
993.006	1989.54
993.303	1947.05
993.6	1949.54
993.897	1909.31
994.193	1943.44
994.49	1916.55
994.787	1928.3
995.083	1903.21
995.379	1885.59
995.676	1900.73
995.972	1887.85
996.268	1865.93
996.565	1869.09
996.861	1820.73
997.157	1829.09
997.453	1817.34
997.749	1814.63
998.044	1810.11
998.34	1804.01
998.636	1798.81
998.932	1780.96
999.227	1766.95
999.523	1781.86
999.818	1755.42
1000.114	1748.19
1000.409	1801.75
1000.704	1748.64
1001	1719.26
1001.295	1729.66
1001.59	1729.21
1001.885	1720.84
1002.18	1687.63
1002.475	1702.09
1002.77	1658.47
1003.065	1657.8
1003.359	1667.96
1003.654	1680.17
1003.949	1632.71
1004.243	1647.17
1004.538	1636.55
1004.832	1633.16
1005.127	1602.2
1005.421	1594.75
1005.715	1590
1006.009	1601.07
1006.304	1578.48
1006.598	1573.5
1006.892	1586.38
1007.186	1552.49
1007.48	1526.27
1007.773	1517.46
1008.067	1539.38
1008.361	1521.53
1008.655	1488.76
1008.948	1534.41
1009.242	1495.54
1009.535	1497.35
1009.829	1470.46
1010.122	1451.25
1010.415	1445.15
1010.708	1446.73
1011.001	1461.42
1011.295	1444.47
1011.588	1420.74
1011.881	1423.45
1012.173	1414.41
1012.466	1432.04
1012.759	1426.84
1013.052	1394.53
1013.344	1392.27
1013.637	1360.63
1013.93	1352.04
1014.222	1381.87
1014.514	1341.87
1014.807	1326.28
1015.099	1325.37
1015.391	1304.36
1015.683	1310.01
1015.976	1339.61
1016.268	1312.72
1016.56	1269.11
1016.851	1277.47
1017.143	1280.18
1017.435	1271.59
1017.727	1254.42
1018.018	1244.02
1018.31	1246.96
1018.602	1266.17
1018.893	1238.37
1019.185	1221.42
1019.476	1217.13
1019.767	1208.54
1020.058	1188.43
1020.35	1201.76
1020.641	1205.83
1020.932	1191.59
1021.223	1179.16
1021.514	1161.09
1021.804	1178.26
1022.095	1157.02
1022.386	1139.16
1022.677	1142.33
1022.967	1134.65
1023.258	1099.84
1023.548	1099.62
1023.839	1081.31
1024.129	1115.89
1024.419	1100.97
1024.709	1103.01
1025	1080.18
1025.29	1093.97
1025.58	1060.97
1025.87	1054.2
1026.16	1071.14
1026.449	1068.43
1026.739	1046.74
1027.029	1068.88
1027.319	1022.33
1027.608	1014.2
1027.898	1007.87
1028.187	1030.69
1028.477	1006.51
1028.766	995.89
1029.055	969.23
1029.344	987.76
1029.634	1002.9
1029.923	977.36
1030.212	945.05
1030.501	976.46
1030.79	978.04
1031.078	945.95
1031.367	952.28
1031.656	950.7
1031.945	949.11
1032.233	950.7
1032.522	925.84
1032.81	923.13
1033.099	915.44
1033.387	928.32
1033.675	924.26
1033.963	878.61
1034.251	913.86
1034.54	891.49
1034.828	888.1
1035.116	878.38
1035.403	886.74
1035.691	877.93
1035.979	863.92
1036.267	870.02
1036.554	865.27
1036.842	858.49
1037.129	840.42
1037.417	840.19
1037.704	805.16
1037.992	817.82
1038.279	843.35
1038.566	818.72
1038.853	818.72
1039.14	818.72
