Data from plate_ceramic_FLMS001491_095.txt Node
Date: Tue Feb 07 11:17:35 GMT 2017
User: dcchb
Spectrometer: FLMS00149
Trigger mode: 0
Integration Time (sec): 2.000000E-2
Scans to average: 10
Electric dark correction enabled: true
Nonlinearity correction enabled: false
Boxcar width: 0
XAxis mode: Wavelengths
Number of Pixels in Spectrum: 2048
>>>>>Begin Spectral Data<<<<<
341.393	-23.42
341.776	-23.42
342.16	-23.42
342.543	-34.72
342.927	-71.78
343.31	-71.1
343.693	-65.9
344.077	-69.74
344.46	-38.33
344.843	-42.17
345.226	-36.52
345.61	-57.54
345.993	-5.11
346.376	-38.11
346.759	-2.85
347.142	22.46
347.525	37.15
347.908	62.23
348.291	69.91
348.674	120.99
349.057	114.66
349.44	127.54
349.823	119.63
350.206	179.52
350.588	198.72
350.971	230.81
351.354	238.5
351.737	257.93
352.119	247.08
352.502	281.21
352.884	271.26
353.267	306.97
353.65	304.71
354.032	328.21
354.414	323.01
354.797	332.28
355.179	355.56
355.562	375.89
355.944	322.79
356.326	331.15
356.709	362.34
357.091	371.6
357.473	350.13
357.855	383.8
358.238	374.09
358.62	359.85
359.002	370.7
359.384	391.26
359.766	375.22
360.148	373.18
360.53	370.02
360.912	371.6
361.294	363.01
361.676	368.44
362.057	364.14
362.439	371.83
362.821	367.98
363.203	371.83
363.584	363.47
363.966	359.62
364.348	353.75
364.729	351.49
365.111	374.09
365.493	354.65
365.874	357.36
366.256	354.88
366.637	351.26
367.019	353.07
367.4	336.57
367.781	346.06
368.163	361.43
368.544	367.53
368.925	345.16
369.306	380.87
369.688	359.85
370.069	358.49
370.45	363.01
370.831	386.52
371.212	381.77
371.593	353.3
371.974	385.16
372.355	382.45
372.736	389
373.117	380.64
373.498	387.19
373.879	374.54
374.26	384.48
374.641	367.53
375.021	382
375.402	383.8
375.783	392.39
376.163	401.43
376.544	392.39
376.925	405.05
377.305	384.93
377.686	414.31
378.066	410.24
378.447	418.6
378.827	419.96
379.208	404.37
379.588	420.86
379.968	434.88
380.349	419.28
380.729	413.18
381.109	426.97
381.489	440.98
381.87	437.59
382.25	436.91
382.63	419.06
383.01	435.33
383.39	467.87
383.77	438.04
384.15	452.73
384.53	427.87
384.91	462.67
385.29	477.13
385.67	465.16
386.049	464.25
386.429	465.61
386.809	489.11
387.189	475.55
387.568	503.8
387.948	482.11
388.328	510.58
388.707	473.52
389.087	490.69
389.466	523.01
389.846	518.26
390.225	502.44
390.605	507.42
390.984	530.24
391.363	528.66
391.743	519.39
392.122	530.47
392.501	551.03
392.881	551.48
393.26	568.66
393.639	553.06
394.018	556
394.397	576.79
394.776	574.98
395.155	595.55
395.534	570.69
395.913	610.69
396.292	602.55
396.671	603.46
397.05	596.91
397.429	638.03
397.808	615.21
398.186	623.57
398.565	622.22
398.944	612.05
399.323	666.73
399.701	649.79
400.08	645.94
400.458	635.55
400.837	661.76
401.215	676.45
401.594	671.71
401.972	701.54
402.351	701.31
402.729	676.45
403.107	723.68
403.486	692.5
403.864	687.52
404.242	732.04
404.62	719.16
404.999	728.2
405.377	725.49
405.755	740.4
406.133	791.25
406.511	749.22
406.889	791.25
407.267	774.98
407.645	774.3
408.023	832.83
408.401	820.18
408.779	839.61
409.156	848.88
409.534	833.96
409.912	853.62
410.29	883
410.667	887.97
411.045	890.91
411.422	880.74
411.8	912.6
412.178	923.9
412.555	941.08
412.933	964.35
413.31	945.37
413.687	941.98
414.065	991.47
414.442	992.6
414.819	993.5
415.197	1019.27
415.574	1024.92
415.951	1049.55
416.328	1009.55
416.705	1037.57
417.082	1084.35
417.46	1099.26
417.837	1061.3
418.214	1075.99
418.591	1122.32
418.967	1109.66
419.344	1107.85
419.721	1149.21
420.098	1139.49
420.475	1143.33
420.852	1161.18
421.228	1191.92
421.605	1182.43
421.982	1193.95
422.358	1220.62
422.735	1251.13
423.111	1215.19
423.488	1249.77
423.864	1258.81
424.241	1284.34
424.617	1292.25
424.994	1307.85
425.37	1356.21
425.746	1342.42
426.123	1351.91
426.499	1375.42
426.875	1378.35
427.251	1416.32
427.627	1433.72
428.003	1466.26
428.379	1458.8
428.756	1462.65
429.132	1509.2
429.507	1517.56
429.883	1512.36
430.259	1569.31
430.635	1565.69
431.011	1573.15
431.387	1640.95
431.763	1664.22
432.138	1662.64
432.514	1672.58
432.89	1679.81
433.265	1727.95
433.641	1756.2
434.016	1741.28
434.392	1776.76
434.767	1794.84
435.143	1834.16
435.518	1845.46
435.894	1843.88
436.269	1848.17
436.644	1910.77
437.02	1927.94
437.395	1949.19
437.77	1976.76
438.145	1987.15
438.52	2025.12
438.895	2022.63
439.271	2045.68
439.646	2108.05
440.021	2087.49
440.395	2120.93
440.77	2105.11
441.145	2115.74
441.52	2170.42
441.895	2166.58
442.27	2200.93
442.645	2203.19
443.019	2232.79
443.394	2233.25
443.769	2266.92
444.143	2237.31
444.518	2263.3
444.892	2301.04
445.267	2305.79
445.641	2338.55
446.016	2328.84
446.39	2364.09
446.764	2422.85
447.139	2376.97
447.513	2418.1
447.887	2420.81
448.262	2417.65
448.636	2455.61
449.01	2493.13
449.384	2520.24
449.758	2524.31
450.132	2564.31
450.506	2568.6
450.88	2615.61
451.254	2588.49
451.628	2655.38
452.002	2681.82
452.376	2708.94
452.75	2757.53
453.123	2752.1
453.497	2820.8
453.871	2827.58
454.244	2861.48
454.618	2849.05
454.992	2909.84
455.365	2932.44
455.739	2991.19
456.112	3048.59
456.486	3030.74
456.859	3086.33
457.232	3125.65
457.606	3159.1
457.979	3196.61
458.352	3221.24
458.725	3277.51
459.099	3334.91
459.472	3387.11
459.845	3421.24
460.218	3461.24
460.591	3482.48
460.964	3468.24
461.337	3595.47
461.71	3618.52
462.083	3714.11
462.456	3675.69
462.829	3707.56
463.201	3786.88
463.574	3804.05
463.947	3886.08
464.32	3984.39
464.692	4000.88
465.065	4007.21
465.438	4056.48
465.81	4088.79
466.183	4188.68
466.555	4293.76
466.928	4277.71
467.3	4311.16
467.672	4367.2
468.045	4503.24
468.417	4456.01
468.789	4527.65
469.161	4598.61
469.534	4654.2
469.906	4763.58
470.278	4827.75
470.65	4879.96
471.022	4903.23
471.394	5008.54
471.766	5093.06
472.138	5126.96
472.51	5299.61
472.882	5375.31
473.253	5386.38
473.625	5497.34
473.997	5601.75
474.369	5619.37
474.74	5667.96
475.112	5844.68
475.484	5942.75
475.855	5981.4
476.227	6035.41
476.598	6240.37
476.97	6278.56
477.341	6455.73
477.713	6487.15
478.084	6522.63
478.455	6746.8
478.827	6774.14
479.198	6999
479.569	7017.53
479.94	7197.64
480.311	7236.28
480.682	7474.46
481.053	7619.77
481.424	7745.64
481.795	7784.74
482.166	7864.06
482.537	8023.83
482.908	8251.17
483.279	8326.19
483.65	8473.08
484.021	8572.97
484.391	8711.95
484.762	8776.8
485.133	8883.02
485.503	9028.32
485.874	9195.1
486.244	9289.56
486.615	9529.55
486.985	9592.83
487.356	9765.48
487.726	9843.22
488.097	10111.23
488.467	10088.18
488.837	10269.42
489.207	10433.48
489.578	10557.77
489.948	10683.65
490.318	10853.13
490.688	10943.07
491.058	11075.27
491.428	11224.65
491.798	11330.63
492.168	11597.29
492.538	11617.86
492.908	11663.28
493.278	11882.94
493.648	11979.66
494.017	12093.33
494.387	12274.56
494.757	12309.59
495.126	12459.64
495.496	12555.91
495.866	12595.23
496.235	12768.34
496.605	12910.71
496.974	12926.98
497.344	13133.98
497.713	13219.85
498.082	13322.22
498.452	13354.76
498.821	13540.52
499.19	13565.38
499.559	13658.71
499.928	13825.71
500.298	13901.41
500.667	14050.56
501.036	14063.22
501.405	14187.06
501.774	14257.34
502.143	14389.31
502.512	14467.5
502.88	14642.19
503.249	14598.57
503.618	14786.14
503.987	14854.16
504.356	14962.18
504.724	15085.56
505.093	15088.73
505.462	15220.25
505.83	15366.69
506.199	15484.88
506.567	15592.44
506.936	15639.45
507.304	15861.59
507.672	15956.28
508.041	15967.35
508.409	16114.92
508.777	16210.05
509.145	16356.26
509.514	16467.22
509.882	16609.82
510.25	16683.49
510.618	16816.82
510.986	16904.5
511.354	17059.75
511.722	17190.37
512.09	17354.43
512.458	17271.95
512.826	17563.01
513.193	17587.64
513.561	17813.63
513.929	17856.56
514.297	18076.9
514.664	18206.61
515.032	18426.72
515.4	18465.59
515.767	18549.43
516.135	18723.21
516.502	18626.94
516.869	18949.19
517.237	18992.13
517.604	19045.46
517.972	19270.99
518.339	19377.88
518.706	19510.53
519.073	19615.61
519.44	19816.96
519.808	20070.97
520.175	20060.12
520.542	20369.27
520.909	20512.99
521.276	20523.61
521.643	20689.26
522.009	20739.43
522.376	20929.25
522.743	21176.03
523.11	21297.6
523.477	21580.76
523.843	21710.25
524.21	21984.82
524.577	22099.62
524.943	22212.38
525.31	22307.52
525.676	22479.27
526.043	22678.58
526.409	22784.57
526.776	23090.78
527.142	23101.4
527.508	23260.04
527.874	23539.13
528.241	23628.84
528.607	23706.81
528.973	23972.11
529.339	23922.62
529.705	24177.3
530.071	24314.25
530.437	24531.87
530.803	24668.59
531.169	24917.62
531.535	24791.75
531.901	24925.31
532.267	25156.49
532.632	25266.99
532.998	25401.68
533.364	25604.16
533.73	25674.66
534.095	26079.4
534.461	25893.64
534.826	26142
535.192	26213.18
535.557	26385.61
535.923	26451.14
536.288	26649.1
536.653	26716.67
537.019	26583.11
537.384	26898.13
537.749	26915.76
538.114	27039.15
538.479	27092.03
538.845	27176.55
539.21	27181.06
539.575	27478.01
539.94	27550.32
540.305	27807.26
540.67	27665.35
541.034	27946.69
541.399	28077.09
541.764	28080.02
542.129	28158.89
542.494	28167.93
542.858	28381.03
543.223	28386.91
543.587	28686.34
543.952	28605.66
544.316	28794.36
544.681	28681.82
545.045	28930.17
545.41	29132.65
545.774	29146.44
546.138	29313.44
546.503	29365.87
546.867	29376.26
547.231	29569.7
547.595	29760.43
547.959	29797.04
548.324	29811.28
548.688	29922.01
549.052	30063.7
549.416	30339.85
549.779	30174.66
550.143	30257.82
550.507	30654.42
550.871	30647.64
551.235	30722.89
551.599	31015.99
551.962	31017.35
552.326	31158.14
552.689	31240.17
553.053	31205.37
553.417	31330.79
553.78	31741.4
554.143	31608.97
554.507	31808.29
554.87	32024.1
555.234	32231.78
555.597	32032.91
555.96	32354.26
556.323	32566.46
556.686	32461.15
557.05	32765.1
557.413	32835.38
557.776	33021.36
558.139	33223.62
558.502	33333.22
558.865	33466.32
559.228	33693.44
559.59	33755.36
559.953	33802.36
560.316	34229.02
560.679	34213.2
561.041	34472.17
561.404	34606.86
561.767	34825.61
562.129	34635.33
562.492	35179.27
562.854	35167.97
563.217	35177.69
563.579	35420.4
563.941	35663.78
564.304	35726.15
564.666	36117.55
565.028	36119.14
565.39	36277.32
565.753	36536.07
566.115	36636.86
566.477	36682.06
566.839	36762.06
567.201	37038.21
567.563	37109.39
567.925	37251.53
568.287	37451.08
568.648	37513.45
569.01	37740.79
569.372	37851.97
569.734	37778.75
570.095	38120.89
570.457	38309.59
570.819	38249.93
571.18	38368.12
571.542	38582.57
571.903	38651.95
572.265	38809.91
572.626	38945.5
572.987	39031.37
573.349	39315.66
573.71	39237.7
574.071	39380.29
574.432	39364.93
574.794	39672.04
575.155	39636.33
575.516	39598.59
575.877	39977.56
576.238	39973.27
576.599	40091.91
576.96	40065.02
577.32	40099.6
577.681	40248.74
578.042	40521.73
578.403	40495.29
578.763	40604.21
579.124	40602.18
579.485	40718.34
579.845	40849.18
580.206	40823.42
580.566	40812.34
580.927	40831.1
581.287	40865.68
581.648	40694.61
582.008	41083.98
582.368	40989.06
582.728	41117.87
583.089	40923.75
583.449	40990.42
583.809	40996.29
584.169	41157.42
584.529	41076.52
584.889	41412.78
585.249	41099.57
585.609	41141.38
585.969	41335.04
586.329	41175.95
586.688	41386.57
587.048	41245.78
587.408	41195.84
587.768	41201.49
588.127	41321.48
588.487	41141.83
588.846	41596.96
589.206	41133.47
589.565	41269.06
589.925	41566.9
590.284	41375.04
590.643	41435.38
591.003	41574.13
591.362	41596.96
591.721	41531.42
592.08	41416.17
592.44	41638.76
592.799	41799.66
593.158	41629.95
593.517	41647.35
593.876	41760.57
594.235	41557.64
594.593	41749.5
594.952	41932.54
595.311	41645.77
595.67	41828.59
596.029	41918.98
596.387	41778.42
596.746	41971.64
597.104	41799.89
597.463	41885.54
597.822	42001.69
598.18	41790.17
598.538	41871.3
598.897	42157.85
599.255	41806.67
599.613	42440.55
599.972	42119.2
600.33	42282.36
600.688	41996.27
601.046	42300.67
601.404	42378.41
601.762	42326.2
602.12	42469.7
602.478	42472.41
602.836	42546.31
603.194	42257.28
603.552	42414.11
603.91	42403.26
604.268	42449.14
604.625	42427.44
604.983	42794.89
605.341	42546.54
605.698	42669.7
606.056	42809.35
606.413	42806.19
606.771	42851.39
607.128	42942.23
607.485	42840.54
607.843	42879.86
608.2	43109.46
608.557	43178.84
608.914	43024.94
609.272	43139.29
609.629	43101.1
609.986	43318.49
610.343	43213.19
610.7	43502.44
611.057	43431.94
611.414	43388.55
611.771	43423.58
612.127	43613.4
612.484	43583.12
612.841	43705.6
613.198	43637.81
613.554	43593.29
613.911	43842.77
614.267	43723.23
614.624	43813.85
614.98	43961.64
615.337	44206.15
615.693	44089.55
616.05	43920.96
616.406	44088.42
616.762	43884.81
617.118	44086.38
617.475	44032.6
617.831	44002.54
618.187	44205.02
618.543	44221.97
618.899	44347.62
619.255	44317.79
619.611	44254.74
619.967	44418.35
620.323	44553.94
620.678	44325.92
621.034	44334.51
621.39	44358.24
621.746	44225.81
622.101	44827.61
622.457	44396.88
622.812	44588.52
623.168	44583.77
623.523	44487.73
623.879	44774.27
624.234	44379.48
624.589	44500.84
624.945	44548.29
625.3	44495.19
625.655	44425.58
626.01	44584.68
626.365	44679.81
626.72	44489.31
627.075	44557.11
627.43	44587.84
627.785	44308.98
628.14	44525.92
628.495	44563.88
628.85	44332.48
629.205	44320.5
629.559	44504.23
629.914	44206.15
630.269	44266.49
630.623	44412.48
630.978	44134.07
631.332	44394.62
631.687	44391.01
632.041	44188.08
632.396	44267.62
632.75	43953.51
633.104	44167.29
633.459	43961.87
633.813	43987.63
634.167	43862.43
634.521	43928.2
634.875	43893.39
635.229	43830.8
635.583	43607.75
635.937	43737.47
636.291	43668.32
636.645	43588.77
636.999	43467.42
637.352	43602.33
637.706	43305.61
638.06	43442.56
638.413	43306.74
638.767	43242.34
639.121	43245.5
639.474	43046.18
639.828	43086.41
640.181	43232.62
640.534	43304.48
640.888	43009.8
641.241	42750.15
641.594	43008.67
641.947	43141.1
642.301	42895.23
642.654	42888
643.007	42948.33
643.36	42899.07
643.713	42777.49
644.066	42905.17
644.419	42518.51
644.771	42383.15
645.124	41867.68
645.477	41892.77
645.83	41527.81
646.182	41439.67
646.535	41328.49
646.888	41518.77
647.24	41279.9
647.593	41628.14
647.945	41483.74
648.298	41318.32
648.65	41223.86
649.002	40911.1
649.355	41117.65
649.707	41071.1
650.059	41230.41
650.411	41704.98
650.763	41599.89
651.115	42011.64
651.467	41937.06
651.819	41944.29
652.171	41764.18
652.523	41630.18
652.875	41595.38
653.227	41413.23
653.578	41788.36
653.93	41624.98
654.282	41470.63
654.633	41336.17
654.985	41657.29
655.337	41551.31
655.688	41469.73
656.039	41549.5
656.391	41121.72
656.742	41211.43
657.094	41199.23
657.445	41481.71
657.796	41260.47
658.147	41273.58
658.498	41203.3
658.849	41296.63
659.2	41168.72
659.551	41032.45
659.902	41166.46
660.253	41060.02
660.604	41010.31
660.955	40807.6
661.306	40943.87
661.656	41041.27
662.007	40994.04
662.358	40934.6
662.708	40968.95
663.059	40887.6
663.409	40533.71
663.76	40916.07
664.11	40718.11
664.461	40839.69
664.811	40707.04
665.161	40920.14
665.511	40714.04
665.862	40829.29
666.212	40859.8
666.562	40899.12
666.912	40715.17
667.262	40773.93
667.612	40841.72
667.962	40907.48
668.312	40599.02
668.662	40818.67
669.011	40821.38
669.361	40692.8
669.711	40509.75
670.06	40532.8
670.41	40606.7
670.76	40419.36
671.109	40403.77
671.459	40404.22
671.808	40389.76
672.157	40488.74
672.507	40360.61
672.856	40375.29
673.205	40371.23
673.554	40418.91
673.904	40294.17
674.253	40413.49
674.602	40185.24
674.951	39760.17
675.3	39543.68
675.649	40148.18
675.998	40105.02
676.346	40062.08
676.695	40232.7
677.044	39914.06
677.393	40034.74
677.741	40099.82
678.09	39917.68
678.438	39824.35
678.787	39916.32
679.135	40109.54
679.484	39779.38
679.832	39841.52
680.181	39528.08
680.529	39761.53
680.877	39543.23
681.225	39529.21
681.573	39707.52
681.922	39423.68
682.27	39292.84
682.618	39343.23
682.966	39258.26
683.314	39267.98
683.661	39158.6
684.009	39007.19
684.357	38964.71
684.705	38910.25
685.053	39053.52
685.4	38921.77
685.748	38732.85
686.095	38721.78
686.443	38417.83
686.79	38437.49
687.138	38404.95
687.485	38395.46
687.832	38393.65
688.18	38341.22
688.527	38166.99
688.874	38230.94
689.221	37899.2
689.568	37876.6
689.915	37876.38
690.262	37946.88
690.609	37896.72
690.956	37712.77
691.303	37678.19
691.65	37508.25
691.997	37385.09
692.344	37335.6
692.69	37248.82
693.037	37368.37
693.383	37025.55
693.73	37060.13
694.077	36735.62
694.423	36899
694.769	36824.65
695.116	36770.19
695.462	36781.72
695.808	36624.43
696.155	36583.08
696.501	36322.07
696.847	36294.05
697.193	35995.52
697.539	36279.36
697.885	35954.85
698.231	35936.77
698.577	35898.58
698.923	35787.62
699.269	35543.56
699.614	35360.28
699.96	35191.25
700.306	35393.73
700.651	35323.68
700.997	35070.58
701.342	35097.02
701.688	34839.62
702.033	34813.41
702.379	34813.86
702.724	34753.97
703.069	34792.39
703.415	34394.89
703.76	34362.35
704.105	34377.71
704.45	34263.36
704.795	34034.67
705.14	33924.62
705.485	33869.02
705.83	33833.55
706.175	34043.94
706.52	33726.43
706.865	33645.98
707.209	33629.71
707.554	33403.95
707.899	33596.04
708.243	33417.29
708.588	33314.69
708.932	33053.68
709.277	33100.91
709.621	33002.38
709.966	32844.42
710.31	32945.21
710.654	32635.16
710.998	32791.76
711.342	32810.52
711.687	32693.01
712.031	32585.22
712.375	32436.07
712.719	32527.14
713.063	32437.2
713.407	32440.14
713.75	32290.08
714.094	32273.59
714.438	32188.39
714.782	32288.05
715.125	31955.85
715.469	32183.19
715.812	31976.87
716.156	31747.5
716.499	31884.67
716.843	31726.93
717.186	31584.57
717.53	31656.43
717.873	31673.38
718.216	31526.49
718.559	31521.06
718.902	31206.72
719.246	31367.17
719.589	31334.18
719.932	31087.18
720.275	30987.07
720.617	31026.16
720.96	30937.35
721.303	31000.4
721.646	30986.16
721.989	30753.85
722.331	30862.55
722.674	30794.08
723.016	30823.68
723.359	30540.75
723.701	30640.86
724.044	30373.98
724.386	30369.68
724.729	30420.53
725.071	30328.55
725.413	30328.78
725.755	30222.57
726.097	30181.89
726.439	30026.41
726.782	29955
727.124	30124.94
727.465	29923.37
727.807	29891.05
728.149	29828.9
728.491	29801.34
728.833	29831.16
729.175	29713.65
729.516	29576.03
729.858	29519.08
730.199	29562.02
730.541	29592.53
730.882	29550.72
731.224	29671.85
731.565	29334.68
731.906	29516.6
732.248	29324.06
732.589	29128.36
732.93	29105.76
733.271	29140.79
733.612	29272.99
733.953	29100.11
734.294	29024.18
734.635	28975.37
734.976	29144.86
735.317	28971.07
735.658	29016.95
735.999	28898.99
736.339	28781.25
736.68	28907.12
737.021	28675.94
737.361	28593.68
737.702	28802.04
738.042	28547.58
738.383	28507.58
738.723	28591.2
739.063	28538.09
739.404	28532.67
739.744	28322.5
740.084	28396.17
740.424	28543.29
740.764	28279.57
741.104	28324.99
741.444	28261.94
741.784	28029.4
742.124	28087.93
742.464	28150.08
742.804	28035.96
743.143	27995.96
743.483	27903.76
743.823	27883.87
744.162	27770.43
744.502	27917.09
744.841	27695.85
745.181	27841.16
745.52	27543.99
745.86	27657.66
746.199	27508.51
746.538	27605.91
746.877	27499.93
747.216	27414.05
747.556	27274.17
747.895	27325.47
748.234	27299.03
748.573	27175.87
748.911	27087.28
749.25	27222.42
749.589	26976.55
749.928	27070.11
750.267	27034.4
750.605	26959.83
750.944	26912.6
751.283	26709.89
751.621	26961.86
751.96	26695.43
752.298	26652.27
752.636	26571.14
752.975	26393.06
753.313	26477.58
753.651	26450.69
753.989	26241.43
754.327	26306.06
754.666	26198.04
755.004	26221.99
755.342	26131.15
755.679	26139.51
756.017	25949.68
756.355	26070.13
756.693	25913.53
757.031	25966.18
757.368	25756.92
757.706	25723.48
758.044	25709.92
758.381	25730.03
758.719	25626.76
759.056	25536.14
759.394	25542.01
759.731	25289.36
760.068	25211.17
760.405	25123.72
760.743	24997.39
761.08	25061.12
761.417	24942.71
761.754	24896.15
762.091	24784.74
762.428	24774.8
762.765	24627.46
763.102	24606.9
763.438	24561.25
763.775	24407.8
764.112	24393.79
764.449	24478.09
764.785	24129.85
765.122	24069.96
765.458	23932.34
765.795	23939.79
766.131	23912
766.467	23763.98
766.804	23639.46
767.14	23613.02
767.476	23652.12
767.812	23540.71
768.148	23681.04
768.485	23334.39
768.821	23208.97
769.157	23251.22
769.492	23197.67
769.828	23181.85
770.164	22853.72
770.5	22989.76
770.836	22916.09
771.171	22752.71
771.507	22663.9
771.842	22577.8
772.178	22546.61
772.513	22512.04
772.849	22318.59
773.184	22196.11
773.519	22212.38
773.855	22252.16
774.19	22143.23
774.525	21953.41
774.86	21999.51
775.195	21922.67
775.53	21783.01
775.865	21595.22
776.2	21526.52
776.535	21470.03
776.87	21468.45
777.205	21223.71
777.539	21219.87
777.874	21385.06
778.209	21174.44
778.543	20989.36
778.878	20959.76
779.212	20841.12
779.547	20761.35
779.881	20847.22
780.215	20642.25
780.55	20666.21
780.884	20499.21
781.218	20509.15
781.552	20472.09
781.886	20317.06
782.22	20242.49
782.554	20136.28
782.888	20032.33
783.222	19944.42
783.556	19847.25
783.889	19801.6
784.223	19656.52
784.557	19604.77
784.89	19661.49
785.224	19520.93
785.557	19398.67
785.891	19377.43
786.224	19351.67
786.558	19406.13
786.891	19184.21
787.224	19080.94
787.557	19093.59
787.891	19026.93
788.224	18957.1
788.557	18971.79
788.89	18828.52
789.223	18832.81
789.556	18706.71
789.888	18535.42
790.221	18551.24
790.554	18363.9
790.887	18345.37
791.219	18333.61
791.552	18252.49
791.884	18087.74
792.217	18183.79
792.549	18012.94
792.882	18026.96
793.214	17805.72
793.546	17802.1
793.879	17819.28
794.211	17765.95
794.543	17715.1
794.875	17643.91
795.207	17681.65
795.539	17570.47
795.871	17579.74
796.203	17334.09
796.535	17361.21
796.867	17214.55
797.198	17275.11
797.53	17300.19
797.862	17205.06
798.193	17159.41
798.525	16965.97
798.856	17078.51
799.188	16853.2
799.519	16846.65
799.85	16769.14
800.182	16801.45
800.513	16731.4
800.844	16570.95
801.175	16755.35
801.506	16585.64
801.837	16542.47
802.168	16542.25
802.499	16422.25
802.83	16304.97
803.161	16345.19
803.491	16215.48
803.822	16331.18
804.153	16148.59
804.483	16008.7
804.814	15959.21
805.145	15973.22
805.475	16125.99
805.805	15939.1
806.136	15936.61
806.466	15947.24
806.796	15899.55
807.126	15737.07
807.457	15637.64
807.787	15751.76
808.117	15630.41
808.447	15534.82
808.777	15538.21
809.107	15451.66
809.436	15359.68
809.766	15384.09
810.096	15300.02
810.426	15279.91
810.755	15105.68
811.085	15092.34
811.414	15161.95
811.744	15002.63
812.073	14962.63
812.403	15007.83
812.732	14878.79
813.061	14889.64
813.39	14791.33
813.719	14792.46
814.049	14900.03
814.378	14810.99
814.707	14762.86
815.036	14747.04
815.365	14596.54
815.693	14532.13
816.022	14516.31
816.351	14514.51
816.68	14411.91
817.008	14475.86
817.337	14310.67
817.665	14320.16
817.994	14320.84
818.322	14285.81
818.651	14292.36
818.979	14250.78
819.307	14327.17
819.636	14182.54
819.964	14004.01
820.292	14135.31
820.62	14137.79
820.948	14059.15
821.276	14112.93
821.604	14091.92
821.932	14125.82
822.259	14084.69
822.587	13944.12
822.915	14050.79
823.243	14056.21
823.57	14065.7
823.898	14016.21
824.225	14027.29
824.553	13918.14
824.88	13906.39
825.207	13958.36
825.535	13943.9
825.862	13993.39
826.189	13900.96
826.516	13998.36
826.843	14049.66
827.17	13982.77
827.497	14121.75
827.824	13968.76
828.151	14060.05
828.478	13990.68
828.805	14123.1
829.131	13964.01
829.458	13906.61
829.785	13852.15
830.111	13946.61
830.438	13892.83
830.764	13884.69
831.09	13943.67
831.417	13804.24
831.743	13934.18
832.069	13876.56
832.395	13827.52
832.722	13850.79
833.048	13810.8
833.374	13864.35
833.7	13705.49
834.026	13788.2
834.351	13798.82
834.677	13808.76
835.003	13816.44
835.329	13782.1
835.654	13817.8
835.98	13671.59
836.306	13702.32
836.631	13630.23
836.956	13667.07
837.282	13729.89
837.607	13546.4
837.932	13590.46
838.258	13577.13
838.583	13533.97
838.908	13480.41
839.233	13423.01
839.558	13338.04
839.883	13396.79
840.208	13423.01
840.533	13361.09
840.858	13375.55
841.182	13392.95
841.507	13411.94
841.832	13361.54
842.156	13286.52
842.481	13356.8
842.805	13245.16
843.13	13189.79
843.454	13146.41
843.778	13160.64
844.103	13059.4
844.427	13074.77
844.751	13095.33
845.075	12971.95
845.399	13007.88
845.723	12872.06
846.047	12901.89
846.371	12861.89
846.695	12797.04
847.019	12713.2
847.343	12611.96
847.666	12519.76
847.99	12453.77
848.313	12423.71
848.637	12398.4
848.96	12385.07
849.284	12300.33
849.607	12285.19
849.931	12349.14
850.254	12168.13
850.577	12143.95
850.9	12048.81
851.223	12082.03
851.546	11942.37
851.869	11839.32
852.192	11908.47
852.515	11809.72
852.838	11793.9
853.161	11860.34
853.483	11664.18
853.806	11583.73
854.129	11640
854.451	11565.66
854.774	11508.48
855.096	11491.08
855.419	11487.24
855.741	11455.15
856.063	11435.04
856.385	11346.91
856.708	11321.82
857.03	11278.88
857.352	11247.7
857.674	11211.09
857.996	11148.72
858.318	11167.25
858.64	11123.18
858.961	11035.27
859.283	11030.53
859.605	10981.94
859.926	10939.46
860.248	11014.03
860.57	10975.39
860.891	10982.62
861.212	10887.03
861.534	10884.09
861.855	10854.49
862.176	10918.22
862.498	10830.53
862.819	10860.59
863.14	10781.95
863.461	10728.84
863.782	10644.55
864.103	10703.53
864.424	10702.63
864.745	10622.4
865.065	10625.57
865.386	10620.6
865.707	10586.47
866.027	10615.62
866.348	10568.39
866.668	10535.85
866.989	10543.31
867.309	10515.51
867.63	10485.23
867.95	10436.87
868.27	10380.15
868.59	10366.14
868.91	10414.27
869.23	10355.29
869.55	10360.04
869.87	10436.87
870.19	10313.03
870.51	10255.41
870.83	10373.37
871.15	10219.93
871.469	10177.22
871.789	10217.9
872.109	10232.58
872.428	10144.9
872.748	10147.16
873.067	10112.59
873.386	10191.91
873.706	10122.08
874.025	10071.01
874.344	10050.22
874.663	10055.19
874.982	10015.19
875.301	10082.98
875.62	10003.89
875.939	9911.01
876.258	9980.16
876.577	9904.01
876.896	9951.69
877.214	9820.39
877.533	9837.57
877.852	9888.19
878.17	9876.21
878.489	9874.4
878.807	9755.08
879.125	9824.69
879.444	9852.48
879.762	9753.95
880.08	9782.88
880.398	9750.56
880.716	9738.59
881.034	9665.59
881.352	9719.6
881.67	9704.46
881.988	9708.3
882.306	9665.82
882.624	9661.3
882.941	9575.43
883.259	9559.61
883.577	9576.1
883.894	9533.17
884.212	9560.51
884.529	9473.06
884.846	9469.21
885.164	9446.16
885.481	9373.85
885.798	9422.21
886.115	9375.43
886.432	9317.81
886.75	9290.24
887.067	9339.05
887.383	9291.14
887.7	9318.48
888.017	9231.93
888.334	9227.41
888.651	9244.14
888.967	9167.75
889.284	9182.89
889.6	9127.53
889.917	9102.44
890.233	9084.82
890.55	9015.44
890.866	9007.76
891.182	9012.5
891.498	8946.97
891.815	8919.62
892.131	8866.97
892.447	8845.5
892.763	8847.99
893.079	8811.6
893.395	8789.23
893.71	8828.1
894.026	8726.63
894.342	8767.54
894.657	8680.99
894.973	8707.88
895.289	8638.73
895.604	8617.71
895.92	8536.58
896.235	8493.87
896.55	8541.1
896.865	8501.1
897.181	8417.26
897.496	8451.61
897.811	8443.25
898.126	8346.76
898.441	8396.7
898.756	8345.85
899.071	8306.53
899.386	8350.6
899.7	8229.02
900.015	8200.55
900.33	8164.84
900.644	8208
900.959	8136.14
901.273	8156.03
901.588	8105.18
901.902	8063.6
902.216	8017.73
902.531	7960.33
902.845	7944.96
903.159	7886.88
903.473	7887.79
903.787	7801.91
904.101	7772.99
904.415	7769.15
904.729	7754.68
905.042	7753.33
905.356	7697.96
905.67	7739.99
905.984	7668.36
906.297	7643.5
906.611	7604.86
906.924	7624.74
907.237	7542.71
907.551	7486.89
907.864	7469.72
908.177	7473.33
908.491	7453.9
908.804	7424.52
909.117	7342.49
909.43	7318.31
909.743	7314.69
910.056	7270.85
910.368	7244.64
910.681	7218.88
910.994	7223.62
911.307	7168.26
911.619	7059.33
911.932	7096.4
912.244	7111.31
912.557	7079.22
912.869	6999.9
913.181	6956.74
913.494	6944.76
913.806	6943.18
914.118	6914.48
914.43	6835.39
914.742	6809.62
915.054	6865.89
915.366	6806.46
915.678	6762.17
915.99	6741.6
916.302	6701.6
916.613	6703.41
916.925	6649.4
917.236	6642.85
917.548	6534.83
917.859	6589.29
918.171	6522.63
918.482	6493.25
918.794	6481.72
919.105	6465.68
919.416	6391.1
919.727	6385
920.038	6351.33
920.349	6317.66
920.66	6326.25
920.971	6361.95
921.282	6259.13
921.593	6252.58
921.903	6232.69
922.214	6186.36
922.525	6152.47
922.835	6131.67
923.146	6064.78
923.456	6063.88
923.767	6064.78
924.077	6004.67
924.387	5987.5
924.697	5931.91
925.008	5949.98
925.318	5958.57
925.628	5897.56
925.938	5903.88
926.248	5837.9
926.558	5839.71
926.867	5807.62
927.177	5758.13
927.487	5733.49
927.796	5695.75
928.106	5697.56
928.416	5658.02
928.725	5709.09
929.034	5559.03
929.344	5614.85
929.653	5589.09
929.962	5548.19
930.271	5531.46
930.581	5499.38
930.89	5482.2
931.199	5451.92
931.508	5422.54
931.817	5444.24
932.125	5363.33
932.434	5370.57
932.743	5332.6
933.051	5290.12
933.36	5260.29
933.669	5242.21
933.977	5217.57
934.286	5229.55
934.594	5254.18
934.902	5143.68
935.21	5177.58
935.519	5145.71
935.827	5091.93
936.135	5124.47
936.443	5102.78
936.751	5064.13
937.059	5004.7
937.367	5010.57
937.674	4995.89
937.982	4992.72
938.29	4979.16
938.597	4965.6
938.905	4922.22
939.213	4878.83
939.52	4854.87
939.827	4893.29
940.135	4823.69
940.442	4806.06
940.749	4774.65
941.056	4724.25
941.363	4725.84
941.67	4722.22
941.977	4697.59
942.284	4663.24
942.591	4665.72
942.898	4628.66
943.205	4636.57
943.511	4606.07
943.818	4607.65
944.125	4505.95
944.431	4533.52
944.738	4521.1
945.044	4521.1
945.35	4452.62
945.657	4453.98
945.963	4474.32
946.269	4429.57
946.575	4396.58
946.881	4360.42
947.187	4352.29
947.493	4323.13
947.799	4324.72
948.105	4305.06
948.41	4298.5
948.716	4254.66
949.022	4224.15
949.327	4284.04
949.633	4261.67
949.938	4256.02
950.244	4218.96
950.549	4181.22
950.854	4161.11
951.16	4183.93
951.465	4103.93
951.77	4097.6
952.075	4091.05
952.38	4124.27
952.685	4049.7
952.99	4059.87
953.294	4017.38
953.599	3973.54
953.904	3966.31
954.209	3946.2
954.513	3935.57
954.818	3906.42
955.122	3910.49
955.426	3881.34
955.731	3871.85
956.035	3856.93
956.339	3853.54
956.643	3842.24
956.948	3841.57
957.252	3748.01
957.556	3803.6
957.86	3778.06
958.163	3755.24
958.467	3677.73
958.771	3705.3
959.075	3668.01
959.378	3690.61
959.682	3684.73
959.985	3677.28
960.289	3601.35
960.592	3627.33
960.896	3636.6
961.199	3581.69
961.502	3562.93
961.805	3540.1
962.108	3515.25
962.411	3513.66
962.714	3519.09
963.017	3453.1
963.32	3478.41
963.623	3453.33
963.926	3521.8
964.228	3411.07
964.531	3386.21
964.833	3394.57
965.136	3416.49
965.438	3395.48
965.741	3344.86
966.043	3322.94
966.345	3320.68
966.648	3357.28
966.95	3309.38
967.252	3302.82
967.554	3298.3
967.856	3259.66
968.158	3217.18
968.46	3195.48
968.761	3199.77
969.063	3225.99
969.365	3192.32
969.666	3219.89
969.968	3167.23
970.269	3143.5
970.571	3117.06
970.872	3121.58
971.174	3107.8
971.475	3070.74
971.776	3053.79
972.077	3051.76
972.378	3039.33
972.679	3038.87
972.98	3012.43
973.281	3012.43
973.582	2986.9
973.883	2998.88
974.183	2978.99
974.484	2964.75
974.785	2950.52
975.085	2940.12
975.386	2944.64
975.686	2904.87
975.986	2879.33
976.287	2925.21
976.587	2877.52
976.887	2855.38
977.187	2836.17
977.487	2817.41
977.787	2810.18
978.087	2771.09
978.387	2768.6
978.687	2781.71
978.987	2766.11
979.286	2724.31
979.586	2744.65
979.885	2701.93
980.185	2682.73
980.484	2689.51
980.784	2705.32
981.083	2687.7
981.382	2665.1
981.682	2695.38
981.981	2654.93
982.28	2628.04
982.579	2622.84
982.878	2625.78
983.177	2644.53
983.475	2580.58
983.774	2568.83
984.073	2623.07
984.372	2534.48
984.67	2540.36
984.969	2553.92
985.267	2542.16
985.566	2522.73
985.864	2520.02
986.162	2485.67
986.461	2470.75
986.759	2477.53
987.057	2448.61
987.355	2437.08
987.653	2420.13
987.951	2402.51
988.249	2433.24
988.547	2423.07
988.844	2393.92
989.142	2388.27
989.44	2368.84
989.737	2360.25
990.035	2387.82
990.332	2332
990.63	2343.98
990.927	2351.44
991.224	2287.71
991.521	2283.64
991.819	2285.9
992.116	2295.84
992.413	2237.54
992.71	2272.79
993.006	2232.12
993.303	2238.9
993.6	2209.52
993.897	2178.11
994.193	2204.09
994.49	2183.76
994.787	2169.52
995.083	2181.72
995.379	2179.69
995.676	2156.86
995.972	2138.11
996.268	2117.54
996.565	2112.8
996.861	2100.37
997.157	2091.1
997.453	2088.17
997.749	2091.56
998.044	2075.06
998.34	2040.03
998.636	2054.95
998.932	2054.04
999.227	2055.4
999.523	2037.32
999.818	2000.71
1000.114	1987.15
1000.409	2012.69
1000.704	1961.84
1001	1993.48
1001.295	1962.75
1001.59	1957.55
1001.885	1977.21
1002.18	1945.12
1002.475	1929.53
1002.77	1940.37
1003.065	1854.95
1003.359	1882.97
1003.654	1892.92
1003.949	1888.4
1004.243	1834.16
1004.538	1858.11
1004.832	1834.61
1005.127	1843.88
1005.421	1783.09
1005.715	1823.09
1006.009	1768.85
1006.304	1795.07
1006.598	1780.6
1006.892	1782.64
1007.186	1757.1
1007.48	1754.39
1007.773	1706.25
1008.067	1739.7
1008.361	1717.78
1008.655	1714.16
1008.948	1682.98
1009.242	1692.7
1009.535	1657.44
1009.829	1690.66
1010.122	1682.98
1010.415	1661.28
1010.708	1671.68
1011.001	1630.55
1011.295	1598.46
1011.588	1609.53
1011.881	1586.71
1012.173	1585.58
1012.466	1574.96
1012.759	1572.92
1013.052	1604.79
1013.344	1593.72
1013.637	1545.58
1013.93	1538.35
1014.222	1541.97
1014.514	1534.51
1014.807	1505.81
1015.099	1509.2
1015.391	1522.76
1015.683	1471.23
1015.976	1483.89
1016.268	1461.06
1016.56	1483.44
1016.851	1467.62
1017.143	1414.96
1017.435	1423.1
1017.727	1431.69
1018.018	1423.32
1018.31	1405.47
1018.602	1413.83
1018.893	1402.08
1019.185	1388.97
1019.476	1396.66
1019.767	1383.1
1020.058	1357.79
1020.35	1368.86
1020.641	1332.93
1020.932	1341.97
1021.223	1337.68
1021.514	1316.66
1021.804	1297.9
1022.095	1298.13
1022.386	1283.44
1022.677	1272.82
1022.967	1269.88
1023.258	1264.01
1023.548	1254.52
1023.839	1262.88
1024.129	1239.83
1024.419	1258.36
1024.709	1260.84
1025	1214.52
1025.29	1181.75
1025.58	1215.87
1025.87	1201.18
1026.16	1182.65
1026.449	1182.2
1026.739	1189.21
1027.029	1168.64
1027.319	1156.89
1027.608	1153.27
1027.898	1148.3
1028.187	1123.22
1028.477	1113.28
1028.766	1146.27
1029.055	1105.14
1029.344	1134.52
1029.634	1108.53
1029.923	1100.17
1030.212	1091.58
1030.501	1080.73
1030.79	1068.08
1031.078	1075.76
1031.367	1055.2
1031.656	1074.86
1031.945	1046.84
1032.233	1068.08
1032.522	1046.61
1032.81	1021.98
1033.099	1017.91
1033.387	995.09
1033.675	990.12
1033.963	1008.42
1034.251	986.5
1034.54	982.21
1034.828	976.78
1035.116	963.22
1035.403	935.43
1035.691	959.83
1035.979	955.99
1036.267	967.06
1036.554	925.94
1036.842	919.83
1037.129	953.51
1037.417	927.74
1037.704	923.9
1037.992	927.29
1038.279	890.68
1038.566	901.3
1038.853	901.3
1039.14	901.3
