Data from plate_ceramic_FLMS001491_006.txt Node
Date: Tue Feb 07 11:16:14 GMT 2017
User: dcchb
Spectrometer: FLMS00149
Trigger mode: 0
Integration Time (sec): 2.000000E-2
Scans to average: 10
Electric dark correction enabled: true
Nonlinearity correction enabled: false
Boxcar width: 0
XAxis mode: Wavelengths
Number of Pixels in Spectrum: 2048
>>>>>Begin Spectral Data<<<<<
341.393	-4.55
341.776	-4.55
342.16	-4.55
342.543	-51.55
342.927	-58.78
343.31	-70.99
343.693	-60.14
344.077	-78.67
344.46	-81.61
344.843	-61.95
345.226	-35.51
345.61	-37.09
345.993	-16.07
346.376	9.91
346.759	20.08
347.142	21.44
347.525	51.5
347.908	57.6
348.291	82.23
348.674	92.85
349.057	106.41
349.44	131.27
349.823	144.15
350.206	152.51
350.588	221.89
350.971	230.93
351.354	252.62
351.737	259.17
352.119	251.72
352.502	285.61
352.884	296.24
353.267	305.5
353.65	316.12
354.032	323.81
354.414	290.81
354.797	349.57
355.179	332.39
355.562	345.73
355.944	359.74
356.326	371.49
356.709	367.65
357.091	355.44
357.473	367.87
357.855	375.33
358.238	347.76
358.62	366.97
359.002	350.92
359.384	365.61
359.766	372.62
360.148	354.54
360.53	373.3
360.912	380.53
361.294	362.9
361.676	361.54
362.057	363.13
362.439	361.54
362.821	363.13
363.203	337.59
363.584	341.66
363.966	366.29
364.348	342.34
364.729	386.63
365.111	359.96
365.493	348.21
365.874	360.64
366.256	356.57
366.637	376.01
367.019	339.85
367.4	371.04
367.781	346.4
368.163	365.39
368.544	387.31
368.925	373.75
369.306	351.83
369.688	339.17
370.069	355.67
370.45	354.54
370.831	373.75
371.212	357.7
371.593	367.19
371.974	377.36
372.355	361.54
372.736	371.71
373.117	368.1
373.498	385.95
373.879	367.42
374.26	380.75
374.641	353.18
375.021	375.33
375.402	388.66
375.783	376.01
376.163	412.39
376.544	387.08
376.925	404.93
377.305	394.31
377.686	395.44
378.066	412.39
378.447	405.38
378.827	415.78
379.208	415.1
379.588	410.13
379.968	426.18
380.349	412.62
380.729	424.14
381.109	429.79
381.489	416.91
381.87	440.19
382.25	419.17
382.63	438.83
383.01	417.81
383.39	443.12
383.77	436.34
384.15	436.8
384.53	467.3
384.91	454.42
385.29	461.88
385.67	489.9
386.049	465.72
386.429	478.38
386.809	473.86
387.189	471.82
387.568	500.3
387.948	501.88
388.328	489.9
388.707	504.59
389.087	490.35
389.466	505.72
389.846	525.83
390.225	535.32
390.605	501.88
390.984	537.58
391.363	567.87
391.743	521.54
392.122	530.81
392.501	537.81
392.881	560.18
393.26	542.78
393.639	535.32
394.018	547.3
394.397	584.82
394.776	580.97
395.155	583.23
395.534	593.18
395.913	568.77
396.292	601.54
396.671	592.05
397.05	598.15
397.429	599.05
397.808	620.52
398.186	613.74
398.565	610.35
398.944	631.59
399.323	664.36
399.701	654.87
400.08	656.45
400.458	644.93
400.837	657.36
401.215	679.05
401.594	672.27
401.972	702.55
402.351	662.33
402.729	691.48
403.107	716.79
403.486	706.17
403.864	717.02
404.242	730.8
404.62	759.95
404.999	745.94
405.377	747.07
405.755	750.91
406.133	776.9
406.511	787.07
406.889	801.31
407.267	777.13
407.645	771.02
408.023	785.71
408.401	850.12
408.779	818.03
409.156	834.98
409.534	834.75
409.912	854.41
410.29	864.13
410.667	867.29
411.045	887.86
411.422	890.57
411.8	921.53
412.178	934.41
412.555	947.29
412.933	961.75
413.31	968.53
413.687	991.13
414.065	969.89
414.442	988.65
414.819	1014.41
415.197	1023.45
415.574	1043.79
415.951	1035.2
416.328	1037.01
416.705	1078.59
417.082	1063.45
417.46	1067.06
417.837	1095.99
418.214	1133.73
418.591	1123.78
418.967	1119.94
419.344	1139.83
419.721	1145.93
420.098	1149.77
420.475	1191.35
420.852	1182.99
421.228	1209.43
421.605	1226.83
421.982	1245.14
422.358	1246.04
422.735	1281.07
423.111	1264.35
423.488	1293.72
423.864	1289.43
424.241	1313.84
424.617	1345.02
424.994	1316.55
425.37	1322.2
425.746	1354.29
426.123	1353.83
426.499	1379.14
426.875	1427.96
427.251	1436.77
427.627	1474.51
428.003	1470.22
428.379	1501.85
428.756	1505.02
429.132	1517.22
429.507	1550.67
429.883	1573.04
430.259	1582.53
430.635	1618.91
431.011	1665.46
431.387	1662.98
431.763	1699.14
432.138	1709.53
432.514	1730.32
432.89	1723.09
433.265	1786.14
433.641	1800.83
434.016	1797.21
434.392	1855.06
434.767	1853.93
435.143	1887.83
435.518	1930.54
435.894	1925.8
436.269	1958.11
436.644	1948.4
437.02	2003.76
437.395	1999.47
437.77	2036.53
438.145	2031.33
438.52	2069.75
438.895	2112.46
439.271	2123.53
439.646	2163.08
440.021	2169.18
440.395	2157.43
440.77	2201.5
441.145	2184.77
441.52	2214.38
441.895	2218.22
442.27	2237.2
442.645	2252.34
443.019	2281.72
443.394	2283.98
443.769	2356.07
444.143	2325.79
444.518	2355.39
444.892	2330.53
445.267	2382.51
445.641	2426.8
446.016	2398.55
446.39	2446.91
446.764	2482.39
447.139	2453.24
447.513	2503.86
447.887	2478.78
448.262	2504.09
448.636	2539.57
449.01	2558.1
449.384	2583.18
449.758	2583.41
450.132	2665.21
450.506	2654.82
450.88	2684.19
451.254	2710.18
451.628	2715.15
452.002	2777.07
452.376	2783.85
452.75	2829.73
453.123	2875.15
453.497	2893.68
453.871	2905.21
454.244	2972.77
454.618	3004.41
454.992	3021.36
455.365	3066.56
455.739	3114.01
456.112	3150.62
456.486	3169.83
456.859	3200.34
457.232	3267.46
457.606	3231.53
457.979	3330.51
458.352	3381.13
458.725	3432.42
459.099	3431.75
459.472	3500.67
459.845	3594.23
460.218	3606.43
460.591	3617.05
460.964	3635.36
461.337	3749.93
461.71	3746.31
462.083	3834.45
462.456	3844.84
462.829	3862.92
463.201	3968.23
463.574	3936.37
463.947	3994.67
464.32	4116.47
464.692	4178.62
465.065	4122.35
465.438	4238.73
465.81	4293.42
466.183	4372.29
466.555	4432.62
466.928	4468.78
467.3	4486.18
467.672	4507.65
468.045	4674.2
468.417	4651.83
468.789	4732.73
469.161	4814.31
469.534	4860.63
469.906	4973.4
470.278	4995.77
470.65	5057.01
471.022	5166.39
471.394	5261.3
471.766	5315.76
472.138	5415.2
472.51	5480.51
472.882	5579.94
473.253	5661.07
473.625	5737
473.997	5810.44
474.369	5885.92
474.74	5971.34
475.112	6125.91
475.484	6178.34
475.855	6280.48
476.227	6320.48
476.598	6540.59
476.97	6588.73
477.341	6699
477.713	6835.95
478.084	6823.97
478.455	7012.44
478.827	7142.16
479.198	7309.61
479.569	7346.9
479.94	7602.26
480.311	7615.82
480.682	7892.19
481.053	7989.59
481.424	8115.01
481.795	8211.96
482.166	8256.03
482.537	8441.11
482.908	8687.43
483.279	8713.87
483.65	8880.64
484.021	9048.32
484.391	9197.24
484.762	9248.32
485.133	9359.27
485.503	9461.64
485.874	9684.01
486.244	9791.58
486.615	9983.66
486.985	10065.02
487.356	10279.25
487.726	10440.83
488.097	10565.57
488.467	10624.1
488.837	10948.61
489.207	10963.3
489.578	11101.83
489.948	11259.56
490.318	11435.83
490.688	11443.06
491.058	11732.09
491.428	11755.14
491.798	11954.23
492.168	12145.87
492.538	12255.24
492.908	12422.92
493.278	12565.07
493.648	12573.65
494.017	12805.96
494.387	12895.68
494.757	13047.76
495.126	13186.52
495.496	13192.85
495.866	13411.37
496.235	13446.62
496.605	13626.28
496.974	13727.75
497.344	13855.88
497.713	13922.32
498.082	14034.4
498.452	14169.77
498.821	14254.51
499.19	14321.18
499.559	14467.61
499.928	14548.29
500.298	14711.68
500.667	14853.14
501.036	14795.51
501.405	14994.61
501.774	15136.52
502.143	15174.94
502.512	15233.24
502.88	15456.29
503.249	15492.45
503.618	15582.61
503.987	15650.41
504.356	15757.07
504.724	15939.44
505.093	15958.42
505.462	16066.67
505.83	16193.9
506.199	16336.94
506.567	16521.35
506.936	16545.07
507.304	16737.38
507.672	16941.9
508.041	16999.75
508.409	17135.34
508.777	17209.46
509.145	17392.96
509.514	17407.42
509.882	17472.51
510.25	17572.62
510.618	17659.62
510.986	17776
511.354	18025.49
511.722	18167.18
512.09	18318.36
512.458	18385.25
512.826	18478.36
513.193	18640.61
513.561	18681.06
513.929	18917.89
514.297	19093.93
514.664	19250.99
515.032	19284.44
515.4	19509.97
515.767	19610.53
516.135	19734.14
516.502	19554.03
516.869	20030.63
517.237	20196.5
517.604	20064.53
517.972	20373.67
518.339	20480.11
518.706	20595.14
519.073	20691.63
519.44	20839.65
519.808	20993.77
520.175	21158.29
520.542	21525.73
520.909	21570.25
521.276	21514.43
521.643	21793.52
522.009	21972.5
522.376	22190.12
522.743	22309.44
523.11	22558.93
523.477	22834.85
523.843	22888.18
524.21	23144.67
524.577	23278.23
524.943	23366.81
525.31	23579.01
525.676	23789.85
526.043	23995.72
526.409	24126.57
526.776	24329.73
527.142	24407.69
527.508	24610.62
527.874	24775.82
528.241	24838.41
528.607	25075.92
528.973	25287.67
529.339	25217.84
529.705	25535.8
530.071	25792.29
530.437	25912.06
530.803	26094.43
531.169	26262.56
531.535	26387.3
531.901	26359.28
532.267	26447.64
532.632	26608.09
532.998	26793.84
533.364	26994.06
533.73	27170.33
534.095	27345.47
534.461	27406.03
534.826	27595.4
535.192	27671.33
535.557	27932.34
535.923	27963.08
536.288	28061.15
536.653	28262.05
537.019	28167.14
537.384	28393.58
537.749	28497.53
538.114	28591.99
538.479	28692.1
538.845	28802.83
539.21	28803.96
539.575	28851.87
539.94	29078.08
540.305	29284.85
540.67	29208.92
541.034	29407.33
541.399	29520.55
541.764	29638.97
542.129	29678.97
542.494	29741.34
542.858	29906.3
543.223	30002.35
543.587	30161.21
543.952	30120.08
544.316	30330.7
544.681	30360.98
545.045	30370.47
545.41	30672.39
545.774	30616.12
546.138	30851.14
546.503	30926.39
546.867	31004.13
547.231	31289.09
547.595	31215.65
547.959	31500.61
548.324	31379.49
548.688	31633.94
549.052	31541.97
549.416	31795.97
549.779	31861.51
550.143	31896.99
550.507	32131.78
550.871	32243.42
551.235	32335.17
551.599	32550.08
551.962	32649.51
552.326	32638.44
552.689	32909.84
553.053	32814.02
553.417	33015.6
553.78	33339.89
554.143	33194.35
554.507	33422.82
554.87	33661.23
555.234	33942.58
555.597	33756.37
555.96	33862.81
556.323	34112.07
556.686	34177.83
557.05	34326.07
557.413	34550.25
557.776	34651.04
558.139	34865.27
558.502	34974.87
558.865	35098.71
559.228	35347.97
559.59	35403.11
559.953	35572.14
560.316	35878.8
560.679	35830.89
561.041	36181.62
561.404	36351.33
561.767	36479.24
562.129	36497.77
562.492	36921.94
562.854	36843.3
563.217	36896.4
563.579	37096.4
563.941	37428.59
564.304	37535.26
564.666	37774.57
565.028	37800.56
565.39	37968.46
565.753	38192.41
566.115	38335.23
566.477	38417.27
566.839	38569.13
567.201	38647.09
567.563	38776.58
567.925	39061.77
568.287	39022
568.648	39142.67
569.01	39316.68
569.372	39579.72
569.734	39511.93
570.095	39750.56
570.457	40009.99
570.819	40240.95
571.18	40055.87
571.542	40414.73
571.903	40482.07
572.265	40597.1
572.626	40674.83
572.987	40827.37
573.349	40859.69
573.71	41037.31
574.071	40981.49
574.432	41211.54
574.794	41485.66
575.155	41444.76
575.516	41414.93
575.877	41660.35
576.238	41679.1
576.599	41858.31
576.96	41931.07
577.32	41960.45
577.681	41958.64
578.042	42167.45
578.403	42230.73
578.763	42082.48
579.124	42448.35
579.485	42456.48
579.845	42601.11
580.206	42551.85
580.566	42653.09
580.927	42680.43
581.287	42819.18
581.648	42714.33
582.008	42844.49
582.368	42612.86
582.728	42844.49
583.089	42766.3
583.449	42801.56
583.809	42937.83
584.169	43021.44
584.529	42907.77
584.889	43162.23
585.249	42803.14
585.609	42770.37
585.969	42965.62
586.329	42955.23
586.688	43051.04
587.048	43044.04
587.408	43053.08
587.768	43062.12
588.127	42995.9
588.487	43065.05
588.846	43261.89
589.206	43019.63
589.565	43071.61
589.925	43281.09
590.284	43114.09
590.643	43298.72
591.003	43382.33
591.362	43433.18
591.721	43183.24
592.08	43260.08
592.44	43518.38
592.799	43466.17
593.158	43492.16
593.517	43484.03
593.876	43440.64
594.235	43408.32
594.593	43428.89
594.952	43527.19
595.311	43373.07
595.67	43556.57
596.029	43728.77
596.387	43667.3
596.746	43616.45
597.104	43706.17
597.463	43716.56
597.822	43838.14
598.18	43633.63
598.538	43566.51
598.897	43974.86
599.255	43557.7
599.613	44088.53
599.972	43976.89
600.33	43933.96
600.688	43954.52
601.046	44062.77
601.404	44175.99
601.762	44032.49
602.12	44074.97
602.478	44192.26
602.836	44243.1
603.194	44182.76
603.552	44194.29
603.91	44040.4
604.268	44347.28
604.625	44389.99
604.983	44515.86
605.341	44288.52
605.698	44521.96
606.056	44507.5
606.413	44476.99
606.771	44714.05
607.128	44814.16
607.485	44624.79
607.843	44508.41
608.2	44878.11
608.557	44953.59
608.914	44696.65
609.272	44901.62
609.629	44952.69
609.986	45214.15
610.343	44919.02
610.7	45291.89
611.057	45132.57
611.414	45268.16
611.771	45175.06
612.127	45473.13
612.484	45327.14
612.841	45404.43
613.198	45297.76
613.554	45408.04
613.911	45591.77
614.267	45559
614.624	45516.52
614.98	45651.43
615.337	45781.82
615.693	45803.06
616.05	45640.13
616.406	45929.39
616.762	45700.24
617.118	45883.06
617.475	45818.88
617.831	45983.4
618.187	46088.03
618.543	46129.15
618.899	46181.58
619.255	46178.42
619.611	46065.43
619.967	46267
620.323	46306.32
620.678	46022.49
621.034	46177.29
621.39	46100.91
621.746	46200.56
622.101	46568.69
622.457	46245.99
622.812	46255.48
623.168	46452.99
623.523	46323.27
623.879	46477.85
624.234	46230.85
624.589	46254.35
624.945	46327.57
625.3	46227.68
625.655	46337.96
626.01	46149.49
626.365	46353.78
626.72	46276.04
627.075	46306.55
627.43	46162.83
627.785	46129.83
628.14	46252.77
628.495	46302.03
628.85	46159.89
629.205	46043.28
629.559	46272.2
629.914	46039.44
630.269	46194.46
630.623	46063.62
630.978	45893
631.332	45999.67
631.687	46135.26
632.041	46085.31
632.396	46021.59
632.75	45741.82
633.104	45659.79
633.459	45529.17
633.813	45656.17
634.167	45633.12
634.521	45545.44
634.875	45618.43
635.229	45572.33
635.583	45278.1
635.937	45486.23
636.291	45287.82
636.645	45385.22
636.999	45206.69
637.352	45350.19
637.706	45058
638.06	45356.29
638.413	44991.11
638.767	45057.77
639.121	45031.56
639.474	44770.55
639.828	44913.82
640.181	44966.25
640.534	44923.76
640.888	44786.82
641.241	44512.93
641.594	44634.05
641.947	44775.29
642.301	44731.9
642.654	44807.61
643.007	44741.17
643.36	44466.37
643.713	44578.91
644.066	44560.38
644.419	44307.06
644.771	43952.94
645.124	43750.23
645.477	43649.9
645.83	43261.66
646.182	43110.02
646.535	43004.72
646.888	43097.82
647.24	42794.33
647.593	43148.89
647.945	42984.83
648.298	42907.77
648.65	42844.49
649.002	42764.95
649.355	42804.72
649.707	42915.23
650.059	42908.9
650.411	43282.9
650.763	43497.81
651.115	43807.41
651.467	43519.28
651.819	43597.47
652.171	43501.88
652.523	43328.55
652.875	43399.73
653.227	43221.43
653.578	43603.12
653.93	43373.07
654.282	43068.44
654.633	43113.64
654.985	43200.42
655.337	43207.88
655.688	43192.96
656.039	43126.07
656.391	42973.98
656.742	43100.53
657.094	42933.98
657.445	43126.75
657.796	43016.92
658.147	42911.39
658.498	43002.23
658.849	42952.51
659.2	42832.29
659.551	42783.25
659.902	42788
660.253	42691.73
660.604	42606.99
660.955	42518.4
661.306	42713.2
661.656	42670.49
662.007	42689.24
662.358	42634.78
662.708	42466.2
663.059	42566.76
663.409	42311.4
663.76	42516.59
664.11	42603.37
664.461	42529.25
664.811	42494.22
665.161	42495.13
665.511	42461.23
665.862	42408.8
666.212	42545.52
666.562	42603.37
666.912	42449.93
667.262	42334
667.612	42520.44
667.962	42549.81
668.312	42296.71
668.662	42496.71
669.011	42438.4
669.361	42294.23
669.711	42338.29
670.06	42154.57
670.41	42179.2
670.76	42089.26
671.109	42165.87
671.459	42189.37
671.808	42208.58
672.157	42182.37
672.507	41809.72
672.856	41954.8
673.205	42042.48
673.554	41999.32
673.904	41868.93
674.253	41877.51
674.602	41888.14
674.951	41460.58
675.3	41200.02
675.649	41795.03
675.998	41685.43
676.346	41599.1
676.695	41774.01
677.044	41434.14
677.393	41702.6
677.741	41686.56
678.09	41600.91
678.438	41496.73
678.787	41691.98
679.135	41607.69
679.484	41332.22
679.832	41491.99
680.181	41263.52
680.529	41325.21
680.877	41155.73
681.225	41118.21
681.573	41440.24
681.922	41143.75
682.27	40975.17
682.618	41083.86
682.966	40938.56
683.314	41013.58
683.661	40731.33
684.009	40626.25
684.357	40573.14
684.705	40454.5
685.053	40558
685.4	40437.55
685.748	40411.11
686.095	40244.11
686.443	39986.72
686.79	40101.52
687.138	39968.19
687.485	40056.55
687.832	39844.57
688.18	40104.45
688.527	39706.95
688.874	39777.68
689.221	39603.68
689.568	39551.7
689.915	39343.34
690.262	39473.51
690.609	39280.75
690.956	39253.18
691.303	39292.95
691.65	38817.93
691.997	38895.45
692.344	38680.31
692.69	38691.38
693.037	38859.97
693.383	38534.55
693.73	38586.3
694.077	38412.75
694.423	38489.81
694.769	38338.17
695.116	38238.29
695.462	38273.54
695.808	38032.19
696.155	38049.82
696.501	37759.88
696.847	37632.88
697.193	37393.11
697.539	37674.01
697.885	37349.5
698.231	37242.61
698.577	37264.75
698.923	37167.58
699.269	36937.31
699.614	36683.98
699.96	36665.45
700.306	36743.41
700.651	36712.45
700.997	36566.92
701.342	36454.38
701.688	36373.48
702.033	36169.87
702.379	36199.25
702.724	36151.79
703.069	36152.47
703.415	35852.14
703.76	35799.71
704.105	35640.39
704.45	35509.32
704.795	35415.54
705.14	35250.57
705.485	35442.66
705.83	35197.24
706.175	35254.86
706.52	35069.56
706.865	35114.75
707.209	35107.75
707.554	34847.42
707.899	35016.9
708.243	34878.15
708.588	34768.78
708.932	34572.4
709.277	34615.56
709.621	34421.89
709.966	34392.06
710.31	34440.87
710.654	34167.89
710.998	34018.06
711.342	34169.47
711.687	33920.89
712.031	33849.7
712.375	33751.4
712.719	33859.65
713.063	33800.44
713.407	33840.44
713.75	33607.45
714.094	33417.17
714.438	33426.66
714.782	33453.78
715.125	33346.67
715.469	33480.9
715.812	33236.61
716.156	32965.88
716.499	32944.42
716.843	33046.33
717.186	32749.17
717.53	32923.85
717.873	32816.96
718.216	32898.54
718.559	32617.65
718.902	32572.9
719.246	32678.66
719.589	32552.56
719.932	32312.79
720.275	32323.87
720.617	32345.34
720.96	32235.51
721.303	32223.31
721.646	32221.5
721.989	31861.51
722.331	32086.81
722.674	31963.88
723.016	31957.1
723.359	31945.57
723.701	31871.9
724.044	31586.03
724.386	31499.26
724.729	31585.36
725.071	31575.86
725.413	31462.87
725.755	31569.09
726.097	31272.6
726.439	31228.53
726.782	31137.01
727.124	31265.59
727.465	31126.61
727.807	31070.34
728.149	30995.99
728.491	31129.1
728.833	31125.26
729.175	30968.2
729.516	30850.91
729.858	30798.26
730.199	30720.07
730.541	30667.87
730.882	30725.72
731.224	30780.86
731.565	30569.56
731.906	30560.75
732.248	30440.75
732.589	30304.49
732.93	30280.98
733.271	30276.69
733.612	30389.68
733.953	30415.22
734.294	30148.33
734.635	30209.12
734.976	30204.15
735.317	29952.4
735.658	30025.17
735.999	30094.77
736.339	29945.17
736.68	30009.35
737.021	29880.54
737.361	29700.66
737.702	29956.25
738.042	29883.48
738.383	29678.51
738.723	29651.85
739.063	29583.15
739.404	29577.95
739.744	29452.53
740.084	29364.4
740.424	29542.7
740.764	29426.54
741.104	29606.65
741.444	29217.73
741.784	29073.11
742.124	29181.35
742.464	29229.94
742.804	28979.77
743.143	29080.79
743.483	29021.58
743.823	28831.3
744.162	28822.72
744.502	28930.74
744.841	28693
745.181	28909.72
745.52	28716.28
745.86	28691.65
746.199	28607.81
746.538	28479.9
746.877	28527.81
747.216	28374.82
747.556	28444.42
747.895	28500.47
748.234	28289.17
748.573	28173.69
748.911	28286.69
749.25	28255.05
749.589	28057.54
749.928	28160.14
750.267	28091.66
750.605	27978.67
750.944	27963.08
751.283	27828.62
751.621	28030.42
751.96	27694.61
752.298	27684.67
752.636	27749.07
752.975	27531.68
753.313	27445.13
753.651	27441.06
753.989	27393.6
754.327	27339.14
754.666	27257.33
755.004	27319.71
755.342	27284
755.679	27189.09
756.017	27027.51
756.355	27178.92
756.693	26940.96
757.031	26941.64
757.368	26766.27
757.706	26697.35
758.044	26659.84
758.381	26784.8
758.719	26641.98
759.056	26697.8
759.394	26552.04
759.731	26364.7
760.068	26333.06
760.405	26131.49
760.743	26002.9
761.08	26131.49
761.417	26032.51
761.754	25883.81
762.091	25844.49
762.428	25776.7
762.765	25631.39
763.102	25479.53
763.438	25407.89
763.775	25338.74
764.112	25301.45
764.449	25174.45
764.785	25223.26
765.122	24991.41
765.458	24910.73
765.795	24819.66
766.131	24937.4
766.467	24762.26
766.804	24683.62
767.14	24612.88
767.476	24535.37
767.812	24530.63
768.148	24481.81
768.485	24357.75
768.821	24231.2
769.157	24230.07
769.492	24020.13
769.828	24121.37
770.164	23855.39
770.5	23742.85
770.836	23798.22
771.171	23597.77
771.507	23606.58
771.842	23447.26
772.178	23391.67
772.513	23486.81
772.849	23223.99
773.184	23138.8
773.519	23137.67
773.855	23064.9
774.19	22992.81
774.525	22844.57
774.86	22830.11
775.195	22765.25
775.53	22760.5
775.865	22560.28
776.2	22298.37
776.535	22240.29
776.87	22304.47
777.205	22182.44
777.539	22066.28
777.874	22100.41
778.209	21894.09
778.543	21843.92
778.878	21640.31
779.212	21798.04
779.547	21659.52
779.881	21695.22
780.215	21496.81
780.55	21463.59
780.884	21380.43
781.218	21284.84
781.552	21283.03
781.886	21084.39
782.22	20980.89
782.554	21008.46
782.888	20792.65
783.222	20763.72
783.556	20616.83
783.889	20521.47
784.223	20446.89
784.557	20354.92
784.89	20426.55
785.224	20354.46
785.557	20201.02
785.891	20171.19
786.224	20056.85
786.558	20126.22
786.891	19889.17
787.224	19844.2
787.557	19676.52
787.891	19746.12
788.224	19719.45
788.557	19612.11
788.89	19670.19
789.223	19526.69
789.556	19415.28
789.888	19397.2
790.221	19253.48
790.554	19100.71
790.887	19149.52
791.219	19041.28
791.552	18998.34
791.884	18881.06
792.217	18900.27
792.549	18776.2
792.882	18670.89
793.214	18646.71
793.546	18642.87
793.879	18482.42
794.211	18321.75
794.543	18448.98
794.875	18383.67
795.207	18417.34
795.539	18250.34
795.871	18247.85
796.203	18183
796.535	17951.36
796.867	17918.37
797.198	17903.23
797.53	17963.57
797.862	17769
798.193	17807.41
798.525	17665.27
798.856	17649.45
799.188	17489.23
799.519	17369.46
799.85	17366.97
800.182	17401.1
800.513	17357.71
800.844	17247.43
801.175	17378.95
801.506	17197.71
801.837	17227.54
802.168	17118.39
802.499	17042.01
802.83	16931.28
803.161	16831.85
803.491	16943.03
803.822	16858.51
804.153	16728.12
804.483	16639.99
804.814	16640.89
805.145	16591.85
805.475	16638.18
805.805	16492.65
806.136	16544.4
806.466	16544.62
806.796	16414.68
807.126	16301.01
807.457	16322.25
807.787	16205.2
808.117	16149.83
808.447	15991.42
808.777	16090.85
809.107	15990.96
809.436	15996.61
809.766	15982.6
810.096	15928.37
810.426	15884.75
810.755	15886.56
811.085	15837.3
811.414	15741.7
811.744	15638.66
812.073	15592.1
812.403	15537.87
812.732	15524.99
813.061	15487.47
813.39	15421.04
813.719	15305.78
814.049	15428.94
814.378	15349.85
814.707	15316.63
815.036	15285.67
815.365	15175.84
815.693	15054.49
816.022	15115.96
816.351	15062.4
816.68	15035.73
817.008	15002.74
817.337	14920.48
817.665	14864.44
817.994	14941.27
818.322	14801.62
818.651	14822.86
818.979	14802.52
819.307	14753.71
819.636	14710.55
819.964	14541.28
820.292	14721.17
820.62	14596.88
820.948	14554.17
821.276	14645.24
821.604	14645.69
821.932	14649.53
822.259	14536.99
822.587	14526.6
822.915	14553.26
823.243	14562.53
823.57	14531.57
823.898	14553.04
824.225	14555.3
824.553	14426.26
824.88	14541.96
825.207	14501.29
825.535	14499.93
825.862	14467.39
826.189	14432.59
826.516	14585.35
826.843	14639.36
827.17	14609.31
827.497	14546.93
827.824	14518.23
828.151	14537.22
828.478	14472.36
828.805	14588.51
829.131	14387.84
829.458	14477.11
829.785	14422.87
830.111	14456.54
830.438	14545.35
830.764	14498.12
831.09	14435.98
831.417	14417.22
831.743	14353.94
832.069	14377.67
832.395	14327.5
832.722	14428.52
833.048	14274.4
833.374	14325.92
833.7	14334.96
834.026	14348.3
834.351	14334.96
834.677	14290.67
835.003	14282.53
835.329	14350.1
835.654	14299.71
835.98	14232.59
836.306	14173.84
836.631	14122.31
836.956	14192.37
837.282	14206.6
837.607	14103.1
837.932	14073.05
838.258	14087.51
838.583	14085.25
838.908	13940.4
839.233	14029.89
839.558	13866.05
839.883	13908.31
840.208	13796.45
840.533	13806.84
840.858	13926.84
841.182	13873.28
841.507	13852.71
841.832	13788.54
842.156	13828.08
842.481	13793.73
842.805	13707.18
843.13	13591.7
843.454	13591.48
843.778	13557.36
844.103	13635.77
844.427	13501.31
844.751	13487.75
845.075	13561.65
845.399	13388.32
845.723	13459.28
846.047	13433.06
846.371	13287.53
846.695	13223.58
847.019	13154.43
847.343	13043.02
847.666	12996.69
847.99	12932.51
848.313	12932.51
848.637	12796.7
848.96	12836.24
849.284	12768
849.607	12686.87
849.931	12679.86
850.254	12635.12
850.577	12608.23
850.9	12472.19
851.223	12474.45
851.546	12359.65
851.869	12258.18
852.192	12297.05
852.515	12301.12
852.838	12161.46
853.161	12180.22
853.483	12061.58
853.806	12125.08
854.129	12065.42
854.451	12035.81
854.774	11968.47
855.096	11979.77
855.419	11922.6
855.741	11851.19
856.063	11831.53
856.385	11766.89
856.708	11732.54
857.03	11680.57
857.352	11672.89
857.674	11657.97
857.996	11561.48
858.318	11473.34
858.64	11477.64
858.961	11488.71
859.283	11400.58
859.605	11377.98
859.926	11373.68
860.248	11349.5
860.57	11297.3
860.891	11276.74
861.212	11319
861.534	11234.03
861.855	11151.99
862.176	11286.68
862.498	11269.51
862.819	11249.62
863.14	11149.06
863.461	11129.85
863.782	11070.19
864.103	11078.1
864.424	11064.54
864.745	11057.76
865.065	10972.11
865.386	10959.91
865.707	10948.84
866.027	10968.72
866.348	10986.8
866.668	10994.26
866.989	10923.75
867.309	10821.38
867.63	10793.13
867.95	10843.3
868.27	10773.7
868.59	10791.55
868.91	10724.66
869.23	10696.41
869.55	10716.3
869.87	10763.98
870.19	10702.74
870.51	10716.98
870.83	10608.05
871.15	10580.94
871.469	10608.73
871.789	10634.95
872.109	10625
872.428	10538.68
872.748	10470.66
873.067	10549.07
873.386	10506.14
873.706	10486.25
874.025	10454.61
874.344	10450.77
874.663	10447.15
874.982	10421.39
875.301	10354.73
875.62	10326.25
875.939	10330.77
876.258	10310.21
876.577	10268.4
876.896	10303.43
877.214	10198.57
877.533	10175.3
877.852	10236.54
878.17	10217.33
878.489	10253.04
878.807	10282.41
879.125	10169.87
879.444	10150.67
879.762	10189.76
880.08	10259.14
880.398	10119.93
880.716	10154.06
881.034	10083.77
881.352	10084.45
881.67	10055.53
881.988	10145.02
882.306	9942.54
882.624	9929.88
882.941	9924
883.259	9873.38
883.577	9870.45
883.894	9884.23
884.212	9862.31
884.529	9837.45
884.846	9781.86
885.164	9797.91
885.481	9750.68
885.798	9748.19
886.115	9668.87
886.432	9655.54
886.75	9656.22
887.067	9742.31
887.383	9557.69
887.7	9593.84
888.017	9557.69
888.334	9641.98
888.651	9557.23
888.967	9520.85
889.284	9488.99
889.6	9356.11
889.917	9402.21
890.233	9450.57
890.55	9297.13
890.866	9328.99
891.182	9317.01
891.498	9283.8
891.815	9197.24
892.131	9169.22
892.447	9185.72
892.763	9133.97
893.079	9140.3
893.395	9134.87
893.71	9189.56
894.026	9065.72
894.342	9071.15
894.657	8953.41
894.973	8980.3
895.289	8964.93
895.604	8962
895.92	8876.35
896.235	8806.75
896.55	8852.62
896.865	8798.16
897.181	8799.74
897.496	8768.78
897.811	8706.64
898.126	8688.33
898.441	8672.06
898.756	8627.32
899.071	8623.02
899.386	8591.84
899.7	8505.96
900.015	8496.92
900.33	8479.07
900.644	8464.83
900.959	8459.41
901.273	8400.2
901.588	8322.69
901.902	8315.69
902.216	8295.35
902.531	8240.21
902.845	8217.16
903.159	8211.73
903.473	8121.79
903.787	8090.15
904.101	7997.73
904.415	8032.98
904.729	8008.57
905.042	7951.63
905.356	7969.48
905.67	7937.62
905.984	7940.78
906.297	7925.41
906.611	7900.1
906.924	7902.59
907.237	7850.39
907.551	7833.89
907.864	7741.24
908.177	7788.92
908.491	7736.49
908.804	7664.85
909.117	7592.54
909.43	7522.71
909.743	7533.33
910.056	7555.48
910.368	7503.05
910.681	7417.63
910.994	7397.52
911.307	7386.22
911.619	7298.08
911.932	7391.42
912.244	7266.9
912.557	7276.16
912.869	7271.19
913.181	7157.07
913.494	7187.13
913.806	7186.45
914.118	7147.35
914.43	7068.94
914.742	7054.7
915.054	7040.69
915.366	7054.48
915.678	6966.57
915.99	6958.21
916.302	6952.11
916.613	6857.64
916.925	6886.57
917.236	6836.18
917.548	6807.48
917.859	6853.8
918.171	6776.97
918.482	6794.6
918.794	6713.69
919.105	6729.74
919.416	6622.85
919.727	6593.7
920.038	6659.23
920.349	6545.79
920.66	6560.93
920.971	6527.94
921.282	6486.35
921.593	6422.18
921.903	6410.65
922.214	6425.57
922.525	6355.06
922.835	6310.54
923.146	6274.84
923.456	6281.39
923.767	6233.71
924.077	6249.07
924.387	6254.72
924.697	6160.49
925.008	6204.1
925.318	6185.8
925.628	6047.72
925.938	6049.3
926.248	6025.58
926.558	6042.07
926.867	6016.54
927.177	5941.28
927.487	5958.91
927.796	5908.29
928.106	5853.15
928.416	5875.52
928.725	5840.5
929.034	5792.59
929.344	5858.12
929.653	5784.9
929.962	5759.14
930.271	5728.18
930.581	5689.31
930.89	5656.32
931.199	5655.42
931.508	5629.2
931.817	5605.02
932.125	5579.26
932.434	5555.31
932.743	5515.98
933.051	5464.91
933.36	5456.78
933.669	5408.42
933.977	5339.27
934.286	5428.53
934.594	5443.67
934.902	5394.63
935.21	5327.97
935.519	5311.02
935.827	5308.31
936.135	5318.93
936.443	5184.47
936.751	5185.37
937.059	5245.71
937.367	5176.56
937.674	5185.6
937.982	5178.14
938.29	5114.87
938.597	5148.08
938.905	5071.25
939.213	5027.86
939.52	5043.91
939.827	5038.03
940.135	4996
940.442	4993.29
940.749	4972.04
941.056	4962.33
941.363	4890.24
941.67	4839.84
941.977	4838.94
942.284	4815.89
942.591	4848.21
942.898	4803.01
943.205	4744.71
943.511	4727.98
943.818	4716.23
944.125	4691.6
944.431	4622.9
944.738	4659.96
945.044	4636.91
945.35	4616.35
945.657	4619.74
945.963	4579.51
946.269	4537.03
946.575	4551.94
946.881	4551.04
947.187	4517.82
947.493	4478.95
947.799	4506.75
948.105	4433.3
948.41	4422.23
948.716	4417.03
949.022	4404.6
949.327	4407.77
949.633	4305.62
949.938	4347.65
950.244	4360.99
950.549	4325.73
950.854	4266.75
951.16	4278.96
951.465	4248.22
951.77	4207.77
952.075	4211.16
952.38	4161.67
952.685	4224.04
952.99	4147.89
953.294	4177.04
953.599	4087.1
953.904	4094.55
954.209	4108.56
954.513	4031.05
954.818	4063.14
955.122	4064.27
955.426	4005.52
955.731	4024.05
956.035	3964.61
956.339	3977.95
956.643	3973.2
956.948	3923.71
957.252	3926.87
957.556	3910.38
957.86	3906.54
958.163	3876.25
958.467	3875.35
958.771	3815.01
959.075	3784.51
959.378	3773.88
959.682	3820.44
959.985	3797.39
960.289	3800.55
960.592	3745.41
960.896	3719.42
961.199	3718.29
961.502	3645.3
961.805	3619.31
962.108	3627.67
962.411	3620.44
962.714	3602.81
963.017	3605.75
963.32	3586.54
963.623	3575.24
963.926	3554.68
964.228	3571.86
964.531	3519.88
964.833	3537.05
965.136	3493.44
965.438	3500.22
965.741	3508.13
966.043	3486.21
966.345	3471.97
966.648	3427.45
966.95	3410.5
967.252	3391.52
967.554	3390.39
967.856	3361.24
968.158	3360.11
968.46	3343.39
968.761	3309.04
969.063	3322.37
969.365	3277.85
969.666	3327.57
969.968	3245.54
970.269	3252.32
970.571	3258.64
970.872	3192.88
971.174	3183.84
971.475	3193.11
971.776	3159.44
972.077	3154.01
972.378	3180
972.679	3107.23
972.98	3138.19
973.281	3059.1
973.582	3156.72
973.883	3132.09
974.183	3055.26
974.484	3056.16
974.785	3021.59
975.085	3029.5
975.386	3031.08
975.686	2992.66
975.986	2961.25
976.287	3000.57
976.587	2926
976.887	2936.62
977.187	2951.53
977.487	2948.82
977.787	2892.33
978.087	2885.32
978.387	2896.17
978.687	2890.74
978.987	2884.87
979.286	2805.1
979.586	2830.63
979.885	2809.62
980.185	2797.86
980.484	2770.29
980.784	2782.05
981.083	2763.97
981.382	2783.4
981.682	2728.04
981.981	2739.11
982.28	2720.8
982.579	2726.23
982.878	2680.81
983.177	2702.5
983.475	2660.01
983.774	2669.96
984.073	2648.72
984.372	2634.48
984.67	2633.8
984.969	2625.21
985.267	2616.17
985.566	2624.54
985.864	2608.04
986.162	2611.43
986.461	2565.1
986.759	2523.3
987.057	2526.23
987.355	2551.32
987.653	2515.16
987.951	2483.97
988.249	2505.89
988.547	2528.72
988.844	2468.83
989.142	2476.29
989.44	2447.82
989.737	2420.02
990.035	2443.98
990.332	2416.18
990.63	2397.65
990.927	2392.9
991.224	2380.47
991.521	2386.35
991.819	2350.42
992.116	2327.37
992.413	2328.05
992.71	2321.49
993.006	2305.67
993.303	2312.91
993.6	2298.89
993.897	2293.92
994.193	2292.79
994.49	2260.93
994.787	2254.6
995.083	2278.33
995.379	2231.1
995.676	2210.31
995.972	2210.54
996.268	2177.09
996.565	2168.73
996.861	2157.2
997.157	2201.27
997.453	2159.91
997.749	2145
998.044	2163.53
998.34	2128.73
998.636	2109.07
998.932	2071.78
999.227	2067.71
999.523	2083.98
999.818	2036.75
1000.114	2060.93
1000.409	2040.14
1000.704	2026.36
1001	1990.43
1001.295	1989.98
1001.59	1994.5
1001.885	2000.37
1002.18	1965.57
1002.475	1986.36
1002.77	1951.33
1003.065	1957.43
1003.359	1956.98
1003.654	1934.16
1003.949	1948.62
1004.243	1906.36
1004.538	1906.14
1004.832	1919.92
1005.127	1904.78
1005.421	1862.97
1005.715	1867.04
1006.009	1862.3
1006.304	1849.19
1006.598	1840.38
1006.892	1827.72
1007.186	1812.81
1007.48	1809.19
1007.773	1775.29
1008.067	1777.33
1008.361	1784.78
1008.655	1769.87
1008.948	1754.05
1009.242	1729.87
1009.535	1760.38
1009.829	1710.66
1010.122	1704.33
1010.415	1666.59
1010.708	1685.8
1011.001	1693.03
1011.295	1694.16
1011.588	1679.7
1011.881	1643.54
1012.173	1628.4
1012.466	1613.94
1012.759	1644
1013.052	1642.87
1013.344	1614.17
1013.637	1593.83
1013.93	1591.34
1014.222	1565.58
1014.514	1564.45
1014.807	1558.8
1015.099	1549.31
1015.391	1552.7
1015.683	1555.41
1015.976	1527.16
1016.268	1481.97
1016.56	1511.12
1016.851	1509.76
1017.143	1497.33
1017.435	1482.42
1017.727	1477
1018.018	1473.15
1018.31	1446.49
1018.602	1450.56
1018.893	1420.27
1019.185	1439.48
1019.476	1424.12
1019.767	1402.19
1020.058	1408.3
1020.35	1382.99
1020.641	1374.62
1020.932	1364.91
1021.223	1390.67
1021.514	1349.99
1021.804	1338.69
1022.095	1328.07
1022.386	1342.76
1022.677	1353.38
1022.967	1320.61
1023.258	1303.21
1023.548	1287.17
1023.839	1269.32
1024.129	1267.51
1024.419	1253.95
1024.709	1236.78
1025	1270.67
1025.29	1232.93
1025.58	1214.63
1025.87	1221.86
1026.16	1235.65
1026.449	1211.69
1026.739	1195.42
1027.029	1205.82
1027.319	1192.26
1027.608	1185.48
1027.898	1182.54
1028.187	1190.45
1028.477	1126.04
1028.766	1161.98
1029.055	1152.26
1029.344	1124.24
1029.634	1137.79
1029.923	1131.92
1030.212	1126.5
1030.501	1114.52
1030.79	1139.15
1031.078	1101.86
1031.367	1075.65
1031.656	1101.19
1031.945	1071.58
1032.233	1061.64
1032.522	1040.85
1032.81	1046.95
1033.099	1032.94
1033.387	1046.27
1033.675	1044.46
1033.963	1044.01
1034.251	1049.21
1034.54	1013.73
1034.828	1004.47
1035.116	981.41
1035.403	998.14
1035.691	978.93
1035.979	993.62
1036.267	939.61
1036.554	964.01
1036.842	949.33
1037.129	932.38
1037.417	937.57
1037.704	947.74
1037.992	942.77
1038.279	926.5
1038.566	912.49
1038.853	912.49
1039.14	912.49
