Data from plate_porcelain_FLMS001491_059.txt Node
Date: Tue Feb 07 11:19:33 GMT 2017
User: dcchb
Spectrometer: FLMS00149
Trigger mode: 0
Integration Time (sec): 2.000000E-2
Scans to average: 10
Electric dark correction enabled: true
Nonlinearity correction enabled: false
Boxcar width: 0
XAxis mode: Wavelengths
Number of Pixels in Spectrum: 2048
>>>>>Begin Spectral Data<<<<<
341.393	0.79
341.776	0.79
342.16	0.79
342.543	-63.61
342.927	-74.46
343.31	-89.15
343.693	-58.19
344.077	-70.17
344.46	-71.75
344.843	-17.51
345.226	-51.41
345.61	-39.66
345.993	-18.19
346.376	6.21
346.759	11.86
347.142	13.67
347.525	43.5
347.908	50.96
348.291	75.14
348.674	102.03
349.057	112.65
349.44	132.09
349.823	138.19
350.206	160.56
350.588	236.04
350.971	245.08
351.354	253.89
351.737	266.32
352.119	287.34
352.502	313.78
352.884	310.16
353.267	310.84
353.65	318.3
354.032	324.4
354.414	350.39
354.797	369.82
355.179	350.16
355.562	367.11
355.944	378.41
356.326	387.45
356.709	381.8
357.091	390.61
357.473	396.94
357.855	412.08
358.238	386.32
358.62	389.93
359.002	402.59
359.384	397.84
359.766	403.72
360.148	399.88
360.53	394.23
360.912	381.57
361.294	399.88
361.676	389.03
362.057	409.37
362.439	395.13
362.821	390.16
363.203	386.77
363.584	407.11
363.966	367.79
364.348	403.49
364.729	403.72
365.111	400.55
365.493	384.96
365.874	382.7
366.256	397.62
366.637	368.46
367.019	378.41
367.4	378.63
367.781	400.1
368.163	397.84
368.544	401.23
368.925	388.58
369.306	417.5
369.688	396.26
370.069	400.55
370.45	417.73
370.831	401.01
371.212	433.55
371.593	421.57
371.974	406.88
372.355	414.57
372.736	411.63
373.117	414.57
373.498	413.66
373.879	423.38
374.26	407.79
374.641	423.15
375.021	421.8
375.402	439.42
375.783	436.49
376.163	487.11
376.544	459.08
376.925	476.26
377.305	464.73
377.686	474.68
378.066	442.36
378.447	465.19
378.827	488.69
379.208	479.2
379.588	482.13
379.968	487.33
380.349	470.84
380.729	471.29
381.109	513.32
381.489	521.46
381.87	522.81
382.25	513.77
382.63	531.4
383.01	515.58
383.39	520.78
383.77	519.65
384.15	526.2
384.53	551.96
384.91	513.09
385.29	564.39
385.67	564.62
386.049	562.36
386.429	552.19
386.809	574.79
387.189	561.23
387.568	604.39
387.948	593.09
388.328	598.74
388.707	612.07
389.087	606.42
389.466	621.11
389.846	638.06
390.225	647.1
390.605	618.63
390.984	638.97
391.363	663.37
391.743	659.08
392.122	666.08
392.501	689.81
392.881	661.11
393.26	673.99
393.639	686.65
394.018	703.15
394.397	728.46
394.776	716.25
395.155	736.36
395.534	762.13
395.913	735.01
396.292	755.8
396.671	745.63
397.05	746.99
397.429	775.69
397.808	786.08
398.186	780.66
398.565	782.24
398.944	790.6
399.323	817.49
399.701	784.95
400.08	814.55
400.458	838.74
400.837	845.29
401.215	831.73
401.594	857.94
401.972	855.01
402.351	880.32
402.729	896.36
403.107	908.11
403.486	918.51
403.864	908.11
404.242	948.79
404.62	945.85
404.999	943.37
405.377	941.56
405.755	969.35
406.133	998.5
406.511	1005.74
406.889	1017.49
407.267	1015.45
407.645	1018.84
408.023	1085.96
408.401	1085.51
408.779	1078.28
409.156	1089.8
409.534	1119.41
409.912	1116.02
410.29	1132.74
410.667	1157.6
411.045	1190.36
411.422	1190.59
411.8	1200.99
412.178	1232.85
412.555	1262.23
412.933	1240.76
413.31	1283.92
413.687	1307.42
414.065	1306.52
414.442	1318.72
414.819	1342.68
415.197	1363.24
415.574	1370.92
415.951	1389.23
416.328	1398.49
416.705	1419.51
417.082	1422.45
417.46	1425.16
417.837	1464.26
418.214	1459.51
418.591	1480.98
418.967	1514.2
419.344	1523.69
419.721	1554.65
420.098	1547.87
420.475	1586.74
420.852	1574.31
421.228	1618.83
421.605	1618.83
421.982	1633.74
422.358	1669.67
422.735	1678.49
423.111	1716.9
423.488	1694.98
423.864	1701.31
424.241	1763.91
424.617	1784.25
424.994	1769.11
425.37	1811.59
425.746	1838.93
426.123	1844.81
426.499	1881.42
426.875	1883.45
427.251	1938.14
427.627	2001.64
428.003	1997.57
428.379	2036.22
428.756	2035.77
429.132	2052.49
429.507	2109.21
429.883	2129.55
430.259	2145.59
430.635	2178.13
431.011	2184.24
431.387	2235.31
431.763	2295.42
432.138	2295.65
432.514	2359.15
432.89	2335.87
433.265	2405.7
433.641	2424
434.016	2467.62
434.392	2483.66
434.767	2568.63
435.143	2558.69
435.518	2579.48
435.894	2609.99
436.269	2644.11
436.644	2694.96
437.02	2744
437.395	2750.32
437.77	2747.16
438.145	2814.95
438.52	2837.33
438.895	2878.68
439.271	2896.53
439.646	2970.88
440.021	3001.62
440.395	2994.84
440.77	3009.98
441.145	2982.18
441.52	3070.77
441.895	3092.01
442.27	3105.12
442.645	3125.45
443.019	3146.92
443.394	3143.99
443.769	3184.44
444.143	3166.13
444.518	3264.89
444.892	3238.45
445.267	3269.18
445.641	3326.81
446.016	3297.2
446.39	3386.01
446.764	3382.17
447.139	3421.72
447.513	3446.8
447.887	3430.08
448.262	3469.17
448.636	3524.54
449.01	3574.71
449.384	3583.07
449.758	3621.03
450.132	3635.72
450.506	3659.45
450.88	3743.52
451.254	3720.24
451.628	3804.98
452.002	3871.2
452.376	3850.41
452.75	3897.41
453.123	3971.99
453.497	4022.38
453.871	4084.75
454.244	4147.57
454.618	4149.16
454.992	4209.72
455.365	4212.88
455.739	4334.46
456.112	4409.71
456.486	4433.67
456.859	4505.98
457.232	4522.71
457.606	4546.21
457.979	4605.19
458.352	4719.31
458.725	4743.27
459.099	4810.61
459.472	4887.44
459.845	4958.85
460.218	4958.17
460.591	5077.72
460.964	5060.32
461.337	5181.67
461.71	5261.44
462.083	5350.48
462.456	5387.99
462.829	5407.43
463.201	5511.83
463.574	5565.16
463.947	5597.93
464.32	5741.88
464.692	5805.61
465.065	5807.42
465.438	5915.66
465.81	5994.31
466.183	6086.28
466.555	6222.55
466.928	6264.58
467.3	6286.05
467.672	6379.83
468.045	6575.08
468.417	6582.99
468.789	6623.89
469.161	6667.96
469.534	6805.36
469.906	6913.83
470.278	7026.14
470.65	7138.46
471.022	7284.67
471.394	7385
471.766	7463.65
472.138	7556.98
472.51	7722.17
472.882	7865.44
473.253	7956.97
473.625	8080.35
473.997	8275.15
474.369	8340.46
474.74	8354.47
475.112	8500.91
475.484	8723.27
475.855	8858.41
476.227	8932.99
476.598	9170.72
476.97	9296.82
477.341	9474.21
477.713	9652.06
478.084	9663.14
478.455	9934.77
478.827	10035.33
479.198	10362.78
479.569	10342.67
479.94	10664.24
480.311	10734.29
480.682	11072.14
481.053	11214.51
481.424	11431
481.795	11499.47
482.166	11744.44
482.537	11904.88
482.908	12213.58
483.279	12226.68
483.65	12495.38
484.021	12832.09
484.391	12872.77
484.762	13087.45
485.133	13150.73
485.503	13441.12
485.874	13722.92
486.244	13751.16
486.615	14103.92
486.985	14134.2
487.356	14459.17
487.726	14632.95
488.097	14966.5
488.467	14922.43
488.837	15402.87
489.207	15484.45
489.578	15736.2
489.948	15914.27
490.318	16063.42
490.688	16183.64
491.058	16526.01
491.428	16728.94
491.798	16830.4
492.168	17039.66
492.538	17314.46
492.908	17543.83
493.278	17813.66
493.648	17818.4
494.017	18093.42
494.387	18284.83
494.757	18365.73
495.126	18506.97
495.496	18593.97
495.866	18817.7
496.235	18988.54
496.605	19239.16
496.974	19246.61
497.344	19508.07
497.713	19781.74
498.082	19813.83
498.452	19986.25
498.821	20110.54
499.19	20176.31
499.559	20297.88
499.928	20586.92
500.298	20595.73
500.667	20973.57
501.036	20837.08
501.405	21122.27
501.774	21211.98
502.143	21434.35
502.512	21462.15
502.88	21742.59
503.249	21761.57
503.618	22068.91
503.987	22134.9
504.356	22310.03
504.724	22400.88
505.093	22530.82
505.462	22543.7
505.83	22848.78
506.199	23026.63
506.567	23329.44
506.936	23277.24
507.304	23644.46
507.672	23650.11
508.041	23810.79
508.409	23987.05
508.777	24161.06
509.145	24477.21
509.514	24387.04
509.882	24597.43
510.25	24762.85
510.618	24903.64
510.986	25038.78
511.354	25356.96
511.722	25536.62
512.09	25836.04
512.458	25706.56
512.826	25967.34
513.193	26097.28
513.561	26346.76
513.929	26437.61
514.297	26772.97
514.664	26919.63
515.032	27074.88
515.4	27351.94
515.767	27529.78
516.135	27619.27
516.502	27561.65
516.869	28138.13
517.237	28166.15
517.604	28151.46
517.972	28612.24
518.339	28790.09
518.706	28923.42
519.073	29021.27
519.44	29160.02
519.808	29671.2
520.175	29647.47
520.542	30135.82
520.909	30194.35
521.276	30218.75
521.643	30717.05
522.009	30916.36
522.376	31071.61
522.743	31256.69
523.11	31544.82
523.477	31872.95
523.843	31959.72
524.21	32293.95
524.577	32534.62
524.943	32832.02
525.31	33039.92
525.676	33384.77
526.043	33428.16
526.409	33560.36
526.776	34047.35
527.142	34163.06
527.508	34404.63
527.874	34751.29
528.241	34805.07
528.607	35001.9
528.973	35270.15
529.339	35292.97
529.705	35719.17
530.071	36011.82
530.437	36128.65
530.803	36327.52
531.169	36736.32
531.535	36656.1
531.901	36697.45
532.267	36947.39
532.632	37279.36
532.998	37434.83
533.364	37732.45
533.73	37806.35
534.095	38015.16
534.461	38223.29
534.826	38355.94
535.192	38507.35
535.557	38781.69
535.923	38895.81
536.288	39021.46
536.653	39373.99
537.019	39246.76
537.384	39411.96
537.749	39523.37
538.114	39551.84
538.479	39743.47
538.845	40093.3
539.21	39868.22
539.575	40176.46
539.94	40299.62
540.305	40611.7
540.67	40612.15
541.034	40843.33
541.399	40910.45
541.764	40927.17
542.129	41136.88
542.494	41200.61
542.858	41427.5
543.223	41608.28
543.587	41775.74
543.952	41710.2
544.316	42124.66
544.681	42086.69
545.045	42314.48
545.41	42535.72
545.774	42591.08
546.138	42612.1
546.503	42706.79
546.867	42885.99
547.231	43224.51
547.595	43146.32
547.959	43339.99
548.324	43448.24
548.688	43431.97
549.052	43711.28
549.416	43738.85
549.779	43949.92
550.143	44103.81
550.507	44495.89
550.871	44528.43
551.235	44549.22
551.599	44976.11
551.962	44975.65
552.326	44985.6
552.689	45411.57
553.053	45219.94
553.417	45438.47
553.78	45916.42
554.143	45748.51
554.507	45854.27
554.87	46066.25
555.234	46451.1
555.597	46310.76
555.96	46605.44
556.323	46734.48
556.686	46758.88
557.05	47074.13
557.413	47050.4
557.776	47175.6
558.139	47475.47
558.502	47522.71
558.865	47736.94
559.228	48009.25
559.59	48100.54
559.953	48266.87
560.316	48613.98
560.679	48619.85
561.041	48855.78
561.404	49091.93
561.767	49227.52
562.129	49089.9
562.492	49562.88
562.854	49583.44
563.217	49662.54
563.579	49850.78
563.941	49997.67
564.304	50229.98
564.666	50380.71
565.028	50454.61
565.39	50626.8
565.753	50832.9
566.115	50966.23
566.477	51056.17
566.839	51076.06
567.201	51352.21
567.563	51356.5
567.925	51624.52
568.287	51634.69
568.648	51738.64
569.01	51876.04
569.372	52201.68
569.734	52087.78
570.095	52350.15
570.457	52318.06
570.819	52376.14
571.18	52445.06
571.542	52647.99
571.903	52717.37
572.265	52857.48
572.626	52891.38
572.987	52991.49
573.349	53137.92
573.71	53134.99
574.071	53287.98
574.432	53323.23
574.794	53535.2
575.155	53533.85
575.516	53561.64
575.877	53651.58
576.238	53724.58
576.599	53861.3
576.96	53832.82
577.32	53832.82
577.681	53890.22
578.042	54111.01
578.403	54127.5
578.763	54085.7
579.124	54147.62
579.485	54282.3
579.845	54325.69
580.206	54271.23
580.566	54307.84
580.927	54374.73
581.287	54472.35
581.648	54334.73
582.008	54421.05
582.368	54434.61
582.728	54509.41
583.089	54466.25
583.449	54457.44
583.809	54533.82
584.169	54655.63
584.529	54533.59
584.889	54715.74
585.249	54431.22
585.609	54505.57
585.969	54665.79
586.329	54600.49
586.688	54668.96
587.048	54665.12
587.408	54584.89
587.768	54669.64
588.127	54612.46
588.487	54559.13
588.846	54755.74
589.206	54506.48
589.565	54641.39
589.925	54806.81
590.284	54672.12
590.643	54767.94
591.003	54820.14
591.362	54867.37
591.721	54705.79
592.08	54785.34
592.44	54827.6
592.799	54856.52
593.158	54842.96
593.517	54819.24
593.876	54900.36
594.235	54832.57
594.593	54915.73
594.952	54914.83
595.311	54838.9
595.67	54882.29
596.029	55053.58
596.387	55115.73
596.746	55121.83
597.104	54900.36
597.463	54965.67
597.822	55147.82
598.18	54899.01
598.538	55003.19
598.897	55198.21
599.255	54924.09
599.613	55365.44
599.972	55056.07
600.33	55219.68
600.688	55080.7
601.046	55261.03
601.404	55355.49
601.762	55314.14
602.12	55400.01
602.478	55446.79
602.836	55440.24
603.194	55259.9
603.552	55339.9
603.91	55264.87
604.268	55460.8
604.625	55382.39
604.983	55598.43
605.341	55387.36
605.698	55585.54
606.056	55552.32
606.413	55546.9
606.771	55628.93
607.128	55668.25
607.485	55585.09
607.843	55596.39
608.2	55724.07
608.557	55805.43
608.914	55761.36
609.272	55836.84
609.629	55948.92
609.986	55900.11
610.343	55874.12
610.7	56099.65
611.057	56087.45
611.414	56022.14
611.771	56019.66
612.127	56079.99
612.484	56110.5
612.841	56199.54
613.198	56027.57
613.554	56168.13
613.911	56274.11
614.267	56217.17
614.624	56144.4
614.98	56317.73
615.337	56417.16
615.693	56390.27
616.05	56372.87
616.406	56495.35
616.762	56397.95
617.118	56387.33
617.475	56426.2
617.831	56511.4
618.187	56489.93
618.543	56489.48
618.899	56635.01
619.255	56583.94
619.611	56571.96
619.967	56668.91
620.323	56679.3
620.678	56595.01
621.034	56612.64
621.39	56593.88
621.746	56574.22
622.101	56885.85
622.457	56621
622.812	56665.74
623.168	56718.62
623.523	56718.85
623.879	56809.24
624.234	56598.62
624.589	56684.95
624.945	56740.54
625.3	56811.5
625.655	56787.55
626.01	56673.2
626.365	56773.99
626.72	56706.87
627.075	56646.08
627.43	56722.24
627.785	56590.04
628.14	56641.11
628.495	56700.32
628.85	56573.54
629.205	56518.63
629.559	56667.78
629.914	56525.18
630.269	56581
630.623	56529.7
630.978	56491.96
631.332	56517.5
631.687	56590.72
632.041	56442.02
632.396	56510.04
632.75	56316.6
633.104	56373.09
633.459	56247.9
633.813	56338.29
634.167	56351.85
634.521	56312.3
634.875	56349.59
635.229	56192.08
635.583	56075.47
635.937	56115.47
636.291	56104.85
636.645	56107.11
636.999	56030.05
637.352	56119.54
637.706	55893.56
638.06	56020.11
638.413	56003.16
638.767	55819.21
639.121	55935.37
639.474	55762.49
639.828	55745.54
640.181	55765.88
640.534	55762.71
640.888	55589.16
641.241	55590.74
641.594	55582.15
641.947	55671.19
642.301	55538.09
642.654	55531.99
643.007	55540.35
643.36	55557.75
643.713	55456.51
644.066	55541.48
644.419	55349.39
644.771	55169.51
645.124	54918.89
645.477	54871.89
645.83	54684.55
646.182	54516.19
646.535	54433.48
646.888	54441.62
647.24	54379.7
647.593	54556.64
647.945	54459.02
648.298	54242.75
648.65	54233.04
649.002	54149.65
649.355	54252.25
649.707	54192.13
650.059	54335.86
650.411	54649.3
650.763	54697.88
651.115	54869.63
651.467	54776.3
651.819	54756.19
652.171	54675.06
652.523	54675.06
652.875	54640.94
653.227	54514.39
653.578	54694.04
653.93	54555.29
654.282	54415.18
654.633	54341.28
654.985	54445.01
655.337	54486.82
655.688	54439.36
656.039	54485.69
656.391	54274.17
656.742	54348.51
657.094	54312.58
657.445	54447.95
657.796	54424.22
658.147	54296.54
658.498	54287.73
658.849	54289.98
659.2	54272.81
659.551	54169.31
659.902	54310.1
660.253	54265.58
660.604	54247.95
660.955	54075.98
661.306	54184.23
661.656	54119.37
662.007	54053.38
662.358	54085.92
662.708	53962.76
663.059	53989.2
663.409	53870.11
663.76	54107.39
664.11	54024.46
664.461	53971.35
664.811	54050.9
665.161	53925.93
665.511	53937.23
665.862	53897.9
666.212	54135.19
666.562	54092.02
666.912	53883.44
667.262	53950.11
667.612	53913.27
667.962	53961.86
668.312	53885.48
668.662	54060.84
669.011	53897.68
669.361	53817.45
669.711	53796.89
670.06	53774.07
670.41	53674.63
670.76	53648.19
671.109	53714.41
671.459	53681.19
671.808	53647.29
672.157	53682.09
672.507	53551.47
672.856	53641.41
673.205	53657.01
673.554	53702.2
673.904	53499.5
674.253	53696.78
674.602	53537.46
674.951	53135.89
675.3	53134.08
675.649	53503.34
675.998	53410.01
676.346	53408.88
676.695	53522.1
677.044	53292.27
677.393	53434.41
677.741	53408.43
678.09	53315.1
678.438	53303.8
678.787	53345.83
679.135	53417.01
679.484	53172.27
679.832	53280.52
680.181	53023.58
680.529	53128.43
680.877	52926.63
681.225	53032.39
681.573	53195.32
681.922	52890.25
682.27	52936.57
682.618	52760.76
682.966	52762.79
683.314	52796.46
683.661	52638.28
684.009	52532.74
684.357	52508.56
684.705	52474.21
685.053	52554.21
685.4	52440.77
685.748	52168.68
686.095	52253.43
686.443	52067.44
686.79	52016.37
687.138	52064.51
687.485	52035.35
687.832	51935.92
688.18	52059.08
688.527	51799.65
688.874	51752.42
689.221	51658.64
689.568	51527.35
689.915	51502.26
690.262	51596.5
690.609	51332.32
690.956	51234.7
691.303	51336.39
691.65	51049.39
691.997	51039
692.344	50817.08
692.69	50837.65
693.037	50894.37
693.383	50643.53
693.73	50740.02
694.077	50446.92
694.423	50521.95
694.769	50274.72
695.116	50314.95
695.462	50185.23
695.808	50178
696.155	50208.06
696.501	49906.37
696.847	49999.48
697.193	49642.2
697.539	49824.79
697.885	49674.29
698.231	49544.12
698.577	49468.87
698.923	49312.71
699.269	49131.25
699.614	48997.02
699.96	48907.08
700.306	48889.67
700.651	48830.24
700.997	48764.25
701.342	48686.97
701.688	48535.11
702.033	48370.59
702.379	48322.01
702.724	48206.53
703.069	48248.11
703.415	47797.05
703.76	47947.78
704.105	47768.57
704.45	47702.59
704.795	47519.99
705.14	47366.55
705.485	47323.61
705.83	47251.53
706.175	47291.07
706.52	47126.33
706.865	47024.41
707.209	46897.18
707.554	46844.98
707.899	46932.66
708.243	46683.86
708.588	46626.91
708.932	46371.78
709.277	46384.66
709.621	46396.86
709.966	46270.53
710.31	46130.65
710.654	45846.37
710.998	45868.74
711.342	45913.93
711.687	45741.51
712.031	45572.02
712.375	45570.89
712.719	45466.04
713.063	45413.61
713.407	45463.1
713.75	45210.9
714.094	45311.92
714.438	45042.54
714.782	45265.36
715.125	44844.58
715.469	44896.33
715.812	44598.94
716.156	44379.06
716.499	44576.34
716.843	44525.27
717.186	44141.55
717.53	44469.68
717.873	44532.95
718.216	44307.87
718.559	44189.46
718.902	44065.4
719.246	44271.27
719.589	43942.46
719.932	43926.87
720.275	43803.71
720.617	43702.92
720.96	43606.2
721.303	43711.96
721.646	43559.87
721.989	43406.88
722.331	43554.22
722.674	43369.59
723.016	43334.11
723.359	43186.32
723.701	43210.05
724.044	42876.95
724.386	42658.2
724.729	43029.04
725.071	42861.13
725.413	42662.72
725.755	42577.75
726.097	42684.87
726.439	42411.2
726.782	42307.48
727.124	42460.47
727.465	42281.04
727.807	42206.46
728.149	42100.47
728.491	42129.63
728.833	42116.29
729.175	41980.48
729.516	41832.91
729.858	41848.73
730.199	41811.22
730.541	41602.86
730.882	41689.64
731.224	41637.21
731.565	41511.34
731.906	41634.27
732.248	41547.95
732.589	41160.84
732.93	41207.84
733.271	41109.99
733.612	41214.62
733.953	41180.5
734.294	41057.34
734.635	40905.7
734.976	41058.69
735.317	40807.18
735.658	40794.07
735.999	40822.32
736.339	40680.63
736.68	40782.32
737.021	40438.37
737.361	40378.03
737.702	40560.85
738.042	40407.86
738.383	40286.74
738.723	40401.08
739.063	40121.54
739.404	40173.52
739.744	40112.5
740.084	39838.16
740.424	40093.97
740.764	39835.22
741.104	40044.94
741.444	39756.81
741.784	39549.36
742.124	39726.53
742.464	39630.26
742.804	39545.29
743.143	39335.8
743.483	39426.65
743.823	39208.35
744.162	39277.95
744.502	39230.72
744.841	39082.93
745.181	39174.9
745.52	39004.29
745.86	39090.38
746.199	38814.01
746.538	38889.94
746.877	38888.13
747.216	38929.71
747.556	38573.79
747.895	38634.8
748.234	38393.68
748.573	38338.54
748.911	38359.1
749.25	38238.2
749.589	38182.61
749.928	38170.63
750.267	38198.66
750.605	37955.73
750.944	38004.09
751.283	37755.5
751.621	37833.92
751.96	37691.33
752.298	37781.72
752.636	37744.43
752.975	37400.49
753.313	37285.01
753.651	37498.34
753.989	37261.28
754.327	37149.87
754.666	37193.49
755.004	37071.68
755.342	37076.65
755.679	36951.23
756.017	36811.8
756.355	36930.44
756.693	36633.5
757.031	36710.79
757.368	36394.86
757.706	36374.75
758.044	36237.13
758.381	36320.06
758.719	36185.83
759.056	36066.06
759.394	36138.15
759.731	35955.1
760.068	35780.19
760.405	35610.48
760.743	35410.48
761.08	35544.04
761.417	35230.6
761.754	35241.45
762.091	35130.04
762.428	35118.74
762.765	34759.65
763.102	34967.56
763.438	34713.55
763.775	34580.9
764.112	34583.38
764.449	34495.03
764.785	34359.21
765.122	34076.96
765.458	33977.75
765.795	34105.88
766.131	33963.74
766.467	33883.97
766.804	33505.22
767.14	33441.95
767.476	33374.6
767.812	33253.48
768.148	33329.18
768.485	33135.06
768.821	32788.4
769.157	32864.11
769.492	32864.11
769.828	32864.79
770.164	32437.45
770.5	32370.34
770.836	32463.89
771.171	32145.26
771.507	31998.59
771.842	31978.48
772.178	31845.6
772.513	31882.21
772.849	31781.42
773.184	31683.8
773.519	31711.37
773.855	31469.57
774.19	31278.16
774.525	31061.44
774.86	31034.1
775.195	31093.76
775.53	30896.48
775.865	30757.04
776.2	30575.81
776.535	30445.19
776.87	30383.49
777.205	30202.93
777.539	30090.85
777.874	30141.69
778.209	29787.58
778.543	29817.63
778.878	29666.23
779.212	29705.32
779.547	29517.75
779.881	29527.47
780.215	29208.16
780.55	29325.67
780.884	29256.97
781.218	29120.03
781.552	29159.57
781.886	28802.75
782.22	28696.76
782.554	28641.39
782.888	28436.2
783.222	28355.75
783.556	28080.5
783.889	28099.71
784.223	27954.18
784.557	27923.67
784.89	27962.99
785.224	27738.82
785.557	27641.65
785.891	27627.41
786.224	27387.19
786.558	27332.5
786.891	27099.51
787.224	26981.78
787.557	27075.79
787.891	26890.93
788.224	26875.79
788.557	26800.54
788.89	26795.79
789.223	26659.53
789.556	26432.86
789.888	26421.57
790.221	26287.11
790.554	26134.57
790.887	26084.62
791.219	25999.43
791.552	25991.75
791.884	25761.92
792.217	25686.67
792.549	25617.52
792.882	25538.2
793.214	25350.41
793.546	25439.22
793.879	25205.1
794.211	25051.43
794.543	25032.9
794.875	24982.73
795.207	25002.39
795.539	24823.42
795.871	24944.77
796.203	24733.93
796.535	24589.75
796.867	24455.52
797.198	24387.95
797.53	24439.02
797.862	24238.35
798.193	24279.25
798.525	24134.62
798.856	24098.69
799.188	23879.49
799.519	23794.06
799.85	23660.28
800.182	23755.65
800.513	23703.67
800.844	23579.15
801.175	23635.88
801.506	23579.61
801.837	23371.02
802.168	23319.95
802.499	23328.77
802.83	23192.72
803.161	23147.3
803.491	23094.87
803.822	22961.09
804.153	22992.5
804.483	22732.62
804.814	22671.16
805.145	22613.76
805.475	22611.95
805.805	22565.85
806.136	22596.81
806.466	22446.53
806.796	22463.25
807.126	22327.89
807.457	22251.05
807.787	22151.17
808.117	22162.69
808.447	22059.87
808.777	22023.49
809.107	21952.53
809.436	21858.3
809.766	21931.06
810.096	21864.4
810.426	21687.45
810.755	21676.83
811.085	21576.49
811.414	21537.17
811.744	21410.17
812.073	21389.83
812.403	21289.72
812.732	21211.08
813.061	21292.89
813.39	21102.83
813.719	21046.57
814.049	21126.56
814.378	21033.46
814.707	20904.87
815.036	20916.17
815.365	20739
815.693	20550.31
816.022	20659
816.351	20647.48
816.68	20544.43
817.008	20493.59
817.337	20309.41
817.665	20320.71
817.994	20315.96
818.322	20382.63
818.651	20253.14
818.979	20214.5
819.307	20192.8
819.636	20161.39
819.964	20009.08
820.292	20102.18
820.62	19961.62
820.948	19881.4
821.276	19901.28
821.604	19986.48
821.932	19992.81
822.259	19999.59
822.587	20005.91
822.915	19887.5
823.243	19952.81
823.57	19877.1
823.898	19790.1
824.225	19819.48
824.553	19821.74
824.88	19932.47
825.207	19927.95
825.535	19779.25
825.862	19884.34
826.189	19823.77
826.516	19998.46
826.843	20042.75
827.17	20064.22
827.497	19874.39
827.824	19903.54
828.151	19839.14
828.478	19843.66
828.805	19812.7
829.131	19784
829.458	19839.14
829.785	19693.38
830.111	19856.54
830.438	19900.61
830.764	19849.76
831.09	19777.67
831.417	19695.64
831.743	19724.34
832.069	19758.46
832.395	19683.44
832.722	19706.04
833.048	19677.79
833.374	19689.09
833.7	19565.93
834.026	19561.63
834.351	19683.89
834.677	19551.69
835.003	19611.57
835.329	19572.71
835.654	19500.84
835.98	19443.9
836.306	19474.18
836.631	19341.75
836.956	19471.92
837.282	19406.61
837.607	19288.42
837.932	19355.76
838.258	19315.76
838.583	19245.71
838.908	19239.83
839.233	19084.36
839.558	19127.52
839.883	19022.44
840.208	19019.73
840.533	18968.2
840.858	19013.17
841.182	18924.14
841.507	18959.61
841.832	18848.88
842.156	18828.54
842.481	18779.05
842.805	18723.69
843.13	18547.65
843.454	18661.54
843.778	18583.81
844.103	18451.83
844.427	18543.35
844.751	18489.34
845.075	18479.85
845.399	18314.89
845.723	18291.16
846.047	18377.93
846.371	18098.85
846.695	18160.09
847.019	17972.3
847.343	17812.3
847.666	17779.98
847.99	17695.47
848.313	17658.86
848.637	17637.39
848.96	17573.44
849.284	17549.93
849.607	17447.34
849.931	17372.99
850.254	17219.55
850.577	17174.58
850.9	17117.4
851.223	17018.65
851.546	16952.89
851.869	16860.46
852.192	17004.64
852.515	16825.43
852.838	16666.34
853.161	16717.41
853.483	16541.37
853.806	16499.79
854.129	16494.14
854.451	16549.51
854.774	16465.89
855.096	16303.41
855.419	16313.36
855.741	16233.36
856.063	16147.26
856.385	16145
856.708	16119.01
857.03	16006.92
857.352	15980.03
857.674	15904.33
857.996	15839.7
858.318	15766.48
858.64	15826.14
858.961	15673.83
859.283	15721.51
859.605	15641.96
859.926	15592.92
860.248	15545.01
860.57	15540.95
860.891	15484.9
861.212	15446.26
861.534	15361.29
861.855	15293.5
862.176	15391.12
862.498	15339.37
862.819	15268.41
863.14	15280.16
863.461	15206.94
863.782	15211.69
864.103	15172.14
864.424	15147.06
864.745	15214.4
865.065	15053.95
865.386	15039.72
865.707	14969.89
866.027	15091.92
866.348	15060.06
866.668	14938.48
866.989	14882.21
867.309	14723.79
867.63	14766.28
867.95	14779.61
868.27	14679.95
868.59	14659.16
868.91	14792.49
869.23	14689.22
869.55	14705.26
869.87	14722.89
870.19	14787.52
870.51	14662.55
870.83	14631.14
871.15	14484.03
871.469	14492.39
871.789	14435.67
872.109	14448.55
872.428	14401.99
872.748	14446.06
873.067	14378.27
873.386	14422.56
873.706	14366.74
874.025	14334.88
874.344	14304.6
874.663	14227.31
874.982	14225.95
875.301	14224.6
875.62	14220.53
875.939	14151.61
876.258	14242
876.577	14096.69
876.896	14115.22
877.214	14005.17
877.533	14092.85
877.852	14085.84
878.17	14068.9
878.489	14076.13
878.807	14031.38
879.125	13915.23
879.444	13872.06
879.762	13889.24
880.08	13984.83
880.398	13870.48
880.716	13856.47
881.034	13739.64
881.352	13878.84
881.67	13715.46
881.988	13780.77
882.306	13716.14
882.624	13656.93
882.941	13552.3
883.259	13514.33
883.577	13535.8
883.894	13451.96
884.212	13403.38
884.529	13455.58
884.846	13496.93
885.164	13347.78
885.481	13278.63
885.798	13249.93
886.115	13188.69
886.432	13146.43
886.75	13228.69
887.067	13217.17
887.383	13088.58
887.7	13092.2
888.017	13131.52
888.334	13119.32
888.651	13078.41
888.967	13041.35
889.284	12975.82
889.6	12928.59
889.917	12927.68
890.233	12872.09
890.55	12825.31
890.866	12831.64
891.182	12643.85
891.498	12684.07
891.815	12669.16
892.131	12520.24
892.447	12603.17
892.763	12488.37
893.079	12470.97
893.395	12495.6
893.71	12428.03
894.026	12419.9
894.342	12375.61
894.657	12189.85
894.973	12256.51
895.289	12179.91
895.604	12196.4
895.92	12007.93
896.235	12023.3
896.55	12019.23
896.865	11997.99
897.181	12013.36
897.496	11959.12
897.811	11863.76
898.126	11829.18
898.441	11821.27
898.756	11820.37
899.071	11743.08
899.386	11686.81
899.7	11674.61
900.015	11586.48
900.33	11466.7
900.644	11531.56
900.959	11511.45
901.273	11441.17
901.588	11353.71
901.902	11315.07
902.216	11335.63
902.531	11174.96
902.845	11208.18
903.159	11151.46
903.473	11098.8
903.787	11079.82
904.101	11023.33
904.415	10978.58
904.729	11023.78
905.042	10868.98
905.356	10869.21
905.67	10825.82
905.984	10880.28
906.297	10790.34
906.611	10659.27
906.924	10720.28
907.237	10654.07
907.551	10626.73
907.864	10553.73
908.177	10520.06
908.491	10522.77
908.804	10444.58
909.117	10385.83
909.43	10366.85
909.743	10287.3
910.056	10223.12
910.368	10222.67
910.681	10139.73
910.994	10134.99
911.307	10125.27
911.619	10006.86
911.932	10053.18
912.244	9961.21
912.557	9913.3
912.869	9850.93
913.181	9805.96
913.494	9852.51
913.806	9717.6
914.118	9730.03
914.43	9692.74
914.742	9663.59
915.054	9642.35
915.366	9561.67
915.678	9588.11
915.99	9479.86
916.302	9447.32
916.613	9377.72
916.925	9408.45
917.236	9324.84
917.548	9298.4
917.859	9315.35
918.171	9208.91
918.482	9264.73
918.794	9105.64
919.105	9146.31
919.416	8996.71
919.727	9016.37
920.038	8920.1
920.349	8921.46
920.66	8852.08
920.971	8894.57
921.282	8896.15
921.593	8703.61
921.903	8712.88
922.214	8737.28
922.525	8647.34
922.835	8686.44
923.146	8545.65
923.456	8583.39
923.767	8545.2
924.077	8539.32
924.387	8471.3
924.697	8464.3
925.008	8381.36
925.318	8358.31
925.628	8366.22
925.938	8271.99
926.248	8202.61
926.558	8202.38
926.867	8196.96
927.177	8094.82
927.487	8056.85
927.796	8003.52
928.106	7992.9
928.416	8006.68
928.725	7934.59
929.034	7906.8
929.344	7975.5
929.653	7871.54
929.962	7805.33
930.271	7688.05
930.581	7742.28
930.89	7670.65
931.199	7684.2
931.508	7633.13
931.817	7684.88
932.125	7581.61
932.434	7534.15
932.743	7398.11
933.051	7504.55
933.36	7454.38
933.669	7326.7
933.977	7346.36
934.286	7301.39
934.594	7313.59
934.902	7273.59
935.21	7219.58
935.519	7206.7
935.827	7196.76
936.135	7163.54
936.443	7111.34
936.751	7081.06
937.059	7057.33
937.367	7012.58
937.674	7036.54
937.982	6942.3
938.29	6924.68
938.597	6887.62
938.905	6839.48
939.213	6848.07
939.52	6820.27
939.827	6860.5
940.135	6771.46
940.442	6721.52
940.749	6757.22
941.056	6684.23
941.363	6559.26
941.67	6581.86
941.977	6569.21
942.284	6491.69
942.591	6511.35
942.898	6499.15
943.205	6490.11
943.511	6458.02
943.818	6418.7
944.125	6293.73
944.431	6334.86
944.738	6352.04
945.044	6315.88
945.35	6281.08
945.657	6207.41
945.963	6194.3
946.269	6158.37
946.575	6191.59
946.881	6132.83
947.187	6070.01
947.493	6030.24
947.799	6014.64
948.105	5993.85
948.41	5987.53
948.716	5956.57
949.022	5929.45
949.327	5917.47
949.633	5853.29
949.938	5820.98
950.244	5849.22
950.549	5771.49
950.854	5779.4
951.16	5711.6
951.465	5735.56
951.77	5724.93
952.075	5642.22
952.38	5705.5
952.685	5616.01
952.99	5581.89
953.294	5639.06
953.599	5496.69
953.904	5505.05
954.209	5434.77
954.513	5449.46
954.818	5431.38
955.122	5364.94
955.426	5413.76
955.731	5357.26
956.035	5308.67
956.339	5351.38
956.643	5309.13
956.948	5272.06
957.252	5276.58
957.556	5261.22
957.86	5234.78
958.163	5245.17
958.467	5187.32
958.771	5171.95
959.075	5152.97
959.378	5092.63
959.682	5128.11
959.985	5046.53
960.289	5045.18
960.592	5007.66
960.896	4995.91
961.199	4942.81
961.502	4918.18
961.805	4926.54
962.108	4847.67
962.411	4881.57
962.714	4838.4
963.017	4842.25
963.32	4838.4
963.623	4799.31
963.926	4804.05
964.228	4719.31
964.531	4762.02
964.833	4748.91
965.136	4673.89
965.438	4716.6
965.741	4659.2
966.043	4691.52
966.345	4632.53
966.648	4576.26
966.95	4615.81
967.252	4554.12
967.554	4535.81
967.856	4563.16
968.158	4437.74
968.46	4498.53
968.761	4454.23
969.063	4478.41
969.365	4426.44
969.666	4386.66
969.968	4348.93
970.269	4327.68
970.571	4317.29
970.872	4293.79
971.174	4265.76
971.475	4227.12
971.776	4231.41
972.077	4258.53
972.378	4197.52
972.679	4191.42
972.98	4220.79
973.281	4160
973.582	4135.6
973.883	4108.03
974.183	4069.61
974.484	4037.52
974.785	4078.65
975.085	3986.9
975.386	4047.69
975.686	4000.69
975.986	4004.08
976.287	3964.3
976.587	3972.44
976.887	3977.86
977.187	3914.59
977.487	3903.06
977.787	3866.45
978.087	3827.81
978.387	3843.85
978.687	3824.42
978.987	3817.87
979.286	3770.86
979.586	3801.59
979.885	3754.36
980.185	3749.62
980.484	3727.02
980.784	3670.3
981.083	3710.52
981.382	3658.55
981.682	3654.48
981.981	3659.23
982.28	3642.05
982.579	3612.9
982.878	3606.8
983.177	3546.69
983.475	3588.95
983.774	3505.33
984.073	3500.59
984.372	3472.11
984.67	3476.41
984.969	3486.8
985.267	3466.91
985.566	3466.01
985.864	3432.79
986.162	3406.13
986.461	3379.91
986.759	3420.36
987.057	3355.73
987.355	3340.82
987.653	3334.26
987.951	3331.1
988.249	3318.67
988.547	3309.4
988.844	3312.57
989.142	3291.55
989.44	3230.54
989.737	3232.34
990.035	3234.6
990.332	3233.02
990.63	3191.22
990.927	3191.89
991.224	3177.2
991.521	3150.31
991.819	3145.34
992.116	3162.29
992.413	3087.49
992.71	3079.35
993.006	3101.5
993.303	3049.07
993.6	3047.72
993.897	3009.75
994.193	2985.35
994.49	2971.33
994.787	2973.37
995.083	2948.96
995.379	2902.41
995.676	2929.98
995.972	2917.55
996.268	2861.96
996.565	2870.32
996.861	2841.62
997.157	2844.56
997.453	2810.89
997.749	2820.83
998.044	2792.81
998.34	2769.98
998.636	2746.03
998.932	2764.56
999.227	2726.59
999.523	2714.17
999.818	2713.94
1000.114	2686.82
1000.409	2645.24
1000.704	2653.38
1001	2670.1
1001.295	2637.33
1001.59	2616.99
1001.885	2617.9
1002.18	2575.64
1002.475	2581.29
1002.77	2589.42
1003.065	2578.35
1003.359	2537.67
1003.654	2540.16
1003.949	2482.76
1004.243	2497.9
1004.538	2486.83
1004.832	2466.49
1005.127	2446.15
1005.421	2464.68
1005.715	2434.17
1006.009	2405.93
1006.304	2360.05
1006.598	2385.81
1006.892	2369.32
1007.186	2362.31
1007.48	2355.08
1007.773	2311.01
1008.067	2335.42
1008.361	2269.43
1008.655	2282.54
1008.948	2296.32
1009.242	2275.99
1009.535	2277.34
1009.829	2279.38
1010.122	2209.09
1010.415	2230.11
1010.708	2193.73
1011.001	2212.71
1011.295	2188.76
1011.588	2176.33
1011.881	2139.94
1012.173	2133.39
1012.466	2114.63
1012.759	2097.68
1013.052	2125.48
1013.344	2063.11
1013.637	2085.71
1013.93	2081.19
1014.222	2048.65
1014.514	2036.22
1014.807	2026.73
1015.099	2014.75
1015.391	2014.52
1015.683	1976.56
1015.976	1950.34
1016.268	1955.77
1016.56	1964.13
1016.851	1934.53
1017.143	1927.29
1017.435	1915.32
1017.727	1896.11
1018.018	1917.8
1018.31	1871.48
1018.602	1878.93
1018.893	1838.71
1019.185	1821.08
1019.476	1813.85
1019.767	1808.2
1020.058	1792.16
1020.35	1795.09
1020.641	1766.62
1020.932	1758.26
1021.223	1748.77
1021.514	1748.54
1021.804	1731.37
1022.095	1698.37
1022.386	1694.08
1022.677	1673.52
1022.967	1672.39
1023.258	1683.46
1023.548	1649.56
1023.839	1640.97
1024.129	1650.01
1024.419	1630.13
1024.709	1612.5
1025	1604.82
1025.29	1617.02
1025.58	1572.05
1025.87	1582.22
1026.16	1545.84
1026.449	1547.42
1026.739	1534.99
1027.029	1541.54
1027.319	1496.8
1027.608	1501.09
1027.898	1483.69
1028.187	1459.51
1028.477	1446.85
1028.766	1450.47
1029.055	1468.32
1029.344	1434.2
1029.634	1412.51
1029.923	1432.17
1030.212	1412.96
1030.501	1415.89
1030.79	1373.86
1031.078	1400.98
1031.367	1352.17
1031.656	1367.99
1031.945	1365.95
1032.233	1357.59
1032.522	1326.18
1032.81	1331.6
1033.099	1334.77
1033.387	1279.63
1033.675	1295.67
1033.963	1294.77
1034.251	1269.01
1034.54	1299.51
1034.828	1259.97
1035.116	1239.4
1035.403	1219.06
1035.691	1219.74
1035.979	1222.91
1036.267	1211.61
1036.554	1212.96
1036.842	1209.57
1037.129	1199.4
1037.417	1179.74
1037.704	1170.93
1037.992	1151.95
1038.279	1138.61
1038.566	1156.47
1038.853	1156.47
1039.14	1156.47
