Data from plate_ceramic_FLMS001491_070.txt Node
Date: Tue Feb 07 11:17:09 GMT 2017
User: dcchb
Spectrometer: FLMS00149
Trigger mode: 0
Integration Time (sec): 2.000000E-2
Scans to average: 10
Electric dark correction enabled: true
Nonlinearity correction enabled: false
Boxcar width: 0
XAxis mode: Wavelengths
Number of Pixels in Spectrum: 2048
>>>>>Begin Spectral Data<<<<<
341.393	-15.89
341.776	-15.89
342.16	-15.89
342.543	-72.39
342.927	-54.76
343.31	-89.33
343.693	-77.81
344.077	-64.25
344.46	-52.72
344.843	-37.36
345.226	-40.52
345.61	-23.12
345.993	-14.53
346.376	-7.08
346.759	8.52
347.142	28.63
347.525	43.54
347.908	73.15
348.291	64.33
348.674	89.42
349.057	99.14
349.44	145.24
349.823	153.15
350.206	168.51
350.588	223.43
350.971	225.46
351.354	237.21
351.737	249.41
352.119	273.82
352.502	294.61
352.884	281.96
353.267	301.16
353.65	305.23
354.032	325.57
354.414	306.59
354.797	336.19
355.179	354.72
355.562	343.2
355.944	350.2
356.326	358.34
356.709	349.3
357.091	352.69
357.473	377.55
357.855	361.05
358.238	375.51
358.62	366.25
359.002	384.1
359.384	365.57
359.766	374.16
360.148	350.88
360.53	369.19
360.912	368.28
361.294	373.25
361.676	375.29
362.057	379.35
362.439	361.73
362.821	356.53
363.203	356.76
363.584	359.47
363.966	357.43
364.348	380.94
364.729	351.56
365.111	359.02
365.493	367.15
365.874	346.81
366.256	348.39
366.637	350.88
367.019	354.72
367.4	347.04
367.781	348.85
368.163	386.13
368.544	362.18
368.925	361.95
369.306	382.74
369.688	354.95
370.069	376.19
370.45	368.51
370.831	361.73
371.212	365.34
371.593	371.9
371.974	357.89
372.355	362.86
372.736	361.73
373.117	390.65
373.498	378
373.879	373.93
374.26	392.46
374.641	357.66
375.021	403.08
375.402	371.22
375.783	379.58
376.163	414.16
376.544	415.96
376.925	410.09
377.305	417.09
377.686	390.2
378.066	402.63
378.447	397.43
378.827	399.69
379.208	407.6
379.588	394.5
379.968	438.56
380.349	426.81
380.729	418.68
381.109	429.07
381.489	448.51
381.87	424.1
382.25	443.76
382.63	432.46
383.01	433.82
383.39	444.89
383.77	466.36
384.15	445.34
384.53	473.36
384.91	459.58
385.29	462.97
385.67	474.27
386.049	484.89
386.429	478.33
386.809	466.58
387.189	489.41
387.568	466.81
387.948	480.59
388.328	501.16
388.707	518.56
389.087	507.71
389.466	492.12
389.846	493.93
390.225	549.52
390.605	527.15
390.984	519.46
391.363	510.88
391.743	525.79
392.122	542.74
392.501	566.02
392.881	552.68
393.26	552.68
393.639	574.38
394.018	549.07
394.397	585.22
394.776	587.03
395.155	566.24
395.534	596.52
395.913	585
396.292	592.46
396.671	617.77
397.05	605.34
397.429	622.29
397.808	621.83
398.186	637.88
398.565	626.58
398.944	638.33
399.323	632
399.701	657.77
400.08	664.32
400.458	672.23
400.837	661.61
401.215	647.82
401.594	698.22
401.972	705.22
402.351	673.36
402.729	708.61
403.107	716.29
403.486	713.58
403.864	707.71
404.242	715.62
404.62	703.19
404.999	741.6
405.377	768.72
405.755	760.59
406.133	784.09
406.511	754.26
406.889	792.45
407.267	826.8
407.645	811.21
408.023	819.34
408.401	829.06
408.779	839.23
409.156	833.58
409.534	866.57
409.912	844.88
410.29	893.24
410.667	894.6
411.045	875.84
411.422	904.54
411.8	907.48
412.178	934.14
412.555	946.12
412.933	957.64
413.31	955.38
413.687	970.07
414.065	981.6
414.442	998.32
414.819	1034.93
415.197	995.38
415.574	1029.73
415.951	1040.81
416.328	1040.58
416.705	1077.42
417.082	1051.65
417.46	1077.64
417.837	1090.07
418.214	1116.06
418.591	1146.11
418.967	1135.72
419.344	1149.05
419.721	1173.23
420.098	1166.68
420.475	1167.81
420.852	1198.54
421.228	1214.36
421.605	1227.47
421.982	1220.24
422.358	1255.94
422.735	1267.24
423.111	1260.24
423.488	1286
423.864	1303.62
424.241	1278.09
424.617	1321.48
424.994	1333.91
425.37	1327.8
425.746	1338.65
426.123	1361.7
426.499	1380.46
426.875	1389.05
427.251	1423.62
427.627	1453
428.003	1487.8
428.379	1499.78
428.756	1508.82
429.132	1496.84
429.507	1533.67
429.883	1587.68
430.259	1585.88
430.635	1610.28
431.011	1599.44
431.387	1668.36
431.763	1667
432.138	1662.03
432.514	1701.35
432.89	1742.03
433.265	1762.59
433.641	1785.19
434.016	1762.59
434.392	1792.2
434.767	1849.15
435.143	1836.49
435.518	1859.32
435.894	1903.83
436.269	1936.83
436.644	1954.91
437.02	1971.18
437.395	2029.71
437.77	2013.44
438.145	2007.79
438.52	2042.81
438.895	2076.48
439.271	2072.19
439.646	2145.64
440.021	2116.26
440.395	2128.01
440.77	2108.8
441.145	2158.97
441.52	2180.89
441.895	2235.58
442.27	2207.55
442.645	2232.87
443.019	2270.38
443.394	2280.32
443.769	2292.07
444.143	2290.04
444.518	2347.44
444.892	2337.72
445.267	2363.71
445.641	2352.64
446.016	2373.88
446.39	2386.31
446.764	2370.49
447.139	2396.93
447.513	2410.94
447.887	2448
448.262	2457.27
448.636	2457.04
449.01	2541.56
449.384	2535.23
449.758	2529.13
450.132	2572.29
450.506	2584.04
450.88	2636.24
451.254	2659.75
451.628	2665.17
452.002	2679.18
452.376	2772.96
452.75	2750.82
453.123	2799.86
453.497	2835.11
453.871	2854.77
454.244	2915.11
454.618	2929.57
454.992	2938.38
455.365	2982
455.739	3046.85
456.112	3046.85
456.486	3122.79
456.859	3089.11
457.232	3157.36
457.606	3198.26
457.979	3235.32
458.352	3336.34
458.725	3371.14
459.099	3347.64
459.472	3428.77
459.845	3459.95
460.218	3503.11
460.591	3554.86
460.964	3513.28
461.337	3596.67
461.71	3733.39
462.083	3766.61
462.456	3762.54
462.829	3804.58
463.201	3852.48
463.574	3850.68
463.947	3952.14
464.32	4029.65
464.692	4073.72
465.065	4051.57
465.438	4118.01
465.81	4187.39
466.183	4221.51
466.555	4344.67
466.928	4365.69
467.3	4358.46
467.672	4413.15
468.045	4580.83
468.417	4527.72
468.789	4635.29
469.161	4642.97
469.534	4777.66
469.906	4868.95
470.278	4886.35
470.65	4942.17
471.022	5020.14
471.394	5111.21
471.766	5135.61
472.138	5229.85
472.51	5331.31
472.882	5417.87
473.253	5465.1
473.625	5548.48
473.997	5703.06
474.369	5702.38
474.74	5750.51
475.112	5948.47
475.484	6052.2
475.855	6092.2
476.227	6184.63
476.598	6338.52
476.97	6368.35
477.341	6559.98
477.713	6641.11
478.084	6642.47
478.455	6868.22
478.827	6886.08
479.198	7105.05
479.569	7146.63
479.94	7358.83
480.311	7377.36
480.682	7564.48
481.053	7751.82
481.424	7880.17
481.795	7905.48
482.166	8048.08
482.537	8194.52
482.908	8397
483.279	8443.1
483.65	8611.68
484.021	8787.04
484.391	8858.23
484.762	8897.1
485.133	9021.16
485.503	9188.16
485.874	9346.8
486.244	9450.3
486.615	9674.25
486.985	9739.33
487.356	9945.2
487.726	10042.6
488.097	10240.56
488.467	10287.79
488.837	10508.35
489.207	10632.64
489.578	10799.87
489.948	10895.69
490.318	11081.9
490.688	11074.67
491.058	11282.12
491.428	11358.73
491.798	11475.79
492.168	11809.79
492.538	11793.29
492.908	11941.08
493.278	12072.83
493.648	12106.28
494.017	12388.3
494.387	12418.36
494.757	12583.78
495.126	12690.44
495.496	12768.86
495.866	12895.86
496.235	13036.87
496.605	13156.65
496.974	13244.1
497.344	13355.74
497.713	13496.07
498.082	13579.23
498.452	13706.24
498.821	13777.19
499.19	13788.95
499.559	13912.11
499.928	14047.24
500.298	14129.95
500.667	14245.2
501.036	14317.07
501.405	14480.45
501.774	14564.74
502.143	14717.51
502.512	14717.51
502.88	14837.73
503.249	14882.48
503.618	15009.03
503.987	15056.93
504.356	15177.61
504.724	15356.81
505.093	15311.84
505.462	15491.73
505.83	15610.37
506.199	15767.42
506.567	15921.09
506.936	15926.74
507.304	16153.18
507.672	16205.38
508.041	16319.73
508.409	16409.67
508.777	16549.55
509.145	16639.94
509.514	16766.27
509.882	16870.9
510.25	16929.65
510.618	17053.72
510.986	17126.26
511.354	17436.76
511.722	17498.68
512.09	17669.52
512.458	17613.03
512.826	17828.39
513.193	17936.63
513.561	18025.22
513.929	18125.1
514.297	18416.62
514.664	18546.79
515.032	18676.05
515.4	18814.58
515.767	18892.09
516.135	18998.07
516.502	18903.16
516.869	19340.66
517.237	19373.21
517.604	19322.36
517.972	19627.89
518.339	19821.33
518.706	19836.24
519.073	20011.15
519.44	20102
519.808	20325.95
520.175	20385.83
520.542	20687.3
520.909	20824.01
521.276	20759.16
521.643	20997.8
522.009	21205.93
522.376	21263.1
522.743	21471.46
523.11	21766.59
523.477	21955.28
523.843	22074.83
524.21	22282.06
524.577	22584.65
524.943	22503.97
525.31	22669.62
525.676	22886.33
526.043	22976.73
526.409	23209.04
526.776	23557.28
527.142	23628.23
527.508	23756.59
527.874	23840.43
528.241	24044.04
528.607	24124.94
528.973	24306.18
529.339	24394.77
529.705	24608.55
530.071	24851.71
530.437	24931.25
530.803	25174.41
531.169	25351.81
531.535	25293.05
531.901	25315.42
532.267	25523.1
532.632	25673.6
532.998	25819.14
533.364	25999.02
533.73	26173.48
534.095	26336.41
534.461	26508.84
534.826	26542.73
535.192	26678.32
535.557	27004.64
535.923	26944.53
536.288	27027.92
536.653	27151.76
537.019	27168.71
537.384	27368.7
537.749	27421.13
538.114	27507.91
538.479	27646.66
538.845	27860.44
539.21	27788.8
539.575	27962.81
539.94	27880.33
540.305	28240.99
540.67	28210.26
541.034	28359.64
541.399	28550.14
541.764	28576.81
542.129	28722.56
542.494	28730.02
542.858	28857.48
543.223	28925.95
543.587	29219.95
543.952	29244.81
544.316	29327.29
544.681	29277.13
545.045	29586.04
545.41	29611.35
545.774	29760.05
546.138	29775.64
546.503	29967.5
546.867	29948.07
547.231	30208.17
547.595	30337.89
547.959	30367.94
548.324	30496.53
548.688	30502.4
549.052	30700.82
549.416	30864.65
549.779	30812.68
550.143	31052.22
550.507	31120.92
550.871	31306.22
551.235	31237.07
551.599	31463.51
551.962	31591.87
552.326	31616.73
552.689	31792.31
553.053	31750.51
553.417	31868.24
553.78	32261
554.143	32137.62
554.507	32392.3
554.87	32586.64
555.234	32884.49
555.597	32868.9
555.96	32954.09
556.323	33173.75
556.686	33125.39
557.05	33426.62
557.413	33594.75
557.776	33659.84
558.139	33752.49
558.502	33918.59
558.865	34055.53
559.228	34321.74
559.59	34399.02
559.953	34489.42
560.316	34748.39
560.679	34748.62
561.041	35034.94
561.404	35289.62
561.767	35445.33
562.129	35399
562.492	35834.24
562.854	35747.01
563.217	35897.06
563.579	36162.37
563.941	36348.35
564.304	36440.1
564.666	36697.04
565.028	36775.23
565.39	36918.96
565.753	36970.03
566.115	37307.87
566.477	37298.16
566.839	37471.71
567.201	37702.21
567.563	37755.77
567.925	37913.06
568.287	38129.55
568.648	38206.16
569.01	38391.69
569.372	38664.9
569.734	38362.99
570.095	38882.75
570.457	38873.94
570.819	38977.66
571.18	39021.73
571.542	39390.98
571.903	39459.46
572.265	39581.49
572.626	39739
572.987	39749.62
573.349	39895.6
573.71	39978.54
574.071	40034.36
574.432	40163.39
574.794	40360.45
575.155	40510.28
575.516	40411.75
575.877	40551.41
576.238	40707.79
576.599	40847.89
576.96	40873.43
577.32	40951.39
577.681	41100.32
578.042	41269.13
578.403	41276.36
578.763	41292.85
579.124	41320.65
579.485	41611.04
579.845	41624.6
580.206	41577.82
580.566	41525.62
580.927	41606.97
581.287	41606.07
581.648	41638.16
582.008	41681.09
582.368	41729.68
582.728	41917.02
583.089	41802.67
583.449	41858.94
583.809	41699.4
584.169	42010.12
584.529	41868.21
584.889	42040.63
585.249	41881.31
585.609	41873.86
585.969	42130.12
586.329	41864.14
586.688	42084.25
587.048	42058.03
587.408	41947.08
587.768	42159.72
588.127	41992.5
588.487	42071.59
588.846	42181.87
589.206	41955.66
589.565	42136.67
589.925	42201.76
590.284	42140.52
590.643	42194.53
591.003	42409.21
591.362	42677.23
591.721	42387.74
592.08	42272.26
592.44	42485.37
592.799	42434.97
593.158	42358.14
593.517	42283.79
593.876	42453.05
594.235	42369.89
594.593	42443.79
594.952	42554.06
595.311	42543.67
595.67	42594.97
596.029	42734.17
596.387	42779.14
596.746	42826.37
597.104	42599.26
597.463	42611.24
597.822	42882.42
598.18	42633.84
598.538	42653.72
598.897	42905.02
599.255	42568.08
599.613	43131.68
599.972	42828.63
600.33	42930.1
600.688	42864.11
601.046	43062.3
601.404	43248.51
601.762	43081.28
602.12	43276.53
602.478	43245.8
602.836	43227.95
603.194	43190.43
603.552	43175.07
603.91	43076.99
604.268	43342.52
604.625	43267.49
604.983	43456.19
605.341	43302.52
605.698	43560.82
606.056	43723.3
606.413	43493.48
606.771	43663.41
607.128	43833.13
607.485	43409.18
607.843	43702.28
608.2	43894.82
608.557	43954.93
608.914	43711.32
609.272	44053.23
609.629	44168.94
609.986	44294.81
610.343	44119.45
610.7	44275.15
611.057	44212.33
611.414	44220.46
611.771	44293.45
612.127	44354.24
612.484	44322.15
612.841	44490.06
613.198	44346.11
613.554	44316.96
613.911	44646.44
614.267	44608.25
614.624	44641.02
614.98	44637.4
615.337	44873.1
615.693	44842.14
616.05	44802.59
616.406	44982.02
616.762	44866.09
617.118	44875.36
617.475	44900.22
617.831	44925.75
618.187	45043.04
618.543	45051.4
618.899	45347.66
619.255	45185.41
619.611	45008.69
619.967	45312.64
620.323	45480.77
620.678	45219.98
621.034	45135.47
621.39	45252.3
621.746	45201
622.101	45607.77
622.457	45323.48
622.812	45318.96
623.168	45334.33
623.523	45340.21
623.879	45407.77
624.234	45304.5
624.589	45451.39
624.945	45350.15
625.3	45392.18
625.655	45190.15
626.01	45327.55
626.365	45462.01
626.72	45397.38
627.075	45456.36
627.43	45306.53
627.785	45337.27
628.14	45345.4
628.495	45284.39
628.85	45319.87
629.205	45071.96
629.559	45446.42
629.914	45197.84
630.269	45208.91
630.623	45111.51
630.978	44977.28
631.332	45215.92
631.687	45128.91
632.041	45008.46
632.396	45026.99
632.75	44812.08
633.104	44981.8
633.459	44772.54
633.813	44747.68
634.167	44807.56
634.521	44729.37
634.875	44740.9
635.229	44551.07
635.583	44311.98
635.937	44581.58
636.291	44480.12
636.645	44400.34
636.999	44382.94
637.352	44430.17
637.706	44127.13
638.06	44388.37
638.413	44270.4
638.767	44067.47
639.121	44142.27
639.474	43849.85
639.828	43878.1
640.181	44001.03
640.534	44103.63
640.888	43866.8
641.241	43719.91
641.594	43749.51
641.947	43767.14
642.301	43695.28
642.654	43777.76
643.007	43632
643.36	43720.59
643.713	43514.04
644.066	43766.46
644.419	43468.39
644.771	43085.58
645.124	42679.71
645.477	42671.58
645.83	42223.9
646.182	42199.27
646.535	42108.2
646.888	42267.52
647.24	42084.92
647.593	42232.94
647.945	42327.63
648.298	42098.94
648.65	41908.88
649.002	41687.87
649.355	41962.44
649.707	41811.94
650.059	42101.65
650.411	42366.95
650.763	42450.79
651.115	42798.8
651.467	42607.85
651.819	42805.81
652.171	42564.69
652.523	42666.38
652.875	42510.22
653.227	42271.81
653.578	42568.08
653.93	42555.65
654.282	42319.95
654.633	42219.61
654.985	42420.96
655.337	42449.43
655.688	42292.6
656.039	42438.14
656.391	42062.1
656.742	42024.36
657.094	42002.89
657.445	42280.17
657.796	42121.53
658.147	41987.98
658.498	41885.61
658.849	41977.81
659.2	41910.69
659.551	41988.66
659.902	41957.7
660.253	41829.56
660.604	41927.41
660.955	41785.95
661.306	42036.11
661.656	41904.59
662.007	41681.77
662.358	41779.62
662.708	41825.27
663.059	41806.06
663.409	41367.66
663.76	41764.71
664.11	41658.95
664.461	41674.99
664.811	41567.2
665.161	41632.51
665.511	41666.63
665.862	41568.55
666.212	41672.05
666.562	41651.26
666.912	41592.51
667.262	41573.07
667.612	41620.76
667.962	41639.29
668.312	41510.48
668.662	41538.27
669.011	41639.96
669.361	41566.52
669.711	41435.9
670.06	41302.12
670.41	41289.47
670.76	41291.05
671.109	41372.17
671.459	41285.62
671.808	41101.45
672.157	41239.07
672.507	41010.38
672.856	41096.02
673.205	41002.02
673.554	41205.63
673.904	40958.17
674.253	41309.58
674.602	41166.3
674.951	40622.14
675.3	40480.45
675.649	41115.46
675.998	40848.35
676.346	40839.31
676.695	41042.69
677.044	40821.45
677.393	40950.04
677.741	40773.77
678.09	40792.53
678.438	40517.96
678.787	40662.36
679.135	40821.68
679.484	40653.55
679.832	40761.57
680.181	40459.88
680.529	40487
680.877	40376.49
681.225	40302.6
681.573	40597.73
681.922	40296.5
682.27	40192.77
682.618	40192.09
682.966	40107.12
683.314	40084.53
683.661	40068.25
684.009	39881.37
684.357	39724.08
684.705	39735.16
685.053	39756.62
685.4	39752.1
685.748	39550.53
686.095	39483.64
686.443	39269.18
686.79	39235.28
687.138	39275.73
687.485	39225.34
687.832	39255.62
688.18	39300.36
688.527	39074.16
688.874	38962.07
689.221	38845.01
689.568	38573.83
689.915	38597.78
690.262	38701.96
690.609	38590.55
690.956	38632.81
691.303	38453.16
691.65	38227.4
691.997	38044.35
692.344	38009.33
692.69	37952.38
693.037	38092.49
693.383	37703.57
693.73	37803.23
694.077	37662.89
694.423	37749.67
694.769	37645.04
695.116	37563.24
695.462	37537.02
695.808	37204.15
696.155	37251.61
696.501	37045.51
696.847	37023.81
697.193	36786.31
697.539	36897.94
697.885	36740.43
698.231	36544.96
698.577	36541.57
698.923	36579.98
699.269	36313.32
699.614	36092.09
699.96	36031.98
700.306	36181.8
700.651	35973.45
700.997	35809.38
701.342	35778.88
701.688	35705.88
702.033	35513.57
702.379	35490.97
702.724	35375.95
703.069	35476.74
703.415	35116.52
703.76	35140.93
704.105	35115.16
704.45	34983.87
704.795	34754.95
705.14	34604.44
705.485	34479.02
705.83	34522.41
706.175	34650.54
706.52	34637.66
706.865	34300.27
707.209	34332.36
707.554	34290.33
707.899	34361.51
708.243	34098.69
708.588	34053.5
708.932	33854.63
709.277	33824.12
709.621	33865.48
709.966	33606.73
710.31	33698.93
710.654	33422.1
710.998	33633.17
711.342	33453.06
711.687	33411.93
712.031	33282.9
712.375	33196.8
712.719	33305.72
713.063	33143.46
713.407	33048.33
713.75	32942.34
714.094	32971.72
714.438	32829.12
714.782	32893.53
715.125	32617.6
715.469	32822.8
715.812	32479.08
716.156	32448.34
716.499	32494.22
716.843	32447.21
717.186	32102.59
717.53	32329.25
717.873	32327.21
718.216	32126.54
718.559	32111.4
718.902	31837.74
719.246	31992.08
719.589	31822.82
719.932	31877.06
720.275	31762.26
720.617	31814.46
720.96	31716.84
721.303	31605.88
721.646	31756.38
721.989	31401.14
722.331	31625.76
722.674	31472.77
723.016	31377.64
723.359	31425.54
723.701	31390.97
724.044	31075.27
724.386	30975.16
724.729	31157.08
725.071	30938.78
725.413	30959.79
725.755	30992.11
726.097	30832.11
726.439	30688.39
726.782	30628.95
727.124	30716.18
727.465	30639.12
727.807	30638.9
728.149	30495.17
728.491	30378.11
728.833	30486.36
729.175	30305.8
729.516	30348.28
729.858	30382.41
730.199	30242.52
730.541	30151
730.882	30174.5
731.224	30235.07
731.565	30093.6
731.906	30062.64
732.248	30078.01
732.589	29855.87
732.93	29746.49
733.271	29776.32
733.612	29748.3
733.953	29869.2
734.294	29560.06
734.635	29649.09
734.976	29685.02
735.317	29587.4
735.658	29517.35
735.999	29564.58
736.339	29410.91
736.68	29454.07
737.021	29449.1
737.361	29276.9
737.702	29341.98
738.042	29292.49
738.383	29159.84
738.723	29314.19
739.063	29101.09
739.404	29118.94
739.744	29145.6
740.084	28967.3
740.424	29012.27
740.764	28922.33
741.104	28982.22
741.444	28929.56
741.784	28689.57
742.124	28736.57
742.464	28628.1
742.804	28632.17
743.143	28605.05
743.483	28600.99
743.823	28513.3
744.162	28283.93
744.502	28470.37
744.841	28285.97
745.181	28352.63
745.52	28372.74
745.86	28181.79
746.199	28200.09
746.538	28118.74
746.877	28141.79
747.216	28082.81
747.556	28008.68
747.895	27897.95
748.234	27947.22
748.573	27823.83
748.911	27728.47
749.25	27758.75
749.589	27650.95
749.928	27710.84
750.267	27685.98
750.605	27600.11
750.944	27379.1
751.283	27507.91
751.621	27520.34
751.96	27259.33
752.298	27217.74
752.636	27224.07
752.975	27220
753.313	27076.96
753.651	27208.48
753.989	26933.91
754.327	26905.66
754.666	26818.43
755.004	26832.9
755.342	26890.3
755.679	26755.38
756.017	26486.46
756.355	26610.3
756.693	26451.21
757.031	26548.16
757.368	26430.42
757.706	26346.81
758.044	26147.72
758.381	26264.55
758.719	26197.66
759.056	26210.54
759.394	26018.68
759.731	25922.86
760.068	25997.21
760.405	25883.54
760.743	25735.52
761.08	25832.24
761.417	25644
761.754	25486.26
762.091	25435.64
762.428	25408.3
762.765	25275.2
763.102	25346.38
763.438	25109.55
763.775	25034.07
764.112	25089.89
764.449	25082.43
764.785	24778.49
765.122	24756.34
765.458	24663.24
765.795	24630.69
766.131	24510.92
766.467	24472.05
766.804	24233.42
767.14	24159.75
767.476	24233.87
767.812	24153.42
768.148	24121.1
768.485	23990.71
768.821	23850.15
769.157	23849.92
769.492	23721.11
769.828	23719.31
770.164	23441.12
770.5	23439.99
770.836	23438.41
771.171	23290.39
771.507	23372.65
771.842	23195.7
772.178	23073.9
772.513	23054.69
772.849	22872.77
773.184	22804.75
773.519	22819.67
773.855	22719.78
774.19	22631.65
774.525	22454.93
774.86	22447.25
775.195	22387.14
775.53	22329.96
775.865	22229.4
776.2	22139.91
776.535	21950.99
776.87	21848.17
777.205	21924.55
777.539	21736.98
777.874	21831.22
778.209	21498.35
778.543	21555.29
778.878	21369.76
779.212	21383.32
779.547	21349.88
779.881	21392.14
780.215	21167.96
780.55	21254.29
780.884	21034.86
781.218	20932.03
781.552	20986.95
781.886	20803.45
782.22	20763.68
782.554	20677.35
782.888	20523.01
783.222	20468.09
783.556	20339.28
783.889	20251.83
784.223	20176.35
784.557	20097.25
784.89	20181.32
785.224	20004.6
785.557	19873.76
785.891	19919.86
786.224	19745.4
786.558	19759.64
786.891	19650.26
787.224	19545.4
787.557	19571.17
787.891	19497.04
788.224	19463.15
788.557	19487.33
788.89	19385.41
789.223	19374.34
789.556	19196.49
789.888	19097.73
790.221	19116.04
790.554	18949.04
790.887	18900.22
791.219	18799.44
791.552	18780.68
791.884	18729.15
792.217	18625.43
792.549	18594.69
792.882	18481.93
793.214	18344.08
793.546	18422.27
793.879	18219.34
794.211	18156.06
794.543	18106.35
794.875	18163.52
795.207	18144.09
795.539	18019.34
795.871	17921.49
796.203	17891.44
796.535	17813.02
796.867	17818.44
797.198	17625
797.53	17722.63
797.862	17617.77
798.193	17664.55
798.525	17473.14
798.856	17582.07
799.188	17244.45
799.519	17270.44
799.85	17163.55
800.182	17144.34
800.513	17143.21
800.844	16994.51
801.175	17111.8
801.506	17104.56
801.837	16970.78
802.168	16836.77
802.499	16766.27
802.83	16747.74
803.161	16757.68
803.491	16772.82
803.822	16707.06
804.153	16502.55
804.483	16426.39
804.814	16337.13
805.145	16330.35
805.475	16359.05
805.805	16289.67
806.136	16295.55
806.466	16208.09
806.796	16262.78
807.126	16142.33
807.457	16112.27
807.787	16115.89
808.117	16031.15
808.447	15892.84
808.777	15947.76
809.107	15839.74
809.436	15743.02
809.766	15842.45
810.096	15683.36
810.426	15627.09
810.755	15573.53
811.085	15656.47
811.414	15472.29
811.744	15425.74
812.073	15327.21
812.403	15403.37
812.732	15348.23
813.061	15397.49
813.39	15157.04
813.719	15198.17
814.049	15274.78
814.378	15049.48
814.707	15004.28
815.036	15067.1
815.365	15003.38
815.693	14934.45
816.022	14960.89
816.351	14849.93
816.68	14737.39
817.008	14871.85
817.337	14677.51
817.665	14702.59
817.994	14687.45
818.322	14762.71
818.651	14662.82
818.979	14591.18
819.307	14659.66
819.636	14510.96
819.964	14464.86
820.292	14416.95
820.62	14437.52
820.948	14381.47
821.276	14464.86
821.604	14447.46
821.932	14421.7
822.259	14431.41
822.587	14419.44
822.915	14365.88
823.243	14420.34
823.57	14368.59
823.898	14408.59
824.225	14334.47
824.553	14276.39
824.88	14305.09
825.207	14395.48
825.535	14298.99
825.862	14357.52
826.189	14284.3
826.516	14355.26
826.843	14451.98
827.17	14362.72
827.497	14426.67
827.824	14404.3
828.151	14396.16
828.478	14370.17
828.805	14351.64
829.131	14341.25
829.458	14259.89
829.785	14232.78
830.111	14272.77
830.438	14421.92
830.764	14322.94
831.09	14301.25
831.417	14237.75
831.743	14262.15
832.069	14297.41
832.395	14137.86
832.722	14185.32
833.048	14196.62
833.374	14177.18
833.7	14071.65
834.026	14117.98
834.351	14131.76
834.677	14117.07
835.003	14159.78
835.329	14084.08
835.654	14059.67
835.98	14087.47
836.306	14048.15
836.631	13878.89
836.956	14062.38
837.282	14077.53
837.607	13975.83
837.932	13948.26
838.258	13945.33
838.583	13908.94
838.908	13765.67
839.233	13838.89
839.558	13784.43
839.883	13750.53
840.208	13785.33
840.533	13805.22
840.858	13659.91
841.182	13676.86
841.507	13739.91
841.832	13746.23
842.156	13737.65
842.481	13629.18
842.805	13532.68
843.13	13538.1
843.454	13494.04
843.778	13446.36
844.103	13474.15
844.427	13321.16
844.751	13339.01
845.075	13366.13
845.399	13310.09
845.723	13264.21
846.047	13238
846.371	13118.91
846.695	13100.83
847.019	12911
847.343	12929.08
847.666	12823.55
847.99	12827.84
848.313	12817.22
848.637	12751.01
848.96	12661.29
849.284	12677.79
849.607	12645.02
849.931	12498.36
850.254	12538.13
850.577	12405.03
850.9	12299.72
851.223	12313.96
851.546	12225.82
851.869	12192.83
852.192	12153.73
852.515	12051.82
852.838	12026.51
853.161	12044.13
853.483	11996
853.806	11911.25
854.129	11948.77
854.451	11856.79
854.774	11833.52
855.096	11774.54
855.419	11822.22
855.741	11806.85
856.063	11650.02
856.385	11649.11
856.708	11627.42
857.03	11556.91
857.352	11506.07
857.674	11527.76
857.996	11480.08
858.318	11385.39
858.64	11406.41
858.961	11329.12
859.283	11271.72
859.605	11227.66
859.926	11266.53
860.248	11262.23
860.57	11208
860.891	11266.53
861.212	11099.75
861.534	11120.99
861.855	11175.68
862.176	11100.43
862.498	11137.04
862.819	11149.01
863.14	11034.44
863.461	11070.82
863.782	10955.12
864.103	10933.88
864.424	10956.7
864.745	11082.8
865.065	10865.18
865.386	10786.09
865.707	10851.4
866.027	10889.13
866.348	10849.59
866.668	10847.33
866.989	10753.77
867.309	10776.14
867.63	10796.71
867.95	10772.08
868.27	10680.55
868.59	10684.62
868.91	10652.3
869.23	10619.09
869.55	10598.75
869.87	10683.94
870.19	10662.7
870.51	10625.41
870.83	10591.29
871.15	10566.21
871.469	10474.91
871.789	10511.97
872.109	10467
872.428	10435.59
872.748	10458.41
873.067	10364.4
873.386	10380
873.706	10416.38
874.025	10320.79
874.344	10376.38
874.663	10307.45
874.982	10293.67
875.301	10284.18
875.62	10250.06
875.939	10269.04
876.258	10231.52
876.577	10165.54
876.896	10219.77
877.214	10099.32
877.533	10149.27
877.852	10136.61
878.17	10159.89
878.489	10098.65
878.807	10095.71
879.125	10180.68
879.444	10112.21
879.762	10018.42
880.08	10105.43
880.398	10010.97
880.716	10010.06
881.034	9967.8
881.352	9974.36
881.67	9883.06
881.988	10010.97
882.306	9915.15
882.624	9857.3
882.941	9898.2
883.259	9820.01
883.577	9832.44
883.894	9765.1
884.212	9776.17
884.529	9708.6
884.846	9741.14
885.164	9657.98
885.481	9651.2
885.798	9718.32
886.115	9573.91
886.432	9540.02
886.75	9511.54
887.067	9575.5
887.383	9535.95
887.7	9514.48
888.017	9469.74
888.334	9507.02
888.651	9456.4
888.967	9410.08
889.284	9398.1
889.6	9354.26
889.917	9238.33
890.233	9304.32
890.55	9243.08
890.866	9281.27
891.182	9228.61
891.498	9204.21
891.815	9109.29
892.131	9107.71
892.447	9066.36
892.763	9036.75
893.079	9053.25
893.395	9072.69
893.71	9001.05
894.026	8971.67
894.342	9028.39
894.657	8908.85
894.973	8953.82
895.289	8869.3
895.604	8865.46
895.92	8840.37
896.235	8741.39
896.55	8737.33
896.865	8656.88
897.181	8694.62
897.496	8604.45
897.811	8572.36
898.126	8606.48
898.441	8579.59
898.756	8532.81
899.071	8517.9
899.386	8526.71
899.7	8448.75
900.015	8387.73
900.33	8375.75
900.644	8355.87
900.959	8333.95
901.273	8300.73
901.588	8278.58
901.902	8268.41
902.216	8189.09
902.531	8182.77
902.845	8168.75
903.159	8140.28
903.473	8095.76
903.787	8046.72
904.101	8016.22
904.415	7975.76
904.729	7945.48
905.042	7911.59
905.356	7898.03
905.67	7891.02
905.984	7928.76
906.297	7811.25
906.611	7743.45
906.924	7777.35
907.237	7743.91
907.551	7713.4
907.864	7702.78
908.177	7716.34
908.491	7699.16
908.804	7653.97
909.117	7541.43
909.43	7551.82
909.743	7473.86
910.056	7490.81
910.368	7398.83
910.681	7371.49
910.994	7409.23
911.307	7322.9
911.619	7299.62
911.932	7319.28
912.244	7286.52
912.557	7176.46
912.869	7214.65
913.181	7137.37
913.494	7137.59
913.806	7184.83
914.118	7087.65
914.43	7054.43
914.742	7034.77
915.054	6980.99
915.366	6955.45
915.678	6885.62
915.99	6832.29
916.302	6893.31
916.613	6827.09
916.925	6801.11
917.236	6818.51
917.548	6769.69
917.859	6752.07
918.171	6724.72
918.482	6704.39
918.794	6666.87
919.105	6630.04
919.416	6639.08
919.727	6573.54
920.038	6523.6
920.349	6524.96
920.66	6479.31
920.971	6405.18
921.282	6428.69
921.593	6349.59
921.903	6385.75
922.214	6356.82
922.525	6303.94
922.835	6336.49
923.146	6254.91
923.456	6246.32
923.767	6210.84
924.077	6217.84
924.387	6164.29
924.697	6156.38
925.008	6118.86
925.318	6047.91
925.628	6091.75
925.938	6040.67
926.248	5978.3
926.558	6017.17
926.867	5946.21
927.177	5941.24
927.487	5886.55
927.796	5831.19
928.106	5880.9
928.416	5839.32
928.725	5802.71
929.034	5752.55
929.344	5743.51
929.653	5739.44
929.962	5682.72
930.271	5709.38
930.581	5607.92
930.89	5592.55
931.199	5588.71
931.508	5578.77
931.817	5584.42
932.125	5506.9
932.434	5501.25
932.743	5484.08
933.051	5431.65
933.36	5421.71
933.669	5346.23
933.977	5371.54
934.286	5376.51
934.594	5317.98
934.902	5303.07
935.21	5294.03
935.519	5279.79
935.827	5283.41
936.135	5230.53
936.443	5168.16
936.751	5175.61
937.059	5158.44
937.367	5116.18
937.674	5108.27
937.982	5133.35
938.29	5047.25
938.597	5052
938.905	5086.8
939.213	5012
939.52	4981.04
939.827	4957.31
940.135	4948.5
940.442	4913.25
940.749	4910.99
941.056	4893.81
941.363	4812.23
941.67	4830.76
941.977	4782.85
942.284	4787.83
942.591	4825.79
942.898	4783.76
943.205	4767.71
943.511	4745.34
943.818	4679.35
944.125	4653.82
944.431	4696.76
944.738	4615.63
945.044	4593.93
945.35	4585.35
945.657	4583.31
945.963	4506.48
946.269	4482.98
946.575	4539.25
946.881	4511.22
947.187	4526.82
947.493	4487.72
947.799	4404.33
948.105	4424.45
948.41	4389.64
948.716	4364.33
949.022	4345.58
949.327	4370.44
949.633	4276.43
949.938	4366.59
950.244	4311.68
950.549	4341.96
950.854	4269.2
951.16	4298.35
951.465	4224.9
951.77	4224.68
952.075	4165.47
952.38	4129.76
952.685	4179.03
952.99	4128.41
953.294	4121.18
953.599	4074.62
953.904	4043.21
954.209	4049.54
954.513	4054.74
954.818	4012.25
955.122	3996.21
955.426	3971.58
955.731	3997.79
956.035	3945.36
956.339	3948.07
956.643	3918.7
956.948	3877.79
957.252	3859.71
957.556	3876.66
957.86	3844.57
958.163	3850.22
958.467	3811.58
958.771	3759.38
959.075	3793.95
959.378	3732.26
959.682	3734.52
959.985	3740.4
960.289	3721.41
960.592	3695.88
960.896	3661.08
961.199	3662.66
961.502	3614.52
961.805	3598.48
962.108	3574.07
962.411	3548.76
962.714	3602.77
963.017	3584.47
963.32	3560.06
963.623	3550.34
963.926	3497.92
964.228	3510.35
964.531	3487.07
964.833	3476.9
965.136	3430.35
965.438	3460.86
965.741	3432.38
966.043	3433.74
966.345	3374.3
966.648	3400.74
966.95	3381.99
967.252	3367.75
967.554	3359.16
967.856	3340.41
968.158	3291.59
968.46	3294.53
968.761	3263.12
969.063	3327.53
969.365	3256.11
969.666	3202.11
969.968	3219.73
970.269	3206.62
970.571	3202.33
970.872	3195.78
971.174	3182.67
971.475	3174.76
971.776	3169.11
972.077	3103.58
972.378	3125.95
972.679	3093.41
972.98	3093.41
973.281	3054.31
973.582	3055.89
973.883	3009.79
974.183	3015.44
974.484	2994.65
974.785	3031.04
975.085	2993.75
975.386	3005.5
975.686	2965.95
975.986	2969.79
976.287	2954.43
976.587	2937.93
976.887	2909.01
977.187	2949.23
977.487	2901.55
977.787	2881.21
978.087	2870.36
978.387	2853.19
978.687	2850.93
978.987	2868.1
979.286	2829.01
979.586	2797.37
979.885	2775.68
980.185	2768.67
980.484	2768.22
980.784	2771.38
981.083	2725.96
981.382	2726.64
981.682	2751.04
981.981	2685.96
982.28	2749.69
982.579	2682.34
982.878	2689.12
983.177	2678.73
983.475	2614.32
983.774	2650.03
984.073	2663.14
984.372	2611.61
984.67	2620.2
984.969	2614.1
985.267	2609.58
985.566	2588.34
985.864	2557.83
986.162	2535.68
986.461	2519.86
986.759	2528.45
987.057	2523.48
987.355	2525.74
987.653	2510.82
987.951	2494.78
988.249	2459.53
988.547	2457.94
988.844	2437.83
989.142	2447.77
989.44	2422.01
989.737	2394.89
990.035	2417.72
990.332	2403.71
990.63	2417.72
990.927	2389.02
991.224	2372.75
991.521	2332.3
991.819	2344.95
992.116	2302.47
992.413	2308.34
992.71	2321.9
993.006	2293.43
993.303	2277.38
993.6	2290.49
993.897	2257.05
994.193	2257.5
994.49	2245.52
994.787	2205.3
995.083	2204.62
995.379	2189.25
995.676	2197.84
995.972	2199.42
996.268	2179.76
996.565	2201.68
996.861	2157.39
997.157	2132.08
997.453	2178.63
997.749	2115.81
998.044	2119.65
998.34	2090.5
998.636	2074.68
998.932	2094.79
999.227	2080.33
999.523	2043.72
999.818	2048.01
1000.114	1996.04
1000.409	2041.68
1000.704	2027.9
1001	1986.09
1001.295	1984.74
1001.59	1982.25
1001.885	1957.17
1002.18	1949.48
1002.475	1991.52
1002.77	1961.01
1003.065	1927.34
1003.359	1922.59
1003.654	1913.33
1003.949	1890.05
1004.243	1900.44
1004.538	1911.07
1004.832	1885.08
1005.127	1874.68
1005.421	1851.18
1005.715	1888.92
1006.009	1805.76
1006.304	1837.85
1006.598	1846.43
1006.892	1802.14
1007.186	1783.16
1007.48	1802.82
1007.773	1787
1008.067	1750.84
1008.361	1738.64
1008.655	1742.26
1008.948	1744.29
1009.242	1714.01
1009.535	1716.95
1009.829	1702.71
1010.122	1696.38
1010.415	1715.82
1010.708	1670.39
1011.001	1699.32
1011.295	1661.81
1011.588	1653.67
1011.881	1638.08
1012.173	1629.04
1012.466	1630.39
1012.759	1617.74
1013.052	1609.83
1013.344	1597.63
1013.637	1584.97
1013.93	1577.97
1014.222	1549.95
1014.514	1538.65
1014.807	1528.48
1015.099	1533
1015.391	1524.64
1015.683	1526.89
1015.976	1526.67
1016.268	1490.96
1016.56	1523.51
1016.851	1483.05
1017.143	1474.47
1017.435	1467.24
1017.727	1454.13
1018.018	1447.12
1018.31	1442.83
1018.602	1442.38
1018.893	1403.06
1019.185	1418.2
1019.476	1417.52
1019.767	1389.5
1020.058	1387.24
1020.35	1358.31
1020.641	1371.87
1020.932	1347.92
1021.223	1358.76
1021.514	1348.37
1021.804	1330.52
1022.095	1340.69
1022.386	1325.09
1022.677	1293.68
1022.967	1296.84
1023.258	1276.51
1023.548	1271.53
1023.839	1294.58
1024.129	1240.57
1024.419	1262.95
1024.709	1223.85
1025	1217.98
1025.29	1227.24
1025.58	1218.2
1025.87	1244.19
1026.16	1217.07
1026.449	1192.89
1026.739	1183.63
1027.029	1155.15
1027.319	1210.75
1027.608	1166.9
1027.898	1153.35
1028.187	1146.34
1028.477	1152.44
1028.766	1154.48
1029.055	1130.07
1029.344	1140.24
1029.634	1112.44
1029.923	1134.81
1030.212	1104.08
1030.501	1110.63
1030.79	1081.03
1031.078	1092.1
1031.367	1088.71
1031.656	1080.58
1031.945	1055.95
1032.233	1050.3
1032.522	1030.64
1032.81	1035.83
1033.099	1039.45
1033.387	1023.63
1033.675	996.74
1033.963	999.68
1034.251	1017.3
1034.54	991.77
1034.828	1006
1035.116	991.32
1035.403	977.98
1035.691	1000.58
1035.979	969.4
1036.267	964.2
1036.554	960.81
1036.842	965.33
1037.129	942.28
1037.417	952.45
1037.704	933.46
1037.992	927.81
1038.279	912
1038.566	916.97
1038.853	916.97
1039.14	916.97
