Data from plate_ceramic_FLMS001491_023.txt Node
Date: Tue Feb 07 11:16:31 GMT 2017
User: dcchb
Spectrometer: FLMS00149
Trigger mode: 0
Integration Time (sec): 2.000000E-2
Scans to average: 10
Electric dark correction enabled: true
Nonlinearity correction enabled: false
Boxcar width: 0
XAxis mode: Wavelengths
Number of Pixels in Spectrum: 2048
>>>>>Begin Spectral Data<<<<<
341.393	-20.8
341.776	-20.8
342.16	-20.8
342.543	-64.19
342.927	-77.98
343.31	-75.72
343.693	-75.27
344.077	-64.19
344.46	-76.4
344.843	-54.48
345.226	-45.66
345.61	-23.74
345.993	-28.71
346.376	1.12
346.759	15.8
347.142	38.4
347.525	39.98
347.908	79.53
348.291	76.37
348.674	80.66
349.057	112.3
349.44	117.5
349.823	151.39
350.206	162.02
350.588	199.98
350.971	209.02
351.354	246.76
351.737	248.34
352.119	234.56
352.502	274.78
352.884	284.72
353.267	277.27
353.65	299.86
354.032	310.03
354.414	325.18
354.797	315.01
355.179	312.29
355.562	335.34
355.944	348.68
356.326	342.35
356.709	323.82
357.091	351.39
357.473	352.97
357.855	343.25
358.238	366.08
358.62	344.16
359.002	347.1
359.384	347.1
359.766	356.59
360.148	355.91
360.53	366.98
360.912	344.61
361.294	364.72
361.676	342.12
362.057	352.52
362.439	358.17
362.821	347.32
363.203	355.68
363.584	355
363.966	347.1
364.348	329.02
364.729	341.22
365.111	353.42
365.493	353.65
365.874	327.66
366.256	358.62
366.637	333.08
367.019	325.85
367.4	344.84
367.781	319.3
368.163	329.47
368.544	353.42
368.925	346.42
369.306	346.64
369.688	347.55
370.069	337.83
370.45	362.91
370.831	337.15
371.212	357.94
371.593	329.24
371.974	326.53
372.355	353.42
372.736	359.98
373.117	353.42
373.498	352.74
373.879	376.47
374.26	354.1
374.641	347.1
375.021	364.27
375.402	355.91
375.783	354.78
376.163	370.15
376.544	379.41
376.925	375.8
377.305	383.03
377.686	362.69
378.066	384.38
378.447	392.52
378.827	384.38
379.208	386.64
379.588	372.41
379.968	391.39
380.349	397.72
380.729	383.93
381.109	373.99
381.489	395
381.87	412.63
382.25	393.2
382.63	402.24
383.01	413.53
383.39	413.31
383.77	411.5
384.15	406.08
384.53	410.6
384.91	420.54
385.29	428.45
385.67	445.17
386.049	417.38
386.429	417.83
386.809	417.38
387.189	428.68
387.568	439.52
387.948	463.25
388.328	443.36
388.707	456.47
389.087	438.84
389.466	464.61
389.846	456.7
390.225	479.97
390.605	475
390.984	447.66
391.363	486.53
391.743	475.45
392.122	484.94
392.501	487.2
392.881	479.75
393.26	497.37
393.639	503.93
394.018	481.78
394.397	493.76
394.776	483.59
395.155	514.77
395.534	520.42
395.913	520.88
396.292	510.71
396.671	528.79
397.05	555.45
397.429	549.35
397.808	561.55
398.186	557.71
398.565	533.98
398.944	546.19
399.323	546.19
399.701	572.17
400.08	571.04
400.458	595.22
400.837	573.08
401.215	583.02
401.594	597.03
401.972	608.56
402.351	626.41
402.729	601.78
403.107	597.71
403.486	620.31
403.864	627.54
404.242	636.81
404.62	632.96
404.999	651.27
405.377	639.97
405.755	629.57
406.133	662.57
406.511	663.7
406.889	675.45
407.267	695.33
407.645	670.7
408.023	691.04
408.401	708.44
408.779	730.36
409.156	712.96
409.534	729.01
409.912	748.21
410.29	738.95
410.667	740.08
411.045	763.36
411.422	762.23
411.8	784.15
412.178	778.04
412.555	806.74
412.933	824.14
413.31	821.21
413.687	840.87
414.065	833.41
414.442	840.87
414.819	834.77
415.197	860.08
415.574	877.7
415.951	894.88
416.328	886.74
416.705	878.83
417.082	913.63
417.46	885.84
417.837	887.65
418.214	944.14
418.591	926.06
418.967	922
419.344	945.95
419.721	952.28
420.098	951.37
420.475	986.63
420.852	989.34
421.228	973.97
421.605	1011.03
421.982	1017.81
422.358	1007.87
422.735	1018.26
423.111	1025.95
423.488	1069.11
423.864	1072.95
424.241	1097.13
424.617	1084.48
424.994	1087.41
425.37	1122.67
425.746	1131.03
426.123	1138.49
426.499	1124.93
426.875	1134.19
427.251	1140.07
427.627	1186.17
428.003	1199.73
428.379	1211.48
428.756	1239.05
429.132	1255.77
429.507	1235.43
429.883	1270.23
430.259	1308.2
430.635	1310.01
431.011	1308.2
431.387	1330.35
431.763	1352.27
432.138	1371.02
432.514	1369.44
432.89	1399.5
433.265	1429.33
433.641	1450.8
434.016	1442.89
434.392	1466.84
434.767	1465.48
435.143	1498.93
435.518	1489.66
435.894	1544.8
436.269	1545.48
436.644	1542.32
437.02	1586.61
437.395	1563.11
437.77	1615.54
438.145	1618.25
438.52	1647.17
438.895	1690.56
439.271	1667.06
439.646	1682.88
440.021	1707.96
440.395	1696.44
440.77	1702.99
441.145	1749.54
441.52	1776.89
441.895	1755.19
442.27	1780.05
442.645	1762.88
443.019	1808.3
443.394	1817.57
443.769	1830.45
444.143	1822.31
444.518	1845.59
444.892	1840.39
445.267	1863.44
445.641	1893.5
446.016	1884.91
446.39	1881.74
446.764	1941.86
447.139	1926.94
447.513	1956.32
447.887	1962.65
448.262	1974.17
448.636	1961.74
449.01	2009.42
449.384	2013.27
449.758	2031.34
450.132	2073.6
450.506	2078.58
450.88	2096.43
451.254	2068.18
451.628	2123.09
452.002	2112.02
452.376	2162.87
452.75	2155.18
453.123	2158.8
453.497	2218.46
453.871	2265.46
454.244	2277.89
454.618	2286.93
454.992	2331
455.365	2346.36
455.739	2410.09
456.112	2416.42
456.486	2423.88
456.859	2460.26
457.232	2508.39
457.606	2463.2
457.979	2569.18
458.352	2599.47
458.725	2642.18
459.099	2637.43
459.472	2687.6
459.845	2725.79
460.218	2756.07
460.591	2754.26
460.964	2764.88
461.337	2839.23
461.71	2891.89
462.083	2956.97
462.456	2912.45
462.829	2969.4
463.201	3032
463.574	3005.56
463.947	3068.83
464.32	3130.98
464.692	3190.41
465.065	3195.61
465.438	3263.63
465.81	3291.42
466.183	3335.27
466.555	3379.33
466.928	3421.14
467.3	3407.13
467.672	3464.08
468.045	3608.25
468.417	3588.59
468.789	3585.43
469.161	3652.77
469.534	3691.41
469.906	3789.72
470.278	3838.75
470.65	3862.26
471.022	3913.56
471.394	3987.9
471.766	4017.28
472.138	4084.62
472.51	4172.76
472.882	4212.08
473.253	4308.12
473.625	4337.5
473.997	4386.76
474.369	4444.39
474.74	4503.14
475.112	4542.92
475.484	4688.9
475.855	4738.39
476.227	4790.14
476.598	4890.25
476.97	4936.35
477.341	5049.8
477.713	5127.08
478.084	5175.67
478.455	5327.76
478.827	5420.18
479.198	5488.88
479.569	5509.22
479.94	5691.36
480.311	5760.29
480.682	5864.01
481.053	5939.49
481.424	6052.26
481.795	6134.06
482.166	6210.44
482.537	6336.99
482.908	6438.23
483.279	6519.14
483.65	6593.48
484.021	6812.91
484.391	6799.58
484.762	6920.93
485.133	6930.2
485.503	7058.78
485.874	7224.88
486.244	7268.5
486.615	7420.13
486.985	7541.93
487.356	7667.81
487.726	7692.44
488.097	7926.33
488.467	7967.23
488.837	8086.78
489.207	8228.7
489.578	8343.95
489.948	8472.08
490.318	8519.54
490.688	8529.25
491.058	8626.43
491.428	8808.57
491.798	8900.54
492.168	9064.83
492.538	9106.64
492.908	9198.39
493.278	9309.12
493.648	9388.67
494.017	9552.73
494.387	9543.69
494.757	9635.89
495.126	9782.33
495.496	9839.28
495.866	9890.8
496.235	9990.68
496.605	10080.62
496.974	10194.52
497.344	10256.21
497.713	10339.15
498.082	10398.81
498.452	10535.75
498.821	10556.32
499.19	10638.35
499.559	10853.49
499.928	10876.99
500.298	10901.17
500.667	11008.06
501.036	10975.29
501.405	11084.89
501.774	11125.8
502.143	11241.05
502.512	11337.31
502.88	11425
503.249	11499.57
503.618	11536.63
503.987	11669.06
504.356	11721.94
504.724	11735.95
505.093	11812.33
505.462	11905.21
505.83	12010.74
506.199	12129.16
506.567	12348.14
506.936	12306.55
507.304	12442.82
507.672	12488.92
508.041	12532.54
508.409	12651.86
508.777	12732.98
509.145	12909.02
509.514	12970.49
509.882	13018.85
510.25	13075.57
510.618	13191.5
510.986	13251.84
511.354	13430.37
511.722	13433.98
512.09	13562.34
512.458	13646.86
512.826	13728.21
513.193	13826.29
513.561	13869.45
513.929	14044.59
514.297	14181.08
514.664	14160.29
515.032	14311.93
515.4	14419.27
515.767	14579.49
516.135	14561.64
516.502	14619.71
516.869	14858.58
517.237	14927.28
517.604	14870.33
517.972	15110.55
518.339	15253.82
518.706	15297.44
519.073	15430.09
519.44	15491.78
519.808	15701.72
520.175	15656.75
520.542	15947.82
520.909	15997.53
521.276	16042.73
521.643	16182.16
522.009	16390.29
522.376	16452.21
522.743	16616.05
523.11	16719.09
523.477	16984.17
523.843	16995.7
524.21	17161.12
524.577	17339.64
524.943	17432.3
525.31	17428.91
525.676	17677.26
526.043	17816.01
526.409	17869.35
526.776	17985.28
527.142	18171.03
527.508	18234.53
527.874	18440.63
528.241	18501.19
528.607	18633.39
528.973	18799.04
529.339	18801.98
529.705	19053.95
530.071	19149.09
530.437	19286.03
530.803	19394.05
531.169	19512.24
531.535	19492.58
531.901	19519.7
532.267	19682.41
532.632	19830.88
532.998	19904.77
533.364	20043.75
533.73	20104.09
534.095	20333.69
534.461	20420.24
534.826	20480.35
535.192	20617.75
535.557	20763.96
535.923	20827.46
536.288	20870.4
536.653	20961.24
537.019	20935.71
537.384	20991.52
537.749	21158.3
538.114	21137.06
538.479	21295.92
538.845	21448.46
539.21	21443.94
539.575	21625.86
539.94	21502.47
540.305	21798.73
540.67	21790.15
541.034	21878.96
541.399	22021.1
541.764	22001.22
542.129	22194.43
542.494	22240.08
542.858	22303.13
543.223	22338.38
543.587	22421.09
543.952	22490.02
544.316	22613.4
544.681	22526.85
545.045	22745.6
545.41	22793.74
545.774	22965.03
546.138	22968.42
546.503	23066.05
546.867	23084.35
547.231	23266.49
547.595	23275.98
547.959	23378.81
548.324	23335.19
548.688	23534.73
549.052	23635.3
549.416	23674.62
549.779	23796.65
550.143	23958
550.507	23975.85
550.871	24150.09
551.235	24152.12
551.599	24364.09
551.962	24437.76
552.326	24507.82
552.689	24568.61
553.053	24495.16
553.417	24562.73
553.78	24815.15
554.143	24851.08
554.507	25051.98
554.87	25084.3
555.234	25359.77
555.597	25195.26
555.96	25335.82
556.323	25501.46
556.686	25545.53
557.05	25669.82
557.413	25844.05
557.776	25964.95
558.139	26168.11
558.502	26149.81
558.865	26346.64
559.228	26433.64
559.59	26572.62
559.953	26482.91
560.316	26903.91
560.679	26939.39
561.041	27025.49
561.404	27239.5
561.767	27413.95
562.129	27371.02
562.492	27599.26
562.854	27686.04
563.217	27702.76
563.579	27717.45
563.941	28100.49
564.304	28171.45
564.666	28426.13
565.028	28293.71
565.39	28458.67
565.753	28609.63
566.115	28804.2
566.477	28815.5
566.839	28958.32
567.201	29145.43
567.563	29268.37
567.925	29475.37
568.287	29449.61
568.648	29542.26
569.01	29609.6
569.372	29858.64
569.734	29873.32
570.095	29977.05
570.457	30130.95
570.819	30229.02
571.18	30218.17
571.542	30502.69
571.903	30380.88
572.265	30577.03
572.626	30759.18
572.987	30725.51
573.349	30845.28
573.71	31085.5
574.071	31068.55
574.432	31223.12
574.794	31211.82
575.155	31414.08
575.516	31410.01
575.877	31498.59
576.238	31545.6
576.599	31655.88
576.96	31705.14
577.32	31667.18
577.681	31787.17
578.042	31930.22
578.403	31909.2
578.763	32058.58
579.124	32061.52
579.485	32155.52
579.845	32318.46
580.206	32174.73
580.566	32114.4
580.927	32287.05
581.287	32348.06
581.648	32315.29
582.008	32382.19
582.368	32341.96
582.728	32499.47
583.089	32365.69
583.449	32426.7
583.809	32513.93
584.169	32482.97
584.529	32527.72
584.889	32821.5
585.249	32586.47
585.609	32475.97
585.969	32713.02
586.329	32731.33
586.688	32669.41
587.048	32790.08
587.408	32568.4
587.768	32730.65
588.127	32649.07
588.487	32573.37
588.846	32881.83
589.206	32537.44
589.565	32706.02
589.925	32841.16
590.284	32721.39
590.643	32779.69
591.003	32896.3
591.362	32875.51
591.721	32792.12
592.08	32946.46
592.44	33235.27
592.799	33042.73
593.158	33009.97
593.517	33020.13
593.876	33010.87
594.235	32979.01
594.593	32993.24
594.952	33086.12
595.311	32956.86
595.67	33178.77
596.029	33315.04
596.387	33286.57
596.746	33372.22
597.104	33146.91
597.463	33155.27
597.822	33333.57
598.18	33174.48
598.538	33177.64
598.897	33341.71
599.255	33155.5
599.613	33609.95
599.972	33449.28
600.33	33375.61
600.688	33272.33
601.046	33527.69
601.404	33738.08
601.762	33633
602.12	33887
602.478	33675.03
602.836	33849.04
603.194	33598.88
603.552	33833.22
603.91	33516.39
604.268	33842.26
604.625	33665.77
604.983	33852.88
605.341	33596.84
605.698	33851.75
606.056	33861.47
606.413	33943.95
606.771	33987.11
607.128	34035.93
607.485	34048.81
607.843	33961.8
608.2	34204.96
608.557	34189.6
608.914	34239.99
609.272	34413.77
609.629	34392.08
609.986	34547.1
610.343	34325.86
610.7	34619.87
611.057	34423.49
611.414	34520.43
611.771	34528.57
612.127	34567.66
612.484	34674.33
612.841	34725.85
613.198	34565.63
613.554	34630.94
613.911	34810.6
614.267	34852.18
614.624	34838.84
614.98	34870.26
615.337	34972.85
615.693	34927.66
616.05	34947.99
616.406	35130.36
616.762	35113.19
617.118	35026.18
617.475	34980.99
617.831	35250.58
618.187	35231.15
618.543	35194.77
618.899	35511.37
619.255	35305.72
619.611	35290.13
619.967	35426.62
620.323	35525.83
620.678	35357.25
621.034	35083.36
621.39	35265.27
621.746	35321.09
622.101	35765.6
622.457	35239.96
622.812	35395.89
623.168	35524.25
623.523	35454.42
623.879	35568.09
624.234	35271.83
624.589	35556.57
624.945	35512.05
625.3	35434.99
625.655	35499.39
626.01	35416.91
626.365	35381.43
626.72	35406.29
627.075	35357.93
627.43	35397.25
627.785	35388.43
628.14	35415.78
628.495	35351.82
628.85	35345.05
629.205	35206.29
629.559	35526.51
629.914	35378.49
630.269	35376.91
630.623	35280.87
630.978	35218.72
631.332	35279.51
631.687	35340.75
632.041	35029.12
632.396	35024.83
632.75	35013.08
633.104	34968.33
633.459	34930.14
633.813	34870.03
634.167	34991.16
634.521	34776.7
634.875	34851.05
635.229	34790.26
635.583	34580.32
635.937	34698.06
636.291	34730.82
636.645	34731.5
636.999	34512.98
637.352	34773.31
637.706	34624.84
638.06	34615.57
638.413	34485.86
638.767	34373.77
639.121	34406.31
639.474	34183.95
639.828	34337.61
640.181	34223.27
640.534	34382.58
640.888	34196.6
641.241	34041.58
641.594	34140.11
641.947	34218.75
642.301	34023.95
642.654	34037.73
643.007	34065.08
643.36	33856.27
643.713	33969.71
644.066	34013.55
644.419	33680
644.771	33411.54
645.124	33116.18
645.477	33153.69
645.83	32753.25
646.182	32803.42
646.535	32726.36
646.888	32838.67
647.24	32661.95
647.593	32859.01
647.945	32736.07
648.298	32557.32
648.65	32479.81
649.002	32310.77
649.355	32633.25
649.707	32501.05
650.059	32592.35
650.411	32844.77
650.763	32985.56
651.115	33233.24
651.467	33140.81
651.819	33136.97
652.171	33028.95
652.523	32951.66
652.875	33116.86
653.227	32925.22
653.578	33106.46
653.93	33001.38
654.282	32861.04
654.633	32700.37
654.985	32818.78
655.337	32808.61
655.688	32751.89
656.039	32929.29
656.391	32664.21
656.742	32630.31
657.094	32765
657.445	32869.86
657.796	32703.98
658.147	32633.93
658.498	32622.18
658.849	32597.77
659.2	32617.66
659.551	32608.17
659.902	32614.04
660.253	32694.72
660.604	32654.04
660.955	32448.4
661.306	32471
661.656	32368.85
662.007	32383.54
662.358	32367.95
662.708	32387.61
663.059	32376.76
663.409	32176.09
663.76	32413.6
664.11	32236.88
664.461	32394.84
664.811	32409.98
665.161	32294.96
665.511	32200.95
665.862	32222.64
666.212	32272.36
666.562	32393.94
666.912	32222.19
667.262	32098.35
667.612	32113.72
667.962	32148.29
668.312	32091.8
668.662	32275.75
669.011	32170.21
669.361	32120.05
669.711	32021.29
670.06	32043.66
670.41	31965.7
670.76	32022.42
671.109	32083.66
671.459	32026.26
671.808	31990.56
672.157	31957.34
672.507	31665.82
672.856	31727.97
673.205	31858.81
673.554	31892.48
673.904	31828.08
674.253	31972.7
674.602	31800.51
674.951	31383.79
675.3	31268.99
675.649	31756.44
675.998	31553.96
676.346	31667.85
676.695	31791.24
677.044	31557.57
677.393	31639.61
677.741	31667.18
678.09	31598.25
678.438	31494.75
678.787	31460.4
679.135	31579.95
679.484	31301.76
679.832	31541.3
680.181	31225.38
680.529	31351.25
680.877	31189
681.225	31134.99
681.573	31323.91
681.922	31230.58
682.27	30962.34
682.618	31022.67
682.966	30969.79
683.314	31034.2
683.661	30918.04
684.009	30715.11
684.357	30714.43
684.705	30751.95
685.053	30674.89
685.4	30681.67
685.748	30470.82
686.095	30498.62
686.443	30386.08
686.79	30311.96
687.138	30417.49
687.485	30427.89
687.832	30118.97
688.18	30288
688.527	30084.17
688.874	30029.7
689.221	29896.6
689.568	30018.41
689.915	29838.52
690.262	29778.64
690.609	29764.4
690.956	29607.57
691.303	29665.19
691.65	29575.25
691.997	29511.53
692.344	29323.51
692.69	29286.67
693.037	29488.93
693.383	29190.4
693.73	29305.2
694.077	29096.4
694.423	29223.62
694.769	29145.43
695.116	28940.69
695.462	28919.68
695.808	28727.37
696.155	28784.77
696.501	28531.67
696.847	28366.02
697.193	28356.3
697.539	28418
697.885	28066.37
698.231	27977.33
698.577	28048.29
698.923	28080.38
699.269	27947.27
699.614	27811.23
699.96	27838.12
700.306	27784.57
700.651	27663.67
700.997	27550.45
701.342	27523.56
701.688	27512.93
702.033	27415.31
702.379	27319.04
702.724	27239.5
703.069	27293.73
703.415	27007.41
703.76	27013.74
704.105	27052.38
704.45	26953.85
704.795	26776
705.14	26761.32
705.485	26764.25
705.83	26538.5
706.175	26661.21
706.52	26594.31
706.865	26488.33
707.209	26492.4
707.554	26277.04
707.899	26427.54
708.243	26242.91
708.588	26228.9
708.932	26007.89
709.277	26041.34
709.621	26046.08
709.966	25818.52
710.31	25774
710.654	25673.66
710.998	25724.06
711.342	25729.03
711.687	25663.72
712.031	25573.1
712.375	25435.02
712.719	25538.52
713.063	25463.27
713.407	25578.97
713.75	25242.26
714.094	25327.91
714.438	25252.88
714.782	25253.56
715.125	25088.37
715.469	25150.96
715.812	24986.22
716.156	24940.8
716.499	24926.34
716.843	24943.74
717.186	24746.91
717.53	24914.81
717.873	24888.82
718.216	24741.71
718.559	24655.38
718.902	24492.9
719.246	24512.11
719.589	24386.92
719.932	24294.94
720.275	24323.64
720.617	24257.65
720.96	24280.03
721.303	24243.87
721.646	24211.78
721.989	24173.36
722.331	24168.16
722.674	24051.1
723.016	24056.3
723.359	23978.11
723.701	23987.6
724.044	23851.34
724.386	23778.57
724.729	23842.3
725.071	23675.3
725.413	23746.25
725.755	23717.33
726.097	23653.38
726.439	23525.47
726.782	23549.42
727.124	23633.04
727.465	23419.26
727.807	23483.44
728.149	23491.57
728.491	23456.77
728.833	23364.8
729.175	23278.47
729.516	23268.75
729.858	23250
730.199	23152.82
730.541	23153.95
730.882	23149.66
731.224	23127.51
731.565	22997.8
731.906	22921.87
732.248	22975.2
732.589	22858.14
732.93	22840.97
733.271	22832.83
733.612	22828.76
733.953	22889.33
734.294	22758.26
734.635	22699.28
734.976	22728.65
735.317	22606.17
735.658	22647.3
735.999	22613.85
736.339	22414.31
736.68	22527.3
737.021	22443.01
737.361	22289.8
737.702	22443.01
738.042	22326.86
738.383	22264.94
738.723	22415.89
739.063	22222.23
739.404	22340.42
739.744	22126.18
740.084	22115.34
740.424	22209.35
740.764	22076.92
741.104	22062.46
741.444	22047.54
741.784	21967.54
742.124	22091.16
742.464	21923.48
742.804	21856.13
743.143	21895.23
743.483	21874.89
743.823	21671.73
744.162	21625.63
744.502	21771.84
744.841	21670.83
745.181	21730.04
745.52	21603.26
745.86	21641.68
746.199	21491.62
746.538	21612.98
746.877	21597.84
747.216	21510.15
747.556	21461.12
747.895	21479.42
748.234	21224.06
748.573	21213.67
748.911	21206.43
749.25	21197.39
749.589	21154.23
749.928	21148.36
750.267	21162.37
750.605	21090.96
750.944	21020.9
751.283	20925.31
751.621	20989.26
751.96	20863.84
752.298	20906.78
752.636	20681.25
752.975	20610.74
753.313	20674.7
753.651	20807.12
753.989	20549.5
754.327	20475.61
754.666	20439.9
755.004	20488.71
755.342	20469.28
755.679	20357.64
756.017	20339.34
756.355	20398.77
756.693	20227.93
757.031	20320.36
757.368	20046.46
757.706	20120.59
758.044	20022.28
758.381	19949.97
758.719	19937.99
759.056	20013.24
759.394	19840.82
759.731	19785.91
760.068	19752.23
760.405	19661.16
760.743	19597.66
761.08	19730.09
761.417	19426.37
761.754	19406.48
762.091	19393.83
762.428	19409.65
762.765	19272.47
763.102	19236.77
763.438	19055.76
763.775	19032.48
764.112	19121.52
764.449	19083.1
764.785	18947.28
765.122	18850.11
765.458	18817.12
765.795	18633.62
766.131	18655.54
766.467	18726.05
766.804	18479.05
767.14	18449.67
767.476	18426.62
767.812	18390.46
768.148	18368.77
768.485	18317.02
768.821	18129.68
769.157	18039.96
769.492	18082.45
769.828	18129
770.164	18007.2
770.5	17892.85
770.836	17852.85
771.171	17740.76
771.507	17752.06
771.842	17619.41
772.178	17597.72
772.513	17575.12
772.849	17422.35
773.184	17414.44
773.519	17417.83
773.855	17293.99
774.19	17164.96
774.525	17190.04
774.86	17052.19
775.195	17118.86
775.53	16957.51
775.865	16883.16
776.2	16797.06
776.535	16687
776.87	16656.05
777.205	16597.52
777.539	16485.88
777.874	16564.97
778.209	16374.47
778.543	16392.78
778.878	16318.2
779.212	16257.19
779.547	16180.35
779.881	16181.26
780.215	16120.01
780.55	16100.81
780.884	15988.49
781.218	15954.14
781.552	15898.55
781.886	15876.86
782.22	15798.21
782.554	15715.96
782.888	15572.91
783.222	15507.6
783.556	15473.25
783.889	15429.18
784.223	15317.55
784.557	15205.91
784.89	15339.92
785.224	15236.65
785.557	15052.25
785.891	15067.84
786.224	15047.5
786.558	14922.53
786.891	14905.13
787.224	14798.47
787.557	14820.39
787.891	14769.54
788.224	14748.98
788.557	14661.97
788.89	14686.15
789.223	14518.7
789.556	14529.55
789.888	14450.91
790.221	14427.18
790.554	14272.38
790.887	14339.27
791.219	14255.2
791.552	14176.79
791.884	14141.99
792.217	14124.81
792.549	14068.54
792.882	13919.39
793.214	13904.93
793.546	13905.16
793.879	13810.47
794.211	13737.7
794.543	13845.72
794.875	13797.36
795.207	13779.28
795.539	13662.9
795.871	13601.89
796.203	13503.36
796.535	13463.13
796.867	13456.58
797.198	13331.16
797.53	13407.09
797.862	13254.55
798.193	13329.58
798.525	13154.44
798.856	13220.88
799.188	13132.3
799.519	13038.74
799.85	13036.93
800.182	12966.88
800.513	13043.71
800.844	12828.58
801.175	13023.15
801.506	12876.26
801.837	12884.17
802.168	12778.63
802.499	12735.24
802.83	12669.03
803.161	12653.66
803.491	12688.92
803.822	12658.41
804.153	12495.48
804.483	12474.91
804.814	12428.36
805.145	12440.11
805.475	12392.88
805.805	12353.33
806.136	12313.33
806.466	12297.97
806.796	12249.38
807.126	12196.05
807.457	12109.72
807.787	12125.54
808.117	11994.92
808.447	11964.87
808.777	11995.6
809.107	11964.19
809.436	11975.04
809.766	11954.7
810.096	11956.96
810.426	11823.4
810.755	11870.41
811.085	11846.45
811.414	11727.36
811.744	11696.85
812.073	11674.48
812.403	11675.16
812.732	11537.31
813.061	11611.66
813.39	11557.65
813.719	11486.92
814.049	11490.98
814.378	11431.55
814.707	11396.3
815.036	11471.55
815.365	11402.85
815.693	11315.39
816.022	11310.87
816.351	11255.06
816.68	11212.8
817.008	11239.92
817.337	11186.36
817.665	11093.93
817.994	11121.95
818.322	11049.64
818.651	11097.1
818.979	11065.68
819.307	11042.41
819.636	11018.45
819.964	10978.45
820.292	10973.93
820.62	10929.64
820.948	10937.55
821.276	10935.97
821.604	10940.94
821.932	10828.18
822.259	10888.51
822.587	10872.02
822.915	10881.73
823.243	10816.42
823.57	10797.67
823.898	10940.94
824.225	10849.19
824.553	10858.68
824.88	10737.1
825.207	10836.99
825.535	10767.16
825.862	10898.91
826.189	10803.32
826.516	10854.16
826.843	10831.11
827.17	10845.12
827.497	10843.99
827.824	10815.07
828.151	10796.09
828.478	10813.94
828.805	10797.67
829.131	10783.66
829.458	10803.09
829.785	10727.39
830.111	10748.18
830.438	10800.15
830.764	10824.56
831.09	10749.31
831.417	10677.67
831.743	10694.17
832.069	10709.53
832.395	10645.36
832.722	10765.8
833.048	10679.25
833.374	10689.42
833.7	10641.51
834.026	10717.67
834.351	10619.37
834.677	10705.69
835.003	10669.99
835.329	10617.11
835.654	10591.8
835.98	10553.38
836.306	10615.75
836.631	10504.34
836.956	10619.37
837.282	10565.58
837.607	10515.87
837.932	10498.47
838.258	10436.77
838.583	10495.3
838.908	10451.69
839.233	10391.35
839.558	10406.94
839.883	10375.31
840.208	10385.48
840.533	10343.67
840.858	10302.31
841.182	10361.52
841.507	10330.34
841.832	10244.91
842.156	10270.9
842.481	10195.2
842.805	10144.58
843.13	10133.28
843.454	10098.93
843.778	10092.38
844.103	10079.95
844.427	10040.63
844.751	10088.31
845.075	9999.27
845.399	9964.7
845.723	9957.69
846.047	9970.35
846.371	9864.13
846.695	9843.34
847.019	9773.06
847.343	9762.22
847.666	9730.13
847.99	9671.14
848.313	9671.82
848.637	9607.87
848.96	9579.17
849.284	9580.75
849.607	9513.63
849.931	9474.31
850.254	9402.22
850.577	9337.37
850.9	9310.48
851.223	9338.72
851.546	9195
851.869	9204.94
852.192	9175.79
852.515	9154.32
852.838	9150.25
853.161	9105.06
853.483	9037.04
853.806	8931.5
854.129	8964.27
854.451	8948.45
854.774	8912.29
855.096	8875.68
855.419	8851.5
855.741	8869.36
856.063	8788.46
856.385	8749.59
856.708	8705.29
857.03	8665.75
857.352	8660.78
857.674	8696.03
857.996	8618.06
858.318	8610.83
858.64	8567.22
858.961	8526.32
859.283	8439.09
859.605	8492.19
859.926	8534.68
860.248	8481.57
860.57	8513.21
860.891	8412.19
861.212	8384.4
861.534	8371.97
861.855	8336.94
862.176	8305.08
862.498	8369.03
862.819	8378.3
863.14	8299.2
863.461	8220.79
863.782	8258.98
864.103	8251.97
864.424	8257.4
864.745	8227.11
865.065	8153.9
865.386	8138.08
865.707	8141.92
866.027	8213.78
866.348	8163.16
866.668	8157.29
866.989	8080.23
867.309	8053.79
867.63	8076.61
867.95	7995.93
868.27	8010.4
868.59	8018.31
868.91	7980.34
869.23	7966.78
869.55	7951.87
869.87	7981.7
870.19	7984.63
870.51	7944.41
870.83	7965.2
871.15	7886.78
871.469	7932.21
871.789	7889.5
872.109	7899.67
872.428	7836.39
872.748	7841.59
873.067	7823.06
873.386	7759.33
873.706	7800.68
874.025	7767.01
874.344	7857.18
874.663	7767.92
874.982	7714.59
875.301	7749.61
875.62	7747.35
875.939	7621.93
876.258	7660.35
876.577	7667.81
876.896	7679.11
877.214	7618.32
877.533	7663.51
877.852	7628.71
878.17	7619.22
878.489	7651.54
878.807	7568.6
879.125	7540.58
879.444	7501.03
879.762	7578.32
880.08	7526.57
880.398	7473.69
880.716	7505.33
881.034	7500.13
881.352	7450.64
881.67	7436.63
881.988	7437.76
882.306	7448.15
882.624	7390.53
882.941	7347.82
883.259	7337.19
883.577	7387.59
883.894	7330.41
884.212	7249.29
884.529	7229.17
884.846	7248.16
885.164	7244.32
885.481	7211.1
885.798	7218.1
886.115	7164.77
886.432	7221.26
886.75	7127.48
887.067	7177.88
887.383	7132.45
887.7	7166.8
888.017	7053.36
888.334	7086.13
888.651	7038.67
888.967	7012
889.284	6960.71
889.6	6997.09
889.917	6959.12
890.233	6969.75
890.55	6943.98
890.866	6939.01
891.182	6946.24
891.498	6878.45
891.815	6809.07
892.131	6850.65
892.447	6778.34
892.763	6807.04
893.079	6777.89
893.395	6732.92
893.71	6822.41
894.026	6741.73
894.342	6680.04
894.657	6656.76
894.973	6732.92
895.289	6637.55
895.604	6598.23
895.92	6549.87
896.235	6523.2
896.55	6564.11
896.865	6565.01
897.181	6480.04
897.496	6510.55
897.811	6461.28
898.126	6478.69
898.441	6451.57
898.756	6421.06
899.071	6321.63
899.386	6384.9
899.7	6323.89
900.015	6306.94
900.33	6211.35
900.644	6212.03
900.959	6278.46
901.273	6279.82
901.588	6242.53
901.902	6226.71
902.216	6196.66
902.531	6186.04
902.845	6157.79
903.159	6086.38
903.473	6102.42
903.787	6043.67
904.101	5982.2
904.415	5989.88
904.729	5973.16
905.042	5920.96
905.356	5942.88
905.67	5913.73
905.984	5945.59
906.297	5908.53
906.611	5874.86
906.924	5892.26
907.237	5845.48
907.551	5802.77
907.864	5768.2
908.177	5762.55
908.491	5727.74
908.804	5644.13
909.117	5689.55
909.43	5653.4
909.743	5622.44
910.056	5568.88
910.368	5620.86
910.681	5579.5
910.994	5531.59
911.307	5527.3
911.619	5459.05
911.932	5530.24
912.244	5396.68
912.557	5457.47
912.869	5407.3
913.181	5348.77
913.494	5418.37
913.806	5284.14
914.118	5283.91
914.43	5283.01
914.742	5268.55
915.054	5253.18
915.366	5219.51
915.678	5174.99
915.99	5164.6
916.302	5142
916.613	5153.07
916.925	5142.22
917.236	5111.94
917.548	5042.79
917.859	5057.93
918.171	4993.98
918.482	5035.33
918.794	5005.73
919.105	4977.71
919.416	4928.67
919.727	4904.94
920.038	4924.38
920.349	4904.26
920.66	4825.17
920.971	4861.33
921.282	4855.45
921.593	4810.25
921.903	4814.55
922.214	4802.12
922.525	4761.67
922.835	4734.1
923.146	4675.12
923.456	4649.36
923.767	4604.16
924.077	4623.59
924.387	4658.17
924.697	4582.46
925.008	4587.66
925.318	4581.56
925.628	4577.49
925.938	4529.81
926.248	4543.82
926.558	4501.79
926.867	4496.82
927.177	4418.63
927.487	4419.76
927.796	4453.65
928.106	4405.52
928.416	4377.95
928.725	4359.19
929.034	4316.03
929.344	4345.63
929.653	4284.39
929.962	4275.35
930.271	4279.65
930.581	4247.11
930.89	4252.76
931.199	4240.33
931.508	4220.21
931.817	4202.36
932.125	4134.11
932.434	4165.07
932.743	4143.38
933.051	4127.33
933.36	4090.73
933.669	4040.78
933.977	4029.94
934.286	4042.82
934.594	4056.38
934.902	3974.8
935.21	3950.16
935.519	3980.67
935.827	3960.79
936.135	3922.14
936.443	3923.05
936.751	3864.97
937.059	3872.65
937.367	3888.7
937.674	3834.24
937.982	3855.03
938.29	3799.21
938.597	3789.26
938.905	3799.43
939.213	3759.66
939.52	3761.24
939.827	3727.12
940.135	3715.59
940.442	3743.84
940.749	3694.35
941.056	3716.27
941.363	3660.91
941.67	3649.38
941.977	3629.95
942.284	3601.25
942.591	3602.38
942.898	3576.16
943.205	3557.41
943.511	3545.88
943.818	3571.42
944.125	3513.79
944.431	3512.89
944.738	3494.36
945.044	3464.98
945.35	3438.54
945.657	3423.85
945.963	3424.08
946.269	3419.33
946.575	3459.1
946.881	3376.17
947.187	3373.91
947.493	3345.89
947.799	3338.66
948.105	3311.99
948.41	3316.06
948.716	3342.95
949.022	3268.83
949.327	3297.75
949.633	3245.32
949.938	3253.46
950.244	3251.65
950.549	3178.21
950.854	3199.9
951.16	3172.56
951.465	3182.73
951.77	3154.48
952.075	3104.09
952.38	3141.37
952.685	3132.11
952.99	3108.15
953.294	3109.73
953.599	3097.08
953.904	3052.11
954.209	3022.73
954.513	3064.54
954.818	3023.86
955.122	3038.32
955.426	3027.25
955.731	3004.65
956.035	3003.3
956.339	2992.68
956.643	2964.2
956.948	2945.67
957.252	2896.63
957.556	2953.58
957.86	2890.53
958.163	2908.61
958.467	2856.86
958.771	2863.64
959.075	2863.19
959.378	2857.31
959.682	2837.2
959.985	2862.51
960.289	2808.05
960.592	2789.74
960.896	2761.5
961.199	2792.91
961.502	2747.48
961.805	2757.43
962.108	2722.63
962.411	2738.44
962.714	2712.23
963.017	2671.55
963.32	2685.56
963.623	2716.75
963.926	2682.85
964.228	2661.61
964.531	2633.81
964.833	2661.61
965.136	2613.93
965.438	2624.1
965.741	2629.52
966.043	2590.88
966.345	2544.55
966.648	2604.66
966.95	2559.24
967.252	2514.95
967.554	2552.69
967.856	2527.38
968.158	2533.25
968.46	2500.49
968.761	2465.01
969.063	2506.36
969.365	2478.34
969.666	2498.68
969.968	2460.26
970.269	2456.19
970.571	2419.58
970.872	2447.61
971.174	2402.63
971.475	2368.51
971.776	2400.83
972.077	2414.84
972.378	2395.63
972.679	2377.55
972.98	2372.13
973.281	2361.28
973.582	2325.57
973.883	2314.95
974.183	2273.6
974.484	2309.53
974.785	2295.52
975.085	2273.82
975.386	2288.51
975.686	2249.87
975.986	2257.33
976.287	2254.84
976.587	2268.63
976.887	2232.02
977.187	2222.07
977.487	2211.68
977.787	2205.13
978.087	2169.65
978.387	2161.28
978.687	2161.96
978.987	2163.77
979.286	2151.34
979.586	2131.91
979.885	2119.93
980.185	2100.95
980.484	2128.74
980.784	2107.73
981.083	2120.61
981.382	2082.42
981.682	2109.76
981.981	2106.6
982.28	2046.26
982.579	2056.88
982.878	2056.43
983.177	2014.85
983.475	2038.12
983.774	2025.24
984.073	1995.64
984.372	2004
984.67	2008.29
984.969	1994.51
985.267	1966.94
985.566	1977.11
985.864	1978.92
986.162	1978.24
986.461	1951.35
986.759	1933.04
987.057	1935.98
987.355	1907.51
987.653	1927.17
987.951	1924.46
988.249	1942.08
988.547	1888.52
988.844	1891.69
989.142	1868.19
989.44	1842.42
989.737	1855.76
990.035	1851.24
990.332	1857.34
990.63	1841.29
990.927	1836.77
991.224	1833.16
991.521	1831.35
991.819	1819.83
992.116	1767.85
992.413	1772.59
992.71	1758.36
993.006	1775.08
993.303	1759.94
993.6	1731.47
993.897	1771.46
994.193	1732.14
994.49	1733.27
994.787	1721.97
995.083	1710.68
995.379	1723.78
995.676	1680.85
995.972	1691.47
996.268	1650.56
996.565	1663.22
996.861	1656.67
997.157	1652.15
997.453	1651.69
997.749	1655.08
998.044	1613.28
998.34	1615.31
998.636	1625.25
998.932	1600.17
999.227	1610.56
999.523	1609.66
999.818	1585.25
1000.114	1581.87
1000.409	1551.36
1000.704	1563.79
1001	1543.67
1001.295	1551.58
1001.59	1551.58
1001.885	1534.63
1002.18	1529.21
1002.475	1514.52
1002.77	1525.14
1003.065	1508.87
1003.359	1479.04
1003.654	1488.31
1003.949	1479.27
1004.243	1458.48
1004.538	1477.24
1004.832	1472.94
1005.127	1451.47
1005.421	1406.28
1005.715	1406.95
1006.009	1452.15
1006.304	1426.62
1006.598	1400.18
1006.892	1397.24
1007.186	1373.96
1007.48	1399.72
1007.773	1379.38
1008.067	1399.95
1008.361	1350.68
1008.655	1359.5
1008.948	1352.94
1009.242	1343.91
1009.535	1329.44
1009.829	1313.4
1010.122	1290.35
1010.415	1320.63
1010.708	1299.39
1011.001	1321.53
1011.295	1299.61
1011.588	1298.03
1011.881	1283.34
1012.173	1260.29
1012.466	1230.69
1012.759	1265.26
1013.052	1271.14
1013.344	1259.61
1013.637	1235.66
1013.93	1213.29
1014.222	1232.95
1014.514	1194.98
1014.807	1204.47
1015.099	1218.26
1015.391	1206.96
1015.683	1207.41
1015.976	1198.15
1016.268	1200.41
1016.56	1172.84
1016.851	1189.11
1017.143	1169.9
1017.435	1153.18
1017.727	1157.47
1018.018	1169.9
1018.31	1139.84
1018.602	1111.14
1018.893	1098.94
1019.185	1147.3
1019.476	1118.37
1019.767	1136.45
1020.058	1116.34
1020.35	1070.92
1020.641	1084.48
1020.932	1075.89
1021.223	1065.72
1021.514	1062.1
1021.804	1068.88
1022.095	1057.13
1022.386	1022.33
1022.677	1053.97
1022.967	1004.25
1023.258	1010.81
1023.548	1027.3
1023.839	1003.35
1024.129	1027.98
1024.419	1015.33
1024.709	1000.64
1025	984.37
1025.29	981.43
1025.58	980.75
1025.87	1004.03
1026.16	954.31
1026.449	945.5
1026.739	965.61
1027.029	933.97
1027.319	927.42
1027.608	943.24
1027.898	941.88
1028.187	945.5
1028.477	919.96
1028.766	942.11
1029.055	926.29
1029.344	901.88
1029.634	916.12
1029.923	894.65
1030.212	891.94
1030.501	867.53
1030.79	887.65
1031.078	889.23
1031.367	865.05
1031.656	872.51
1031.945	871.15
1032.233	851.94
1032.522	849.91
1032.81	860.75
1033.099	835.9
1033.387	818.72
1033.675	829.57
1033.963	817.14
1034.251	819.85
1034.54	791.6
1034.828	806.29
1035.116	803.58
1035.403	811.26
1035.691	786.63
1035.979	795.45
1036.267	797.48
1036.554	772.62
1036.842	773.75
1037.129	773.75
1037.417	773.52
1037.704	777.37
1037.992	765.16
1038.279	769.01
1038.566	752.28
1038.853	752.28
1039.14	752.28
