Data from plate_ceramic_FLMS001491_044.txt Node
Date: Tue Feb 07 11:16:49 GMT 2017
User: dcchb
Spectrometer: FLMS00149
Trigger mode: 0
Integration Time (sec): 2.000000E-2
Scans to average: 10
Electric dark correction enabled: true
Nonlinearity correction enabled: false
Boxcar width: 0
XAxis mode: Wavelengths
Number of Pixels in Spectrum: 2048
>>>>>Begin Spectral Data<<<<<
341.393	-20.37
341.776	-20.37
342.16	-20.37
342.543	-81.16
342.927	-51.1
343.31	-82.51
343.693	-67.37
344.077	-57.88
344.46	-61.27
344.843	-57.88
345.226	-35.51
345.61	-32.34
345.993	0.2
346.376	-0.71
346.759	6.98
347.142	24.6
347.525	53.08
347.908	39.97
348.291	63.47
348.674	88.56
349.057	118.61
349.44	116.13
349.823	139.63
350.206	157.26
350.588	203.13
350.971	212.4
351.354	235.45
351.737	245.84
352.119	246.29
352.502	268.21
352.884	264.15
353.267	302.11
353.65	314.99
354.032	300.3
354.414	311.38
354.797	321.55
355.179	336.91
355.562	314.31
355.944	342.79
356.326	349.57
356.709	325.61
357.091	339.4
357.473	342.34
357.855	357.02
358.238	356.8
358.62	329
359.002	333.52
359.384	322.9
359.766	347.31
360.148	338.95
360.53	359.51
360.912	347.08
361.294	365.61
361.676	330.81
362.057	343.92
362.439	333.75
362.821	341.21
363.203	349.79
363.584	339.62
363.966	333.52
364.348	359.06
364.729	325.16
365.111	328.78
365.493	344.37
365.874	337.36
366.256	329.45
366.637	344.37
367.019	343.47
367.4	340.08
367.781	326.97
368.163	340.75
368.544	334.65
368.925	342.79
369.306	362.45
369.688	329.68
370.069	342.56
370.45	334.2
370.831	343.92
371.212	326.06
371.593	359.96
371.974	340.08
372.355	339.62
372.736	349.34
373.117	361.32
373.498	351.15
373.879	349.79
374.26	345.95
374.641	349.34
375.021	352.28
375.402	361.09
375.783	388.21
376.163	394.09
376.544	381.2
376.925	384.82
377.305	343.69
377.686	364.03
378.066	385.72
378.447	387.76
378.827	388.66
379.208	389.11
379.588	365.61
379.968	386.18
380.349	406.74
380.729	397.02
381.109	390.02
381.489	393.41
381.87	397.7
382.25	397.93
382.63	415.1
383.01	377.14
383.39	415.78
383.77	403.12
384.15	406.97
384.53	410.81
384.91	418.04
385.29	444.25
385.67	452.84
386.049	443.12
386.429	432.73
386.809	437.47
387.189	449.23
387.568	413.07
387.948	433.63
388.328	441.99
388.707	468.89
389.087	455.1
389.466	453.29
389.846	451.49
390.225	461.88
390.605	466.85
390.984	475.21
391.363	482.67
391.743	501.2
392.122	490.35
392.501	493.74
392.881	493.74
393.26	501.88
393.639	497.13
394.018	517.25
394.397	508.88
394.776	530.58
395.155	527.64
395.534	540.97
395.913	542.33
396.292	534.65
396.671	553.86
397.05	524.25
397.429	550.47
397.808	539.39
398.186	565.38
398.565	569.67
398.944	594.08
399.323	573.52
399.701	581.43
400.08	586.4
400.458	584.36
400.837	591.59
401.215	609.67
401.594	612.39
401.972	612.39
402.351	602.67
402.729	616.45
403.107	655.55
403.486	625.27
403.864	630.24
404.242	629.33
404.62	668.43
404.999	656.68
405.377	662.33
405.755	676.34
406.133	683.12
406.511	689.45
406.889	687.41
407.267	701.2
407.645	735.09
408.023	712.95
408.401	716.56
408.779	718.37
409.156	739.39
409.534	747.97
409.912	765.83
410.29	782.55
410.667	775.09
411.045	768.54
411.422	805.37
411.8	797.01
412.178	816.22
412.555	816.9
412.933	822.1
413.31	861.42
413.687	849.44
414.065	853.73
414.442	850.12
414.819	859.84
415.197	866.39
415.574	928.08
415.951	891.02
416.328	945.48
416.705	917.24
417.082	947.07
417.46	964.01
417.837	948.65
418.214	958.36
418.591	974.41
418.967	945.26
419.344	975.99
419.721	1001.98
420.098	1025.03
420.475	1024.58
420.852	1025.93
421.228	1041.75
421.605	1044.24
421.982	1054.63
422.358	1054.63
422.735	1084.01
423.111	1068.64
423.488	1111.58
423.864	1095.54
424.241	1117
424.617	1129.66
424.994	1155.42
425.37	1153.16
425.746	1182.09
426.123	1178.7
426.499	1173.5
426.875	1191.58
427.251	1197.23
427.627	1250.79
428.003	1254.85
428.379	1259.15
428.756	1257.34
429.132	1284.23
429.507	1326.72
429.883	1307.51
430.259	1347.73
430.635	1350.9
431.011	1370.56
431.387	1379.6
431.763	1436.54
432.138	1412.82
432.514	1439.71
432.89	1460.5
433.265	1473.38
433.641	1516.09
434.016	1529.2
434.392	1532.13
434.767	1569.42
435.143	1561.74
435.518	1573.94
435.894	1599.7
436.269	1622.75
436.644	1674.28
437.02	1658.23
437.395	1647.61
437.77	1667.27
438.145	1711.79
438.52	1714.73
438.895	1722.41
439.271	1748.63
439.646	1772.13
440.021	1807.38
440.395	1811
440.77	1789.08
441.145	1813.48
441.52	1872.24
441.895	1846.48
442.27	1880.37
442.645	1866.82
443.019	1880.37
443.394	1891.22
443.769	1901.39
444.143	1921.5
444.518	1957.66
444.892	1922.41
445.267	1957.43
445.641	2001.05
446.016	1991.33
446.39	2006.25
446.764	2013.48
447.139	2015.51
447.513	2067.71
447.887	2041.27
448.262	2051.67
448.636	2045.34
449.01	2107.94
449.384	2144.55
449.758	2135.96
450.132	2178.67
450.506	2164.66
450.88	2185
451.254	2174.15
451.628	2220.7
452.002	2260.25
452.376	2255.05
452.75	2288.05
453.123	2344.32
453.497	2338.44
453.871	2352.68
454.244	2422.51
454.618	2401.94
454.992	2460.02
455.365	2484.88
455.739	2545.67
456.112	2548.15
456.486	2586.8
456.859	2588.38
457.232	2667.92
457.606	2647.59
457.979	2659.34
458.352	2748.37
458.725	2762.38
459.099	2761.48
459.472	2830.41
459.845	2853.46
460.218	2892.1
460.591	2905.43
460.964	2924.41
461.337	2961.02
461.71	3052.09
462.083	3067.24
462.456	3093.45
462.829	3122.6
463.201	3156.95
463.574	3201.47
463.947	3256.16
464.32	3305.87
464.692	3332.31
465.065	3358.98
465.438	3404.85
465.81	3481.46
466.183	3515.59
466.555	3583.83
466.928	3606.88
467.3	3600.56
467.672	3690.27
468.045	3773.88
468.417	3718.52
468.789	3792.19
469.161	3874.9
469.534	3927.1
469.906	3961.45
470.278	3990.15
470.65	4054.78
471.022	4161.44
471.394	4233.08
471.766	4251.39
472.138	4329.8
472.51	4356.02
472.882	4426.97
473.253	4515.56
473.625	4614.31
473.997	4658.61
474.369	4708.55
474.74	4777.02
475.112	4865.38
475.484	4901.31
475.855	5018.6
476.227	5058.37
476.598	5200.51
476.97	5243.68
477.341	5322.32
477.713	5412.71
478.084	5424.01
478.455	5616.77
478.827	5672.14
479.198	5807.28
479.569	5845.69
479.94	6034.39
480.311	6081.62
480.682	6191.22
481.053	6358.67
481.424	6429.41
481.795	6510.08
482.166	6605.45
482.537	6763.86
482.908	6815.84
483.279	6917.3
483.65	7035.27
484.021	7178.09
484.391	7282.27
484.762	7279.1
485.133	7415.14
485.503	7524.97
485.874	7687.91
486.244	7751.41
486.615	7899.43
486.985	8023.94
487.356	8139.64
487.726	8248.79
488.097	8405.63
488.467	8376.47
488.837	8607.66
489.207	8699.4
489.578	8793.41
489.948	8829.57
490.318	9050.81
490.688	9112.73
491.058	9197.92
491.428	9319.27
491.798	9432.94
492.168	9623.22
492.538	9614.63
492.908	9763.78
493.278	9996.55
493.648	9986.83
494.017	10016.43
494.387	10116.99
494.757	10312.47
495.126	10374.84
495.496	10391.34
495.866	10497.1
496.235	10568.73
496.605	10712.23
496.974	10830.65
497.344	10946.35
497.713	10992.68
498.082	11139.34
498.452	11157.64
498.821	11273.8
499.19	11273.57
499.559	11398.77
499.928	11474.02
500.298	11562.83
500.667	11641.7
501.036	11696.16
501.405	11815.48
501.774	11793.56
502.143	12018.86
502.512	12043.04
502.88	12175.92
503.249	12168.92
503.618	12338.4
503.987	12343.6
504.356	12412.07
504.724	12501.11
505.093	12568.45
505.462	12675.34
505.83	12756.25
506.199	12887.99
506.567	13042.79
506.936	13025.84
507.304	13200.3
507.672	13276.01
508.041	13297.93
508.409	13401.43
508.777	13639.39
509.145	13657.47
509.514	13689.78
509.882	13846.16
510.25	13810.46
510.618	13955.31
510.986	13989.89
511.354	14195.53
511.722	14339.03
512.09	14433.72
512.458	14389.42
512.826	14536.31
513.193	14696.53
513.561	14739.92
513.929	14927.94
514.297	15021.72
514.664	15136.97
515.032	15178.33
515.4	15332.68
515.767	15418.55
516.135	15514.37
516.502	15467.81
516.869	15789.61
517.237	15801.14
517.604	15864.64
517.972	16127.91
518.339	16193.44
518.706	16186.21
519.073	16287.68
519.44	16389.82
519.808	16583.72
520.175	16630.27
520.542	16869.81
520.909	16972.18
521.276	16983.03
521.643	17242
522.009	17307.99
522.376	17506.4
522.743	17651.03
523.11	17771.93
523.477	17973.96
523.843	18073.85
524.21	18331.69
524.577	18383.9
524.943	18490.11
525.31	18630.89
525.676	18741.85
526.043	18855.97
526.409	18987.27
526.776	19220.26
527.142	19378.9
527.508	19480.14
527.874	19566.46
528.241	19748.38
528.607	19762.84
528.973	19872.9
529.339	19873.35
529.705	20185.2
530.071	20216.62
530.437	20394.24
530.803	20539.32
531.169	20684.17
531.535	20737.96
531.901	20899.31
532.267	20927.33
532.632	21102.47
532.998	21156.7
533.364	21261.11
533.73	21334.33
534.095	21418.62
534.461	21599.86
534.826	21639.63
535.192	21785.84
535.557	21936.12
535.923	21968.89
536.288	22053.63
536.653	22182.89
537.019	22153.74
537.384	22344.69
537.749	22420.63
538.114	22564.8
538.479	22563.9
538.845	22672.37
539.21	22644.8
539.575	22894.29
539.94	22867.62
540.305	23032.36
540.67	22931.35
541.034	23149.19
541.399	23360.71
541.764	23382.18
542.129	23395.97
542.494	23502.18
542.858	23565
543.223	23623.31
543.587	23761.83
543.952	23660.82
544.316	23939.68
544.681	23872.56
545.045	24060.13
545.41	24156.4
545.774	24326.79
546.138	24241.14
546.503	24410.86
546.867	24310.52
547.231	24578.99
547.595	24713.22
547.959	24625.54
548.324	24781.69
548.688	24887.68
549.052	24896.27
549.416	25048.8
549.779	25249.03
550.143	25275.47
550.507	25420.55
550.871	25434.78
551.235	25548.9
551.599	25740.76
551.962	25753.64
552.326	25897.37
552.689	26087.2
553.053	25976.69
553.417	26121.32
553.78	26437.02
554.143	26343.23
554.507	26458.71
554.87	26609.67
555.234	26754.07
555.597	26698.7
555.96	26761.98
556.323	26894.63
556.686	27000.17
557.05	27262.31
557.413	27335.07
557.776	27321.29
558.139	27605.35
558.502	27625.46
558.865	27691.22
559.228	27964.66
559.59	28007.82
559.953	28127.59
560.316	28378.66
560.679	28377.08
561.041	28627.92
561.404	28819.55
561.767	29013.22
562.129	28909.27
562.492	29126.89
562.854	29132.54
563.217	29274.46
563.579	29352.19
563.941	29518.97
564.304	29765.74
564.666	29837.61
565.028	29897.72
565.39	30112.63
565.753	30303.81
566.115	30333.86
566.477	30495.44
566.839	30562.33
567.201	30876.22
567.563	30806.17
567.925	30998.93
568.287	30952.6
568.648	31240.51
569.01	31410.45
569.372	31548.52
569.734	31450.9
570.095	31804.33
570.457	31831.23
570.819	31876.87
571.18	31918.91
571.542	32244.1
571.903	32130.88
572.265	32222.63
572.626	32430.53
572.987	32314.38
573.349	32706
573.71	32665.78
574.071	32685.44
574.432	32793.01
574.794	33114.36
575.155	33075.03
575.516	32969.05
575.877	33187.57
576.238	33215.14
576.599	33373.78
576.96	33373.56
577.32	33387.57
577.681	33496.04
578.042	33623.95
578.403	33570.16
578.763	33764.96
579.124	33796.6
579.485	34065.06
579.845	33904.39
580.206	33920.66
580.566	33950.27
580.927	34034.11
581.287	34162.24
581.648	33950.27
582.008	34261.44
582.368	34153.65
582.728	34135.57
583.089	34119.07
583.449	34187.1
583.809	34193.65
584.169	34219.41
584.529	34138.74
584.889	34449.24
585.249	34393.19
585.609	34157.27
585.969	34495.11
586.329	34317.04
586.688	34425.06
587.048	34359.97
587.408	34407.88
587.768	34268
588.127	34394.55
588.487	34371.72
588.846	34691.71
589.206	34326.3
589.565	34434.55
589.925	34465.28
590.284	34388.9
590.643	34381.67
591.003	34568.78
591.362	34603.58
591.721	34569.01
592.08	34578.27
592.44	34603.13
592.799	34671.15
593.158	34668.89
593.517	34719.74
593.876	34700.98
594.235	34542.34
594.593	34747.53
594.952	34844.93
595.311	34627.54
595.67	34682.45
596.029	34762
596.387	34999.96
596.746	35042.21
597.104	34926.74
597.463	34817.36
597.822	35072.27
598.18	34923.8
598.538	34893.74
598.897	35090.8
599.255	34877.92
599.613	35347.29
599.972	35125.6
600.33	35236.33
600.688	35101.65
601.046	35239.27
601.404	35370.57
601.762	35370.12
602.12	35364.69
602.478	35416.44
602.836	35354.07
603.194	35287.18
603.552	35300.06
603.91	35210.8
604.268	35520.62
604.625	35234.07
604.983	35579.15
605.341	35402.2
605.698	35575.99
606.056	35633.39
606.413	35538.7
606.771	35806.71
607.128	35765.81
607.485	35609.88
607.843	35761.52
608.2	35894.4
608.557	35965.13
608.914	35862.53
609.272	35967.16
609.629	36048.52
609.986	36135.97
610.343	36043.77
610.7	36323.08
611.057	36249.41
611.414	36197.44
611.771	36140.26
612.127	36294.16
612.484	36287.61
612.841	36475.62
613.198	36310.66
613.554	36433.82
613.911	36543.42
614.267	36469.75
614.624	36453.25
614.98	36480.14
615.337	36641.27
615.693	36594.04
616.05	36753.36
616.406	36874.26
616.762	36831.55
617.118	36728.72
617.475	36805.78
617.831	36900.02
618.187	36910.19
618.543	37034.03
618.899	37046.46
619.255	37051.88
619.611	36929.17
619.967	37043.29
620.323	37156.96
620.678	37044.2
621.034	36986.12
621.39	37067.92
621.746	36923.07
622.101	37385.43
622.457	37079.45
622.812	37112.89
623.168	37280.35
623.523	37178.66
623.879	37223.85
624.234	36955.84
624.589	37179.11
624.945	37132.55
625.3	37273.57
625.655	37250.52
626.01	37203.97
626.365	37160.35
626.72	37193.34
627.075	37120.8
627.43	37195.6
627.785	37095.27
628.14	37077.41
628.495	37047.13
628.85	37023.63
629.205	36970.07
629.559	37178.43
629.914	36930.98
630.269	36970.3
630.623	36801.94
630.978	36917.87
631.332	36977.98
631.687	36963.07
632.041	36776.18
632.396	36828.16
632.75	36680.82
633.104	36725.56
633.459	36621.61
633.813	36515.85
634.167	36591.1
634.521	36464.55
634.875	36554.26
635.229	36627.03
635.583	36374.83
635.937	36400.14
636.291	36309.98
636.645	36192.92
636.999	36193.82
637.352	36315.85
637.706	36044
638.06	36288.74
638.413	36056.2
638.767	36102.75
639.121	36076.54
639.474	35952.02
639.828	35871.57
640.181	35898.69
640.534	35932.59
640.888	35721.74
641.241	35740.27
641.594	35700.05
641.947	35741.86
642.301	35550.68
642.654	35599.26
643.007	35784.34
643.36	35618.47
643.713	35425.25
644.066	35662.76
644.419	35268.2
644.771	35072.95
645.124	34827.76
645.477	34723.58
645.83	34455.79
646.182	34411.72
646.535	34160.2
646.888	34315
647.24	34139.64
647.593	34418.95
647.945	34254.44
648.298	34156.14
648.65	33998.17
649.002	33817.39
649.355	34051.51
649.707	33983.71
650.059	34122.01
650.411	34463.47
650.763	34450.37
651.115	34736.91
651.467	34798.38
651.819	34575.56
652.171	34677.25
652.523	34607.42
652.875	34473.64
653.227	34463.92
653.578	34660.3
653.93	34663.92
654.282	34373.31
654.633	34307.77
654.985	34309.8
655.337	34348
655.688	34318.39
656.039	34452.4
656.391	34050.83
656.742	34293.53
657.094	34228.68
657.445	34330.14
657.796	34157.49
658.147	34155.91
658.498	34128.34
658.849	34133.76
659.2	34207.66
659.551	34068.91
659.902	34052.64
660.253	34108.91
660.604	34037.49
660.955	33890.83
661.306	33973.54
661.656	33889.48
662.007	33798.86
662.358	33922.47
662.708	33858.97
663.059	33926.99
663.409	33605.42
663.76	33751.4
664.11	33727.45
664.461	33797.73
664.811	33949.59
665.161	33798.63
665.511	33642.25
665.862	33549.6
666.212	33678.63
666.562	33828.23
666.912	33675.92
667.262	33595.47
667.612	33646.54
667.962	33566.09
668.312	33528.58
668.662	33571.74
669.011	33662.36
669.361	33549.37
669.711	33509.6
670.06	33423.95
670.41	33406.1
670.76	33480.67
671.109	33444.97
671.459	33346.67
671.808	33376.27
672.157	33465.31
672.507	33105.54
672.856	33256.95
673.205	33303.73
673.554	33322.71
673.904	33141.7
674.253	33372.2
674.602	33149.83
674.951	32921.82
675.3	32617.19
675.649	33089.5
675.998	33020.35
676.346	33067.58
676.695	33174.47
677.044	32962.95
677.393	33072.55
677.741	33062.61
678.09	33008.14
678.438	32894.7
678.787	33002.49
679.135	32949.61
679.484	32682.28
679.832	32892.89
680.181	32650.86
680.529	32791.65
680.877	32668.04
681.225	32545.56
681.573	32669.17
681.922	32461.49
682.27	32338.1
682.618	32423.98
682.966	32309.18
683.314	32400.93
683.661	32178.79
684.009	32127.49
684.357	32033.71
684.705	32014.72
685.053	32229.41
685.4	31990.54
685.748	31825.35
686.095	31864.9
686.443	31822.19
686.79	31630.78
687.138	31700.61
687.485	31626.26
687.832	31606.6
688.18	31615.19
688.527	31475.75
688.874	31489.09
689.221	31402.31
689.568	31309.66
689.915	31148.31
690.262	31195.99
690.609	31184.01
690.956	31039.83
691.303	30981.3
691.65	30797.58
691.997	30773.85
692.344	30600.52
692.69	30563.69
693.037	30747.19
693.383	30328.89
693.73	30698.83
694.077	30483.69
694.423	30429
694.769	30294.32
695.116	30247.31
695.462	30156.01
695.808	29936.59
696.155	30087.54
696.501	29866.53
696.847	29703.37
697.193	29496.15
697.539	29672.64
697.885	29483.49
698.231	29295.25
698.577	29296.15
698.923	29229.26
699.269	29159.66
699.614	28982.71
699.96	28926.67
700.306	29008.93
700.651	28879.89
700.997	28705.88
701.342	28678.77
701.688	28663.4
702.033	28457.53
702.379	28598.32
702.724	28493.91
703.069	28455.49
703.415	28238.78
703.76	28199.91
704.105	28210.76
704.45	28126.92
704.795	28004.21
705.14	27866.13
705.485	27807.6
705.83	27739.36
706.175	27852.57
706.52	27683.31
706.865	27604.9
707.209	27502.07
707.554	27524.67
707.899	27495.75
708.243	27366.03
708.588	27290.55
708.932	27135.08
709.277	27089.2
709.621	27067.28
709.966	27045.81
710.31	26982.99
710.654	26842.2
710.998	26878.81
711.342	26847.63
711.687	26693.96
712.031	26591.81
712.375	26539.16
712.719	26534.42
713.063	26542.1
713.407	26577.58
713.75	26518.37
714.094	26437.92
714.438	26249.68
714.782	26297.59
715.125	26206.51
715.469	26129.45
715.812	26061.89
716.156	25896.47
716.499	26030.25
716.843	25951.83
717.186	25842.23
717.53	25878.61
717.873	25914.09
718.216	25797.94
718.559	25689.24
718.902	25627.77
719.246	25584.16
719.589	25491.96
719.932	25410.38
720.275	25406.08
720.617	25273.21
720.96	25331.96
721.303	25317.27
721.646	25208.35
721.989	25139.2
722.331	25219.65
722.674	25072.08
723.016	24999.31
723.359	24903.27
723.701	24959.99
724.044	24910.05
724.386	24757.29
724.729	24852.88
725.071	24641.58
725.413	24871.63
725.755	24650.85
726.097	24583.51
726.439	24564.75
726.782	24630.06
727.124	24605.88
727.465	24506.67
727.807	24506.22
728.149	24407.69
728.491	24323.85
728.833	24377.64
729.175	24197.75
729.516	24126.34
729.858	24094.93
730.199	24222.16
730.541	24104.2
730.882	24042.05
731.224	24093.12
731.565	23899.46
731.906	23934.94
732.248	23999.11
732.589	23775.39
732.93	23846.8
733.271	23835.96
733.612	23822.17
733.953	23872.11
734.294	23612.23
734.635	23627.37
734.976	23725.9
735.317	23609.97
735.658	23592.12
735.999	23588.96
736.339	23486.81
736.68	23524.78
737.021	23452.24
737.361	23385.57
737.702	23457.21
738.042	23282.3
738.383	23369.53
738.723	23254.5
739.063	23250.66
739.404	23222.19
739.744	23174.28
740.084	23128.86
740.424	23070.78
740.764	22970.44
741.104	23074.62
741.444	22840.73
741.784	22899.48
742.124	22903.1
742.464	22826.04
742.804	22750.79
743.143	22609.32
743.483	22729.54
743.823	22632.15
744.162	22613.84
744.502	22610
744.841	22553.73
745.181	22613.61
745.52	22437.12
745.86	22525.48
746.199	22385.82
746.538	22483.67
746.877	22402.32
747.216	22442.32
747.556	22270.57
747.895	22285.26
748.234	22219.27
748.573	22125.72
748.911	22035.32
749.25	22191.25
749.589	21954.2
749.928	22111.48
750.267	21957.59
750.605	21916.46
750.944	21810.92
751.283	21838.49
751.621	21799.85
751.96	21712.85
752.298	21669.46
752.636	21719.63
752.975	21495
753.313	21592.62
753.651	21546.75
753.989	21445.06
754.327	21466.07
754.666	21351.05
755.004	21278.51
755.342	21316.25
755.679	21191.28
756.017	21146.99
756.355	21224.05
756.693	21078.51
757.031	21117.61
757.368	20930.49
757.706	20946.09
758.044	20836.49
758.381	20859.76
758.719	20755.13
759.056	20757.62
759.394	20599.43
759.731	20537.96
760.068	20474.01
760.405	20409.15
760.743	20385.65
761.08	20413.9
761.417	20253
761.754	20285.31
762.091	20172.32
762.428	20089.39
762.765	19923.06
763.102	19957.87
763.438	19884.87
763.775	19850.07
764.112	19902.27
764.449	19809.39
764.785	19657.31
765.122	19589.74
765.458	19467.71
765.795	19534.37
766.131	19472
766.467	19373.47
766.804	19295.06
767.14	19272.23
767.476	19256.87
767.812	19153.14
768.148	19162.18
768.485	18974.61
768.821	18938.68
769.157	18904.56
769.492	18840.61
769.828	18705.69
770.164	18578.01
770.5	18667.05
770.836	18585.7
771.171	18404.01
771.507	18392.93
771.842	18339.6
772.178	18241.75
772.513	18208.76
772.849	18250.57
773.184	18043.57
773.519	18186.61
773.855	17980.06
774.19	17916.34
774.525	17688.32
774.86	17890.8
775.195	17714.08
775.53	17674.54
775.865	17537.14
776.2	17444.03
776.535	17350.7
776.87	17378.5
777.205	17354.09
777.539	17088.79
777.874	17231.38
778.209	17145.28
778.543	17055.57
778.878	17023.25
779.212	16914.78
779.547	16862.58
779.881	16855.12
780.215	16732.87
780.55	16771.96
780.884	16527.22
781.218	16556.37
781.552	16555.02
781.886	16455.58
782.22	16354.34
782.554	16323.16
782.888	16195.7
783.222	16101.7
783.556	16089.49
783.889	15969.72
784.223	15975.37
784.557	15930.17
784.89	15901.47
785.224	15824.19
785.557	15677.53
785.891	15647.92
786.224	15623.52
786.558	15550.98
786.891	15505.33
787.224	15313.69
787.557	15372.22
787.891	15286.8
788.224	15268.72
788.557	15294.03
788.89	15205.22
789.223	15224.43
789.556	15013.59
789.888	15020.37
790.221	15008.62
790.554	14915.51
790.887	14864.44
791.219	14772.24
791.552	14724.1
791.884	14696.99
792.217	14645.69
792.549	14655.41
792.882	14462.64
793.214	14451.34
793.546	14478.46
793.879	14354.17
794.211	14313.27
794.543	14242.76
794.875	14323.21
795.207	14274.4
795.539	14249.09
795.871	14162.54
796.203	14088.19
796.535	14077.57
796.867	13992.82
797.198	13848.87
797.53	13883.9
797.862	13798.7
798.193	13740.85
798.525	13758.48
798.856	13741.98
799.188	13613.17
799.519	13539.73
799.85	13509.9
800.182	13494.76
800.513	13507.19
800.844	13325.27
801.175	13490.46
801.506	13393.07
801.837	13259.28
802.168	13299.96
802.499	13169.12
802.83	13149.68
803.161	13055.45
803.491	13069.68
803.822	13083.47
804.153	12965.96
804.483	12922.57
804.814	12836.7
805.145	12829.46
805.475	12831.95
805.805	12765.74
806.136	12748.56
806.466	12790.14
806.796	12736.13
807.126	12578.62
807.457	12580.21
807.787	12605.97
808.117	12519.87
808.447	12457.5
808.777	12505.41
809.107	12455.01
809.436	12384.28
809.766	12434.45
810.096	12394.22
810.426	12328.91
810.755	12363.26
811.085	12192.65
811.414	12201.91
811.744	12072.42
812.073	12129.14
812.403	12044.17
812.732	12007.34
813.061	12038.3
813.39	11970.05
813.719	11933.67
814.049	11996.94
814.378	11947.45
814.707	11965.31
815.036	11826.78
815.365	11786.55
815.693	11723.05
816.022	11738.87
816.351	11650.29
816.68	11640.57
817.008	11716.95
817.337	11474.47
817.665	11524.19
817.994	11497.07
818.322	11564.19
818.651	11408.71
818.979	11416.62
819.307	11454.13
819.636	11347.24
819.964	11344.08
820.292	11338.2
820.62	11386.57
820.948	11293.46
821.276	11333.46
821.604	11307.02
821.932	11279
822.259	11234.03
822.587	11298.88
822.915	11178.66
823.243	11306.34
823.57	11217.3
823.898	11276.51
824.225	11254.82
824.553	11189.06
824.88	11271.54
825.207	11254.82
825.535	11234.93
825.862	11234.48
826.189	11218.89
826.516	11219.56
826.843	11275.38
827.17	11208.72
827.497	11222.73
827.824	11241.03
828.151	11236.06
828.478	11187.93
828.805	11172.79
829.131	11181.37
829.458	11178.66
829.785	11217.98
830.111	11167.81
830.438	11177.3
830.764	11130.53
831.09	11165.78
831.417	11075.61
831.743	11171.2
832.069	11156.06
832.395	11077.42
832.722	11131.43
833.048	11036.29
833.374	11095.27
833.7	11028.61
834.026	11076.74
834.351	11092.11
834.677	11017.76
835.003	11067.03
835.329	10954.26
835.654	10999.23
835.98	10885.79
836.306	10925.56
836.631	10853.92
836.956	10934.15
837.282	10918.78
837.607	10828.84
837.932	10872.45
838.258	10863.41
838.583	10809.41
838.908	10814.83
839.233	10785.68
839.558	10770.08
839.883	10713.14
840.208	10708.16
840.533	10723.31
840.858	10740.93
841.182	10734.6
841.507	10597.43
841.832	10527.83
842.156	10621.16
842.481	10596.08
842.805	10608.28
843.13	10507.49
843.454	10527.6
843.778	10452.58
844.103	10462.75
844.427	10420.71
844.751	10420.04
845.075	10438.57
845.399	10403.77
845.723	10311.79
846.047	10285.35
846.371	10178.01
846.695	10213.71
847.019	10121.06
847.343	10142.08
847.666	10107.28
847.99	9957.68
848.313	9987.96
848.637	9976.66
848.96	9899.82
849.284	9898.69
849.607	9837.23
849.931	9788.87
850.254	9743.44
850.577	9724.01
850.9	9633.16
851.223	9623
851.546	9588.42
851.869	9462.1
852.192	9550
852.515	9422.55
852.838	9418.03
853.161	9372.61
853.483	9353.85
853.806	9313.85
854.129	9311.82
854.451	9245.83
854.774	9234.53
855.096	9184.36
855.419	9165.61
855.741	9192.72
856.063	9110.01
856.385	9075.89
856.708	9019.85
857.03	8994.99
857.352	9056
857.674	8995.44
857.996	8901.43
858.318	8876.12
858.64	8829.8
858.961	8844.48
859.283	8795.67
859.605	8782.79
859.926	8841.32
860.248	8742.79
860.57	8717.26
860.891	8703.47
861.212	8674.09
861.534	8605.17
861.855	8659.63
862.176	8729.01
862.498	8679.97
862.819	8624.83
863.14	8617.6
863.461	8574.21
863.782	8588.67
864.103	8587.77
864.424	8566.3
864.745	8469.58
865.065	8423.93
865.386	8470.03
865.707	8427.77
866.027	8402.69
866.348	8431.16
866.668	8449.69
866.989	8391.84
867.309	8315.01
867.63	8362.46
867.95	8349.36
868.27	8297.83
868.59	8329.92
868.91	8266.65
869.23	8327.89
869.55	8248.34
869.87	8255.35
870.19	8239.3
870.51	8234.56
870.83	8261.68
871.15	8137.38
871.469	8164.73
871.789	8199.53
872.109	8125.41
872.428	8091.74
872.748	8136.71
873.067	8143.71
873.386	8120.66
873.706	8096.48
874.025	7977.39
874.344	7989.14
874.663	8042.02
874.982	8024.39
875.301	8015.81
875.62	7980.1
875.939	7933.1
876.258	7939.65
876.577	7927.45
876.896	7976.49
877.214	7929.03
877.533	7919.76
877.852	7894.23
878.17	7883.15
878.489	7839.77
878.807	7889.93
879.125	7787.79
879.444	7853.78
879.762	7822.36
880.08	7762.93
880.398	7762.25
880.716	7745.98
881.034	7740.56
881.352	7738.3
881.67	7736.72
881.988	7619.88
882.306	7702.14
882.624	7649.71
882.941	7609.94
883.259	7603.39
883.577	7528.81
883.894	7588.25
884.212	7555.48
884.529	7564.74
884.846	7515.03
885.164	7494.46
885.481	7498.76
885.798	7503.05
886.115	7442.26
886.432	7451.75
886.75	7398.2
887.067	7383.96
887.383	7330.4
887.7	7380.34
888.017	7374.24
888.334	7356.39
888.651	7308.25
888.967	7296.73
889.284	7213.57
889.6	7178.99
889.917	7180.57
890.233	7153.68
890.55	7169.5
890.866	7195.04
891.182	7127.69
891.498	7136.06
891.815	7061.26
892.131	7071.2
892.447	7070.29
892.763	7015.38
893.079	6996.85
893.395	6907.13
893.71	6943.74
894.026	6965.89
894.342	6950.3
894.657	6916.4
894.973	6913.24
895.289	6826.91
895.604	6830.07
895.92	6778.1
896.235	6724.54
896.55	6719.57
896.865	6732.22
897.181	6741.94
897.496	6734.94
897.811	6670.3
898.126	6670.53
898.441	6636.41
898.756	6630.08
899.071	6596.63
899.386	6590.08
899.7	6535.85
900.015	6516.41
900.33	6452.46
900.644	6462.63
900.959	6463.98
901.273	6434.15
901.588	6407.94
901.902	6421.5
902.216	6394.15
902.531	6356.19
902.845	6282.52
903.159	6266.47
903.473	6301.27
903.787	6245.23
904.101	6213.59
904.415	6194.39
904.729	6149.19
905.042	6150.09
905.356	6103.54
905.67	6075.07
905.984	6089.3
906.297	6077.55
906.611	6021.96
906.924	6010.66
907.237	6008.4
907.551	5938.12
907.864	5914.62
908.177	5929.76
908.491	5892.47
908.804	5891.12
909.117	5872.81
909.43	5824.9
909.743	5791.46
910.056	5753.94
910.368	5737.67
910.681	5730.89
910.994	5713.49
911.307	5674.85
911.619	5632.37
911.932	5605.7
912.244	5589.66
912.557	5580.62
912.869	5564.12
913.181	5520.73
913.494	5524.8
913.806	5497
914.118	5443.67
914.43	5446.61
914.742	5431.69
915.054	5410.68
915.366	5426.95
915.678	5381.75
915.99	5337.91
916.302	5286.16
916.613	5324.58
916.925	5261.98
917.236	5257.01
917.548	5207.29
917.859	5225.6
918.171	5180.63
918.482	5167.07
918.794	5151.02
919.105	5130.68
919.416	5165.49
919.727	5092.49
920.038	5071.02
920.349	5015.43
920.66	5048.43
920.971	4967.98
921.282	4970.46
921.593	4945.83
921.903	4965.49
922.214	4913.29
922.525	4903.8
922.835	4853.86
923.146	4837.81
923.456	4860.86
923.767	4818.15
924.077	4813.4
924.387	4786.74
924.697	4767.76
925.008	4764.82
925.318	4719.17
925.628	4699.28
925.938	4668.32
926.248	4615.9
926.558	4610.47
926.867	4645.95
927.177	4612.05
927.487	4594.65
927.796	4535.67
928.106	4567.08
928.416	4569.12
928.725	4492.06
929.034	4485.28
929.344	4457.48
929.653	4451.15
929.962	4452.51
930.271	4399.18
930.581	4361.66
930.89	4323.25
931.199	4370.25
931.508	4315.34
931.817	4319.41
932.125	4277.37
932.434	4311.27
932.743	4207.32
933.051	4182.91
933.36	4154.89
933.669	4194.66
933.977	4219.07
934.286	4163.7
934.594	4163.25
934.902	4095.68
935.21	4072.18
935.519	4077.6
935.827	4129.81
936.135	4064.27
936.443	4053.65
936.751	3984.05
937.059	4012.75
937.367	3977.49
937.674	4003.26
937.982	3988.34
938.29	3936.59
938.597	3922.58
938.905	3906.76
939.213	3848.68
939.52	3878.97
939.827	3890.26
940.135	3850.04
940.442	3832.41
940.749	3805.3
941.056	3799.19
941.363	3750.83
941.67	3788.57
941.977	3731.85
942.284	3705.64
942.591	3730.5
942.898	3689.37
943.205	3727.11
943.511	3669.93
943.818	3674.68
944.125	3648.69
944.431	3616.6
944.738	3576.6
945.044	3594
945.35	3592.19
945.657	3542.48
945.963	3586.32
946.269	3501.8
946.575	3564.62
946.881	3504.29
947.187	3507.9
947.493	3482.14
947.799	3457.06
948.105	3459.32
948.41	3411.63
948.716	3387.23
949.022	3409.83
949.327	3360.34
949.633	3371.41
949.938	3370.28
950.244	3308.13
950.549	3315.14
950.854	3312.88
951.16	3269.26
951.465	3311.3
951.77	3262.48
952.075	3253.45
952.38	3243.73
952.685	3236.72
952.99	3205.99
953.294	3213.67
953.599	3156.95
953.904	3168.25
954.209	3131.19
954.513	3161.02
954.818	3144.75
955.122	3107.46
955.426	3116.27
955.731	3078.31
956.035	3020.46
956.339	3065.88
956.643	3086.44
956.948	3032.66
957.252	3010.97
957.556	2993.11
957.86	2966
958.163	3000.57
958.467	2974.81
958.771	2970.52
959.075	2988.37
959.378	2941.59
959.682	2919.44
959.985	2908.37
960.289	2902.49
960.592	2854.59
960.896	2824.3
961.199	2851.65
961.502	2832.67
961.805	2843.74
962.108	2773.91
962.411	2823.63
962.714	2814.81
963.017	2812.1
963.32	2772.1
963.623	2787.47
963.926	2747.02
964.228	2760.13
964.531	2713.57
964.833	2714.7
965.136	2721.71
965.438	2724.65
965.741	2646.91
966.043	2671.99
966.345	2664.99
966.648	2648.72
966.95	2650.3
967.252	2629.96
967.554	2646.91
967.856	2598.32
968.158	2595.61
968.46	2561.49
968.761	2540.7
969.063	2558.32
969.365	2563.75
969.666	2558.1
969.968	2537.08
970.269	2519.68
970.571	2514.03
970.872	2504.31
971.174	2454.14
971.475	2432
971.776	2429.51
972.077	2422.05
972.378	2439.91
972.679	2425.44
972.98	2427.25
973.281	2399.68
973.582	2388.38
973.883	2399.91
974.183	2375.73
974.484	2357.2
974.785	2381.15
975.085	2350.87
975.386	2365.11
975.686	2342.06
975.986	2340.48
976.287	2328.95
976.587	2297.09
976.887	2290.53
977.187	2268.39
977.487	2272.45
977.787	2259.57
978.087	2254.38
978.387	2242.17
978.687	2248.73
978.987	2259.35
979.286	2186.35
979.586	2206.47
979.885	2158.79
980.185	2159.69
980.484	2132.8
980.784	2168.73
981.083	2165.11
981.382	2107.49
981.682	2138.45
981.981	2130.54
982.28	2106.58
982.579	2106.36
982.878	2106.81
983.177	2074.95
983.475	2072.23
983.774	2073.82
984.073	2041.05
984.372	2030.2
984.67	2035.85
984.969	2064.32
985.267	2011.44
985.566	2022.29
985.864	2025.23
986.162	1991.78
986.461	2023.42
986.759	2002.86
987.057	1966.7
987.355	1973.93
987.653	1937.77
987.951	1940.49
988.249	1918.79
988.547	1943.42
988.844	1937.32
989.142	1963.54
989.44	1905.01
989.737	1893.93
990.035	1892.8
990.332	1872.69
990.63	1893.93
990.927	1858.23
991.224	1844.67
991.521	1857.55
991.819	1860.71
992.116	1828.4
992.413	1833.6
992.71	1818.68
993.006	1819.13
993.303	1788.4
993.6	1794.73
993.897	1789.3
994.193	1781.39
994.49	1784.56
994.787	1755.63
995.083	1734.16
995.379	1744.33
995.676	1735.29
995.972	1725.8
996.268	1728.97
996.565	1720.15
996.861	1711.11
997.157	1678.8
997.453	1678.57
997.749	1673.37
998.044	1696.65
998.34	1682.64
998.636	1677.44
998.932	1637.22
999.227	1624.11
999.523	1629.76
999.818	1602.42
1000.114	1620.49
1000.409	1607.84
1000.704	1589.99
1001	1587.73
1001.295	1589.99
1001.59	1590.89
1001.885	1588.86
1002.18	1530.55
1002.475	1555.19
1002.77	1541.4
1003.065	1536.65
1003.359	1513.15
1003.654	1510.67
1003.949	1498.46
1004.243	1516.32
1004.538	1513.6
1004.832	1488.52
1005.127	1470.44
1005.421	1466.15
1005.715	1477
1006.009	1470.67
1006.304	1455.98
1006.598	1427.5
1006.892	1426.83
1007.186	1422.76
1007.48	1426.83
1007.773	1418.24
1008.067	1407.62
1008.361	1395.64
1008.655	1379.37
1008.948	1386.38
1009.242	1364.23
1009.535	1359.94
1009.829	1341.63
1010.122	1358.81
1010.415	1348.64
1010.708	1336.66
1011.001	1340.95
1011.295	1339.82
1011.588	1333.27
1011.881	1323.55
1012.173	1295.76
1012.466	1298.02
1012.759	1274.06
1013.052	1306.6
1013.344	1261.63
1013.637	1282.65
1013.93	1264.57
1014.222	1269.77
1014.514	1237.91
1014.807	1253.95
1015.099	1258.02
1015.391	1234.52
1015.683	1212.6
1015.976	1230.9
1016.268	1209.21
1016.56	1192.48
1016.851	1175.31
1017.143	1188.87
1017.435	1175.99
1017.727	1166.49
1018.018	1123.56
1018.31	1171.92
1018.602	1156.1
1018.893	1145.93
1019.185	1142.09
1019.476	1125.14
1019.767	1130.34
1020.058	1111.58
1020.35	1117.91
1020.641	1088.08
1020.932	1085.37
1021.223	1076.55
1021.514	1097.12
1021.804	1103.22
1022.095	1083.79
1022.386	1072.71
1022.677	1073.62
1022.967	1045.82
1023.258	1062.77
1023.548	1051.02
1023.839	1034.52
1024.129	1008.31
1024.419	1025.93
1024.709	1008.98
1025	1010.34
1025.29	1006.05
1025.58	995.43
1025.87	973.96
1026.16	997.46
1026.449	980.28
1026.739	961.98
1027.029	943.68
1027.319	980.51
1027.608	944.13
1027.898	960.62
1028.187	935.54
1028.477	923.11
1028.766	937.12
1029.055	914.75
1029.344	909.1
1029.634	923.56
1029.923	887.86
1030.212	894.19
1030.501	917.91
1030.79	901.19
1031.078	881.3
1031.367	873.17
1031.656	885.6
1031.945	861.19
1032.233	870.91
1032.522	852.15
1032.81	874.07
1033.099	828.88
1033.387	837.69
1033.675	865.49
1033.963	860.51
1034.251	843.79
1034.54	855.54
1034.828	835.66
1035.116	832.27
1035.403	805.15
1035.691	810.12
1035.979	833.17
1036.267	798.59
1036.554	815.09
1036.842	758.82
1037.129	816.67
1037.417	804.02
1037.704	768.09
1037.992	759.27
1038.279	765.15
1038.566	765.38
1038.853	765.38
1039.14	765.38
