Data from plate_ceramic_FLMS001491_080.txt Node
Date: Tue Feb 07 11:17:17 GMT 2017
User: dcchb
Spectrometer: FLMS00149
Trigger mode: 0
Integration Time (sec): 2.000000E-2
Scans to average: 10
Electric dark correction enabled: true
Nonlinearity correction enabled: false
Boxcar width: 0
XAxis mode: Wavelengths
Number of Pixels in Spectrum: 2048
>>>>>Begin Spectral Data<<<<<
341.393	-11.4
341.776	-11.4
342.16	-11.4
342.543	-36.93
342.927	-69.02
343.31	-62.92
343.693	-70.15
344.077	-72.19
344.46	-66.31
344.843	-54.11
345.226	-42.81
345.61	-42.81
345.993	-14.11
346.376	-14.79
346.759	12.33
347.142	45.55
347.525	39.67
347.908	41.71
348.291	79.9
348.674	103.4
349.057	117.64
349.44	130.97
349.823	142.72
350.206	153.12
350.588	224.98
350.971	213.91
351.354	237.41
351.737	258.2
352.119	266.79
352.502	278.76
352.884	279.89
353.267	307.46
353.65	299.55
354.032	297.29
354.414	322.38
354.797	333.45
355.179	326.22
355.562	337.07
355.944	343.17
356.326	328.48
356.709	353.34
357.091	362.83
357.473	376.84
357.855	355.6
358.238	365.99
358.62	358.54
359.002	371.87
359.384	360.8
359.766	356.73
360.148	372.55
360.53	359.67
360.912	377.97
361.294	361.47
361.676	364.19
362.057	345.2
362.439	385.65
362.821	354.69
363.203	359.21
363.584	364.19
363.966	371.19
364.348	363.51
364.729	338.88
365.111	363.73
365.493	350.4
365.874	349.27
366.256	354.69
366.637	365.09
367.019	354.47
367.4	366.45
367.781	343.62
368.163	367.8
368.544	349.5
368.925	360.8
369.306	340.23
369.688	354.47
370.069	367.35
370.45	369.83
370.831	363.06
371.212	364.19
371.593	351.08
371.974	380.23
372.355	379.78
372.736	373
373.117	362.83
373.498	368.93
373.879	382.26
374.26	358.76
374.641	352.43
375.021	371.19
375.402	406.44
375.783	397.18
376.163	415.48
376.544	390.63
376.925	403.73
377.305	389.95
377.686	390.4
378.066	410.29
378.447	410.51
378.827	398.76
379.208	406.22
379.588	417.97
379.968	409.61
380.349	411.64
380.729	415.03
381.109	410.51
381.489	428.59
381.87	431.08
382.25	449.83
382.63	421.13
383.01	437.18
383.39	443.05
383.77	455.26
384.15	456.39
384.53	456.39
384.91	440.57
385.29	457.52
385.67	451.19
386.049	438.08
386.429	456.61
386.809	462.49
387.189	447.57
387.568	477.18
387.948	486.89
388.328	494.35
388.707	511.07
389.087	494.13
389.466	502.03
389.846	500.45
390.225	516.72
390.605	506.55
390.984	503.16
391.363	508.59
391.743	526.89
392.122	540.68
392.501	543.84
392.881	542.03
393.26	559.21
393.639	556.95
394.018	582.71
394.397	559.21
394.776	570.28
395.155	580.22
395.534	583.84
395.913	576.38
396.292	584.29
396.671	604.41
397.05	602.37
397.429	596.5
397.808	590.62
398.186	622.48
398.565	620.9
398.944	625.87
399.323	618.19
399.701	631.3
400.08	644.86
400.458	631.75
400.837	657.06
401.215	654.12
401.594	665.65
401.972	673.78
402.351	664.74
402.729	690.05
403.107	681.24
403.486	705.65
403.864	705.65
404.242	740.45
404.62	751.52
404.999	733.67
405.377	729.6
405.755	721.69
406.133	754.46
406.511	763.04
406.889	744.29
407.267	769.15
407.645	809.6
408.023	797.17
408.401	792.65
408.779	814.34
409.156	837.85
409.534	815.47
409.912	846.43
410.29	852.31
410.667	883.27
411.045	882.59
411.422	881.46
411.8	897.28
412.178	903.61
412.555	939.99
412.933	926.66
413.31	937.73
413.687	960.78
414.065	972.53
414.442	1005.98
414.819	993.77
415.197	975.24
415.574	1008.91
415.951	1034
416.328	1028.57
416.705	1036.26
417.082	1043.72
417.46	1065.64
417.837	1074
418.214	1076.48
418.591	1104.5
418.967	1116.26
419.344	1104.05
419.721	1156.71
420.098	1140.66
420.475	1126.88
420.852	1147.22
421.228	1179.08
421.605	1195.12
421.982	1217.95
422.358	1222.24
422.735	1236.48
423.111	1225.63
423.488	1249.13
423.864	1272.86
424.241	1292.52
424.617	1309.25
424.994	1311.28
425.37	1319.41
425.746	1320.09
426.123	1348.34
426.499	1345.63
426.875	1369.36
427.251	1388.57
427.627	1415.01
428.003	1459.07
428.379	1457.04
428.756	1493.87
429.132	1498.17
429.507	1526.19
429.883	1527.09
430.259	1549.01
430.635	1514.66
431.011	1572.06
431.387	1615.23
431.763	1632.63
432.138	1639.86
432.514	1668.11
432.89	1713.75
433.265	1697.03
433.641	1699.52
434.016	1739.52
434.392	1766.18
434.767	1802.79
435.143	1814.09
435.518	1839.85
435.894	1875.33
436.269	1883.47
436.644	1902.9
437.02	1926.86
437.395	1924.14
437.77	1932.51
438.145	1997.81
438.52	2006.85
438.895	2011.37
439.271	2038.94
439.646	2093.18
440.021	2092.5
440.395	2078.94
440.77	2096.57
441.145	2117.59
441.52	2187.19
441.895	2192.61
442.27	2149.45
442.645	2178.37
443.019	2220.63
443.394	2208.2
443.769	2246.62
444.143	2236.45
444.518	2242.78
444.892	2271.71
445.267	2299.05
445.641	2296.34
446.016	2302.89
446.39	2354.19
446.764	2356
447.139	2355.32
447.513	2422.89
447.887	2399.84
448.262	2408.65
448.636	2448.42
449.01	2462.44
449.384	2501.76
449.758	2505.37
450.132	2537.01
450.506	2524.81
450.88	2529.33
451.254	2573.39
451.628	2620.4
452.002	2658.81
452.376	2710.79
452.75	2715.54
453.123	2725.93
453.497	2742.2
453.871	2809.54
454.244	2877.57
454.618	2883.89
454.992	2927.28
455.365	2908.3
455.739	2972.93
456.112	2992.36
456.486	3004.57
456.859	3035.08
457.232	3150.33
457.606	3127.5
457.979	3143.32
458.352	3227.84
458.725	3247.73
459.099	3269.42
459.472	3349.64
459.845	3371.79
460.218	3432.81
460.591	3451.11
460.964	3470.77
461.337	3526.81
461.71	3605.91
462.083	3646.36
462.456	3695.85
462.829	3687.26
463.201	3735.17
463.574	3772.46
463.947	3823.53
464.32	3888.16
464.692	3937.88
465.065	3997.31
465.438	3998.21
465.81	4089.74
466.183	4176.74
466.555	4233.24
466.928	4339.22
467.3	4243.86
467.672	4315.49
468.045	4439.78
468.417	4464.19
468.789	4490.4
469.161	4562.94
469.534	4633
469.906	4749.83
470.278	4804.07
470.65	4813.33
471.022	4915.03
471.394	5017.85
471.766	5031.86
472.138	5143.04
472.51	5264.62
472.882	5253.55
473.253	5353.66
473.625	5428.68
473.997	5556.82
474.369	5574.9
474.74	5664.84
475.112	5771.05
475.484	5887.43
475.855	5952.29
476.227	6006.3
476.598	6212.85
476.97	6202.22
477.341	6349.79
477.713	6444.25
478.084	6542.1
478.455	6688.31
478.827	6750.01
479.198	6974.86
479.569	6949.77
479.94	7187.28
480.311	7296.21
480.682	7384.57
481.053	7576.43
481.424	7683.31
481.795	7742.52
482.166	7882.63
482.537	7923.08
482.908	8130.53
483.279	8261.83
483.65	8415.73
484.021	8617.98
484.391	8631.76
484.762	8717.86
485.133	8851.65
485.503	8939.78
485.874	9158.08
486.244	9243.5
486.615	9409.37
486.985	9579.08
487.356	9701.11
487.726	9818.17
488.097	10012.52
488.467	10051.16
488.837	10240.54
489.207	10414.09
489.578	10548.1
489.948	10603.46
490.318	10741.99
490.688	10831.48
491.058	11006.39
491.428	11157.57
491.798	11204.13
492.168	11488.19
492.538	11503.55
492.908	11683.89
493.278	11866.26
493.648	11903.99
494.017	12052.47
494.387	12179.92
494.757	12164.55
495.126	12343.76
495.496	12427.37
495.866	12492.45
496.235	12717.76
496.605	12845.44
496.974	12891.99
497.344	13066.45
497.713	13083.62
498.082	13265.09
498.452	13366.1
498.821	13393.9
499.19	13462.37
499.559	13614.68
499.928	13801.35
500.298	13830.5
500.667	13916.6
501.036	13845.64
501.405	14035.46
501.774	14113.88
502.143	14372.18
502.512	14420.31
502.88	14544.83
503.249	14519.97
503.618	14656.92
503.987	14693.07
504.356	14839.51
504.724	14944.59
505.093	15015.1
505.462	15057.81
505.83	15253.29
506.199	15373.73
506.567	15600.39
506.936	15483.56
507.304	15795.87
507.672	15813.27
508.041	15911.57
508.409	15970.78
508.777	16121.96
509.145	16240.83
509.514	16257.78
509.882	16361.28
510.25	16508.39
510.618	16688.95
510.986	16643.76
511.354	16857.76
511.722	17030.19
512.09	17201.71
512.458	17173.23
512.826	17419.33
513.193	17525.54
513.561	17533.9
513.929	17775.25
514.297	17861.35
514.664	17989.26
515.032	18104.51
515.4	18266.54
515.767	18332.53
516.135	18393.54
516.502	18328.91
516.869	18826.07
517.237	18890.93
517.604	18927.77
517.972	19055.45
518.339	19263.58
518.706	19277.13
519.073	19396.45
519.44	19437.58
519.808	19656.79
520.175	19768.65
520.542	20088.41
520.909	20130.45
521.276	20134.29
521.643	20423.77
522.009	20677.55
522.376	20577.89
522.743	20921.16
523.11	21053.58
523.477	21198.67
523.843	21327.93
524.21	21568.37
524.577	21724.08
524.943	21843.85
525.31	21916.39
525.676	22192.31
526.043	22336.71
526.409	22423.94
526.776	22760.43
527.142	22756.14
527.508	22998.17
527.874	23184.38
528.241	23237.93
528.607	23327.2
528.973	23574.42
529.339	23569.45
529.705	23767.86
530.071	24063.68
530.437	24123.79
530.803	24344.35
531.169	24489.65
531.535	24487.62
531.901	24565.58
532.267	24691.23
532.632	25012.8
532.998	25033.14
533.364	25203.76
533.73	25265.23
534.095	25474.71
534.461	25503.86
534.826	25666.57
535.192	25808.04
535.557	26099.33
535.923	25928.26
536.288	26150.63
536.653	26331.86
537.019	26201.25
537.384	26388.13
537.749	26614.79
538.114	26624.96
538.479	26700.44
538.845	26767.33
539.21	26772.3
539.575	27026.99
539.94	27112.18
540.305	27142.69
540.67	27207.77
541.034	27416.36
541.399	27465.85
541.764	27597.14
542.129	27624.49
542.494	27749.68
542.858	27946.74
543.223	27970.92
543.587	28188.76
543.952	28149.67
544.316	28188.54
544.681	28189.22
545.045	28460.17
545.41	28478.93
545.774	28497.23
546.138	28667.4
546.503	28736.77
546.867	28805.7
547.231	29178.34
547.595	29048.4
547.959	29163.88
548.324	29230.54
548.688	29438.22
549.052	29492.91
549.416	29648.84
549.779	29705.56
550.143	29874.14
550.507	30070.97
550.871	30062.61
551.235	29972.22
551.599	30336.5
551.962	30423.51
552.326	30500.12
552.689	30696.95
553.053	30583.96
553.417	30618.53
553.78	31158.63
554.143	30956.6
554.507	31103.94
554.87	31240.89
555.234	31540.99
555.597	31394.1
555.96	31582.12
556.323	31791.38
556.686	31883.58
557.05	32135.1
557.413	32127.64
557.776	32298.94
558.139	32516.33
558.502	32529.22
558.865	32695.54
559.228	33025.93
559.59	32942.09
559.953	32994.06
560.316	33464.33
560.679	33419.81
561.041	33655.51
561.404	33879.24
561.767	34048.5
562.129	33980.7
562.492	34434.25
562.854	34294.14
563.217	34420.69
563.579	34502.5
563.941	34670.63
564.304	34895.25
564.666	35116.27
565.028	35285.53
565.39	35262.25
565.753	35592.19
566.115	35600.55
566.477	35718.96
566.839	35946.75
567.201	36166.41
567.563	36193.53
567.925	36273.52
568.287	36544.02
568.648	36642.55
569.01	36882.77
569.372	37043.45
569.734	36859.95
570.095	37257.45
570.457	37328.64
570.819	37525.02
571.18	37528.63
571.542	37667.61
571.903	37846.14
572.265	38003.87
572.626	38029.18
572.987	38132.01
573.349	38260.59
573.71	38368.61
574.071	38473.01
574.432	38521.6
574.794	38776.06
575.155	38724.31
575.516	38619
575.877	38846.79
576.238	38985.32
576.599	39043.17
576.96	39130.62
577.32	39284.29
577.681	39410.84
578.042	39449.26
578.403	39362.93
578.763	39582.36
579.124	39736.71
579.485	39756.6
579.845	39901.45
580.206	39674.11
580.566	39845.63
580.927	39868.91
581.287	39957.72
581.648	39782.36
582.008	40008.57
582.368	39925.86
582.728	39966.99
583.089	40049.47
583.449	39996.36
583.809	40102.58
584.169	40134.67
584.529	40238.17
584.889	40410.59
585.249	40220.99
585.609	40188.45
585.969	40370.82
586.329	40292.18
586.688	40311.84
587.048	40373.98
587.408	40207.66
587.768	40209.01
588.127	40135.57
588.487	40364.94
588.846	40499.63
589.206	40143.25
589.565	40213.98
589.925	40460.76
590.284	40525.62
590.643	40503.02
591.003	40593.41
591.362	40539.4
591.721	40589.12
592.08	40601.55
592.44	40688.1
592.799	40654.88
593.158	40785.27
593.517	40661.43
593.876	40631.6
594.235	40517.93
594.593	40769.9
594.952	40871.14
595.311	40783.91
595.67	40785.04
596.029	40911.14
596.387	41067.3
596.746	40993.63
597.104	40747.3
597.463	40821.43
597.822	40996.34
598.18	40934.42
598.538	40784.59
598.897	41274.52
599.255	40986.62
599.613	41407.85
599.972	41202.89
600.33	41358.81
600.688	41196.78
601.046	41363.11
601.404	41376.44
601.762	41341.86
602.12	41436.78
602.478	41394.52
602.836	41430.68
603.194	41275.88
603.552	41469.77
603.91	41423.67
604.268	41501.18
604.625	41420.05
604.983	41485.14
605.341	41406.72
605.698	41648.98
606.056	41755.19
606.413	41732.36
606.771	41848.52
607.128	41958.8
607.485	41926.93
607.843	41802.87
608.2	41994.05
608.557	42195.85
608.914	41894.62
609.272	42162.86
609.629	42192.24
609.986	42334.61
610.343	42148.4
610.7	42451.44
611.057	42445.79
611.414	42436.07
611.771	42343.42
612.127	42537.77
612.484	42650.98
612.841	42836.74
613.198	42582.28
613.554	42469.52
613.911	42787.7
614.267	42778.66
614.624	42737.99
614.98	42913.35
615.337	43093.23
615.693	43053.23
616.05	42892.78
616.406	43149.05
616.762	42978.21
617.118	43041.71
617.475	43111.54
617.831	43147.02
618.187	43234.47
618.543	43229.27
618.899	43408.48
619.255	43142.95
619.611	43288.25
619.967	43443.5
620.323	43534.8
620.678	43461.13
621.034	43216.62
621.39	43193.57
621.746	43251.87
622.101	43698.41
622.457	43279.22
622.812	43425.65
623.168	43516.05
623.523	43421.36
623.879	43508.14
624.234	43389.27
624.589	43437.4
624.945	43476.05
625.3	43619.55
625.655	43484.18
626.01	43582.71
626.365	43574.12
626.72	43531.64
627.075	43393.34
627.43	43484.63
627.785	43363.05
628.14	43354.69
628.495	43382.04
628.85	43324.41
629.205	43380
629.559	43477.63
629.914	43113.34
630.269	43348.14
630.623	43291.64
630.978	43279.89
631.332	43380.23
631.687	43242.38
632.041	43114.02
632.396	43166.9
632.75	43036.51
633.104	43093.23
633.459	42853.24
633.813	42793.35
634.167	42704.09
634.521	42711.09
634.875	42910.41
635.229	42792.9
635.583	42477.88
635.937	42570.31
636.291	42577.76
636.645	42522.4
636.999	42611.21
637.352	42724.43
637.706	42359.92
638.06	42572.12
638.413	42324.44
638.767	42277.89
639.121	42272.24
639.474	42025.91
639.828	42184.55
640.181	42121.28
640.534	42133.71
640.888	41968.06
641.241	41799.03
641.594	41976.2
641.947	42070.66
642.301	41865.24
642.654	41836.09
643.007	41886.48
643.36	41761.51
643.713	41886.48
644.066	41865.47
644.419	41482.43
644.771	41223
645.124	40828.43
645.477	40840.18
645.83	40584.82
646.182	40327.88
646.535	40323.13
646.888	40403.13
647.24	40339.41
647.593	40361.1
647.945	40257.37
648.298	40147.32
648.65	40004.27
649.002	39962.24
649.355	40041.11
649.707	40016.93
650.059	40032.52
650.411	40403.81
650.763	40520.19
651.115	41009.22
651.467	40840.18
651.819	40799.05
652.171	40758.83
652.523	40675.89
652.875	40675.22
653.227	40529.91
653.578	40783.91
653.93	40686.97
654.282	40397.48
654.633	40287.2
654.985	40403.58
655.337	40403.81
655.688	40409.46
656.039	40363.59
656.391	39999.08
656.742	40218.05
657.094	40245.17
657.445	40461.21
657.796	40228.67
658.147	40243.14
658.498	40070.94
658.849	40209.92
659.2	40160.88
659.551	40022.35
659.902	40214.89
660.253	39999.98
660.604	40143.03
660.955	39785.3
661.306	40056.25
661.656	39979.41
662.007	40105.97
662.358	39980.77
662.708	40051.73
663.059	39834.79
663.409	39614.45
663.76	39816.93
664.11	39892.41
664.461	39850.83
664.811	39935.12
665.161	39909.59
665.511	39696.71
665.862	39783.49
666.212	39885.18
666.562	39861.23
666.912	39692.42
667.262	39595.92
667.612	39593.89
667.962	39667.11
668.312	39497.17
668.662	39715.69
669.011	39611.74
669.361	39550.05
669.711	39552.99
670.06	39484.51
670.41	39434.34
670.76	39335.36
671.109	39475.7
671.459	39396.61
671.808	39326.1
672.157	39390.5
672.507	39110.96
672.856	39074.58
673.205	39219.21
673.554	39318.42
673.904	39207.46
674.253	39423.05
674.602	39279.55
674.951	38751.42
675.3	38447.03
675.649	39007.69
675.998	38957.75
676.346	39176.95
676.695	39224.41
677.044	38842.72
677.393	38992.77
677.741	38934.7
678.09	38843.17
678.438	38784.19
678.787	38911.65
679.135	38806.34
679.484	38527.02
679.832	38748.03
680.181	38533.58
680.529	38630.07
680.877	38609.96
681.225	38394.37
681.573	38671.43
681.922	38355.5
682.27	38254.26
682.618	38329.74
682.966	38182.17
683.314	38406.8
683.661	38212.46
684.009	37998
684.357	37795.74
684.705	37820.15
685.053	37851.79
685.4	37787.83
685.748	37662.19
686.095	37641.17
686.443	37597.56
686.79	37481.18
687.138	37510.78
687.485	37388.75
687.832	37566.15
688.18	37478.24
688.527	37105.59
688.874	37218.36
689.221	37082.09
689.568	36895.65
689.915	36843.23
690.262	36853.17
690.609	36889.1
690.956	36706.51
691.303	36663.12
691.65	36414.99
691.997	36487.08
692.344	36258.38
692.69	36330.92
693.037	36378.38
693.383	35956.24
693.73	36043.25
694.077	35748.11
694.423	35886.19
694.769	35788.56
695.116	35614.78
695.462	35744.95
695.808	35373.89
696.155	35396.71
696.501	35267.9
696.847	35278.3
697.193	34983.61
697.539	35113.55
697.885	34850.28
698.231	34720.12
698.577	34693.9
698.923	34712.43
699.269	34508.37
699.614	34417.75
699.96	34294.37
700.306	34344.76
700.651	34273.58
700.997	34137.53
701.342	34072.45
701.688	34002.85
702.033	33866.13
702.379	33933.25
702.724	33802.4
703.069	33698.22
703.415	33382.75
703.76	33427.5
704.105	33464.11
704.45	33328.06
704.795	33113.15
705.14	33064.12
705.485	32969.43
705.83	32850.11
706.175	32975.98
706.52	32919.26
706.865	32672.26
707.209	32678.82
707.554	32526.96
707.899	32740.74
708.243	32538.71
708.588	32639.95
708.932	32272.27
709.277	32206.51
709.621	32167.42
709.966	32010.36
710.31	32091.03
710.654	31907.99
710.998	31855.79
711.342	31759.74
711.687	31677.71
712.031	31632.06
712.375	31512.07
712.719	31586.42
713.063	31437.49
713.407	31537.6
713.75	31279.98
714.094	31238.4
714.438	31201.11
714.782	31314.56
715.125	31178.29
715.469	31165.41
715.812	30967.67
716.156	30740.34
716.499	30913.21
716.843	30872.31
717.186	30723.84
717.53	30806.55
717.873	30745.08
718.216	30674.35
718.559	30460.57
718.902	30381.02
719.246	30378.54
719.589	30398.65
719.932	30194.36
720.275	30174.02
720.617	30111.88
720.96	30038.66
721.303	30042.5
721.646	30038.66
721.989	29820.36
722.331	29958.66
722.674	29700.36
723.016	29706.69
723.359	29804.54
723.701	29762.73
724.044	29571.55
724.386	29248.4
724.729	29640.93
725.071	29406.13
725.413	29332.69
725.755	29359.81
726.097	29274.39
726.439	29067.39
726.782	29151.45
727.124	29285.01
727.465	28958.69
727.807	29136.54
728.149	29044.34
728.491	28713.95
728.833	28945.58
729.175	28851.57
729.516	28799.6
729.858	28789.88
730.199	28846.83
730.541	28708.98
730.882	28544.69
731.224	28678.92
731.565	28501.3
731.906	28562.99
732.248	28570.22
732.589	28438.02
732.93	28374.97
733.271	28396.44
733.612	28338.82
733.953	28280.74
734.294	28203.91
734.635	28200.97
734.976	28251.59
735.317	28038.94
735.658	27974.98
735.999	28074.42
736.339	27921.65
736.68	28085.26
737.021	27934.76
737.361	27772.05
737.702	27861.09
738.042	27722.34
738.383	27759.85
738.723	27728.66
739.063	27628.78
739.404	27639.63
739.744	27585.84
740.084	27593.3
740.424	27457.71
740.764	27446.19
741.104	27492.74
741.444	27421.33
741.784	27297.26
742.124	27254.78
742.464	27153.31
742.804	27183.82
743.143	27129.13
743.483	27079.87
743.823	27005.07
744.162	26978.63
744.502	26970.94
744.841	26788.8
745.181	26916.71
745.52	26925.29
745.86	26793.32
746.199	26677.62
746.538	26666.77
746.877	26730.05
747.216	26796.03
747.556	26634
747.895	26558.98
748.234	26397.4
748.573	26380.9
748.911	26531.86
749.25	26323.95
749.589	26260.68
749.928	26119.44
750.267	26195.82
750.605	26008.71
750.944	25983.17
751.283	25943.85
751.621	26029.5
751.96	25948.6
752.298	25844.87
752.636	25873.12
752.975	25613.24
753.313	25452.34
753.651	25639
753.989	25533.69
754.327	25413.47
754.666	25372.79
755.004	25421.38
755.342	25415.05
755.679	25432.9
756.017	25164.89
756.355	25273.36
756.693	25097.77
757.031	25256.19
757.368	24990.66
757.706	24990.2
758.044	24835.63
758.381	24855.52
758.719	24822.07
759.056	24779.36
759.394	24763.77
759.731	24589.99
760.068	24528.07
760.405	24391.12
760.743	24329.88
761.08	24339.15
761.417	24239.72
761.754	24130.79
762.091	24130.79
762.428	23956.11
762.765	23863.91
763.102	23934.64
763.438	23709.33
763.775	23699.84
764.112	23797.47
764.449	23728.09
764.785	23646.96
765.122	23384.6
765.458	23339.63
765.795	23324.94
766.131	23239.52
766.467	23244.71
766.804	23076.81
767.14	23041.33
767.476	22958.85
767.812	22908.45
768.148	22882.69
768.485	22745.07
768.821	22492.87
769.157	22569.03
769.492	22455.81
769.828	22608.35
770.164	22312.76
770.5	22263.72
770.836	22246.55
771.171	22105.08
771.507	22096.72
771.842	21898.76
772.178	21833.45
772.513	21811.53
772.849	21810.63
773.184	21623.51
773.519	21623.74
773.855	21458.77
774.19	21432.56
774.525	21403.41
774.86	21255.16
775.195	21236.18
775.53	21184.88
775.865	21059.69
776.2	20894.49
776.535	20747.83
776.87	20807.94
777.205	20716.42
777.539	20490.66
777.874	20663.31
778.209	20486.37
778.543	20382.87
778.878	20240.5
779.212	20306.49
779.547	20189.2
779.881	20161.63
780.215	20060.39
780.55	20058.81
780.884	19809.32
781.218	19802.54
781.552	19819.72
781.886	19642.1
782.22	19582.44
782.554	19584.24
782.888	19454.53
783.222	19447.75
783.556	19230.58
783.889	19255.89
784.223	19128.44
784.557	18966.18
784.89	19086.86
785.224	18941.32
785.557	18854.55
785.891	18774.32
786.224	18698.84
786.558	18722.12
786.891	18519.87
787.224	18496.36
787.557	18437.16
787.891	18358.51
788.224	18335.46
788.557	18383.37
788.89	18222.7
789.223	18155.36
789.556	18108.8
789.888	18067.22
790.221	17931.18
790.554	17838.08
790.887	17823.39
791.219	17764.63
791.552	17752.43
791.884	17641.47
792.217	17619.78
792.549	17485.54
792.882	17379.33
793.214	17354.7
793.546	17369.16
793.879	17180.47
794.211	17135.27
794.543	17236.51
794.875	17067.25
795.207	17157.87
795.539	17022.73
795.871	16917.87
796.203	16808.27
796.535	16811.44
796.867	16759.91
797.198	16696.41
797.53	16664.32
797.862	16529.64
798.193	16523.08
798.525	16457.1
798.856	16561.95
799.188	16311.11
799.519	16296.2
799.85	16191.34
800.182	16198.8
800.513	16220.27
800.844	16131.68
801.175	16093.04
801.506	16120.38
801.837	15921.06
802.168	15917.9
802.499	15859.82
802.83	15856.21
803.161	15851.01
803.491	15750.67
803.822	15688.3
804.153	15624.58
804.483	15462.77
804.814	15538.7
805.145	15488.99
805.475	15417.12
805.805	15389.1
806.136	15301.87
806.466	15372.15
806.796	15349.1
807.126	15128.09
807.457	15145.04
807.787	15021.88
808.117	15076.11
808.447	15053.06
808.777	15037.25
809.107	14905.72
809.436	14921.32
809.766	14873.41
810.096	14825.5
810.426	14798.16
810.755	14721.1
811.085	14742.34
811.414	14670.7
811.744	14545.51
812.073	14522.46
812.403	14522.01
812.732	14432.52
813.061	14379.64
813.39	14310.49
813.719	14382.12
814.049	14320.2
814.378	14376.25
814.707	14295.34
815.036	14196.14
815.365	14144.61
815.693	14060.77
816.022	14042.02
816.351	14086.31
816.68	13948.23
817.008	14028.68
817.337	13916.6
817.665	13876.37
817.994	13879.31
818.322	13883.38
818.651	13746.43
818.979	13779.65
819.307	13899.87
819.636	13777.62
819.964	13670.95
820.292	13744.17
820.62	13754.57
820.948	13605.65
821.276	13672.08
821.604	13608.81
821.932	13582.37
822.259	13612.88
822.587	13640.9
822.915	13568.81
823.243	13538.98
823.57	13557.06
823.898	13537.62
824.225	13497.63
824.553	13455.14
824.88	13479.77
825.207	13583.05
825.535	13475.93
825.862	13530.62
826.189	13519.77
826.516	13485.87
826.843	13532.2
827.17	13494.01
827.497	13566.78
827.824	13489.26
828.151	13527.46
828.478	13462.82
828.805	13566.32
829.131	13461.92
829.458	13385.31
829.785	13378.53
830.111	13324.3
830.438	13468.7
830.764	13465.99
831.09	13473.45
831.417	13363.39
831.743	13499.43
832.069	13441.36
832.395	13366.78
832.722	13414.69
833.048	13425.76
833.374	13362.71
833.7	13269.16
834.026	13355.26
834.351	13372.2
834.677	13283.62
835.003	13402.49
835.329	13314.81
835.654	13292.66
835.98	13208.37
836.306	13275.94
836.631	13199.33
836.956	13176.73
837.282	13264.86
837.607	13169.05
837.932	13150.06
838.258	13079.33
838.583	13138.99
838.908	13056.73
839.233	13005.21
839.558	13015.83
839.883	12914.14
840.208	12887.02
840.533	12857.42
840.858	12907.13
841.182	12896.29
841.507	12831.2
841.832	12794.59
842.156	12852.22
842.481	12789.62
842.805	12712.79
843.13	12670.53
843.454	12755.27
843.778	12623.52
844.103	12649.96
844.427	12590.53
844.751	12568.16
845.075	12546.46
845.399	12500.59
845.723	12408.39
846.047	12456.3
846.371	12343.98
846.695	12308.96
847.019	12175.63
847.343	12174.27
847.666	12082.52
847.99	12089.3
848.313	12063.09
848.637	12061.5
848.96	11930.43
849.284	11958.68
849.607	11850.44
849.931	11804.34
850.254	11712.59
850.577	11716.66
850.9	11624.68
851.223	11583.1
851.546	11476.89
851.869	11499.03
852.192	11500.16
852.515	11548.98
852.838	11423.56
853.161	11393.27
853.483	11297.46
853.806	11278.25
854.129	11266.5
854.451	11177.69
854.774	11164.81
855.096	11034.64
855.419	11111.02
855.741	11072.83
856.063	10944.02
856.385	10971.82
856.708	10928.88
857.03	11007.97
857.352	10850.01
857.674	10806.85
857.996	10772.27
858.318	10686.4
858.64	10690.92
858.961	10643.69
859.283	10662.9
859.605	10577.48
859.926	10586.74
860.248	10552.17
860.57	10484.82
860.891	10540.41
861.212	10462.68
861.534	10499.96
861.855	10420.87
862.176	10442.56
862.498	10380.42
862.819	10472.62
863.14	10467.2
863.461	10402.79
863.782	10355.11
864.103	10306.75
864.424	10308.1
864.745	10279.4
865.065	10145.85
865.386	10193.98
865.707	10156.7
866.027	10236.69
866.348	10179.52
866.668	10226.07
866.989	10167.77
867.309	10108.56
867.63	10089.13
867.95	10086.64
868.27	10005.06
868.59	10024.27
868.91	10030.6
869.23	10036.93
869.55	10008.45
869.87	10019.3
870.19	9956.02
870.51	9997.6
870.83	9917.38
871.15	9911.5
871.469	9889.13
871.789	9895.46
872.109	9838.29
872.428	9829.47
872.748	9909.47
873.067	9850.49
873.386	9786.76
873.706	9780.21
874.025	9799.19
874.344	9715.8
874.663	9772.75
874.982	9679.42
875.301	9730.27
875.62	9662.7
875.939	9642.59
876.258	9706.99
876.577	9573.43
876.896	9604.17
877.214	9523.72
877.533	9564.85
877.852	9533.89
878.17	9544.73
878.489	9550.84
878.807	9480.1
879.125	9438.3
879.444	9537.28
879.762	9434.68
880.08	9456.83
880.398	9354.91
880.716	9389.94
881.034	9374.8
881.352	9314.91
881.67	9361.69
881.988	9377.28
882.306	9333.89
882.624	9300.67
882.941	9223.39
883.259	9199.43
883.577	9208.92
883.894	9152.2
884.212	9170.06
884.529	9142.71
884.846	9169.15
885.164	9110.4
885.481	9078.98
885.798	9030.17
886.115	8994.69
886.432	8977.29
886.75	9001.92
887.067	8936.62
887.383	8878.99
887.7	8952.43
888.017	8918.31
888.334	8964.41
888.651	8876.73
888.967	8775.04
889.284	8793.34
889.6	8739.11
889.917	8705.43
890.233	8700.01
890.55	8726
890.866	8743.4
891.182	8729.62
891.498	8630.41
891.815	8588.38
892.131	8556.51
892.447	8543.86
892.763	8629.96
893.079	8490.53
893.395	8515.38
893.71	8462.73
894.026	8471.32
894.342	8473.12
894.657	8389.06
894.973	8380.02
895.289	8312.9
895.604	8372.34
895.92	8257.76
896.235	8172.57
896.55	8219.12
896.865	8151.1
897.181	8109.29
897.496	8134.38
897.811	8094.15
898.126	8083.08
898.441	8118.78
898.756	8065.68
899.071	7982.52
899.386	7949.3
899.7	7926.92
900.015	7886.7
900.33	7813.93
900.644	7850.54
900.959	7888.28
901.273	7805.12
901.588	7846.93
901.902	7719.92
902.216	7735.97
902.531	7705.46
902.845	7643.77
903.159	7640.15
903.473	7603.32
903.787	7564.9
904.101	7542.75
904.415	7537.1
904.729	7486.26
905.042	7415.75
905.356	7483.77
905.67	7468.18
905.984	7429.99
906.297	7371.46
906.611	7323.1
906.924	7298.69
907.237	7252.82
907.551	7276.55
907.864	7198.58
908.177	7196.77
908.491	7151.8
908.804	7167.4
909.117	7126.49
909.43	7057.34
909.743	7034.07
910.056	6998.14
910.368	6973.73
910.681	6965.82
910.994	6943.67
911.307	6854.64
911.619	6801.98
911.932	6895.99
912.244	6797.01
912.557	6771.25
912.869	6734.87
913.181	6655.32
913.494	6695.77
913.806	6664.36
914.118	6662.55
914.43	6604.02
914.742	6606.96
915.054	6529.45
915.366	6524.02
915.678	6521.76
915.99	6462.78
916.302	6460.75
916.613	6408.32
916.925	6435.44
917.236	6422.33
917.548	6354.08
917.859	6300.53
918.171	6309.11
918.482	6292.39
918.794	6234.54
919.105	6178.95
919.416	6149.8
919.727	6163.58
920.038	6168.55
920.349	6060.76
920.66	6036.35
920.971	6081.1
921.282	6079.74
921.593	5950.03
921.903	5979.63
922.214	5985.73
922.525	5941.21
922.835	5902.34
923.146	5840.65
923.456	5853.76
923.767	5857.15
924.077	5810.82
924.387	5771.05
924.697	5735.12
925.008	5734.67
925.318	5702.12
925.628	5680.2
925.938	5668.45
926.248	5598.62
926.558	5606.08
926.867	5592.07
927.177	5597.49
927.487	5550.26
927.796	5581
928.106	5488.57
928.416	5466.42
928.725	5474.79
929.034	5365.64
929.344	5391.17
929.653	5387.33
929.962	5349.36
930.271	5296.71
930.581	5287.9
930.89	5259.42
931.199	5233.21
931.508	5210.61
931.817	5213.1
932.125	5206.32
932.434	5243.83
932.743	5155.7
933.051	5138.3
933.36	5087.22
933.669	5026.66
933.977	5043.16
934.286	5030.05
934.594	5068.02
934.902	4981.92
935.21	4967.23
935.519	4991.41
935.827	4930.39
936.135	4907.57
936.443	4865.08
936.751	4817.85
937.059	4864.86
937.367	4817.85
937.674	4823.73
937.982	4806.33
938.29	4774.01
938.597	4728.14
938.905	4728.14
939.213	4719.55
939.52	4711.19
939.827	4678.42
940.135	4625.99
940.442	4611.53
940.749	4579.44
941.056	4626.45
941.363	4534.7
941.67	4516.17
941.977	4514.58
942.284	4508.48
942.591	4511.87
942.898	4409.28
943.205	4422.16
943.511	4408.82
943.818	4454.7
944.125	4312.33
944.431	4360.01
944.738	4349.84
945.044	4309.84
945.35	4266.68
945.657	4300.8
945.963	4329.05
946.269	4280.69
946.575	4251.99
946.881	4217.64
947.187	4184.88
947.493	4195.5
947.799	4139
948.105	4129.96
948.41	4110.53
948.716	4112.56
949.022	4063.52
949.327	4096.74
949.633	4022.39
949.938	4054.94
950.244	4021.94
950.549	3970.19
950.854	4036.41
951.16	3978.55
951.465	3953.24
951.77	3982.4
952.075	3907.37
952.38	3925.9
952.685	3907.37
952.99	3869.63
953.294	3848.84
953.599	3870.76
953.904	3784.66
954.209	3790.54
954.513	3761.61
954.818	3751.44
955.122	3744.44
955.426	3735.62
955.731	3711.44
956.035	3688.17
956.339	3714.38
956.643	3738.11
956.948	3683.19
957.252	3634.83
957.556	3636.42
957.86	3620.6
958.163	3596.87
958.467	3586.93
958.771	3562.52
959.075	3555.74
959.378	3533.37
959.682	3541.28
959.985	3513.71
960.289	3488.17
960.592	3477.32
960.896	3434.84
961.199	3407.04
961.502	3402.07
961.805	3379.25
962.108	3399.81
962.411	3374.05
962.714	3396.65
963.017	3334.05
963.32	3379.25
963.623	3327.27
963.926	3302.41
964.228	3281.62
964.531	3282.3
964.833	3285.24
965.136	3235.75
965.438	3246.14
965.741	3204.79
966.043	3230.78
966.345	3189.42
966.648	3181.74
966.95	3180.83
967.252	3157.11
967.554	3110.55
967.856	3125.47
968.158	3089.31
968.46	3099.03
968.761	3071.46
969.063	3089.54
969.365	3035.98
969.666	3025.13
969.968	3011.12
970.269	3018.8
970.571	3021.29
970.872	2991.01
971.174	2974.51
971.475	2981.07
971.776	2969.54
972.077	2964.79
972.378	2941.29
972.679	2885.25
972.98	2913.95
973.281	2904.68
973.582	2883.22
973.883	2871.46
974.183	2858.81
974.484	2819.04
974.785	2863.55
975.085	2823.1
975.386	2809.09
975.686	2811.8
975.986	2794.63
976.287	2773.84
976.587	2730.45
976.887	2718.02
977.187	2744.46
977.487	2740.39
977.787	2721.64
978.087	2664.69
978.387	2680.73
978.687	2671.24
978.987	2672.37
979.286	2660.85
979.586	2661.75
979.885	2636.67
980.185	2626.05
980.484	2591.47
980.784	2581.3
981.083	2591.02
981.382	2546.5
981.682	2579.27
981.981	2540.85
982.28	2516.67
982.579	2531.36
982.878	2506.5
983.177	2496.56
983.475	2437.58
983.774	2503.79
984.073	2497.01
984.372	2439.16
984.67	2438.03
984.969	2438.71
985.267	2433.06
985.566	2393.96
985.864	2408.88
986.162	2390.35
986.461	2387.18
986.759	2377.69
987.057	2367.52
987.355	2327.3
987.653	2359.84
987.951	2338.14
988.249	2332.72
988.547	2281.88
988.844	2272.38
989.142	2294.53
989.44	2254.76
989.737	2258.15
990.035	2267.19
990.332	2269.22
990.63	2255.66
990.927	2223.35
991.224	2246.4
991.521	2230.8
991.819	2195.78
992.116	2183.57
992.413	2201.88
992.71	2160.97
993.006	2125.95
993.303	2129.11
993.6	2150.13
993.897	2145.61
994.193	2121.65
994.49	2123.24
994.787	2087.53
995.083	2076.91
995.379	2046.63
995.676	2071.49
995.972	2066.29
996.268	2038.49
996.565	2039.85
996.861	2006.18
997.157	2021.32
997.453	1993.97
997.749	2030.81
998.044	1958.27
998.34	1993.07
998.636	1964.14
998.932	1938.38
999.227	1928.89
999.523	1938.61
999.818	1897.25
1000.114	1938.83
1000.409	1924.6
1000.704	1908.33
1001	1892.51
1001.295	1878.5
1001.59	1876.91
1001.885	1846.41
1002.18	1840.53
1002.475	1822.45
1002.77	1857.93
1003.065	1824.94
1003.359	1810.93
1003.654	1798.72
1003.949	1793.98
1004.243	1757.37
1004.538	1793.98
1004.832	1768.89
1005.127	1736.13
1005.421	1736.8
1005.715	1730.03
1006.009	1724.83
1006.304	1696.13
1006.598	1725.96
1006.892	1706.97
1007.186	1666.52
1007.48	1688.67
1007.773	1680.76
1008.067	1658.39
1008.361	1682.12
1008.655	1647.32
1008.948	1674.21
1009.242	1629.91
1009.535	1611.84
1009.829	1613.19
1010.122	1626.53
1010.415	1583.81
1010.708	1600.54
1011.001	1600.09
1011.295	1552.63
1011.588	1569.13
1011.881	1582.91
1012.173	1539.75
1012.466	1496.36
1012.759	1515.79
1013.052	1560.54
1013.344	1523.25
1013.637	1491.16
1013.93	1513.31
1014.222	1488.22
1014.514	1480.99
1014.807	1457.26
1015.099	1446.64
1015.391	1447.55
1015.683	1435.57
1015.976	1432.86
1016.268	1405.97
1016.56	1394.89
1016.851	1393.31
1017.143	1382.01
1017.435	1389.92
1017.727	1354.89
1018.018	1376.81
1018.31	1353.99
1018.602	1370.94
1018.893	1362.13
1019.185	1332.52
1019.476	1319.19
1019.767	1324.84
1020.058	1299.98
1020.35	1304.95
1020.641	1283.71
1020.932	1282.81
1021.223	1286.19
1021.514	1258.17
1021.804	1272.64
1022.095	1251.85
1022.386	1255.69
1022.677	1253.65
1022.967	1201.68
1023.258	1215.91
1023.548	1226.99
1023.839	1189.47
1024.129	1192.19
1024.419	1199.64
1024.709	1194.67
1025	1198.29
1025.29	1163.94
1025.58	1168.01
1025.87	1145.86
1026.16	1148.57
1026.449	1143.83
1026.739	1130.04
1027.029	1158.74
1027.319	1134.33
1027.608	1120.55
1027.898	1102.92
1028.187	1080.78
1028.477	1090.04
1028.766	1088.91
1029.055	1079.65
1029.344	1053.88
1029.634	1071.51
1029.923	1078.29
1030.212	1052.08
1030.501	1034.22
1030.79	1034.22
1031.078	1029.7
1031.367	1005.3
1031.656	1013.66
1031.945	1020.44
1032.233	1029.93
1032.522	1001
1032.81	1010.27
1033.099	981.12
1033.387	985.86
1033.675	969.37
1033.963	971.63
1034.251	966.88
1034.54	946.09
1034.828	943.38
1035.116	965.75
1035.403	946.99
1035.691	940.89
1035.979	914.45
1036.267	907.9
1036.554	899.31
1036.842	903.15
1037.129	886.88
1037.417	880.1
1037.704	898.41
1037.992	892.76
1038.279	882.82
1038.566	881.91
1038.853	881.91
1039.14	881.91
