Data from plate_porcelain_FLMS001491_096.txt Node
Date: Tue Feb 07 11:20:13 GMT 2017
User: dcchb
Spectrometer: FLMS00149
Trigger mode: 0
Integration Time (sec): 2.000000E-2
Scans to average: 10
Electric dark correction enabled: true
Nonlinearity correction enabled: false
Boxcar width: 0
XAxis mode: Wavelengths
Number of Pixels in Spectrum: 2048
>>>>>Begin Spectral Data<<<<<
341.393	-36.02
341.776	-36.02
342.16	-36.02
342.543	-75.11
342.927	-51.61
343.31	-60.87
343.693	-84.38
344.077	-72.85
344.46	-65.39
344.843	-39.41
345.226	-43.93
345.61	-29.91
345.993	-21.33
346.376	-1.21
346.759	-4.15
347.142	5.56
347.525	55.28
347.908	56.18
348.291	70.87
348.674	110.87
349.057	124.66
349.44	133.7
349.823	145
350.206	176.41
350.588	218.21
350.971	228.84
351.354	260.93
351.737	257.31
352.119	260.02
352.502	295.95
352.884	301.38
353.267	317.42
353.65	356.97
354.032	341.83
354.414	329.85
354.797	346.8
355.179	337.53
355.562	364.88
355.944	357.42
356.326	390.64
356.709	382.5
357.091	373.24
357.473	376.18
357.855	380.92
358.238	409.62
358.62	394.26
359.002	399
359.384	373.46
359.766	391.77
360.148	396.51
360.53	408.94
360.912	380.7
361.294	376.63
361.676	388.61
362.057	372.33
362.439	388.38
362.821	392.9
363.203	381.15
363.584	379.79
363.966	375.72
364.348	403.29
364.729	381.15
365.111	375.5
365.493	390.87
365.874	375.05
366.256	377.53
366.637	381.6
367.019	378.21
367.4	389.96
367.781	407.59
368.163	401.94
368.544	406.01
368.925	384.31
369.306	403.75
369.688	413.92
370.069	393.58
370.45	396.06
370.831	403.97
371.212	399.23
371.593	410.07
371.974	398.1
372.355	415.72
372.736	427.47
373.117	417.08
373.498	426.8
373.879	410.53
374.26	417.31
374.641	414.59
375.021	407.36
375.402	451.88
375.783	459.34
376.163	454.82
376.544	465.67
376.925	463.41
377.305	478.77
377.686	450.98
378.066	459.79
378.447	483.74
378.827	489.85
379.208	459.11
379.588	481.94
379.968	491.2
380.349	496.63
380.729	505.44
381.109	492.33
381.489	533.23
381.87	518.09
382.25	508.6
382.63	503.63
383.01	526
383.39	529.62
383.77	531.65
384.15	526.91
384.53	551.31
384.91	537.08
385.29	549.96
385.67	578.43
386.049	594.93
386.429	560.35
386.809	573.91
387.189	585.21
387.568	582.27
387.948	611.42
388.328	614.59
388.707	601.93
389.087	616.85
389.466	618.88
389.846	633.57
390.225	641.71
390.605	661.59
390.984	662.27
391.363	650.97
391.743	660.91
392.122	671.99
392.501	707.69
392.881	710.41
393.26	719.9
393.639	716.28
394.018	738.88
394.397	695.94
394.776	738.88
395.155	734.81
395.534	750.86
395.913	755.83
396.292	741.14
396.671	781.82
397.05	775.26
397.429	817.07
397.808	768.48
398.186	801.25
398.565	824.3
398.944	827.69
399.323	835.37
399.701	826.79
400.08	853.45
400.458	857.97
400.837	859.78
401.215	853.9
401.594	909.72
401.972	900.23
402.351	889.38
402.729	888.03
403.107	934.13
403.486	934.13
403.864	935.71
404.242	954.24
404.62	976.61
404.999	967.8
405.377	1007.35
405.755	1013.22
406.133	1021.13
406.511	1031.53
406.889	1045.31
407.267	1048.48
407.645	1059.55
408.023	1123.28
408.401	1106.33
408.779	1117.63
409.156	1138.87
409.534	1152.88
409.912	1168.02
410.29	1174.8
410.667	1197.85
411.045	1216.61
411.422	1217.06
411.8	1246.89
412.178	1276.94
412.555	1298.64
412.933	1278.98
413.31	1314.23
413.687	1343.83
414.065	1377.96
414.442	1371.18
414.819	1400.33
415.197	1400.56
415.574	1427.45
415.951	1457.05
416.328	1443.72
416.705	1459.31
417.082	1480.78
417.46	1474.9
417.837	1521.23
418.214	1521.01
418.591	1584.28
418.967	1572.98
419.344	1593.77
419.721	1620.89
420.098	1624.96
420.475	1624.96
420.852	1636.71
421.228	1664.96
421.605	1685.97
421.982	1739.08
422.358	1748.12
422.735	1757.61
423.111	1781.56
423.488	1775.24
423.864	1767.78
424.241	1831.51
424.617	1834.67
424.994	1863.14
425.37	1900.2
425.746	1895.91
426.123	1923.03
426.499	1970.03
426.875	1988.11
427.251	1993.31
427.627	2080.76
428.003	2050.93
428.379	2119.63
428.756	2131.38
429.132	2148.11
429.507	2187.65
429.883	2217.71
430.259	2248.22
430.635	2290.48
431.011	2273.08
431.387	2338.84
431.763	2402.11
432.138	2398.72
432.514	2470.58
432.89	2471.04
433.265	2510.58
433.641	2563.92
434.016	2620.64
434.392	2600.3
434.767	2718.71
435.143	2659.28
435.518	2718.71
435.894	2759.16
436.269	2755.1
436.644	2842.1
437.02	2874.42
437.395	2854.98
437.77	2891.82
438.145	2960.29
438.52	2974.53
438.895	3018.37
439.271	3006.62
439.646	3098.36
440.021	3130.23
440.395	3111.7
440.77	3118.7
441.145	3146.73
441.52	3218.14
441.895	3200.51
442.27	3260.39
442.645	3295.87
443.019	3362.76
443.394	3318.92
443.769	3357.57
444.143	3357.79
444.518	3419.49
444.892	3372.48
445.267	3454.29
445.641	3488.19
446.016	3541.52
446.39	3546.04
446.764	3548.97
447.139	3545.58
447.513	3627.16
447.887	3667.16
448.262	3689.54
448.636	3714.85
449.01	3715.52
449.384	3782.19
449.758	3859.47
450.132	3862.41
450.506	3859.02
450.88	3889.08
451.254	3920.26
451.628	3958.46
452.002	4052.01
452.376	4092.01
452.75	4118.9
453.123	4193.7
453.497	4239.58
453.871	4277.77
454.244	4384.88
454.618	4406.58
454.992	4443.87
455.365	4445.9
455.739	4536.97
456.112	4671.2
456.486	4645.89
456.859	4698.55
457.232	4824.2
457.606	4781.26
457.979	4892.44
458.352	4955.72
458.725	5044.3
459.099	5105.09
459.472	5214.69
459.845	5217.86
460.218	5299.89
460.591	5390.51
460.964	5344.86
461.337	5515.48
461.71	5564.74
462.083	5616.72
462.456	5658.07
462.829	5731.97
463.201	5811.06
463.574	5869.59
463.947	5951.17
464.32	6103.71
464.692	6128.34
465.065	6183.93
465.438	6286.08
465.81	6399.52
466.183	6436.36
466.555	6594.09
466.928	6632.51
467.3	6642.68
467.672	6789.79
468.045	6922.67
468.417	6950.69
468.789	6986.85
469.161	7126.51
469.534	7165.83
469.906	7406.05
470.278	7401.53
470.65	7526.27
471.022	7781.86
471.394	7813.5
471.766	7942.76
472.138	7980.27
472.51	8201.06
472.882	8373.25
473.253	8400.6
473.625	8555.85
473.997	8748.61
474.369	8845.11
474.74	8918.32
475.112	9053.01
475.484	9227.92
475.855	9417.07
476.227	9460.91
476.598	9721.02
476.97	9831.97
477.341	10051.18
477.713	10253.66
478.084	10256.14
478.455	10577.94
478.827	10722.57
479.198	10958.95
479.569	10991.49
479.94	11379.73
480.311	11390.8
480.682	11737.23
481.053	11969.09
481.424	12214.28
481.795	12262.19
482.166	12471.68
482.537	12642.52
482.908	12917.54
483.279	13067.37
483.65	13260.58
484.021	13620.12
484.391	13729.05
484.762	13811.08
485.133	13934.46
485.503	14316.37
485.874	14496.94
486.244	14705.74
486.615	15024.83
486.985	15169.91
487.356	15474.31
487.726	15572.84
488.097	15947.97
488.467	15868.2
488.837	16311.8
489.207	16545.02
489.578	16713.15
489.948	16968.73
490.318	17147.94
490.688	17254.38
491.058	17584.54
491.428	17703.86
491.798	17967.13
492.168	18254.58
492.538	18368.7
492.908	18569.82
493.278	18841.23
493.648	18876.03
494.017	19208.68
494.387	19310.82
494.757	19488.44
495.126	19711.49
495.496	19828.32
495.866	20062.89
496.235	20260.85
496.605	20546.49
496.974	20523.22
497.344	20682.31
497.713	20946.48
498.082	21207.27
498.452	21343.99
498.821	21381.73
499.19	21506.92
499.559	21710.08
499.928	21953.69
500.298	21971.09
500.667	22313.9
501.036	22276.17
501.405	22512.77
501.774	22701.01
502.143	22790.05
502.512	23019.42
502.88	23168.12
503.249	23145.3
503.618	23456.02
503.987	23577.6
504.356	23697.6
504.724	23809.91
505.093	24062.79
505.462	24179.84
505.83	24306.62
506.199	24483.11
506.567	24815.99
506.936	24755.87
507.304	25179.37
507.672	25230.89
508.041	25456.2
508.409	25502.97
508.777	25808.95
509.145	26050.53
509.514	26163.07
509.882	26150.87
510.25	26377.07
510.618	26644.19
510.986	26570.29
511.354	26920.79
511.722	27246.66
512.09	27375.47
512.458	27595.12
512.826	27644.84
513.193	27880.99
513.561	28032.62
513.929	28325.05
514.297	28609.78
514.664	28769.1
515.032	28791.47
515.4	29149.66
515.767	29407.96
516.135	29562.3
516.502	29340.61
516.869	30003.65
517.237	30002.74
517.604	30091.55
517.972	30446.8
518.339	30699.45
518.706	30758.2
519.073	30902.15
519.44	31218.08
519.808	31571.97
520.175	31645.41
520.542	31951.17
520.909	32302.79
521.276	32267.32
521.643	32557.7
522.009	32906.62
522.376	33161.76
522.743	33426.15
523.11	33743.21
523.477	34108.17
523.843	34200.37
524.21	34473.36
524.577	34687.59
524.943	34971.65
525.31	35159.44
525.676	35571.18
526.043	35600.56
526.409	35848.24
526.776	36301.79
527.142	36424.95
527.508	36719.63
527.874	36944.71
528.241	37094.76
528.607	37391.93
528.973	37683.44
529.339	37567.29
529.705	38057.22
530.071	38385.8
530.437	38545.79
530.803	38912.56
531.169	38995.95
531.535	39140.13
531.901	39201.14
532.267	39372.67
532.632	39658.08
532.998	39768.59
533.364	40039.99
533.73	40270.95
534.095	40470.94
534.461	40632.97
534.826	40837.49
535.192	40911.38
535.557	41308.66
535.923	41383.91
536.288	41438.37
536.653	41665.94
537.019	41679.5
537.384	41831.81
537.749	41991.13
538.114	42037.68
538.479	42328.29
538.845	42464.11
539.21	42521.28
539.575	42771.22
539.94	42967.6
540.305	43095.51
540.67	43071.78
541.034	43307.03
541.399	43506.34
541.764	43536.85
542.129	43754.7
542.494	43836.05
542.858	44206.44
543.223	44118.76
543.587	44377.05
543.952	44400.1
544.316	44621.11
544.681	44692.3
545.045	44908.56
545.41	45249.57
545.774	45119.41
546.138	45128.45
546.503	45477.82
546.867	45412.73
547.231	45668.32
547.595	45733.85
547.959	46019.5
548.324	45900.86
548.688	46096.33
549.052	46367.06
549.416	46424.46
549.779	46424.01
550.143	46676.88
550.507	46863.99
550.871	47066.93
551.235	47118.9
551.599	47415.17
551.962	47418.56
552.326	47522.06
552.689	47811.31
553.053	47684.99
553.417	47910.75
553.78	48277.06
554.143	48203.62
554.507	48414.01
554.87	48520.22
555.234	48874.79
555.597	48798.41
555.96	49013.09
556.323	49190.71
556.686	49143.48
557.05	49469.35
557.413	49482.68
557.776	49737.82
558.139	49984.36
558.502	49983.46
558.865	50100.52
559.228	50400.4
559.59	50447.18
559.953	50593.39
560.316	50874.96
560.679	50843.55
561.041	51174.39
561.404	51220.72
561.767	51416.64
562.129	51465.91
562.492	51723.08
562.854	51716.52
563.217	51780.7
563.579	51892.56
563.941	52179.11
564.304	52307.69
564.666	52506.33
565.028	52604.41
565.39	52759.21
565.753	52875.81
566.115	52914.91
566.477	53172.75
566.839	53145.41
567.201	53442.8
567.563	53404.61
567.925	53543.59
568.287	53685.28
568.648	53747.65
569.01	53831.04
569.372	54098.38
569.734	53998.04
570.095	54208.66
570.457	54362.1
570.819	54357.13
571.18	54426.28
571.542	54537.24
571.903	54588.08
572.265	54728.87
572.626	54835.99
572.987	54869.43
573.349	54959.83
573.71	54985.36
574.071	55147.84
574.432	55177.67
574.794	55362.3
575.155	55410.89
575.516	55321.4
575.877	55493.6
576.238	55516.87
576.599	55628.28
576.96	55587.15
577.32	55672.58
577.681	55763.87
578.042	55794.38
578.403	55845.9
578.763	55900.59
579.124	55947.14
579.485	56016.3
579.845	56084.32
580.206	56061.94
580.566	56162.05
580.927	56103.98
581.287	56246.57
581.648	56127.93
582.008	56267.36
582.368	56221.71
582.728	56326.57
583.089	56213.13
583.449	56265.1
583.809	56352.56
584.169	56413.57
584.529	56283.63
584.889	56444.08
585.249	56302.39
585.609	56196.4
585.969	56425.78
586.329	56284.31
586.688	56393.69
587.048	56329.28
587.408	56314.37
587.768	56332.67
588.127	56341.48
588.487	56310.53
588.846	56504.42
589.206	56348.04
589.565	56349.85
589.925	56522.5
590.284	56461.71
590.643	56461.03
591.003	56510.97
591.362	56525.89
591.721	56466.91
592.08	56478.2
592.44	56614.02
592.799	56582.16
593.158	56529.95
593.517	56552.55
593.876	56617.41
594.235	56488.83
594.593	56654.02
594.952	56686.11
595.311	56597.07
595.67	56678.2
596.029	56733.79
596.387	56814.01
596.746	56743.28
597.104	56744.41
597.463	56711.64
597.822	56804.75
598.18	56728.59
598.538	56686.79
598.897	56901.24
599.255	56661.02
599.613	57033.9
599.972	56823.96
600.33	56927.23
600.688	56858.99
601.046	56947.8
601.404	57100.79
601.762	56990.96
602.12	57103.5
602.478	57105.08
602.836	57090.39
603.194	56935.14
603.552	57068.92
603.91	56928.81
604.268	57098.07
604.625	57056.04
604.983	57156.15
605.341	57094.69
605.698	57172.2
606.056	57310.05
606.413	57245.87
606.771	57388.91
607.128	57378.52
607.485	57247.68
607.843	57292.87
608.2	57435.69
608.557	57513.88
608.914	57398.18
609.272	57598.4
609.629	57519.31
609.986	57623.48
610.343	57579.19
610.7	57723.6
611.057	57687.66
611.414	57651.28
611.771	57761.33
612.127	57816.47
612.484	57788.45
612.841	57858.28
613.198	57786.19
613.554	57828.45
613.911	57953.42
614.267	57874.78
614.624	57884.27
614.98	57936.24
615.337	58082.46
615.693	58064.6
616.05	57967.43
616.406	58134.88
616.762	58054.43
617.118	58058.95
617.475	58080.65
617.831	58114.32
618.187	58129.69
618.543	58141.66
618.899	58284.48
619.255	58223.24
619.611	58212.85
619.967	58293.52
620.323	58362
620.678	58233.64
621.034	58152.96
621.39	58222.79
621.746	58232.28
622.101	58497.36
622.457	58257.14
622.812	58336.01
623.168	58427.08
623.523	58352.73
623.879	58440.86
624.234	58285.84
624.589	58425.27
624.945	58347.53
625.3	58370.81
625.655	58341.66
626.01	58351.15
626.365	58328.33
626.72	58418.04
627.075	58345.05
627.43	58354.77
627.785	58260.53
628.14	58286.29
628.495	58281.32
628.85	58210.36
629.205	58160.65
629.559	58288.1
629.914	58194.54
630.269	58225.28
630.623	58187.99
630.978	58106.18
631.332	58220.08
631.687	58209.01
632.041	58083.59
632.396	58182.11
632.75	58070.03
633.104	58059.41
633.459	57910.26
633.813	57948.22
634.167	57938.28
634.521	57865.51
634.875	57978.73
635.229	57891.5
635.583	57755.46
635.937	57745.29
636.291	57729.24
636.645	57700.09
636.999	57678.85
637.352	57739.41
637.706	57613.77
638.06	57701.9
638.413	57595.91
638.767	57539.87
639.121	57577.38
639.474	57466.2
639.828	57457.84
640.181	57531.51
640.534	57426.88
640.888	57298.52
641.241	57304.4
641.594	57323.38
641.947	57324.96
642.301	57301.91
642.654	57239.77
643.007	57264.17
643.36	57233.44
643.713	57134.46
644.066	57255.81
644.419	57135.36
644.771	56939.89
645.124	56687.92
645.477	56593.23
645.83	56466.23
646.182	56294.71
646.535	56211.54
646.888	56227.36
647.24	56160.25
647.593	56351.65
647.945	56247.25
648.298	56109.63
648.65	55941.27
649.002	55907.82
649.355	56056.75
649.707	55980.14
650.059	56118.89
650.411	56433.23
650.763	56386.46
651.115	56705.09
651.467	56491.54
651.819	56545.55
652.171	56465.32
652.523	56336.29
652.875	56418.54
653.227	56269.85
653.578	56494.25
653.93	56261.49
654.282	56167.7
654.633	56168.61
654.985	56230.53
655.337	56247.93
655.688	56240.7
656.039	56287.25
656.391	56054.03
656.742	56037.31
657.094	56129.06
657.445	56208.61
657.796	56111.43
658.147	56091.55
658.498	56048.61
658.849	56082.51
659.2	56017.88
659.551	55978.1
659.902	56126.58
660.253	56017.65
660.604	56022.85
660.955	55859.92
661.306	55952.57
661.656	55906.02
662.007	55904.43
662.358	55878.45
662.708	55883.87
663.059	55874.38
663.409	55688.17
663.76	55909.18
664.11	55856.07
664.461	55824.44
664.811	55762.52
665.161	55729.98
665.511	55746.25
665.862	55780.6
666.212	55871.89
666.562	55797.77
666.912	55717.77
667.262	55733.14
667.612	55759.13
667.962	55760.03
668.312	55687.04
668.662	55846.58
669.011	55664.44
669.361	55706.25
669.711	55658.79
670.06	55616.08
670.41	55610.2
670.76	55500.15
671.109	55691.56
671.459	55568.17
671.808	55512.35
672.157	55667.83
672.507	55439.59
672.856	55436.2
673.205	55498.57
673.554	55489.98
673.904	55383.77
674.253	55504.44
674.602	55408.63
674.951	55047.51
675.3	54913.5
675.649	55358.69
675.998	55273.94
676.346	55327.05
676.695	55396.2
677.044	55164.34
677.393	55147.62
677.741	55221.51
678.09	55246.15
678.438	55151.46
678.787	55220.16
679.135	55230.1
679.484	54990.56
679.832	55101.52
680.181	54947.4
680.529	54960.05
680.877	54875.53
681.225	54940.17
681.573	55075.98
681.922	54864.01
682.27	54735.2
682.618	54746.95
682.966	54628.31
683.314	54667.18
683.661	54627.18
684.009	54470.35
684.357	54379.5
684.705	54430.35
685.053	54399.84
685.4	54275.78
685.748	54268.32
686.095	54115.78
686.443	53986.74
686.79	54034.43
687.138	54103.8
687.485	54037.59
687.832	53958.04
688.18	53905.62
688.527	53774.77
688.874	53656.36
689.221	53586.08
689.568	53604.16
689.915	53544.04
690.262	53524.38
690.609	53502.92
690.956	53278.74
691.303	53309.25
691.65	53154.45
691.997	53126.88
692.344	52908.58
692.69	52947.22
693.037	52987.67
693.383	52701.58
693.73	52856.15
694.077	52565.54
694.423	52630.62
694.769	52437.63
695.116	52475.6
695.462	52501.13
695.808	52345.43
696.155	52380.23
696.501	52107.25
696.847	52102.5
697.193	51845.56
697.539	51962.62
697.885	51723.08
698.231	51699.8
698.577	51633.81
698.923	51572.34
699.269	51406.02
699.614	51216.2
699.96	51233.6
700.306	51280.15
700.651	51109.53
700.997	51023.21
701.342	50964.22
701.688	50840.16
702.033	50677
702.379	50575.76
702.724	50451.92
703.069	50618.47
703.415	50195.66
703.76	50275.66
704.105	50168.77
704.45	50087.86
704.795	49841.32
705.14	49861.2
705.485	49870.47
705.83	49581.21
706.175	49722.68
706.52	49602
706.865	49559.74
707.209	49455.79
707.554	49338.96
707.899	49418.05
708.243	49169.7
708.588	49075.01
708.932	48988.01
709.277	48890.83
709.621	48835.69
709.966	48646.09
710.31	48693.78
710.654	48330.17
710.998	48359.77
711.342	48480.9
711.687	48252.66
712.031	48090.18
712.375	48056.96
712.719	47990.74
713.063	47924.53
713.407	47922.95
713.75	47752.11
714.094	47713.46
714.438	47570.87
714.782	47677.98
715.125	47397.54
715.469	47370.65
715.812	47255.62
716.156	47131.33
716.499	46995.97
716.843	47055.4
717.186	46773.6
717.53	46963.88
717.873	46937.89
718.216	46943.54
718.559	46725.69
718.902	46509.88
719.246	46758.23
719.589	46444.12
719.932	46407.28
720.275	46275.99
720.617	46372.26
720.96	46103.79
721.303	46119.38
721.646	46134.3
721.989	45958.03
722.331	46000.51
722.674	45884.36
723.016	45980.63
723.359	45848.43
723.701	45934.07
724.044	45569.79
724.386	45394.43
724.729	45579.51
725.071	45293.19
725.413	45341.55
725.755	45274.66
726.097	45099.75
726.439	44764.84
726.782	44967.77
727.124	45189.69
727.465	44839.87
727.807	44779.75
728.149	44763.03
728.491	44579.76
728.833	44808
729.175	44572.98
729.516	44371.4
729.858	44438.52
730.199	44394.68
730.541	44322.37
730.882	44250.73
731.224	44386.09
731.565	44030.4
731.906	44179.77
732.248	44044.63
732.589	43941.36
732.93	43778.65
733.271	43795.6
733.612	43829.72
733.953	43672.89
734.294	43663.85
734.635	43473.57
734.976	43465.44
735.317	43177.99
735.658	43356.97
735.999	43232
736.339	43147.93
736.68	43292.11
737.021	43147.26
737.361	42757.89
737.702	43187.71
738.042	42878.56
738.383	42761.05
738.723	42844.44
739.063	42646.93
739.404	42792.46
739.744	42630.43
740.084	42540.72
740.424	42714.5
740.764	42480.15
741.104	42607.16
741.444	42158.81
741.784	42074.52
742.124	42143.89
742.464	42115.87
742.804	41996.1
743.143	41908.42
743.483	42014.86
743.823	41615.32
744.162	41677.69
744.502	41826.84
744.841	41473.18
745.181	41730.34
745.52	41494.19
745.86	41512.04
746.199	41547.07
746.538	41344.59
746.877	41395.21
747.216	41246.51
747.556	41103.92
747.895	41100.98
748.234	40776.02
748.573	40758.17
748.911	40829.35
749.25	40897.14
749.589	40602.24
749.928	40670.94
750.267	40715.91
750.605	40454.44
750.944	40376.93
751.283	40137.39
751.621	40246.77
751.96	40084.29
752.298	40127.9
752.636	40188.92
752.975	39908.02
753.313	39885.42
753.651	39787.12
753.989	39534.69
754.327	39635.26
754.666	39267.58
755.004	39401.14
755.342	39562.26
755.679	39404.53
756.017	39085.89
756.355	39289.28
756.693	38947.14
757.031	39034.82
757.368	38832.11
757.706	38717.99
758.044	38577.88
758.381	38569.07
758.719	38436.87
759.056	38559.13
759.394	38352.58
759.731	38215.41
760.068	38079.37
760.405	37838.92
760.743	37817.45
761.08	37830.33
761.417	37525.71
761.754	37367.75
762.091	37493.84
762.428	37407.97
762.765	37072.16
763.102	37238.71
763.438	36911.71
763.775	36776.8
764.112	36728.44
764.449	36690.02
764.785	36549.24
765.122	36309.47
765.458	36211.84
765.795	36180.66
766.131	36214.1
766.467	35996.93
766.804	35740.9
767.14	35687.56
767.476	35602.82
767.812	35460
768.148	35461.81
768.485	35230.18
768.821	34992.89
769.157	35097.75
769.492	34906.34
769.828	34891.43
770.164	34448.28
770.5	34506.35
770.836	34501.15
771.171	34260.94
771.507	34198.34
771.842	33959.93
772.178	33933.71
772.513	34021.17
772.849	33868.4
773.184	33733.49
773.519	33771.23
773.855	33542.31
774.19	33386.16
774.525	33135.32
774.86	33082.89
775.195	32972.83
775.53	33031.59
775.865	32684.93
776.2	32401.1
776.535	32344.15
776.87	32322.91
777.205	32261.44
777.539	32095.79
777.874	32140.99
778.209	31929.25
778.543	31805.86
778.878	31636.82
779.212	31531.52
779.547	31305.76
779.881	31573.32
780.215	31216.5
780.55	31302.14
780.884	31018.31
781.218	31012.66
781.552	31010.4
781.886	30799.56
782.22	30583.74
782.554	30524.54
782.888	30186.47
783.222	30113.25
783.556	30022.63
783.889	29939.92
784.223	29897.43
784.557	29735.63
784.89	29706.03
785.224	29547.39
785.557	29448.18
785.891	29345.81
786.224	29229.2
786.558	29147.17
786.891	28837.8
787.224	28802.55
787.557	28837.12
787.891	28696.11
788.224	28670.35
788.557	28731.36
788.89	28499.73
789.223	28452.5
789.556	28300.64
789.888	28142.9
790.221	28135.45
790.554	27962.57
790.887	27860.2
791.219	27752.63
791.552	27520.77
791.884	27568
792.217	27558.29
792.549	27283.94
792.882	27224.51
793.214	27130.5
793.546	27152.65
793.879	26980
794.211	26730.51
794.543	26755.37
794.875	26684.86
795.207	26693.68
795.539	26564.41
795.871	26599.44
796.203	26354.7
796.535	26267.7
796.867	26189.06
797.198	26146.8
797.53	26009.85
797.862	25865
798.193	25884.66
798.525	25699.58
798.856	25753.14
799.188	25490.54
799.519	25403.99
799.85	25301.4
800.182	25299.59
800.513	25351.79
800.844	25078.35
801.175	25220.5
801.506	25239.93
801.837	24935.3
802.168	24909.99
802.499	24898.47
802.83	24744.35
803.161	24635.2
803.491	24611.25
803.822	24552.72
804.153	24458.93
804.483	24340.97
804.814	24214.19
805.145	24208.09
805.475	24115.44
805.805	24010.81
806.136	24078.6
806.466	24087.42
806.796	23945.95
807.126	23706.64
807.457	23605.4
807.787	23674.55
808.117	23569.24
808.447	23525.62
808.777	23556.13
809.107	23379.41
809.436	23425.74
809.766	23287.66
810.096	23222.13
810.426	23192.53
810.755	22991.63
811.085	23012.19
811.414	23010.84
811.744	22856.72
812.073	22749.6
812.403	22578.76
812.732	22659.66
813.061	22618.98
813.39	22450.62
813.719	22440.91
814.049	22599.77
814.378	22410.17
814.707	22264.41
815.036	22254.92
815.365	22088.37
815.693	21887.93
816.022	22080.69
816.351	21948.72
816.68	21847.02
817.008	21960.92
817.337	21600.25
817.665	21613.36
817.994	21721.38
818.322	21706.69
818.651	21536.52
818.979	21422.85
819.307	21580.82
819.636	21453.81
819.964	21301.5
820.292	21394.15
820.62	21367.26
820.948	21138.79
821.276	21381.27
821.604	21261.96
821.932	21306.7
822.259	21372.46
822.587	21364.78
822.915	21188.96
823.243	21289.07
823.57	21187.15
823.898	21183.31
824.225	21130.66
824.553	21213.37
824.88	21177.21
825.207	21229.19
825.535	21244.33
825.862	21259.02
826.189	21119.59
826.516	21170.21
826.843	21339.47
827.17	21242.97
827.497	21324.55
827.824	21289.98
828.151	21338.56
828.478	21179.7
828.805	21232.8
829.131	21148.06
829.458	21110.55
829.785	20948.29
830.111	21083.43
830.438	21206.36
830.764	21095.41
831.09	21169.75
831.417	21033.71
831.743	21064.67
832.069	21000.72
832.395	20892.47
832.722	20927.5
833.048	20961.62
833.374	20935.64
833.7	20772.25
834.026	20935.41
834.351	20869.87
834.677	20854.73
835.003	20893.15
835.329	20933.83
835.654	20877.33
835.98	20665.36
836.306	20720.5
836.631	20662.42
836.956	20715.08
837.282	20825.13
837.607	20563.89
837.932	20593.5
838.258	20663.78
838.583	20481.64
838.908	20287.74
839.233	20445.03
839.558	20499.04
839.883	20289.78
840.208	20210.23
840.533	20261.3
840.858	20240.06
841.182	20362.77
841.507	20236.45
841.832	20089.56
842.156	20060.63
842.481	20059.27
842.805	20022.89
843.13	19969.56
843.454	19784.71
843.778	19790.81
844.103	19744.48
844.427	19642.11
844.751	19771.15
845.075	19654.54
845.399	19590.36
845.723	19449.35
846.047	19534.54
846.371	19366.64
846.695	19378.16
847.019	19105.18
847.343	18950.6
847.666	18969.81
847.99	18895.24
848.313	18823.15
848.637	18631.74
848.96	18589.71
849.284	18645.98
849.607	18507.45
849.931	18582.25
850.254	18453.44
850.577	18346.33
850.9	18225.2
851.223	18238.98
851.546	18117.63
851.869	17951.76
852.192	18059.1
852.515	17837.86
852.838	17829.5
853.161	17945.88
853.483	17692.56
853.806	17589.28
854.129	17696.63
854.451	17535.5
854.774	17491.66
855.096	17408.05
855.419	17332.34
855.741	17335.05
856.063	17213.47
856.385	17134.83
856.708	17072.01
857.03	17073.14
857.352	17046.7
857.674	17002.18
857.996	16933.71
858.318	16746.82
858.64	16786.82
858.961	16761.96
859.283	16721.74
859.605	16540.5
859.926	16676.76
860.248	16552.02
860.57	16466.6
860.891	16589.99
861.212	16423.66
861.534	16271.35
861.855	16362.87
862.176	16352.25
862.498	16285.81
862.819	16292.14
863.14	16182.77
863.461	16127.85
863.782	16139.6
864.103	16219.83
864.424	16136.44
864.745	16114.52
865.065	16033.62
865.386	15939.61
865.707	15956.33
866.027	16015.77
866.348	15994.3
866.668	15961.53
866.989	15876.33
867.309	15776.9
867.63	15736.68
867.95	15754.08
868.27	15627.53
868.59	15723.8
868.91	15698.71
869.23	15685.38
869.55	15612.16
869.87	15695.1
870.19	15559.73
870.51	15651.26
870.83	15554.99
871.15	15464.37
871.469	15443.58
871.789	15460.53
872.109	15477.93
872.428	15425.72
872.748	15373.97
873.067	15310.93
873.386	15400.19
873.706	15330.36
874.025	15228.67
874.344	15223.47
874.663	15183.02
874.982	15262.56
875.301	15225.05
875.62	15036.58
875.939	15072.74
876.258	15047.2
876.577	15020.99
876.896	15027.77
877.214	14916.59
877.533	14949.35
877.852	15012.4
878.17	14917.04
878.489	14913.2
878.807	14868.22
879.125	14833.42
879.444	14816.93
879.762	14811.05
880.08	14774.44
880.398	14707.1
880.716	14737.83
881.034	14659.87
881.352	14602.02
881.67	14560.44
881.988	14644.95
882.306	14579.64
882.624	14574.9
882.941	14428.01
883.259	14400.21
883.577	14367.22
883.894	14348.24
884.212	14263.5
884.529	14236.6
884.846	14191.63
885.164	14236.83
885.481	14178.07
885.798	14206.1
886.115	14109.37
886.432	13962.94
886.75	13989.83
887.067	14041.35
887.383	13959.32
887.7	13996.38
888.017	13923.39
888.334	13940.57
888.651	13897.63
888.967	13783.51
889.284	13771.98
889.6	13791.19
889.917	13716.16
890.233	13663.28
890.55	13648.14
890.866	13604.3
891.182	13514.36
891.498	13493.8
891.815	13431.2
892.131	13349.62
892.447	13398.21
892.763	13322.5
893.079	13331.54
893.395	13284.09
893.71	13218.32
894.026	13214.71
894.342	13137.65
894.657	13111.21
894.973	13059.91
895.289	13015.39
895.604	12993.25
895.92	12844.1
896.235	12826.24
896.55	12839.13
896.865	12837.54
897.181	12727.94
897.496	12737.89
897.811	12726.13
898.126	12746.92
898.441	12615.4
898.756	12556.87
899.071	12553.94
899.386	12511.45
899.7	12384
900.015	12325.47
900.33	12256.99
900.644	12351
900.959	12283.66
901.273	12168.18
901.588	12132.48
901.902	12099.71
902.216	12056.32
902.531	11975.65
902.845	11960.5
903.159	11881.86
903.473	11818.36
903.787	11772.49
904.101	11699.72
904.415	11689.1
904.729	11651.81
905.042	11663.79
905.356	11594.64
905.67	11589.44
905.984	11532.72
906.297	11483.46
906.611	11522.55
906.924	11398.26
907.237	11346.96
907.551	11304.48
907.864	11236
908.177	11221.54
908.491	11232.84
908.804	11107.87
909.117	11017.7
909.43	10956.01
909.743	10916.69
910.056	10909.91
910.368	10874.66
910.681	10810.93
910.994	10706.53
911.307	10736.81
911.619	10713.31
911.932	10737.03
912.244	10628.79
912.557	10575.91
912.869	10510.37
913.181	10429.47
913.494	10413.65
913.806	10357.83
914.118	10402.35
914.43	10367.78
914.742	10371.62
915.054	10281
915.366	10201.91
915.678	10135.92
915.99	10095.92
916.302	9983.16
916.613	10012.31
916.925	9997.17
917.236	9879.43
917.548	9873.1
917.859	9903.38
918.171	9822.93
918.482	9726.67
918.794	9705.2
919.105	9725.76
919.416	9676.5
919.727	9551.98
920.038	9539.1
920.349	9448.25
920.66	9508.14
920.971	9444.64
921.282	9381.59
921.593	9302.5
921.903	9316.51
922.214	9270.18
922.525	9250.07
922.835	9148.83
923.146	9158.09
923.456	9095.95
923.767	9110.41
924.077	9069.28
924.387	8942.5
924.697	8900.7
925.008	8937.99
925.318	8803.3
925.628	8814.82
925.938	8767.59
926.248	8746.8
926.558	8766.69
926.867	8693.02
927.177	8675.39
927.487	8597.66
927.796	8511.33
928.106	8461.84
928.416	8437.21
928.725	8464.1
929.034	8419.81
929.344	8383.42
929.653	8398.79
929.962	8300.71
930.271	8275.86
930.581	8222.52
930.89	8124.67
931.199	8219.13
931.508	8153.37
931.817	8114.73
932.125	8016.88
932.434	8007.84
932.743	7910.22
933.051	7884
933.36	7908.18
933.669	7889.43
933.977	7799.03
934.286	7765.13
934.594	7759.26
934.902	7691.24
935.21	7662.54
935.519	7634.29
935.827	7691.01
936.135	7532.37
936.443	7523.56
936.751	7503.67
937.059	7509.77
937.367	7469.1
937.674	7444.47
937.982	7341.87
938.29	7330.34
938.597	7349.33
938.905	7287.18
939.213	7297.8
939.52	7182.33
939.827	7226.84
940.135	7129.9
940.442	7147.75
940.749	7093.97
941.056	7075.21
941.363	7024.82
941.67	6956.34
941.977	6993.63
942.284	6896.68
942.591	6917.47
942.898	6897.81
943.205	6866.18
943.511	6838.38
943.818	6825.95
944.125	6705.05
944.431	6717.48
944.738	6669.8
945.044	6655.11
945.35	6659.4
945.657	6625.28
945.963	6570.14
946.269	6571.27
946.575	6528.33
946.881	6484.04
947.187	6435.68
947.493	6420.09
947.799	6424.61
948.105	6351.84
948.41	6366.08
948.716	6341.22
949.022	6301.9
949.327	6247.43
949.633	6157.95
949.938	6233.65
950.244	6193.2
950.549	6138.51
950.854	6051.96
951.16	6108.91
951.465	6033.43
951.77	6031.17
952.075	6034.33
952.38	5977.84
952.685	6036.37
952.99	5868.24
953.294	5921.79
953.599	5877.05
953.904	5818.07
954.209	5819.65
954.513	5803.83
954.818	5742.36
955.122	5747.79
955.426	5694.45
955.731	5653.78
956.035	5585.53
956.339	5600.45
956.643	5617.85
956.948	5571.29
957.252	5607.9
957.556	5624.63
957.86	5497.85
958.163	5497.4
958.467	5461.47
958.771	5479.09
959.075	5491.75
959.378	5413.33
959.682	5376.72
959.985	5270.29
960.289	5352.77
960.592	5273.9
960.896	5270.74
961.199	5276.16
961.502	5248.36
961.805	5241.81
962.108	5184.41
962.411	5126.56
962.714	5122.94
963.017	5078.2
963.32	5106
963.623	5095.15
963.926	5089.72
964.228	5024.42
964.531	5064.87
964.833	5014.7
965.136	4993.68
965.438	4908.94
965.741	4952.78
966.043	4942.84
966.345	4882.27
966.648	4874.82
966.95	4866.23
967.252	4799.11
967.554	4787.13
967.856	4773.35
968.158	4783.29
968.46	4738.32
968.761	4694.48
969.063	4690.64
969.365	4650.64
969.666	4633.47
969.968	4622.84
970.269	4557.76
970.571	4563.64
970.872	4568.61
971.174	4530.42
971.475	4527.71
971.776	4533.13
972.077	4473.02
972.378	4453.13
972.679	4410.87
972.98	4436.41
973.281	4362.51
973.582	4346.69
973.883	4351.89
974.183	4309.86
974.484	4303.3
974.785	4291.33
975.085	4280.48
975.386	4261.72
975.686	4223.53
975.986	4198.67
976.287	4148.05
976.587	4144.89
976.887	4140.6
977.187	4130.65
977.487	4147.15
977.787	4082.75
978.087	4072.8
978.387	4070.54
978.687	4082.07
978.987	4024.67
979.286	4005.46
979.586	3981.28
979.885	3980.15
980.185	3934.28
980.484	3989.41
980.784	3906.93
981.083	3903.54
981.382	3855.18
981.682	3853.37
981.981	3869.19
982.28	3848.85
982.579	3803.66
982.878	3868.97
983.177	3790.1
983.475	3777.67
983.774	3732.47
984.073	3729.99
984.372	3714.17
984.67	3651.8
984.969	3676.43
985.267	3666.03
985.566	3638.92
985.864	3664.9
986.162	3654.06
986.461	3574.28
986.759	3581.52
987.057	3575.87
987.355	3545.13
987.653	3484.57
987.951	3509.88
988.249	3488.41
988.547	3475.08
988.844	3504.91
989.142	3502.2
989.44	3426.94
989.737	3427.62
990.035	3376.32
990.332	3389.2
990.63	3368.87
990.927	3363.67
991.224	3333.39
991.521	3355.08
991.819	3301.75
992.116	3302.2
992.413	3277.8
992.71	3219.94
993.006	3189.44
993.303	3235.76
993.6	3188.98
993.897	3210.45
994.193	3168.87
994.49	3125.26
994.787	3130
995.083	3133.84
995.379	3138.36
995.676	3064.92
995.972	3026.95
996.268	3033.06
996.565	3040.97
996.861	2973.62
997.157	2995.54
997.453	2983.79
997.749	2971.36
998.044	2943.34
998.34	2918.26
998.636	2913.74
998.932	2912.83
999.227	2883.91
999.523	2880.97
999.818	2877.13
1000.114	2849.78
1000.409	2827.64
1000.704	2817.92
1001	2788.99
1001.295	2806.62
1001.59	2779.28
1001.885	2796.68
1002.18	2731.14
1002.475	2728.21
1002.77	2690.92
1003.065	2711.26
1003.359	2653.4
1003.654	2649.34
1003.949	2663.57
1004.243	2615.44
1004.538	2564.59
1004.832	2595.1
1005.127	2570.92
1005.421	2561.43
1005.715	2580.19
1006.009	2535.22
1006.304	2539.96
1006.598	2526.63
1006.892	2495.67
1007.186	2471.71
1007.48	2449.34
1007.773	2449.34
1008.067	2461.09
1008.361	2401.21
1008.655	2420.64
1008.948	2409.34
1009.242	2388.1
1009.535	2370.47
1009.829	2363.92
1010.122	2344.26
1010.415	2334.54
1010.708	2296.35
1011.001	2280.31
1011.295	2295.22
1011.588	2283.92
1011.881	2274.66
1012.173	2265.17
1012.466	2212.74
1012.759	2199.86
1013.052	2199.86
1013.344	2164.6
1013.637	2177.49
1013.93	2152.63
1014.222	2158.28
1014.514	2120.31
1014.807	2115.79
1015.099	2110.37
1015.391	2090.03
1015.683	2035.12
1015.976	2072.63
1016.268	2038.05
1016.56	2053.19
1016.851	2041.22
1017.143	2004.61
1017.435	1996.92
1017.727	1999.86
1018.018	1999.18
1018.31	1973.42
1018.602	1963.03
1018.893	1906.08
1019.185	1914.67
1019.476	1914.67
1019.767	1928.23
1020.058	1888
1020.35	1878.96
1020.641	1859.75
1020.932	1856.36
1021.223	1842.8
1021.514	1801.45
1021.804	1808.68
1022.095	1795.35
1022.386	1780.89
1022.677	1768.91
1022.967	1765.29
1023.258	1772.75
1023.548	1720.1
1023.839	1714.9
1024.129	1713.09
1024.419	1713.77
1024.709	1699.31
1025	1689.59
1025.29	1674.45
1025.58	1661.79
1025.87	1640.1
1026.16	1638.74
1026.449	1617.5
1026.739	1611.62
1027.029	1580.66
1027.319	1563.26
1027.608	1565.52
1027.898	1581.34
1028.187	1558.97
1028.477	1546.54
1028.766	1515.13
1029.055	1492.31
1029.344	1504.28
1029.634	1509.48
1029.923	1500.89
1030.212	1446.88
1030.501	1477.39
1030.79	1449.82
1031.078	1459.09
1031.367	1425.87
1031.656	1414.12
1031.945	1403.72
1032.233	1412.08
1032.522	1400.56
1032.81	1390.16
1033.099	1389.71
1033.387	1377.28
1033.675	1333.21
1033.963	1358.98
1034.251	1350.16
1034.54	1320.33
1034.828	1321.91
1035.116	1322.59
1035.403	1304.06
1035.691	1298.64
1035.979	1282.37
1036.267	1266.32
1036.554	1267.23
1036.842	1247.79
1037.129	1242.82
1037.417	1246.89
1037.704	1221.13
1037.992	1227.91
1038.279	1215.02
1038.566	1214.12
1038.853	1214.12
1039.14	1214.12
