Data from plate_ceramic_FLMS001491_084.txt Node
Date: Tue Feb 07 11:17:24 GMT 2017
User: dcchb
Spectrometer: FLMS00149
Trigger mode: 0
Integration Time (sec): 2.000000E-2
Scans to average: 10
Electric dark correction enabled: true
Nonlinearity correction enabled: false
Boxcar width: 0
XAxis mode: Wavelengths
Number of Pixels in Spectrum: 2048
>>>>>Begin Spectral Data<<<<<
341.393	-6.47
341.776	-6.47
342.16	-6.47
342.543	-41.95
342.927	-65.9
343.31	-52.12
343.693	-64.55
344.077	-72
344.46	-69.74
344.843	-37.2
345.226	-39.91
345.61	-29.52
345.993	-10.76
346.376	-9.86
346.759	3.93
347.142	5.51
347.525	33.3
347.908	57.03
348.291	64.26
348.674	95
349.057	126.64
349.44	134.77
349.823	136.13
350.206	170.25
350.588	198.95
350.971	239.85
351.354	238.72
351.737	274.88
352.119	271.26
352.502	285.95
352.884	305.61
353.267	296.8
353.65	306.97
354.032	303.35
354.414	346.52
354.797	332.05
355.179	351.26
355.562	349.91
355.944	355.56
356.326	364.14
356.709	364.37
357.091	339.28
357.473	366.63
357.855	330.47
358.238	366.18
358.62	337.48
359.002	364.82
359.384	347.42
359.766	356.91
360.148	366.63
360.53	345.61
360.912	399.4
361.294	349
361.676	354.65
362.057	382.22
362.439	352.62
362.821	357.59
363.203	340.19
363.584	368.89
363.966	341.54
364.348	348.55
364.729	343.35
365.111	351.71
365.493	356.23
365.874	344.71
366.256	354.43
366.637	343.35
367.019	365.95
367.4	353.97
367.781	345.61
368.163	359.4
368.544	362.56
368.925	353.07
369.306	343.13
369.688	344.03
370.069	364.82
370.45	359.4
370.831	340.87
371.212	361.88
371.593	350.81
371.974	360.75
372.355	366.4
372.736	362.34
373.117	358.72
373.498	379.96
373.879	362.11
374.26	351.26
374.641	361.66
375.021	367.76
375.402	367.98
375.783	382.9
376.163	414.99
376.544	391.71
376.925	404.59
377.305	389.45
377.686	373.86
378.066	396.01
378.447	379.28
378.827	411.37
379.208	400.07
379.588	401.66
379.968	403.24
380.349	375.67
380.729	409.57
381.109	415.22
381.489	416.57
381.87	404.59
382.25	393.07
382.63	431.03
383.01	434.65
383.39	408.89
383.77	425.84
384.15	436.23
384.53	448.21
384.91	435.1
385.29	472.84
385.67	446.85
386.049	464.48
386.429	466.06
386.809	463.12
387.189	458.38
387.568	447.98
387.948	484.37
388.328	459.73
388.707	471.94
389.087	490.69
389.466	495.21
389.846	479.85
390.225	495.89
390.605	504.93
390.984	511.71
391.363	498.83
391.743	499.05
392.122	499.28
392.501	532.27
392.881	504.93
393.26	532.73
393.639	525.27
394.018	548.32
394.397	561.43
394.776	547.41
395.155	530.24
395.534	548.09
395.913	541.99
396.292	546.96
396.671	560.07
397.05	576.34
397.429	586.28
397.808	572.05
398.186	566.62
398.565	577.47
398.944	577.92
399.323	615.89
399.701	630.8
400.08	614.76
400.458	607.3
400.837	628.77
401.215	622.89
401.594	615.66
401.972	630.8
402.351	640.52
402.729	635.77
403.107	664.93
403.486	659.5
403.864	660.63
404.242	656.79
404.62	689.78
404.999	672.38
405.377	686.62
405.755	729.11
406.133	700.86
406.511	699.95
406.889	708.54
407.267	728.2
407.645	727.75
408.023	752.16
408.401	773.17
408.779	761.65
409.156	784.02
409.534	762.1
409.912	775.88
410.29	799.84
410.667	823.57
411.045	843.68
411.422	815.66
411.8	846.62
412.178	859.72
412.555	854.75
412.933	858.37
413.31	856.11
413.687	883.68
414.065	889.55
414.442	902.66
414.819	914.19
415.197	911.93
415.574	958.03
415.951	965.71
416.328	936.78
416.705	966.16
417.082	959.16
417.46	987.86
417.837	970.68
418.214	998.7
418.591	987.18
418.967	1012.04
419.344	1031.02
419.721	1035.54
420.098	1071.24
420.475	1057.91
420.852	1080.96
421.228	1092.49
421.605	1093.39
421.982	1101.98
422.358	1097.01
422.735	1101.52
423.111	1124.8
423.488	1141.07
423.864	1157.34
424.241	1179.71
424.617	1178.81
424.994	1186.95
425.37	1177.68
425.746	1194.63
426.123	1220.39
426.499	1229.2
426.875	1237.79
427.251	1292.03
427.627	1286.6
428.003	1304.46
428.379	1331.58
428.756	1344
429.132	1342.65
429.507	1369.99
429.883	1369.31
430.259	1393.72
430.635	1429.65
431.011	1437.79
431.387	1466.49
431.763	1488.18
432.138	1481.85
432.514	1517.56
432.89	1519.82
433.265	1568.63
433.641	1573.15
434.016	1597.33
434.392	1608.63
434.767	1635.3
435.143	1626.93
435.518	1653.6
435.894	1689.98
436.269	1672.13
436.644	1721.85
437.02	1720.72
437.395	1753.03
437.77	1768.17
438.145	1778.57
438.52	1788.06
438.895	1802.52
439.271	1812.24
439.646	1866.7
440.021	1905.35
440.395	1843.88
440.77	1898.79
441.145	1885.68
441.52	1935.4
441.895	1929.07
442.27	1958.23
442.645	1985.34
443.019	1975.4
443.394	1983.54
443.769	2014.27
444.143	2006.81
444.518	2042.52
444.892	2019.01
445.267	2064.21
445.641	2080.93
446.016	2087.49
446.39	2097.2
446.764	2126.81
447.139	2116.19
447.513	2148.05
447.887	2159.58
448.262	2133.14
448.636	2160.93
449.01	2234.15
449.384	2206.81
449.758	2220.82
450.132	2273.47
450.506	2299.01
450.88	2286.35
451.254	2316.18
451.628	2314.6
452.002	2363.41
452.376	2375.84
452.75	2402.06
453.123	2410.19
453.497	2462.84
453.871	2474.6
454.244	2557.53
454.618	2593.46
454.992	2584.2
455.365	2588.27
455.739	2640.24
456.112	2628.49
456.486	2704.87
456.859	2715.27
457.232	2790.52
457.606	2771.09
457.979	2831.42
458.352	2856.51
458.725	2894.02
459.099	2947.35
459.472	2997.75
459.845	2995.94
460.218	3065.09
460.591	3053.11
460.964	3106.67
461.337	3145.99
461.71	3197.06
462.083	3233.22
462.456	3252.88
462.829	3280.9
463.201	3318.64
463.574	3308.92
463.947	3418.07
464.32	3446.32
464.692	3487.9
465.065	3555.25
465.438	3645.41
465.81	3640.44
466.183	3659.2
466.555	3743.72
466.928	3724.28
467.3	3787.33
467.672	3825.29
468.045	3938.29
468.417	3978.96
468.789	3985.29
469.161	4031.62
469.534	4115.68
469.906	4167.88
470.278	4208.79
470.65	4233.87
471.022	4362.68
471.394	4447.43
471.766	4434.32
472.138	4532.17
472.51	4640.64
472.882	4648.55
473.253	4709.34
473.625	4806.51
473.997	4884.25
474.369	4950.46
474.74	4916.34
475.112	5067.3
475.484	5162.21
475.855	5257.57
476.227	5333.96
476.598	5451.24
476.97	5472.03
477.341	5601.52
477.713	5715.41
478.084	5744.57
478.455	5858.91
478.827	5940.95
479.198	6111.11
479.569	6116.08
479.94	6317.43
480.311	6351.1
480.682	6501.38
481.053	6598.78
481.424	6726.69
481.795	6799
482.166	6929.39
482.537	7017.53
482.908	7122.16
483.279	7252.32
483.65	7339.33
484.021	7488.25
484.391	7559.66
484.762	7669.71
485.133	7751.97
485.503	7878.3
485.874	8012.3
486.244	8125.52
486.615	8278.51
486.985	8328
487.356	8578.39
487.726	8627.65
488.097	8749.23
488.467	8787.65
488.837	9024.25
489.207	9091.6
489.578	9223.8
489.948	9304.02
490.318	9454.53
490.688	9463.11
491.058	9655.42
491.428	9751.47
491.798	9906.26
492.168	10005.7
492.538	10073.94
492.908	10212.25
493.278	10320.94
493.648	10445.91
494.017	10437.78
494.387	10600.71
494.757	10659.01
495.126	10875.96
495.496	10922.28
495.866	10964.99
496.235	11092.22
496.605	11249.96
496.974	11269.17
497.344	11455.38
497.713	11448.37
498.082	11546.9
498.452	11635.49
498.821	11667.35
499.19	11784.86
499.559	11808.59
499.928	11980.11
500.298	12049.94
500.667	12175.36
501.036	12223.94
501.405	12245.86
501.774	12382.58
502.143	12524.95
502.512	12630.26
502.88	12754.33
503.249	12637.27
503.618	12866.41
503.987	12864.83
504.356	13011.04
504.724	13063.7
505.093	13081.32
505.462	13171.49
505.83	13318.6
506.199	13446.28
506.567	13538.03
506.936	13537.58
507.304	13759.95
507.672	13730.35
508.041	13857.8
508.409	13958.81
508.777	14157.23
509.145	14225.93
509.514	14241.74
509.882	14384.57
510.25	14403.32
510.618	14651.68
510.986	14626.37
511.354	14702.3
511.722	14811.22
512.09	15071.1
512.458	15032.91
512.826	15206.24
513.193	15314.03
513.561	15340.7
513.929	15459.57
514.297	15711.08
514.664	15704.98
515.032	15720.58
515.4	16015.03
515.767	16022.94
516.135	16125.99
516.502	16093.22
516.869	16364.63
517.237	16530.5
517.604	16551.06
517.972	16598.07
518.339	16879.41
518.706	16852.97
519.073	16888.23
519.44	17103.14
519.808	17383.13
520.175	17318.95
520.542	17499.51
520.909	17665.16
521.276	17692.05
521.643	17941.76
522.009	18179.72
522.376	18175.65
522.743	18233.28
523.11	18404.35
523.477	18584.68
523.843	18738.35
524.21	18894.96
524.577	19111.9
524.943	19192.35
525.31	19364.55
525.676	19458.1
526.043	19534.26
526.409	19610.87
526.776	19904.65
527.142	19994.14
527.508	20095.83
527.874	20372.43
528.241	20541.01
528.607	20531.97
528.973	20774.68
529.339	20733.32
529.705	20872.53
530.071	21164.5
530.437	21179.19
530.803	21336.02
531.169	21472.06
531.535	21519.07
531.901	21631.83
532.267	21714.99
532.632	21846.97
532.998	21917.47
533.364	22160.41
533.73	22180.29
534.095	22366.73
534.461	22426.61
534.826	22571.69
535.192	22599.49
535.557	22869.99
535.923	22918.8
536.288	22992.93
536.653	23010.55
537.019	23045.35
537.384	23212.81
537.749	23300.49
538.114	23443.76
538.479	23318.57
538.845	23511.1
539.21	23479.92
539.575	23710.2
539.94	23719.91
540.305	23912.9
540.67	23926.91
541.034	24057.31
541.399	24228.83
541.764	24226.57
542.129	24337.98
542.494	24468.14
542.858	24598.76
543.223	24551.76
543.587	24732.09
543.952	24794.91
544.316	24863.39
544.681	24856.83
545.045	25009.14
545.41	25226.77
545.774	25101.12
546.138	25157.62
546.503	25348.57
546.867	25401.9
547.231	25587.21
547.595	25690.03
547.959	25838.5
548.324	25885.05
548.688	25843.7
549.052	26076.01
549.416	26134.99
549.779	26219.06
550.143	26251.6
550.507	26425.38
550.871	26681.19
551.235	26699.04
551.599	26721.19
551.962	26745.6
552.326	26883.22
552.689	27071.92
553.053	27036.21
553.417	27121.63
553.78	27443.66
554.143	27378.12
554.507	27473.94
554.87	27575.63
555.234	27921.84
555.597	27842.74
555.96	28023.3
556.323	28142.17
556.686	28229.4
557.05	28447.47
557.413	28527.24
557.776	28522.95
558.139	28880.46
558.502	28893.56
558.865	28917.97
559.228	29183.95
559.59	29355.02
559.953	29268.24
560.316	29576.93
560.679	29708.68
561.041	29822.58
561.404	30025.74
561.767	30179.4
562.129	30070.93
562.492	30569.9
562.854	30393.41
563.217	30563.35
563.579	30679.05
563.941	30854.19
564.304	30871.82
564.666	31135.31
565.028	31255.08
565.39	31377.79
565.753	31447.17
566.115	31639.93
566.477	31751.79
566.839	31884.9
567.201	31981.84
567.563	32045.8
567.925	32434.49
568.287	32429.29
568.648	32596.52
569.01	32720.35
569.372	32962.83
569.734	32849.16
570.095	33123.96
570.457	33187.01
570.819	33313.33
571.18	33279.44
571.542	33601.69
571.903	33688.92
572.265	33788.8
572.626	33828.57
572.987	33930.04
573.349	34053.65
573.71	34163.25
574.071	34274.21
574.432	34305.85
574.794	34617.25
575.155	34605.05
575.516	34609.57
575.877	34683.92
576.238	34818.6
576.599	34923.69
576.96	35034.42
577.32	35062.44
577.681	35168.43
578.042	35241.64
578.403	35223.57
578.763	35270.57
579.124	35514.63
579.485	35612.48
579.845	35603.22
580.206	35502.43
580.566	35576.55
580.927	35479.15
581.287	35675.08
581.648	35625.59
582.008	35680.73
582.368	35647.96
582.728	35714.63
583.089	35818.8
583.449	35895.19
583.809	35927.05
584.169	35994.39
584.529	35868.07
584.889	36153.03
585.249	35900.84
585.609	35896.32
585.969	36128.63
586.329	35945.58
586.688	36042.53
587.048	35996.43
587.408	35932.02
587.768	35980.16
588.127	35954.39
588.487	35907.62
588.846	36125.46
589.206	35928.63
589.565	36065.35
589.925	36208.4
590.284	36139.7
590.643	36164.11
591.003	36173.82
591.362	36316.42
591.721	36205.69
592.08	36323.88
592.44	36363.42
592.799	36418.11
593.158	36440.26
593.517	36376.3
593.876	36415.85
594.235	36296.53
594.593	36492.91
594.952	36416.98
595.311	36404.55
595.67	36391.9
596.029	36605.22
596.387	36699.23
596.746	36713.47
597.104	36574.49
597.463	36450.2
597.822	36844.99
598.18	36527.03
598.538	36562.06
598.897	36832.34
599.255	36563.19
599.613	37061.71
599.972	36873.69
600.33	36979.9
600.688	36836.63
601.046	37007.7
601.404	37073.23
601.762	37020.13
602.12	37115.49
602.478	37097.41
602.836	37167.7
603.194	37089.28
603.552	37139.67
603.91	36917.31
604.268	37126.79
604.625	37046.57
604.983	37286.79
605.341	37097.41
605.698	37396.62
606.056	37537.63
606.413	37395.94
606.771	37530.4
607.128	37567.01
607.485	37350.29
607.843	37598.87
608.2	37692.2
608.557	37741.47
608.914	37486.78
609.272	37637.29
609.629	37854
609.986	37940.1
610.343	37842.03
610.7	38151.17
611.057	38191.62
611.414	38012.87
611.771	37938.07
612.127	38295.57
612.484	38089.48
612.841	38233.43
613.198	38094.45
613.554	38157.95
613.911	38430.71
614.267	38345.97
614.624	38305.52
614.98	38404.5
615.337	38743.47
615.693	38599.07
616.05	38538.73
616.406	38760.87
616.762	38510.71
617.118	38585.51
617.475	38669.35
617.831	38780.08
618.187	38696.47
618.543	38726.98
618.899	38797.03
619.255	38724.04
619.611	38736.02
619.967	38807.65
620.323	39042.9
620.678	39091.71
621.034	38815.79
621.39	38800.65
621.746	38736.92
622.101	39217.36
622.457	38929
622.812	39030.02
623.168	39128.32
623.523	38996.35
623.879	39119.06
624.234	38830.02
624.589	38960.19
624.945	39016.69
625.3	39082.22
625.655	39064.82
626.01	39020.3
626.365	39164.48
626.72	39018.04
627.075	39022.79
627.43	38900.3
627.785	38841.78
628.14	38972.85
628.495	38911.15
628.85	38943.24
629.205	38789.57
629.559	39051.26
629.914	38814.66
630.269	38782.79
630.623	38812.4
630.978	38613.31
631.332	38779.18
631.687	38785.05
632.041	38601.1
632.396	38578.51
632.75	38515.46
633.104	38678.84
633.459	38508.68
633.813	38366.53
634.167	38385.97
634.521	38224.39
634.875	38556.59
635.229	38363.6
635.583	38065.07
635.937	38225.29
636.291	38196.14
636.645	38214
636.999	38203.15
637.352	38302.35
637.706	37992.53
638.06	38186.65
638.413	37908.47
638.767	37916.6
639.121	37962.48
639.474	37807.23
639.828	37736.04
640.181	37666.89
640.534	37864.17
640.888	37567.01
641.241	37504.41
641.594	37719.09
641.947	37636.16
642.301	37496.95
642.654	37481.36
643.007	37597.51
643.36	37395.94
643.713	37443.62
644.066	37431.64
644.419	37243.63
644.771	36929.28
645.124	36528.39
645.477	36414.04
645.83	36169.3
646.182	36236.65
646.535	36063.32
646.888	36237.32
647.24	36019.02
647.593	36201.39
647.945	36029.87
648.298	35941.29
648.65	35900.61
649.002	35791.91
649.355	35878.46
649.707	35866.71
650.059	35910.33
650.411	36324.55
650.763	36382.63
651.115	36722.06
651.467	36584.66
651.819	36578.11
652.171	36521.61
652.523	36466.02
652.875	36345.57
653.227	36302.63
653.578	36596.41
653.93	36481.61
654.282	36273.48
654.633	36263.76
654.985	36204.56
655.337	36283.2
655.688	36191.22
656.039	36330.88
656.391	36004.79
656.742	36002.08
657.094	36044.33
657.445	36061.51
657.796	36096.31
658.147	35990.55
658.498	36065.8
658.849	35987.84
659.2	35941.51
659.551	35782.42
659.902	36030.1
660.253	35842.53
660.604	35951
660.955	35736.32
661.306	35801.86
661.656	35689.09
662.007	35790.1
662.358	35788.97
662.708	35652.03
663.059	35798.24
663.409	35481.86
663.76	35676.66
664.11	35661.07
664.461	35712.37
664.811	35777.22
665.161	35727.73
665.511	35619.26
665.862	35626.72
666.212	35675.76
666.562	35714.85
666.912	35551.92
667.262	35547.17
667.612	35547.4
667.962	35521.86
668.312	35365.03
668.662	35657.45
669.011	35557.57
669.361	35376.56
669.711	35545.36
670.06	35384.69
670.41	35299.04
670.76	35261.53
671.109	35374.3
671.459	35250.91
671.808	35225.6
672.157	35280.06
672.507	34953.52
672.856	35057.47
673.205	35060.41
673.554	35244.81
673.904	35012.05
674.253	35296.11
674.602	35093.63
674.951	34677.37
675.3	34469.01
675.649	35187.18
675.998	35066.73
676.346	35030.8
676.695	35167.97
677.044	34775.44
677.393	34899.51
677.741	34979.28
678.09	34913.29
678.438	34765.27
678.787	34924.82
679.135	34784.03
679.484	34609.12
679.832	34682.34
680.181	34476.92
680.529	34526.18
680.877	34495.45
681.225	34473.53
681.573	34575.67
681.922	34291.39
682.27	34292.29
682.618	34292.74
682.966	34253.2
683.314	34333.19
683.661	34312.63
684.009	34109.92
684.357	33962.36
684.705	33883.26
685.053	34013.43
685.4	33877.39
685.748	33892.53
686.095	33706.32
686.443	33606.66
686.79	33384.07
687.138	33537.96
687.485	33469.26
687.832	33263.16
688.18	33416.38
688.527	33281.7
688.874	33233.79
689.221	33141.13
689.568	33014.58
689.915	32945.66
690.262	33068.59
690.609	32879.45
690.956	32794.93
691.303	32846.68
691.65	32665.44
691.997	32594.26
692.344	32386.58
692.69	32464.99
693.037	32567.36
693.383	32263.42
693.73	32361.95
694.077	32110.43
694.423	32114.49
694.769	32035.17
695.116	31912.92
695.462	31882.86
695.808	31623.21
696.155	31623.21
696.501	31531.01
696.847	31503.89
697.193	31281.07
697.539	31443.55
697.885	31234.74
698.231	31082.21
698.577	31124.01
698.923	30984.58
699.269	30928.76
699.614	30817.81
699.96	30683.57
700.306	30634.53
700.651	30593.86
700.997	30514.31
701.342	30519.06
701.688	30394.77
702.033	30313.19
702.379	30201.78
702.724	30178.73
703.069	30263.02
703.415	29827.78
703.76	29995.23
704.105	29961.56
704.45	29823.48
704.795	29639.98
705.14	29572.41
705.485	29569.7
705.83	29358.41
706.175	29531.06
706.52	29459.88
706.865	29282.25
707.209	29222.59
707.554	29262.59
707.899	29169.49
708.243	29060.79
708.588	29087
708.932	28812.66
709.277	28806.78
709.621	28859.89
709.966	28640.24
710.31	28703.06
710.654	28534.02
710.998	28508.94
711.342	28411.09
711.687	28341.94
712.031	28186.69
712.375	28157.54
712.719	28218.55
713.063	28167.71
713.407	28225.78
713.75	28032.12
714.094	27981.72
714.438	27908.73
714.782	28008.16
715.125	27842.74
715.469	27805.23
715.812	27587.61
716.156	27566.14
716.499	27515.07
716.843	27627.83
717.186	27473.49
717.53	27497.44
717.873	27471.23
718.216	27417.22
718.559	27244.79
718.902	27186.71
719.246	27124.34
719.589	26999.15
719.932	26935.87
720.275	26939.49
720.617	26917.34
720.96	26859.94
721.303	26861.07
721.646	26840.73
721.989	26632.38
722.331	26685.48
722.674	26654.07
723.016	26657.46
723.359	26510.35
723.701	26530.91
724.044	26454.53
724.386	26363.69
724.729	26422.89
725.071	26332.95
725.413	26290.24
725.755	26302.44
726.097	26198.27
726.439	26006.86
726.782	25993.07
727.124	26181.77
727.465	25918.95
727.807	25897.71
728.149	25843.02
728.491	25816.81
728.833	25875.34
729.175	25797.6
729.516	25770.93
729.858	25704.04
730.199	25810.93
730.541	25692.29
730.882	25613.2
731.224	25668.34
731.565	25459.75
731.906	25478.51
732.248	25466.53
732.589	25349.02
732.93	25325.29
733.271	25230.38
733.612	25337.72
733.953	25352.64
734.294	25282.81
734.635	25115.58
734.976	25229.03
735.317	25093.66
735.658	25127.79
735.999	25154.68
736.339	25064.06
736.68	25099.76
737.021	24877.4
737.361	24855.02
737.702	24990.39
738.042	24875.81
738.383	24869.49
738.723	24810.51
739.063	24637.86
739.404	24787.23
739.744	24696.61
740.084	24609.16
740.424	24541.36
740.764	24614.35
741.104	24609.16
741.444	24391.99
741.784	24449.61
742.124	24484.64
742.464	24474.24
742.804	24240.58
743.143	24292.33
743.483	24274.93
743.823	24119.45
744.162	24166.23
744.502	24091.88
744.841	23935.95
745.181	24049.17
745.52	24010.07
745.86	23930.3
746.199	23803.75
746.538	23875.84
746.877	23956.52
747.216	23844.43
747.556	23803.07
747.895	23774.83
748.234	23678.11
748.573	23553.36
748.911	23516.98
749.25	23596.53
749.589	23446.47
749.928	23420.49
750.267	23439.69
750.605	23309.08
750.944	23278.12
751.283	23180.49
751.621	23322.86
751.96	23122.64
752.298	23127.61
752.636	23033.6
752.975	22908.41
753.313	22876.09
753.651	22893.49
753.989	22865.47
754.327	22771.92
754.666	22667.06
755.004	22765.59
755.342	22707.74
755.679	22716.32
756.017	22619.38
756.355	22665.48
756.693	22454.86
757.031	22508.65
757.368	22312.04
757.706	22390.46
758.044	22234.08
758.381	22327.63
758.719	22212.61
759.056	22233.4
759.394	22114.31
759.731	21939.85
760.068	21999.51
760.405	21858.95
760.743	21865.05
761.08	21903.69
761.417	21777.14
761.754	21682.9
762.091	21637.93
762.428	21499.18
762.765	21385.29
763.102	21480.2
763.438	21278.85
763.775	21178.51
764.112	21307.32
764.449	21215.35
764.785	21157.95
765.122	20992.3
765.458	20943.49
765.795	20876.6
766.131	20868.46
766.467	20768.13
766.804	20636.38
767.14	20556.61
767.476	20456.27
767.812	20552.31
768.148	20488.81
768.485	20334.47
768.821	20250.85
769.157	20132.89
769.492	20177.63
769.828	20178.99
770.164	19939.67
770.5	19806.57
770.836	19875.49
771.171	19782.39
771.507	19667.59
771.842	19611.09
772.178	19613.35
772.513	19473.47
772.849	19386.92
773.184	19335.4
773.519	19358.67
773.855	19187.83
774.19	19186.25
774.525	19070.32
774.86	19012.47
775.195	18964.56
775.53	18950.09
775.865	18845.92
776.2	18626.49
776.535	18584.23
776.87	18565.02
777.205	18550.56
777.539	18447.28
777.874	18504.46
778.209	18227.18
778.543	18286.16
778.878	18222.66
779.212	18204.8
779.547	18087.74
779.881	18078.93
780.215	17907.86
780.55	17909.22
780.884	17821.09
781.218	17761.2
781.552	17740.64
781.886	17643.46
782.22	17630.36
782.554	17452.06
782.888	17370.02
783.222	17324.6
783.556	17269.24
783.889	17208.45
784.223	17048.45
784.557	17125.96
784.89	17092.97
785.224	16959.64
785.557	16939.98
785.891	16798.06
786.224	16818.85
786.558	16797.16
786.891	16687.56
787.224	16559.65
787.557	16586.32
787.891	16571.85
788.224	16419.77
788.557	16424.74
788.89	16370.73
789.223	16342.25
789.556	16246.66
789.888	16149.49
790.221	16061.13
790.554	15963.73
790.887	15968.7
791.219	15916.28
791.552	15770.52
791.884	15835.6
792.217	15785.66
792.549	15711.54
792.882	15659.56
793.214	15528.49
793.546	15537.98
793.879	15433.35
794.211	15311.09
794.543	15407.82
794.875	15281.26
795.207	15356.52
795.539	15290.76
795.871	15206.69
796.203	15175.28
796.535	15061.61
796.867	15101.16
797.198	15015.51
797.53	14988.17
797.862	14918.56
798.193	14922.63
798.525	14734.84
798.856	14798.57
799.188	14744.33
799.519	14598.12
799.85	14581.62
800.182	14597.44
800.513	14550.21
800.844	14443.55
801.175	14481.29
801.506	14382.98
801.837	14325.13
802.168	14292.82
802.499	14293.72
802.83	14162.88
803.161	14119.94
803.491	14169.66
803.822	14190.9
804.153	13943.9
804.483	13996.78
804.814	13807.41
805.145	13949.1
805.475	13841.75
805.805	13843.11
806.136	13789.78
806.466	13710.23
806.796	13800.63
807.126	13627.3
807.457	13584.81
807.787	13625.94
808.117	13518.15
808.447	13372.39
808.777	13581.2
809.107	13441.54
809.436	13383.24
809.766	13361.32
810.096	13290.13
810.426	13281.32
810.755	13285.39
811.085	13202.45
811.414	13151.6
811.744	13075.67
812.073	13134.88
812.403	13097.37
812.732	12945.73
813.061	12933.53
813.39	12828.45
813.719	12879.29
814.049	12947.54
814.378	12914.77
814.707	12767.43
815.036	12805.85
815.365	12698.73
815.693	12617.61
816.022	12620.32
816.351	12577.61
816.68	12497.84
817.008	12535.12
817.337	12477.5
817.665	12409.93
817.994	12476.14
818.322	12387.1
818.651	12435.92
818.979	12391.17
819.307	12340.78
819.636	12304.85
819.964	12282.02
820.292	12371.51
820.62	12231.63
820.948	12215.81
821.276	12339.2
821.604	12244.28
821.932	12331.74
822.259	12248.12
822.587	12190.95
822.915	12191.18
823.243	12145.53
823.57	12094.68
823.898	12118.64
824.225	12120.67
824.553	12128.35
824.88	12112.99
825.207	12160.44
825.535	12095.59
825.862	12166.32
826.189	12022.37
826.516	12117.05
826.843	12041.8
827.17	12150.05
827.497	12165.19
827.824	12205.41
828.151	12236.37
828.478	12119.77
828.805	12139.88
829.131	12079.99
829.458	12031.63
829.785	12069.37
830.111	11971.3
830.438	12115.47
830.764	12109.6
831.09	12101.24
831.417	12016.94
831.743	12021.69
832.069	12068.69
832.395	11991.63
832.722	12049.71
833.048	11998.87
833.374	12044.29
833.7	11999.09
834.026	12033.89
834.351	12036.6
834.677	11956.61
835.003	11953.22
835.329	11995.25
835.654	11943.95
835.98	11898.98
836.306	11915.7
836.631	11813.56
836.956	11879.55
837.282	11828.7
837.607	11763.17
837.932	11736.73
838.258	11747.8
838.583	11740.34
838.908	11707.57
839.233	11738.53
839.558	11721.36
839.883	11658.99
840.208	11576.5
840.533	11623.06
840.858	11599.78
841.182	11661.47
841.507	11519.33
841.832	11478.65
842.156	11434.59
842.481	11501.03
842.805	11441.14
843.13	11435.72
843.454	11373.35
843.778	11353.68
844.103	11370.63
844.427	11310.75
844.751	11353.68
845.075	11316.4
845.399	11205.67
845.723	11162.5
846.047	11213.58
846.371	11104.2
846.695	11110.75
847.019	11044.54
847.343	11010.19
847.666	10854.26
847.99	10864.43
848.313	10829.63
848.637	10754.83
848.96	10775.85
849.284	10695.85
849.607	10659.01
849.931	10649.3
850.254	10608.39
850.577	10555.97
850.9	10494.5
851.223	10425.57
851.546	10400.49
851.869	10356.87
852.192	10357.78
852.515	10253.6
852.838	10199.59
853.161	10173.6
853.483	10128.86
853.806	10151
854.129	10073.94
854.451	10035.98
854.774	10062.87
855.096	9986.94
855.419	10007.73
855.741	9929.77
856.063	9885.47
856.385	9916.21
856.708	9857.45
857.03	9715.54
857.352	9789.43
857.674	9707.4
857.996	9684.58
858.318	9672.37
858.64	9662.66
858.961	9643.9
859.283	9595.31
859.605	9582.21
859.926	9601.19
860.248	9518.7
860.57	9533.39
860.891	9482.1
861.212	9440.97
861.534	9416.56
861.855	9352.61
862.176	9391.25
862.498	9414.3
862.819	9375.43
863.14	9359.16
863.461	9332.95
863.782	9311.48
864.103	9322.33
864.424	9210.92
864.745	9282.55
865.065	9194.65
865.386	9165.95
865.707	9197.13
866.027	9207.53
866.348	9151.71
866.668	9165.49
866.989	9100.18
867.309	9071.26
867.63	9155.55
867.95	9016.12
868.27	9014.54
868.59	9053.63
868.91	8985.84
869.23	8981.09
869.55	8920.98
869.87	8965.95
870.19	8970.7
870.51	8998.27
870.83	9005.72
871.15	8923.01
871.469	8888.89
871.789	8955.33
872.109	8880.53
872.428	8880.98
872.748	8856.35
873.067	8844.82
873.386	8801.89
873.706	8825.16
874.025	8766.63
874.344	8718.05
874.663	8757.37
874.982	8725.28
875.301	8703.81
875.62	8736.8
875.939	8695.9
876.258	8718.5
876.577	8666.75
876.896	8621.78
877.214	8586.98
877.533	8652.96
877.852	8608.67
878.17	8622.91
878.489	8570.25
878.807	8543.36
879.125	8534.55
879.444	8486.87
879.762	8478.51
880.08	8479.41
880.398	8406.19
880.716	8461.33
881.034	8428.34
881.352	8409.13
881.67	8401.67
881.988	8357.61
882.306	8362.58
882.624	8356.25
882.941	8312.18
883.259	8307.44
883.577	8305.4
883.894	8327.1
884.212	8246.2
884.529	8254.56
884.846	8248.91
885.164	8159.19
885.481	8192.86
885.798	8265.4
886.115	8111.28
886.432	8126.2
886.75	8066.09
887.067	8097.95
887.383	8066.09
887.7	8065.41
888.017	8030.16
888.334	7984.73
888.651	7995.81
888.967	7992.42
889.284	7912.19
889.6	7961.68
889.917	7905.64
890.233	7882.36
890.55	7792.2
890.866	7852.53
891.182	7784.51
891.498	7774.57
891.815	7780.67
892.131	7746.1
892.447	7682.37
892.763	7679.66
893.079	7610.73
893.395	7612.77
893.71	7607.57
894.026	7611.86
894.342	7648.7
894.657	7523.73
894.973	7542.03
895.289	7524.86
895.604	7480.57
895.92	7436.5
896.235	7377.74
896.55	7398.99
896.865	7383.85
897.181	7330.51
897.496	7325.99
897.811	7277.41
898.126	7257.07
898.441	7267.24
898.756	7208.93
899.071	7172.33
899.386	7203.51
899.7	7191.53
900.015	7086.23
900.33	6995.61
900.644	7033.35
900.959	7115.6
901.273	7010.3
901.588	7042.39
901.902	7008.94
902.216	6950.86
902.531	6907.7
902.845	6876.97
903.159	6853.92
903.473	6808.72
903.787	6822.28
904.101	6775.73
904.415	6763.52
904.729	6749.96
905.042	6681.72
905.356	6673.36
905.67	6626.13
905.984	6646.92
906.297	6632.23
906.611	6523.08
906.924	6565.56
907.237	6554.94
907.551	6531.89
907.864	6568.95
908.177	6473.81
908.491	6459.58
908.804	6416.19
909.117	6431.33
909.43	6336.19
909.743	6285.12
910.056	6336.42
910.368	6317.21
910.681	6200.15
910.994	6214.61
911.307	6192.01
911.619	6187.04
911.932	6170.77
912.244	6160.6
912.557	6127.83
912.869	6105.23
913.181	6096.2
913.494	6022.53
913.806	6005.8
914.118	6013.49
914.43	5960.83
914.742	5982.07
915.054	5925.58
915.366	5938.91
915.678	5845.35
915.99	5809.2
916.302	5772.14
916.613	5745.47
916.925	5768.52
917.236	5771.68
917.548	5715.19
917.859	5738.01
918.171	5688.97
918.482	5684.91
918.794	5646.04
919.105	5631.8
919.416	5538.02
919.727	5538.92
920.038	5538.7
920.349	5508.19
920.66	5486.95
920.971	5501.41
921.282	5494.86
921.593	5407.63
921.903	5387.29
922.214	5394.97
922.525	5396.33
922.835	5314.97
923.146	5307.52
923.456	5303.9
923.767	5270.45
924.077	5272.26
924.387	5203.11
924.697	5202.89
925.008	5150.68
925.318	5148.88
925.628	5088.09
925.938	5156.79
926.248	5113.62
926.558	5053.96
926.867	5065.26
927.177	5084.7
927.487	5009.67
927.796	4947.98
928.106	4926.28
928.416	4955.66
928.725	4940.29
929.034	4907.98
929.344	4867.75
929.653	4839.28
929.962	4808.77
930.271	4802.44
930.581	4836.34
930.89	4764.25
931.199	4756.12
931.508	4740.53
931.817	4721.32
932.125	4684.71
932.434	4707.76
932.743	4660.53
933.051	4610.13
933.36	4622.56
933.669	4543.02
933.977	4569.91
934.286	4565.39
934.594	4521.32
934.902	4481.55
935.21	4464.83
935.519	4493.07
935.827	4447.65
936.135	4454.88
936.443	4396.58
936.751	4411.95
937.059	4388.44
937.367	4385.73
937.674	4356.35
937.982	4299.41
938.29	4323.13
938.597	4348.44
938.905	4294.21
939.213	4241.56
939.52	4184.16
939.827	4240.43
940.135	4167.43
940.442	4170.82
940.749	4152.29
941.056	4144.83
941.363	4116.13
941.67	4122.24
941.977	4120.88
942.284	4073.88
942.591	4030.71
942.898	4059.19
943.205	4032.3
943.511	4008.57
943.818	3935.8
944.125	3950.26
944.431	3974.67
944.738	3947.55
945.044	3905.74
945.35	3926.08
945.657	3891.28
945.963	3879.53
946.269	3851.06
946.575	3868.91
946.881	3813.77
947.187	3861.45
947.493	3786.2
947.799	3745.97
948.105	3727.9
948.41	3743.94
948.716	3707.56
949.022	3680.21
949.327	3705.07
949.633	3645.86
949.938	3697.61
950.244	3611.74
950.549	3632.53
950.854	3633.66
951.16	3567.9
951.465	3552.53
951.77	3593.44
952.075	3544.17
952.38	3525.19
952.685	3530.39
952.99	3511.4
953.294	3473.67
953.599	3490.84
953.904	3438.64
954.209	3426.44
954.513	3437.28
954.818	3410.39
955.122	3395.02
955.426	3412.42
955.731	3355.7
956.035	3366.32
956.339	3337.62
956.643	3403.16
956.948	3324.07
957.252	3301.01
957.556	3316.38
957.86	3281.81
958.163	3277.29
958.467	3219.89
958.771	3225.54
959.075	3206.55
959.378	3191.64
959.682	3207.91
959.985	3153
960.289	3162.26
960.592	3131.75
960.896	3149.15
961.199	3076.84
961.502	3088.14
961.805	3074.58
962.108	3068.03
962.411	3046.33
962.714	3066.9
963.017	3030.29
963.32	3010.63
963.623	3022.15
963.926	2978.09
964.228	2947.8
964.531	2979.67
964.833	2962.94
965.136	2936.73
965.438	2904.19
965.741	2910.97
966.043	2911.42
966.345	2895.83
966.648	2915.94
966.95	2879.56
967.252	2840.46
967.554	2840.91
967.856	2856.96
968.158	2768.15
968.46	2830.29
968.761	2802.95
969.063	2788.03
969.365	2789.62
969.666	2790.29
969.968	2741.26
970.269	2709.17
970.571	2733.35
970.872	2729.96
971.174	2733.57
971.475	2707.58
971.776	2691.77
972.077	2688.38
972.378	2673.91
972.679	2623.74
972.98	2668.72
973.281	2632.33
973.582	2616.29
973.883	2620.35
974.183	2607.47
974.484	2576.29
974.785	2564.99
975.085	2553.92
975.386	2583.29
975.686	2543.29
975.986	2518.44
976.287	2478.21
976.587	2524.09
976.887	2483.18
977.187	2526.12
977.487	2496.74
977.787	2466.91
978.087	2451.09
978.387	2453.13
978.687	2433.02
978.987	2416.07
979.286	2407.93
979.586	2407.03
979.885	2399.12
980.185	2374.03
980.484	2382.39
980.784	2353.02
981.083	2352.79
981.382	2327.03
981.682	2339.68
981.981	2327.48
982.28	2276.64
982.579	2270.53
982.878	2280.48
983.177	2246.13
983.475	2284.77
983.774	2272.57
984.073	2235.73
984.372	2250.42
984.67	2226.47
984.969	2256.52
985.267	2207.94
985.566	2192.8
985.864	2198.9
986.162	2159.8
986.461	2193.7
986.759	2165.45
987.057	2127.71
987.355	2107.15
987.653	2138.79
987.951	2119.58
988.249	2110.99
988.547	2105.79
988.844	2109.63
989.142	2099.92
989.44	2068.28
989.737	2068.5
990.035	2067.6
990.332	2010.65
990.63	2014.5
990.927	2049.75
991.224	2041.61
991.521	2032.57
991.819	1988.28
992.116	2009.75
992.413	1984.44
992.71	2008.85
993.006	1942.63
993.303	1958
993.6	1949.86
993.897	1916.19
994.193	1947.6
994.49	1918.23
994.787	1909.41
995.083	1896.08
995.379	1889.75
995.676	1861.96
995.972	1847.27
996.268	1870.77
996.565	1852.47
996.861	1852.01
997.157	1819.02
997.453	1826.7
997.749	1832.13
998.044	1838.23
998.34	1837.32
998.636	1796.42
998.932	1817.21
999.227	1777.44
999.523	1780.6
999.818	1758
1000.114	1782.86
1000.409	1725.01
1000.704	1710.77
1001	1708.06
1001.295	1686.37
1001.59	1703.99
1001.885	1701.28
1002.18	1683.2
1002.475	1681.4
1002.77	1671.91
1003.065	1648.85
1003.359	1654.5
1003.654	1652.7
1003.949	1631.23
1004.243	1634.84
1004.538	1637.78
1004.832	1627.84
1005.127	1641.62
1005.421	1589.87
1005.715	1565.47
1006.009	1596.88
1006.304	1550.33
1006.598	1572.02
1006.892	1566.6
1007.186	1532.93
1007.48	1489.54
1007.773	1519.37
1008.067	1535.41
1008.361	1507.39
1008.655	1503.77
1008.948	1501.97
1009.242	1486.6
1009.535	1501.51
1009.829	1493.15
1010.122	1486.37
1010.415	1470.33
1010.708	1450.22
1011.001	1449.09
1011.295	1447.96
1011.588	1448.63
1011.881	1417.9
1012.173	1396.21
1012.466	1395.3
1012.759	1413.61
1013.052	1383.78
1013.344	1402.08
1013.637	1381.97
1013.93	1360.27
1014.222	1366.15
1014.514	1360.27
1014.807	1357.11
1015.099	1322.31
1015.391	1333.83
1015.683	1328.86
1015.976	1323.89
1016.268	1300.62
1016.56	1286.15
1016.851	1308.98
1017.143	1269.2
1017.435	1281.63
1017.727	1288.41
1018.018	1244.12
1018.31	1258.36
1018.602	1263.55
1018.893	1224.46
1019.185	1206.15
1019.476	1222.43
1019.767	1218.13
1020.058	1213.61
1020.35	1210.9
1020.641	1214.74
1020.932	1203.22
1021.223	1200.51
1021.514	1175.65
1021.804	1162.77
1022.095	1134.29
1022.386	1124.8
1022.677	1133.39
1022.967	1126.16
1023.258	1130
1023.548	1111.24
1023.839	1133.16
1024.129	1117.12
1024.419	1092.71
1024.709	1071.47
1025	1094.75
1025.29	1095.88
1025.58	1062.88
1025.87	1075.31
1026.16	1054.07
1026.449	1060.17
1026.739	1080.51
1027.029	1044.35
1027.319	1021.98
1027.608	1019.27
1027.898	1043
1028.187	1028.08
1028.477	1001.41
1028.766	986.5
1029.055	974.07
1029.344	996.67
1029.634	1005.93
1029.923	977.69
1030.212	948.08
1030.501	974.3
1030.79	966.39
1031.078	940.85
1031.367	946.27
1031.656	943.34
1031.945	938.82
1032.233	941.98
1032.522	937.69
1032.81	920.29
1033.099	908.76
1033.387	915.09
1033.675	892.94
1033.963	900.63
1034.251	883.23
1034.54	888.42
1034.828	900.17
1035.116	866.95
1035.403	859.95
1035.691	866.73
1035.979	862.43
1036.267	823.57
1036.554	831.93
1036.842	865.15
1037.129	839.84
1037.417	817.69
1037.704	818.14
1037.992	832.15
1038.279	842.77
1038.566	818.82
1038.853	818.82
1039.14	818.82
