Data from plate_porcelain_FLMS001491_026.txt Node
Date: Tue Feb 07 11:19:02 GMT 2017
User: dcchb
Spectrometer: FLMS00149
Trigger mode: 0
Integration Time (sec): 2.000000E-2
Scans to average: 10
Electric dark correction enabled: true
Nonlinearity correction enabled: false
Boxcar width: 0
XAxis mode: Wavelengths
Number of Pixels in Spectrum: 2048
>>>>>Begin Spectral Data<<<<<
341.393	-11.99
341.776	-11.99
342.16	-11.99
342.543	-71.42
342.927	-47.47
343.31	-57.64
343.693	-69.39
344.077	-71.42
344.46	-60.35
344.843	-53.8
345.226	-54.48
345.61	-40.47
345.993	-15.15
346.376	-6.79
346.759	17.39
347.142	39.53
347.525	43.37
347.908	61.45
348.291	63.26
348.674	98.29
349.057	106.2
349.44	108.01
349.823	129.25
350.206	180.32
350.588	216.25
350.971	252.63
351.354	265.52
351.737	266.42
352.119	261.22
352.502	289.92
352.884	329.24
353.267	314.55
353.65	361.11
354.032	328.34
354.414	343.03
354.797	339.86
355.179	369.92
355.562	356.36
355.944	391.16
356.326	374.21
356.709	382.35
357.091	381.9
357.473	387.09
357.855	403.37
358.238	394.1
358.62	396.13
359.002	393.65
359.384	381.67
359.766	372.86
360.148	399.3
360.53	392.52
360.912	412.86
361.294	416.02
361.676	413.76
362.057	387.77
362.439	392.07
362.821	397.49
363.203	391.61
363.584	419.18
363.966	391.39
364.348	399.07
364.729	399.07
365.111	382.35
365.493	402.69
365.874	406.3
366.256	393.65
366.637	397.49
367.019	396.59
367.4	382.8
367.781	380.99
368.163	394.55
368.544	398.17
368.925	403.82
369.306	413.53
369.688	402.91
370.069	396.13
370.45	434.32
370.831	389.35
371.212	406.53
371.593	400.43
371.974	409.24
372.355	435.68
372.736	435.23
373.117	449.24
373.498	407.88
373.879	416.47
374.26	419.18
374.641	418.28
375.021	420.77
375.402	436.13
375.783	453.08
376.163	468.67
376.544	459.18
376.925	465.28
377.305	469.13
377.686	456.7
378.066	464.61
378.447	454.89
378.827	475.23
379.208	476.13
379.588	468.9
379.968	492.4
380.349	506.87
380.729	507.09
381.109	506.87
381.489	491.27
381.87	507.09
382.25	482.23
382.63	502.57
383.01	510.03
383.39	526.07
383.77	537.37
384.15	524.94
384.53	543.47
384.91	521.33
385.29	557.94
385.67	556.13
386.049	551.38
386.429	556.81
386.809	581.21
387.189	562
387.568	588.9
387.948	573.3
388.328	599.07
388.707	597.26
389.087	602
389.466	620.76
389.846	626.41
390.225	637.48
390.605	636.35
390.984	637.03
391.363	657.14
391.743	661.89
392.122	674.09
392.501	675
392.881	692.4
393.26	696.92
393.639	700.76
394.018	727.88
394.397	705.05
394.776	687.43
395.155	725.84
395.534	755.22
395.913	729.68
396.292	744.37
396.671	757.25
397.05	762
397.429	777.82
397.808	793.86
398.186	764.26
398.565	786.86
398.944	786.41
399.323	781.89
399.701	794.99
400.08	813.07
400.458	824.6
400.837	819.85
401.215	844.26
401.594	859.17
401.972	848.1
402.351	870.92
402.729	910.92
403.107	886.74
403.486	904.37
403.864	902.34
404.242	923.35
404.62	951.6
404.999	950.92
405.377	944.14
405.755	974.2
406.133	969.23
406.511	982.33
406.889	1006.74
407.267	1019.62
407.645	1027.08
408.023	1061.43
408.401	1078.15
408.779	1075.21
409.156	1075.44
409.534	1123.8
409.912	1110.01
410.29	1143.01
410.667	1144.59
411.045	1180.52
411.422	1166.06
411.8	1189.79
412.178	1221.87
412.555	1236.79
412.933	1272.27
413.31	1244.25
413.687	1283.79
414.065	1311.36
414.442	1308.88
414.819	1328.76
415.197	1349.33
415.574	1357.69
415.951	1398.59
416.328	1359.72
416.705	1394.3
417.082	1439.04
417.46	1431.59
417.837	1472.26
418.214	1465.94
418.591	1479.72
418.967	1508.87
419.344	1533.28
419.721	1544.58
420.098	1577.57
420.475	1597.68
420.852	1572.37
421.228	1608.08
421.605	1608.53
421.982	1611.02
422.358	1633.84
422.735	1680.62
423.111	1655.54
423.488	1710.9
423.864	1711.35
424.241	1734.18
424.617	1774.63
424.994	1771.01
425.37	1804.23
425.746	1836.1
426.123	1854.85
426.499	1859.37
426.875	1864.34
427.251	1924.23
427.627	1960.39
428.003	1990.89
428.379	1969.88
428.756	2023.44
429.132	2043.77
429.507	2088.52
429.883	2077.9
430.259	2157.67
430.635	2181.4
431.011	2200.15
431.387	2251.23
431.763	2269.76
432.138	2270.89
432.514	2314.28
432.89	2340.04
433.265	2399.7
433.641	2427.27
434.016	2451.67
434.392	2460.49
434.767	2515.4
435.143	2566.25
435.518	2568.96
435.894	2572.57
436.269	2646.92
436.644	2705.23
437.02	2686.02
437.395	2699.35
437.77	2788.16
438.145	2785
438.52	2827.71
438.895	2843.75
439.271	2855.5
439.646	2937.99
440.021	2948.16
440.395	2977.08
440.77	2949.06
441.145	2976.18
441.52	3050.08
441.895	3091.2
442.27	3064.54
442.645	3116.29
443.019	3148.6
443.394	3142.05
443.769	3185.66
444.143	3182.28
444.518	3252.33
444.892	3237.87
445.267	3276.51
445.641	3330.29
446.016	3341.82
446.39	3359.22
446.764	3387.24
447.139	3361.03
447.513	3455.94
447.887	3441.93
448.262	3489.39
448.636	3541.81
449.01	3566.9
449.384	3629.04
449.758	3613.9
450.132	3668.59
450.506	3694.35
450.88	3697.06
451.254	3708.14
451.628	3834.01
452.002	3803.73
452.376	3821.81
452.75	3924.18
453.123	3941.13
453.497	4039.65
453.871	4024.29
454.244	4114.91
454.618	4138.41
454.992	4184.96
455.365	4255.24
455.739	4355.8
456.112	4359.87
456.486	4404.62
456.859	4480.09
457.232	4557.15
457.606	4562.35
457.979	4636.7
458.352	4721.9
458.725	4751.5
459.099	4777.04
459.472	4952.17
459.845	4936.13
460.218	5036.01
460.591	5025.84
460.964	5066.07
461.337	5214.54
461.71	5283.69
462.083	5383.8
462.456	5350.35
462.829	5414.08
463.201	5443.91
463.574	5535.66
463.947	5582.89
464.32	5746.05
464.692	5767.07
465.065	5839.15
465.438	5918.47
465.81	5995.99
466.183	6087.06
466.555	6266.49
466.928	6242.99
467.3	6279.59
467.672	6397.11
468.045	6522.75
468.417	6550.55
468.789	6654.95
469.161	6760.94
469.534	6832.12
469.906	6991.44
470.278	7073.02
470.65	7114.83
471.022	7299.68
471.394	7430.52
471.766	7435.04
472.138	7560.01
472.51	7703.74
472.882	7853.11
473.253	7964.3
473.625	8072.54
473.997	8276.38
474.369	8322.48
474.74	8400.44
475.112	8555.69
475.484	8704.62
475.855	8850.15
476.227	8978.51
476.598	9197.48
476.97	9281.1
477.341	9519.06
477.713	9613.97
478.084	9720.41
478.455	9949.55
478.827	10041.76
479.198	10385.93
479.569	10372.82
479.94	10688.52
480.311	10839.25
480.682	11054.16
481.053	11277.2
481.424	11437.88
481.795	11563.75
482.166	11700.47
482.537	11889.39
482.908	12180.91
483.279	12328.48
483.65	12521.24
484.021	12816.15
484.391	12965.07
484.762	13022.02
485.133	13232.18
485.503	13377.49
485.874	13698.16
486.244	13816.8
486.615	14173.62
486.985	14202.1
487.356	14538.81
487.726	14686.15
488.097	14946.71
488.467	15056.09
488.837	15309.87
489.207	15548.5
489.578	15737.43
489.948	15931.77
490.318	16114.82
490.688	16238.88
491.058	16443.4
491.428	16683.39
491.798	16895.13
492.168	17273.2
492.538	17245.63
492.908	17588.45
493.278	17823.25
493.648	17844.49
494.017	18179.62
494.387	18211.94
494.757	18464.59
495.126	18537.58
495.496	18625.94
495.866	18885.14
496.235	19178.69
496.605	19211.68
496.974	19383.66
497.344	19534.84
497.713	19696.19
498.082	19963.53
498.452	20006.01
498.821	20229.51
499.19	20219.79
499.559	20462.5
499.928	20609.39
500.298	20738.2
500.667	21005.76
501.036	20962.37
501.405	21228.58
501.774	21212.31
502.143	21523.26
502.512	21646.65
502.88	21887.09
503.249	21875.34
503.618	22031.72
503.987	22231.27
504.356	22385.84
504.724	22468.77
505.093	22555.1
505.462	22773.4
505.83	22962.32
506.199	23183.33
506.567	23414.06
506.936	23357.79
507.304	23626.71
507.672	23805.69
508.041	23969.07
508.409	24179.01
508.777	24362.06
509.145	24517.99
509.514	24676.63
509.882	24753.01
510.25	24960.01
510.618	25125.88
510.986	25224.86
511.354	25341.92
511.722	25700.78
512.09	25672.08
512.458	25959.98
512.826	26228.22
513.193	26297.15
513.561	26395.68
513.929	26755.21
514.297	26966.28
514.664	27251.7
515.032	27215.32
515.4	27552.48
515.767	27634.06
516.135	27924.68
516.502	27778.46
516.869	28266.14
517.237	28294.38
517.604	28449.18
517.972	28776.86
518.339	28971.65
518.706	29044.42
519.073	29312.89
519.44	29443.51
519.808	29786.55
520.175	29822.48
520.542	30205.75
520.909	30377.27
521.276	30372.29
521.643	30807.09
522.009	30911.04
522.376	31264.7
522.743	31369.78
523.11	31711.92
523.477	32148.97
523.843	32306.71
524.21	32566.81
524.577	32863.53
524.943	32927.48
525.31	33221.49
525.676	33498.09
526.043	33667.12
526.409	33959.77
526.776	34243.83
527.142	34336.03
527.508	34580.09
527.874	34971.04
528.241	35170.59
528.607	35218.49
528.973	35529.67
529.339	35584.13
529.705	36060.05
530.071	36338.24
530.437	36436.54
530.803	36661.39
531.169	37015.74
531.535	36987.49
531.901	36999.92
532.267	37008.28
532.632	37481.26
532.998	37710.18
533.364	37870.63
533.73	37967.12
534.095	38451.4
534.461	38375.47
534.826	38675.35
535.192	38772.98
535.557	39059.75
535.923	39078.51
536.288	39353.98
536.653	39482.34
537.019	39390.81
537.384	39669.23
537.749	39715.33
538.114	39875.32
538.479	39925.04
538.845	40318.47
539.21	40297.01
539.575	40398.7
539.94	40652.25
540.305	40941.28
540.67	40939.02
541.034	41009.53
541.399	41223.08
541.764	41294.04
542.129	41521.38
542.494	41579.68
542.858	41803.41
543.223	41818.1
543.587	41995.04
543.952	42046.11
544.316	42272.32
544.681	42343.05
545.045	42595.25
545.41	42726.55
545.774	42844.06
546.138	42972.64
546.503	43262.8
546.867	43107.55
547.231	43361.33
547.595	43356.81
547.959	43560.42
548.324	43690.14
548.688	43838.38
549.052	44053.06
549.416	44016
549.779	44273.17
550.143	44401.98
550.507	44671.58
550.871	44855.08
551.235	44665.48
551.599	45235.18
551.962	45214.39
552.326	45360.38
552.689	45593.14
553.053	45376.65
553.417	45613.93
553.78	46036.29
554.143	46031.54
554.507	46182.73
554.87	46316.73
555.234	46721.7
555.597	46533.68
555.96	46885.76
556.323	47071.74
556.686	46834.01
557.05	47424.05
557.413	47452.52
557.776	47494.56
558.139	47841.21
558.502	47878.05
558.865	47966.18
559.228	48281.88
559.59	48468.09
559.953	48525.94
560.316	48801.41
560.679	48892.94
561.041	49170.44
561.404	49391.46
561.767	49515.52
562.129	49257.67
562.492	49813.37
562.854	49713.03
563.217	49873.25
563.579	50054.26
563.941	50346.46
564.304	50393.24
564.666	50646.79
565.028	50729.27
565.39	50856.95
565.753	51075.25
566.115	51159.09
566.477	51294.46
566.839	51396.6
567.201	51614.22
567.563	51657.38
567.925	51960.2
568.287	51883.37
568.648	51908.9
569.01	52108.67
569.372	52337.59
569.734	52220.08
570.095	52483.35
570.457	52572.61
570.819	52720.63
571.18	52806.51
571.542	52925.83
571.903	52938.25
572.265	53060.29
572.626	53135.99
572.987	53206.95
573.349	53234.97
573.71	53415.3
574.071	53457.79
574.432	53617.33
574.794	53761.51
575.155	53756.54
575.516	53686.94
575.877	53910.66
576.238	53956.99
576.599	54056.42
576.96	54083.99
577.32	54034.95
577.681	54225.9
578.042	54206.7
578.403	54311.55
578.763	54356.97
579.124	54374.38
579.485	54424.77
579.845	54538.21
580.206	54407.59
580.566	54526.69
580.927	54578.44
581.287	54661.15
581.648	54543.86
582.008	54656.85
582.368	54708.38
582.728	54685.33
583.089	54675.84
583.449	54754.03
583.809	54745.44
584.169	54790.41
584.529	54727.13
584.889	54918.77
585.249	54718.1
585.609	54643.75
585.969	54841.03
586.329	54822.27
586.688	54883.29
587.048	54850.75
587.408	54743.86
587.768	54821.82
588.127	54713.58
588.487	54800.35
588.846	54923.97
589.206	54835.38
589.565	54826.34
589.925	54969.39
590.284	54990.18
590.643	54941.59
591.003	55021.14
591.362	55048.26
591.721	54910.86
592.08	54971.2
592.44	55060.69
592.799	55104.98
593.158	55004.87
593.517	55038.99
593.876	55027.92
594.235	54995.6
594.593	55102.49
594.952	55081.02
595.311	55021.36
595.67	55094.81
596.029	55275.37
596.387	55161.25
596.746	55231.3
597.104	55136.16
597.463	55206.22
597.822	55377.06
598.18	55192.66
598.538	55231.75
598.897	55340.9
599.255	55141.59
599.613	55497.96
599.972	55303.39
600.33	55421.81
600.688	55400.56
601.046	55529.37
601.404	55653.89
601.762	55489.6
602.12	55615.25
602.478	55631.52
602.836	55674.91
603.194	55502.03
603.552	55594.23
603.91	55502.93
604.268	55634.68
604.625	55579.32
604.983	55753.77
605.341	55582.71
605.698	55724.17
606.056	55754.68
606.413	55768.46
606.771	55902.47
607.128	55854.56
607.485	55782.7
607.843	55774.56
608.2	55912.87
608.557	56050.49
608.914	55939.53
609.272	56067.21
609.629	56048.46
609.986	56176.81
610.343	56080.77
610.7	56304.72
611.057	56212.29
611.414	56287.77
611.771	56265.17
612.127	56424.26
612.484	56259.98
612.841	56417.71
613.198	56302.91
613.554	56351.05
613.911	56565.96
614.267	56422.68
614.624	56485.73
614.98	56531.15
615.337	56631.72
615.693	56648.67
616.05	56574.54
616.406	56657.03
616.762	56606.18
617.118	56602.34
617.475	56608.21
617.831	56721.43
618.187	56740.41
618.543	56734.99
618.899	56848.21
619.255	56841.2
619.611	56786.29
619.967	56890.92
620.323	56992.39
620.678	56824.71
621.034	56820.19
621.39	56761.88
621.746	56815.89
622.101	57017.47
622.457	56836.68
622.812	56940.18
623.168	57025.83
623.523	56942.67
623.879	57003.01
624.234	56900.86
624.589	56937.92
624.945	56959.39
625.3	57031.48
625.655	56949.67
626.01	56947.19
626.365	57000.52
626.72	56935.44
627.075	56927.53
627.43	56908.32
627.785	56836.46
628.14	56928.21
628.495	56866.06
628.85	56828.77
629.205	56725.5
629.559	56875.78
629.914	56780.41
630.269	56864.48
630.623	56751.26
630.978	56640.76
631.332	56780.87
631.687	56861.99
632.041	56715.33
632.396	56739.74
632.75	56606.86
633.104	56672.17
633.459	56582.68
633.813	56455.22
634.167	56514.21
634.521	56511.95
634.875	56532.28
635.229	56434.89
635.583	56308.34
635.937	56384.49
636.291	56324.38
636.645	56327.77
636.999	56265.63
637.352	56323.93
637.706	56184.05
638.06	56198.73
638.413	56193.76
638.767	56168.23
639.121	56182.24
639.474	55992.41
639.828	55912.87
640.181	56037.61
640.534	56027.44
640.888	55865.18
641.241	55798.74
641.594	55920.32
641.947	55969.59
642.301	55859.31
642.654	55895.47
643.007	55813.66
643.36	55750.84
643.713	55681.01
644.066	55723.27
644.419	55649.82
644.771	55436.95
645.124	55130.51
645.477	55176.61
645.83	54961.48
646.182	54820.92
646.535	54595.39
646.888	54779.11
647.24	54523.3
647.593	54789.28
647.945	54692.11
648.298	54459.57
648.65	54470.42
649.002	54405.34
649.355	54499.57
649.707	54501.83
650.059	54606.23
650.411	54930.74
650.763	54961.03
651.115	55244.41
651.467	55018.2
651.819	55074.02
652.171	54977.52
652.523	55001.7
652.875	54959.44
653.227	54847.58
653.578	54896.4
653.93	54783.86
654.282	54757.19
654.633	54597.87
654.985	54734.82
655.337	54730.98
655.688	54676.51
656.039	54811.88
656.391	54518.78
656.742	54578.44
657.094	54624.54
657.445	54794.93
657.796	54686.01
658.147	54588.61
658.498	54497.31
658.849	54608.49
659.2	54476.75
659.551	54504.99
659.902	54549.96
660.253	54482.62
660.604	54592
660.955	54427.48
661.306	54424.09
661.656	54422.96
662.007	54392.45
662.358	54361.95
662.708	54437.88
663.059	54290.31
663.409	54204.44
663.76	54341.16
664.11	54241.72
664.461	54326.92
664.811	54396.75
665.161	54266.36
665.511	54265
665.862	54257.09
666.212	54357.88
666.562	54345.22
666.912	54264.32
667.262	54295.28
667.612	54161.73
667.962	54180.93
668.312	54230.42
668.662	54299.35
669.011	54181.61
669.361	54115.85
669.711	54133.25
670.06	54138.68
670.41	54020.03
670.76	53963.54
671.109	54102.52
671.459	54051.22
671.808	53972.8
672.157	54159.24
672.507	53830.66
672.856	53900.04
673.205	53913.82
673.554	53936.87
673.904	53803.77
674.253	53950.66
674.602	53870.89
674.951	53512.25
675.3	53286.95
675.649	53749.08
675.998	53701.62
676.346	53690.78
676.695	53832.24
677.044	53579.59
677.393	53679.03
677.741	53719.93
678.09	53643.1
678.438	53480.16
678.787	53633.15
679.135	53606.94
679.484	53505.92
679.832	53558.8
680.181	53389.09
680.529	53406.72
680.877	53332.14
681.225	53272.03
681.573	53459.15
681.922	53233.84
682.27	53161.3
682.618	53203.33
682.966	53114.52
683.314	53152.49
683.661	52881.08
684.009	52912.04
684.357	52877.92
684.705	52838.6
685.053	52849.44
685.4	52777.81
685.748	52649
686.095	52504.59
686.443	52389.34
686.79	52412.39
687.138	52467.08
687.485	52482.22
687.832	52350.02
688.18	52330.81
688.527	52112.51
688.874	52100.54
689.221	51975.34
689.568	51964.72
689.915	51810.37
690.262	51884.5
690.609	51739.42
690.956	51615.35
691.303	51582.13
691.65	51414.91
691.997	51474.34
692.344	51269.82
692.69	51238.86
693.037	51284.51
693.383	50914.35
693.73	51038.42
694.077	50749.84
694.423	50823.06
694.769	50684.53
695.116	50683.85
695.462	50595.04
695.808	50584.87
696.155	50511.88
696.501	50298.55
696.847	50349.85
697.193	49992.12
697.539	50182.85
697.885	49986.69
698.231	49887.94
698.577	49816.08
698.923	49793.7
699.269	49506.71
699.614	49371.12
699.96	49193.49
700.306	49371.34
700.651	49113.5
700.997	49120.5
701.342	49157.11
701.688	48873.05
702.033	48782.21
702.379	48683.23
702.724	48718.48
703.069	48815.43
703.415	48406.4
703.76	48343.57
704.105	48336.57
704.45	48113.3
704.795	47900.87
705.14	47775.23
705.485	47802.12
705.83	47620.43
706.175	47781.78
706.52	47601.67
706.865	47433.31
707.209	47466.76
707.554	47189.48
707.899	47349.25
708.243	47107.22
708.588	47201.46
708.932	46760.56
709.277	46810.73
709.621	46870.17
709.966	46677.63
710.31	46742.94
710.654	46260.46
710.998	46384.75
711.342	46449.84
711.687	46305.21
712.031	46122.61
712.375	46027.25
712.719	46000.81
713.063	45801.27
713.407	46001.49
713.75	45777.31
714.094	45746.58
714.438	45607.15
714.782	45549.3
715.125	45375.29
715.469	45456.19
715.812	45130.1
716.156	44941.63
716.499	44883.78
716.843	44947.28
717.186	44714.97
717.53	44908.18
717.873	44993.38
718.216	44740.28
718.559	44712.71
718.902	44481.08
719.246	44664.8
719.589	44542.32
719.932	44227.75
720.275	44252.83
720.617	44150.92
720.96	44059.62
721.303	44093.74
721.646	44033.4
721.989	43798.61
722.331	43981.65
722.674	43897.14
723.016	43851.26
723.359	43759.29
723.701	43670.25
724.044	43390.94
724.386	43208.79
724.729	43290.15
725.071	43301.67
725.413	43229.81
725.755	43190.49
726.097	42977.84
726.439	42929.03
726.782	42848.35
727.124	43020.1
727.465	42743.27
727.807	42816.49
728.149	42558.19
728.491	42536.49
728.833	42576.72
729.175	42366.56
729.516	42288.14
729.858	42259.89
730.199	42330.17
730.541	42250.63
730.882	42066
731.224	42155.04
731.565	41863.29
731.906	41888.38
732.248	41965.21
732.589	41747.59
732.93	41636.86
733.271	41756.18
733.612	41715.05
733.953	41643.64
734.294	41415.62
734.635	41395.51
734.976	41541.27
735.317	41314.15
735.658	41346.47
735.999	41208.85
736.339	41187.6
736.68	41214.95
737.021	41020.83
737.361	40800.04
737.702	41042.07
738.042	40782.42
738.383	40881.4
738.723	40873.94
739.063	40640.05
739.404	40616.09
739.744	40532.48
740.084	40527.96
740.424	40413.39
740.764	40384.01
741.104	40508.98
741.444	40144.69
741.784	40115.99
742.124	40188.08
742.464	40155.77
742.804	40076.22
743.143	40006.17
743.483	39974.53
743.823	39737.02
744.162	39723.01
744.502	39876.68
744.841	39590.36
745.181	39643.24
745.52	39579.06
745.86	39661.54
746.199	39380.42
746.538	39450.47
746.877	39445.05
747.216	39272.63
747.556	39148.11
747.895	39142.91
748.234	38989.24
748.573	38828.12
748.911	38849.59
749.25	38809.13
749.589	38835.8
749.928	38611.85
750.267	38713.32
750.605	38563.94
750.944	38386.55
751.283	38273.78
751.621	38401.69
751.96	38112.43
752.298	38171.19
752.636	38195.59
752.975	37917.63
753.313	37871.53
753.651	37958.76
753.989	37677.64
754.327	37698.66
754.666	37376.63
755.004	37485.78
755.342	37572.78
755.679	37502.05
756.017	37380.02
756.355	37286.92
756.693	37050.76
757.031	37229.06
757.368	36934.83
757.706	36877.43
758.044	36715.86
758.381	36800.83
758.719	36555.41
759.056	36554.73
759.394	36461.4
759.731	36195.42
760.068	36137.57
760.405	36100.05
760.743	35983.9
761.08	35970.79
761.417	35672.04
761.754	35833.62
762.091	35630.46
762.428	35422.33
762.765	35324.25
763.102	35378.94
763.438	35151.83
763.775	35082
764.112	34827.09
764.449	34859.86
764.785	34720.65
765.122	34658.06
765.458	34405.41
765.795	34477.27
766.131	34369.7
766.467	34240.44
766.804	34167.45
767.14	33821.02
767.476	33920.22
767.812	33755.03
768.148	33740.79
768.485	33441.14
768.821	33367.47
769.157	33419.67
769.492	33283.4
769.828	33187.36
770.164	32924.09
770.5	32771.1
770.836	32894.94
771.171	32615.4
771.507	32547.6
771.842	32163.43
772.178	32397.78
772.513	32257.44
772.849	32251.34
773.184	32039.82
773.519	32070.78
773.855	31815.87
774.19	31655.2
774.525	31709.66
774.86	31588.76
775.195	31395.77
775.53	31274.64
775.865	31232.38
776.2	30969.12
776.535	30820.87
776.87	30826.07
777.205	30655
777.539	30507.21
777.874	30594.44
778.209	30388.11
778.543	30165.75
778.878	30095.92
779.212	30081
779.547	29964.4
779.881	29891.86
780.215	29665.19
780.55	29727.79
780.884	29607.12
781.218	29478.53
781.552	29440.34
781.886	29302.49
782.22	29043.74
782.554	28934.59
782.888	28713.81
783.222	28674.94
783.556	28549.97
783.889	28525.56
784.223	28314.5
784.557	28200.15
784.89	28272.01
785.224	28109.98
785.557	27910.66
785.891	27867.73
786.224	27830.89
786.558	27759.71
786.891	27526.49
787.224	27370.57
787.557	27441.3
787.891	27376.44
788.224	27307.97
788.557	27200.4
788.89	27076.11
789.223	27041.76
789.556	26854.2
789.888	26809.45
790.221	26725.61
790.554	26498.05
790.887	26497.14
791.219	26411.04
791.552	26336.02
791.884	26167.66
792.217	26085.4
792.549	25995.23
792.882	25915.24
793.214	25757.05
793.546	25787.33
793.879	25719.76
794.211	25471.63
794.543	25561.8
794.875	25362.93
795.207	25377.17
795.539	25215.14
795.871	25229.38
796.203	25049.27
796.535	24927.01
796.867	24848.37
797.198	24623.75
797.53	24774.93
797.862	24615.16
798.193	24527.02
798.525	24477.76
798.856	24515.5
799.188	24151.89
799.519	24175.62
799.85	23994.16
800.182	23972.24
800.513	24035.96
800.844	23935.4
801.175	23982.63
801.506	23951.45
801.837	23727.5
802.168	23722.3
802.499	23576.09
802.83	23446.83
803.161	23462.42
803.491	23434.85
803.822	23286.15
804.153	23289.09
804.483	23066.05
804.814	22909.67
805.145	22957.35
805.475	22902.66
805.805	22748.77
806.136	22873.96
806.466	22832.15
806.796	22827.86
807.126	22653.4
807.457	22527.3
807.787	22564.14
808.117	22457.93
808.447	22279.4
808.777	22311.94
809.107	22273.98
809.436	22144.26
809.766	22227.65
810.096	22131.61
810.426	22071.04
810.755	21946.98
811.085	21991.72
811.414	21876.02
811.744	21671.96
812.073	21679.64
812.403	21602.81
812.732	21462.92
813.061	21533.2
813.39	21469.25
813.719	21512.87
814.049	21484.39
814.378	21253.44
814.707	21223.38
815.036	21236.04
815.365	21075.14
815.693	20839.21
816.022	20986.33
816.351	20906.78
816.68	20798.76
817.008	20834.24
817.337	20630.18
817.665	20670.85
817.994	20698.88
818.322	20586.11
818.651	20504.76
818.979	20400.35
819.307	20584.3
819.636	20379.11
819.964	20265.22
820.292	20455.27
820.62	20280.58
820.948	20169.4
821.276	20297.53
821.604	20227.25
821.932	20189.29
822.259	20167.59
822.587	20179.34
822.915	20215.27
823.243	20219.12
823.57	20173.47
823.898	20184.77
824.225	20102.96
824.553	20121.26
824.88	20197.19
825.207	20180.7
825.535	20145.9
825.862	20194.71
826.189	20097.99
826.516	20268.61
826.843	20176.4
827.17	20216.63
827.497	20303.18
827.824	20127.59
828.151	20167.37
828.478	20043.53
828.805	20253.24
829.131	20095.5
829.458	20088.95
829.785	19984.77
830.111	20028.39
830.438	20059.35
830.764	20035.39
831.09	20121.49
831.417	19864.1
831.743	20059.12
832.069	20013.02
832.395	19973.02
832.722	20012.57
833.048	19844.89
833.374	19812.12
833.7	19846.7
834.026	19861.61
834.351	19938.9
834.677	19946.13
835.003	19950.42
835.329	19814.38
835.654	19846.24
835.98	19664.33
836.306	19670.66
836.631	19712.91
836.956	19808.96
837.282	19721.95
837.607	19599.02
837.932	19594.72
838.258	19592.47
838.583	19562.18
838.908	19468.85
839.233	19474.5
839.558	19461.85
839.883	19381.85
840.208	19339.82
840.533	19305.47
840.858	19244.9
841.182	19270.67
841.507	19336.88
841.832	19114.29
842.156	19112.7
842.481	19064.34
842.805	19043.33
843.13	18900.96
843.454	18911.35
843.778	18835.87
844.103	18785.71
844.427	18780.96
844.751	18778.93
845.075	18710.23
845.399	18700.06
845.723	18692.83
846.047	18660.74
846.371	18455.32
846.695	18454.87
847.019	18261.2
847.343	18171.49
847.666	18030.02
847.99	17916.12
848.313	17959.97
848.637	17873.87
848.96	17786.41
849.284	17867.99
849.607	17745.73
849.931	17652.18
850.254	17548.9
850.577	17388.91
850.9	17344.84
851.223	17292.41
851.546	17150.72
851.869	17078.63
852.192	17202.92
852.515	16980.1
852.838	16935.59
853.161	16921.12
853.483	16842.48
853.806	16780.11
854.129	16764.52
854.451	16627.12
854.774	16649.72
855.096	16611.07
855.419	16593.22
855.741	16472.77
856.063	16441.81
856.385	16320.46
856.708	16253.12
857.03	16198.2
857.352	16124.08
857.674	16176.74
857.996	15997.53
858.318	15866.24
858.64	16045.44
858.961	15919.34
859.283	15870.53
859.605	15844.99
859.926	15828.72
860.248	15832.34
860.57	15659.24
860.891	15707.82
861.212	15671.44
861.534	15598.67
861.855	15562.97
862.176	15496.53
862.498	15614.72
862.819	15571.1
863.14	15517.32
863.461	15423.76
863.782	15362.97
864.103	15367.04
864.424	15343.31
864.745	15358
865.065	15232.81
865.386	15259.25
865.707	15253.82
866.027	15220.6
866.348	15263.77
866.668	15195.97
866.989	15199.13
867.309	15019.25
867.63	15054.73
867.95	15026.48
868.27	14921.85
868.59	15029.87
868.91	14998.46
869.23	14916.88
869.55	14898.58
869.87	14984.68
870.19	14810.67
870.51	14925.7
870.83	14785.13
871.15	14705.14
871.469	14702.2
871.789	14741.07
872.109	14647.06
872.428	14569.77
872.748	14640.96
873.067	14523.22
873.386	14622.65
873.706	14603.22
874.025	14556.89
874.344	14461.75
874.663	14528.87
874.982	14453.62
875.301	14503.56
875.62	14398.93
875.939	14397.12
876.258	14355.54
876.577	14370.68
876.896	14366.16
877.214	14300.85
877.533	14229.89
877.852	14286.62
878.17	14259.5
878.489	14217.01
878.807	14193.51
879.125	14161.87
879.444	14189.22
879.762	14017.7
880.08	14019.73
880.398	14075.32
880.716	14113.51
881.034	14034.42
881.352	13990.8
881.67	13901.09
881.988	13969.79
882.306	13886.17
882.624	13852.28
882.941	13822.67
883.259	13729.79
883.577	13684.6
883.894	13768.21
884.212	13650.02
884.529	13635.33
884.846	13547.88
885.164	13484.83
885.481	13492.96
885.798	13531.61
886.115	13424.49
886.432	13355.11
886.75	13430.37
887.067	13385.85
887.383	13353.99
887.7	13273.54
888.017	13295
888.334	13368
888.651	13235.12
888.967	13142.01
889.284	13214.1
889.6	13177.27
889.917	13112.86
890.233	13102.69
890.55	12892.98
890.866	12997.61
891.182	12972.75
891.498	12836.03
891.815	12852.08
892.131	12867.9
892.447	12831.06
892.763	12662.48
893.079	12673.55
893.395	12690.05
893.71	12706.32
894.026	12613.89
894.342	12491.86
894.657	12491.18
894.973	12489.37
895.289	12406.67
895.604	12404.86
895.92	12276.73
896.235	12239.66
896.55	12215.03
896.865	12260
897.181	12218.42
897.496	12201.02
897.811	12239.44
898.126	12178.2
898.441	12008.94
898.756	12022.04
899.071	11941.59
899.386	11951.08
899.7	11845.55
900.015	11733.24
900.33	11685.33
900.644	11668.61
900.959	11738.66
901.273	11671.09
901.588	11560.13
901.902	11505.22
902.216	11448.27
902.531	11550.19
902.845	11350.65
903.159	11369.63
903.473	11253.25
903.787	11301.16
904.101	11165.12
904.415	11188.17
904.729	11191.56
905.042	11068.4
905.356	11072.46
905.67	11027.27
905.984	11025.68
906.297	10965.35
906.611	10872.02
906.924	10873.6
907.237	10822.07
907.551	10780.27
907.864	10751.12
908.177	10761.28
908.491	10708.18
908.804	10624.34
909.117	10599.26
909.43	10480.39
909.743	10396.32
910.056	10474.51
910.368	10404.91
910.681	10354.97
910.994	10356.78
911.307	10242.2
911.619	10115.43
911.932	10224.12
912.244	10173.5
912.557	10147.06
912.869	10052.6
913.181	9993.62
913.494	9985.71
913.806	9950.01
914.118	9935.32
914.43	9825.49
914.742	9848.99
915.054	9779.16
915.366	9816.68
915.678	9681.99
915.99	9618.26
916.302	9515.44
916.613	9505.27
916.925	9526.74
917.236	9467.53
917.548	9402.68
917.859	9449.23
918.171	9427.76
918.482	9297.59
918.794	9261.66
919.105	9287.2
919.416	9184.6
919.727	9147.77
920.038	9100.09
920.349	9063.02
920.66	9077.94
920.971	9048.56
921.282	8970.6
921.593	8949.81
921.903	8821
922.214	8896.48
922.525	8823.26
922.835	8800.43
923.146	8757.72
923.456	8682.47
923.767	8694.45
924.077	8696.48
924.387	8568.12
924.697	8486.09
925.008	8531.06
925.318	8406.09
925.628	8444.28
925.938	8451.97
926.248	8353.89
926.558	8362.93
926.867	8385.08
927.177	8268.92
927.487	8216.72
927.796	8174.91
928.106	8186.89
928.416	8043.16
928.725	8089.26
929.034	8088.13
929.344	8037.06
929.653	7983.96
929.962	7933.56
930.271	7885.88
930.581	7845.2
930.89	7778.31
931.199	7776.28
931.508	7751.42
931.817	7768.14
932.125	7689.28
932.434	7652.21
932.743	7662.38
933.051	7569.96
933.36	7477.53
933.669	7529.51
933.977	7476.17
934.286	7439.79
934.594	7409.28
934.902	7328.61
935.21	7313.01
935.519	7319.12
935.827	7244.54
936.135	7263.98
936.443	7151.66
936.751	7157.09
937.059	7189.4
937.367	7121.83
937.674	7026.69
937.982	7046.58
938.29	7049.74
938.597	7014.94
938.905	7006.36
939.213	6998.22
939.52	6920.26
939.827	6958.67
940.135	6838.68
940.442	6825.8
940.749	6812.46
941.056	6802.97
941.363	6673.93
941.67	6711.67
941.977	6676.87
942.284	6635.74
942.591	6646.36
942.898	6620.38
943.205	6575.18
943.511	6522.3
943.818	6453.83
944.125	6415.86
944.431	6398.46
944.738	6449.76
945.044	6412.02
945.35	6333.6
945.657	6360.27
945.963	6311.01
946.269	6290.44
946.575	6291.35
946.881	6231.46
947.187	6175.42
947.493	6185.13
947.799	6174.51
948.105	6052.48
948.41	6056.1
948.716	6071.01
949.022	6050.45
949.327	6009.77
949.633	5973.84
949.938	5873.05
950.244	5860.62
950.549	5885.93
950.854	5871.92
951.16	5795.77
951.465	5835.54
951.77	5751.25
952.075	5719.16
952.38	5704.92
952.685	5737.69
952.99	5673.06
953.294	5659.95
953.599	5626.73
953.904	5608.43
954.209	5585.15
954.513	5522.33
954.818	5473.51
955.122	5511.25
955.426	5450.46
955.731	5457.02
956.035	5361.65
956.339	5450.01
956.643	5414.08
956.948	5383.12
957.252	5339.51
957.556	5297.93
957.86	5279.4
958.163	5250.02
958.467	5267.87
958.771	5230.58
959.075	5261.99
959.378	5165.27
959.682	5236.68
959.985	5133.41
960.289	5096.8
960.592	5094.77
960.896	5086.86
961.199	5061.77
961.502	4980.65
961.805	5025.39
962.108	4924.38
962.411	4919.63
962.714	4929.8
963.017	4910.82
963.32	4886.41
963.623	4870.82
963.926	4825.17
964.228	4871.5
964.531	4787.66
964.833	4807.77
965.136	4791.72
965.438	4744.95
965.741	4765.06
966.043	4678.05
966.345	4696.36
966.648	4660.65
966.95	4684.16
967.252	4616.59
967.554	4612.07
967.856	4599.19
968.158	4560.32
968.46	4583.14
968.761	4515.35
969.063	4493.65
969.365	4496.14
969.666	4479.64
969.968	4459.08
970.269	4423.37
970.571	4369.14
970.872	4419.53
971.174	4359.87
971.475	4318.06
971.776	4353.32
972.077	4318.97
972.378	4249.82
972.679	4274.22
972.98	4276.03
973.281	4218.41
973.582	4226.77
973.883	4227.67
974.183	4145.41
974.484	4135.7
974.785	4130.95
975.085	4155.13
975.386	4089.37
975.686	4064.96
975.986	4027.45
976.287	4040.33
976.587	4027
976.887	3993.33
977.187	3985.42
977.487	3966.44
977.787	3920.79
978.087	3925.53
978.387	3893.67
978.687	3900.45
978.987	3869.49
979.286	3829.72
979.586	3847.34
979.885	3783.39
980.185	3789.94
980.484	3787.23
980.784	3741.36
981.083	3763.95
981.382	3718.53
981.682	3759.89
981.981	3764.41
982.28	3670.17
982.579	3651.87
982.878	3638.31
983.177	3638.08
983.475	3617.97
983.774	3598.54
984.073	3569.38
984.372	3577.29
984.67	3557.86
984.969	3517.41
985.267	3558.54
985.566	3540.91
985.864	3483.28
986.162	3523.51
986.461	3515.37
986.759	3427.92
987.057	3405.32
987.355	3386.34
987.653	3391.99
987.951	3413.91
988.249	3371.87
988.547	3365.55
988.844	3290.52
989.142	3320.8
989.44	3297.75
989.737	3281.03
990.035	3248.04
990.332	3281.93
990.63	3225.89
990.927	3234.03
991.224	3210.52
991.521	3176.63
991.819	3224.31
992.116	3161.48
992.413	3103.63
992.71	3143.41
993.006	3068.38
993.303	3080.13
993.6	3085.1
993.897	3094.59
994.193	3066.57
994.49	3042.84
994.787	3000.36
995.083	2988.38
995.379	2994.03
995.676	2978.66
995.972	2966.01
996.268	2921.26
996.565	2895.95
996.861	2912.23
997.157	2871.55
997.453	2921.26
997.749	2875.62
998.044	2867.03
998.34	2829.29
998.636	2846.46
998.932	2780.48
999.227	2774.83
999.523	2784.32
999.818	2780.7
1000.114	2743.19
1000.409	2760.82
1000.704	2735.06
1001	2708.16
1001.295	2690.08
1001.59	2666.36
1001.885	2697.99
1002.18	2653.25
1002.475	2611.44
1002.77	2584.1
1003.065	2589.52
1003.359	2574.61
1003.654	2568.28
1003.949	2552.01
1004.243	2556.53
1004.538	2549.3
1004.832	2515.17
1005.127	2492.58
1005.421	2503.42
1005.715	2443.76
1006.009	2437.89
1006.304	2432.46
1006.598	2425.91
1006.892	2419.58
1007.186	2375.74
1007.48	2382.3
1007.773	2366.03
1008.067	2356.76
1008.361	2328.96
1008.655	2354.27
1008.948	2323.99
1009.242	2299.81
1009.535	2274.95
1009.829	2269.76
1010.122	2279.02
1010.415	2274.95
1010.708	2222.98
1011.001	2235.18
1011.295	2237.22
1011.588	2236.31
1011.881	2201.06
1012.173	2149.76
1012.466	2144.79
1012.759	2143.88
1013.052	2178.01
1013.344	2136.43
1013.637	2115.18
1013.93	2096.65
1014.222	2072.25
1014.514	2058.91
1014.807	2038.12
1015.099	2038.58
1015.391	2019.82
1015.683	2002.19
1015.976	1999.03
1016.268	2024.11
1016.56	1971.23
1016.851	1964.45
1017.143	1947.96
1017.435	1950.44
1017.727	1950.22
1018.018	1895.98
1018.31	1892.82
1018.602	1915.87
1018.893	1872.93
1019.185	1872.93
1019.476	1832.71
1019.767	1829.54
1020.058	1846.72
1020.35	1826.15
1020.641	1823.89
1020.932	1768.98
1021.223	1778.02
1021.514	1733.73
1021.804	1729.66
1022.095	1733.73
1022.386	1711.58
1022.677	1726.49
1022.967	1717
1023.258	1675.87
1023.548	1673.61
1023.839	1677.91
1024.129	1674.97
1024.419	1648.98
1024.709	1638.81
1025	1639.49
1025.29	1600.62
1025.58	1580.28
1025.87	1596.1
1026.16	1572.6
1026.449	1559.49
1026.739	1542.09
1027.029	1543.45
1027.319	1561.3
1027.608	1533.5
1027.898	1519.04
1028.187	1531.47
1028.477	1503.9
1028.766	1503
1029.055	1428.42
1029.344	1485.37
1029.634	1472.72
1029.923	1449.21
1030.212	1436.78
1030.501	1440.17
1030.79	1428.65
1031.078	1397.46
1031.367	1399.27
1031.656	1377.35
1031.945	1374.86
1032.233	1364.7
1032.522	1366.05
1032.81	1375.99
1033.099	1330.57
1033.387	1345.04
1033.675	1315.43
1033.963	1308.65
1034.251	1289.67
1034.54	1299.16
1034.828	1265.49
1035.116	1257.35
1035.403	1268.88
1035.691	1259.84
1035.979	1253.51
1036.267	1270.23
1036.554	1228.43
1036.842	1227.75
1037.129	1207.19
1037.417	1217.81
1037.704	1212.61
1037.992	1188.66
1038.279	1178.03
1038.566	1186.4
1038.853	1186.4
1039.14	1186.4
