Data from plate_ceramic_FLMS001491_046.txt Node
Date: Tue Feb 07 11:16:50 GMT 2017
User: dcchb
Spectrometer: FLMS00149
Trigger mode: 0
Integration Time (sec): 2.000000E-2
Scans to average: 10
Electric dark correction enabled: true
Nonlinearity correction enabled: false
Boxcar width: 0
XAxis mode: Wavelengths
Number of Pixels in Spectrum: 2048
>>>>>Begin Spectral Data<<<<<
341.393	-15.61
341.776	-15.61
342.16	-15.61
342.543	-62.16
342.927	-73.01
343.31	-77.3
343.693	-97.86
344.077	-73.46
344.46	-42.05
344.843	-43.18
345.226	-37.75
345.61	-18.09
345.993	-4.31
346.376	2.47
346.759	8.57
347.142	24.17
347.525	43.15
347.908	43.6
348.291	69.59
348.674	100.32
349.057	102.13
349.44	135.35
349.823	139.19
350.206	173.09
350.588	189.36
350.971	231.17
351.354	219.64
351.737	246.08
352.119	257.83
352.502	291.28
352.884	279.07
353.267	306.64
353.65	315.23
354.032	334.21
354.414	341.45
354.797	330.6
355.179	324.72
355.562	327.89
355.944	341.9
356.326	348
356.709	335.34
357.091	347.1
357.473	360.2
357.855	352.07
358.238	361.78
358.62	356.81
359.002	373.76
359.384	367.89
359.766	378.06
360.148	371.95
360.53	355
360.912	343.48
361.294	350.94
361.676	355.46
362.057	381.67
362.439	345.06
362.821	346.42
363.203	347.32
363.584	336.93
363.966	345.06
364.348	355
364.729	342.12
365.111	348.45
365.493	339.41
365.874	337.83
366.256	364.5
366.637	366.08
367.019	340.77
367.4	368.56
367.781	335.8
368.163	355.91
368.544	360.88
368.925	352.97
369.306	331.73
369.688	362.01
370.069	340.09
370.45	354.78
370.831	372.63
371.212	345.97
371.593	342.35
371.974	379.86
372.355	352.29
372.736	371.73
373.117	364.27
373.498	352.97
373.879	346.64
374.26	354.33
374.641	331.28
375.021	369.92
375.402	369.69
375.783	384.83
376.163	388.45
376.544	375.12
376.925	381.67
377.305	397.49
377.686	384.61
378.066	379.18
378.447	390.03
378.827	401.56
379.208	375.12
379.588	397.49
379.968	400.43
380.349	395.68
380.729	395.68
381.109	390.26
381.489	403.14
381.87	419.41
382.25	404.04
382.63	420.99
383.01	420.99
383.39	414.44
383.77	427.32
384.15	428.45
384.53	432.29
384.91	435.45
385.29	420.54
385.67	448.11
386.049	440.43
386.429	436.58
386.809	466.41
387.189	472.74
387.568	462.57
387.948	452.4
388.328	451.05
388.707	433.42
389.087	472.97
389.466	480.88
389.846	455.57
390.225	476.36
390.605	501.22
390.984	498.96
391.363	494.44
391.743	496.02
392.122	498.73
392.501	498.5
392.881	525.17
393.26	531.27
393.639	517.94
394.018	531.27
394.397	525.4
394.776	507.54
395.155	533.31
395.534	562.68
395.913	546.41
396.292	554.77
396.671	544.83
397.05	548.67
397.429	560.88
397.808	564.26
398.186	552.97
398.565	555.45
398.944	571.04
399.323	597.71
399.701	581.44
400.08	597.03
400.458	578.05
400.837	606.75
401.215	616.92
401.594	627.99
401.972	623.92
402.351	625.96
402.729	630.25
403.107	678.61
403.486	644.49
403.864	634.09
404.242	633.87
404.62	636.81
404.999	670.25
405.377	675.9
405.755	664.38
406.133	668.67
406.511	680.19
406.889	692.17
407.267	680.87
407.645	736.46
408.023	715.45
408.401	749.8
408.779	751.15
409.156	756.8
409.534	727.88
409.912	740.76
410.29	779.85
410.667	805.16
411.045	774.88
411.422	802.45
411.8	823.69
412.178	831.15
412.555	830.02
412.933	825.5
413.31	841.77
413.687	853.97
414.065	860.75
414.442	882.22
414.819	900.3
415.197	891.26
415.574	893.3
415.951	905.72
416.328	943.24
416.705	947.31
417.082	966.74
417.46	951.37
417.837	959.96
418.214	987.76
418.591	969.23
418.967	1002.67
419.344	998.83
419.721	993.63
420.098	1030.24
420.475	1021.88
420.852	1040.64
421.228	1062.33
421.605	1060.3
421.982	1064.14
422.358	1092.16
422.735	1095.55
423.111	1050.81
423.488	1138.04
423.864	1096
424.241	1131.48
424.617	1135.55
424.994	1130.35
425.37	1162.22
425.746	1172.61
426.123	1173.51
426.499	1231.14
426.875	1220.29
427.251	1238.37
427.627	1247.86
428.003	1270.69
428.379	1267.52
428.756	1289.22
429.132	1316.79
429.507	1327.18
429.883	1333.06
430.259	1356.11
430.635	1361.53
431.011	1412.15
431.387	1400.18
431.763	1438.59
432.138	1438.82
432.514	1455.77
432.89	1459.38
433.265	1502.09
433.641	1507.52
434.016	1517.46
434.392	1550.68
434.767	1575.54
435.143	1602.66
435.518	1583.67
435.894	1590.23
436.269	1663.22
436.644	1668.64
437.02	1662.32
437.395	1652.6
437.77	1725.36
438.145	1712.26
438.52	1728.53
438.895	1763.33
439.271	1762.88
439.646	1802.88
440.021	1795.64
440.395	1827.96
440.77	1794.06
441.145	1835.19
441.52	1832.48
441.895	1871.58
442.27	1889.65
442.645	1906.83
443.019	1892.82
443.394	1901.4
443.769	1895.76
444.143	1967.39
444.518	1961.29
444.892	1958.13
445.267	1958.8
445.641	1976.43
446.016	2002.65
446.39	2015.75
446.764	2035.41
447.139	2015.98
447.513	2044.45
447.887	2055.53
448.262	2100.27
448.636	2095.98
449.01	2095.75
449.384	2094.85
449.758	2161.51
450.132	2149.53
450.506	2174.84
450.88	2187.5
451.254	2177.78
451.628	2232.02
452.002	2245.35
452.376	2234.28
452.75	2278.34
453.123	2335.07
453.497	2394.27
453.871	2355.63
454.244	2457.77
454.618	2456.19
454.992	2467.72
455.365	2476.3
455.739	2532.8
456.112	2566.7
456.486	2608.28
456.859	2618
457.232	2655.06
457.606	2650.09
457.979	2700.25
458.352	2748.16
458.725	2754.94
459.099	2803.53
459.472	2839.23
459.845	2883.07
460.218	2895.95
460.591	2919.46
460.964	2963.98
461.337	3018.66
461.71	3085.33
462.083	3127.36
462.456	3149.28
462.829	3130.53
463.201	3182.05
463.574	3197.42
463.947	3235.16
464.32	3357.86
464.692	3352.44
465.065	3380.24
465.438	3425.88
465.81	3451.65
466.183	3496.62
466.555	3566.67
466.928	3617.74
467.3	3617.07
467.672	3699.78
468.045	3779.77
468.417	3763.95
468.789	3777.06
469.161	3874.01
469.534	3926.21
469.906	4020.9
470.278	4041.91
470.65	4089.6
471.022	4159.2
471.394	4269.93
471.766	4268.8
472.138	4290.95
472.51	4415.91
472.882	4452.98
473.253	4528
473.625	4562.58
473.997	4689.13
474.369	4667.43
474.74	4799.86
475.112	4861.78
475.484	4972.51
475.855	5017.26
476.227	5061.1
476.598	5243.92
476.97	5274.65
477.341	5371.6
477.713	5393.97
478.084	5462.44
478.455	5684.81
478.827	5730.46
479.198	5864.01
479.569	5814.07
479.94	5977.23
480.311	6026.49
480.682	6257.22
481.053	6355.52
481.424	6493.37
481.795	6491.11
482.166	6595.52
482.537	6742.41
482.908	6824.44
483.279	6932.46
483.65	7062.63
484.021	7204.09
484.391	7223.98
484.762	7291.55
485.133	7401.37
485.503	7501.48
485.874	7749.16
486.244	7737.18
486.615	7934.92
486.985	8005.2
487.356	8241.58
487.726	8287.9
488.097	8409.48
488.467	8438.18
488.837	8559.76
489.207	8703.26
489.578	8828.45
489.948	8935.8
490.318	9069.8
490.688	9076.13
491.058	9256.69
491.428	9299.63
491.798	9459.17
492.168	9610.81
492.538	9691.26
492.908	9864.13
493.278	9872.27
493.648	9998.14
494.017	10069.33
494.387	10180.74
494.757	10277
495.126	10397
495.496	10423.89
495.866	10526.49
496.235	10635.64
496.605	10770.55
496.974	10831.79
497.344	10921.96
497.713	10977.78
498.082	11104.1
498.452	11186.81
498.821	11248.73
499.19	11341.38
499.559	11378.22
499.928	11516.97
500.298	11546.8
500.667	11698.21
501.036	11704.76
501.405	11843.29
501.774	11790.18
502.143	11912.67
502.512	12041.7
502.88	12146.33
503.249	12303.62
503.618	12218.2
503.987	12327.12
504.356	12460.45
504.724	12544.06
505.093	12537.06
505.462	12683.95
505.83	12780.67
506.199	12817.73
506.567	13058.4
506.936	13054.11
507.304	13251.84
507.672	13201.9
508.041	13316.25
508.409	13457.26
508.777	13610.7
509.145	13727.99
509.514	13731.83
509.882	13730.25
510.25	13931.14
510.618	13984.02
510.986	14043.68
511.354	14192.38
511.722	14327.74
512.09	14421.08
512.458	14437.8
512.826	14554.86
513.193	14523.9
513.561	14715.53
513.929	14885.92
514.297	15056.54
514.664	15176.99
515.032	15206.14
515.4	15303.99
515.767	15401.61
516.135	15595.73
516.502	15454.95
516.869	15774.49
517.237	15901.71
517.604	15902.84
517.972	16052.45
518.339	16117.98
518.706	16257.41
519.073	16286.56
519.44	16470.29
519.808	16640
520.175	16701.24
520.542	16853.55
520.909	16998.86
521.276	17006.09
521.643	17286.76
522.009	17362.24
522.376	17400.21
522.743	17622.8
523.11	17808.78
523.477	17977.82
523.843	18072.96
524.21	18206.74
524.577	18413.29
524.943	18414.64
525.31	18576.45
525.676	18738.7
526.043	18878.36
526.409	19004.68
526.776	19250.1
527.142	19181.63
527.508	19368.52
527.874	19519.47
528.241	19709.3
528.607	19693.25
528.973	19912.91
529.339	19867.94
529.705	20094.82
530.071	20255.5
530.437	20305.67
530.803	20577.98
531.169	20662.27
531.535	20817.29
531.901	20819.55
532.267	20892.54
532.632	21018.64
532.998	21140.9
533.364	21250.73
533.73	21322.14
534.095	21584.28
534.461	21598.06
534.826	21742.69
535.192	21793.99
535.557	22051.16
535.923	22015
536.288	22077.15
536.653	22191.49
537.019	22206.86
537.384	22330.02
537.749	22433.29
538.114	22412.28
538.479	22653.4
538.845	22584.93
539.21	22568.21
539.575	22768.43
539.94	22817.01
540.305	22956.67
540.67	23082.77
541.034	23248.87
541.399	23230.56
541.764	23307.4
542.129	23446.83
542.494	23528.41
542.858	23575.86
543.223	23525.92
543.587	23768.4
543.952	23746.71
544.316	23857.44
544.681	23909.41
545.045	24093.36
545.41	24190.08
545.774	24217.43
546.138	24282.74
546.503	24458.1
546.867	24439.57
547.231	24586.23
547.595	24666.46
547.959	24721.14
548.324	24770.41
548.688	24843.17
549.052	25011.31
549.416	25067.58
549.779	25125.88
550.143	25230.73
550.507	25416.04
550.871	25587.79
551.235	25625.75
551.599	25758.18
551.962	25807.89
552.326	25874.11
552.689	26033.88
553.053	25966.08
553.417	26115.68
553.78	26360.87
554.143	26268
554.507	26536.01
554.87	26576.46
555.234	26820.98
555.597	26709.57
555.96	26859.17
556.323	27015.32
556.686	26999.28
557.05	27241.08
557.413	27350.23
557.776	27340.74
558.139	27568.98
558.502	27590.9
558.865	27719.71
559.228	27802.42
559.59	28045.58
559.953	28088.51
560.316	28281.28
560.679	28388.17
561.041	28585.67
561.404	28759.46
561.767	28914.93
562.129	28839.23
562.492	29160.12
562.854	29219.78
563.217	29238.99
563.579	29454.8
563.941	29616.38
564.304	29696.61
564.666	29877.84
565.028	29918.97
565.39	30022.02
565.753	30163.71
566.115	30256.82
566.477	30344.5
566.839	30572.29
567.201	30811.38
567.563	30856.8
567.925	30966.63
568.287	31102.9
568.648	31191.26
569.01	31281.2
569.372	31485.49
569.734	31429.22
570.095	31703.33
570.457	31807.96
570.819	32039.37
571.18	31883.44
571.542	31990.33
571.903	32188.07
572.265	32278.91
572.626	32410.21
572.987	32409.98
573.349	32473.93
573.71	32740.82
574.071	32730.42
574.432	32768.39
574.794	33077.76
575.155	33114.82
575.516	32921.15
575.877	33179.23
576.238	33267.13
576.599	33287.02
576.96	33291.54
577.32	33471.65
577.681	33510.52
578.042	33690.17
578.403	33622.15
578.763	33676.16
579.124	33775.82
579.485	33882.03
579.845	34029.15
580.206	33935.14
580.566	33838.42
580.927	34031.86
581.287	34089.03
581.648	33889.72
582.008	34143.95
582.368	34131.52
582.728	34095.36
583.089	34134.68
583.449	34162.03
583.809	34185.75
584.169	34283.15
584.529	34186.66
584.889	34441.11
585.249	34342.59
585.609	34285.19
585.969	34491.51
586.329	34271.85
586.688	34443.83
587.048	34400.44
587.408	34284.96
587.768	34440.44
588.127	34494.45
588.487	34351.17
588.846	34653.31
589.206	34361.57
589.565	34489.02
589.925	34587.33
590.284	34477.05
590.643	34477.05
591.003	34523.82
591.362	34739.41
591.721	34569.7
592.08	34607.89
592.44	34498.97
592.799	34773.99
593.158	34640.43
593.517	34605.4
593.876	34733.99
594.235	34647.21
594.593	34739.64
594.952	35030.93
595.311	34644.72
595.67	34842.91
596.029	34951.16
596.387	34888.11
596.746	35063.7
597.104	34890.59
597.463	34904.15
597.822	35174.88
598.18	34808.11
598.538	34884.04
598.897	35086.97
599.255	34960.87
599.613	35447.42
599.972	35131.94
600.33	35213.3
600.688	35205.61
601.046	35263.92
601.404	35382.11
601.762	35298.49
602.12	35489
602.478	35378.72
602.836	35402.22
603.194	35301.2
603.552	35379.85
603.91	35285.84
604.268	35416.46
604.625	35420.98
604.983	35574.42
605.341	35433.63
605.698	35602.89
606.056	35708.88
606.413	35716.11
606.771	35779.38
607.128	35853.28
607.485	35743.68
607.843	35759.5
608.2	35897.8
608.557	36068.87
608.914	35820.74
609.272	35905.93
609.629	36080.85
609.986	36239.71
610.343	36035.2
610.7	36297.79
611.057	36262.99
611.414	36225.47
611.771	36293.27
612.127	36326.94
612.484	36269.99
612.841	36525.58
613.198	36348.18
613.554	36291.46
613.911	36537.33
614.267	36563.77
614.624	36629.98
614.98	36629.08
615.337	36718.79
615.693	36693.03
616.05	36659.81
616.406	36860.03
616.762	36778.23
617.118	36788.4
617.475	36785.91
617.831	37032.91
618.187	36815.52
618.543	36945.23
618.899	36980.71
619.255	37116.07
619.611	36944.78
619.967	37083.3
620.323	37236.97
620.678	37100.71
621.034	36904.1
621.39	37025.9
621.746	36938.45
622.101	37388.61
622.457	37020.71
622.812	37106.58
623.168	37216.86
623.523	37115.39
623.879	37249.85
624.234	36988.39
624.589	37136.64
624.945	37265.9
625.3	37114.72
625.655	37209.85
626.01	37281.94
626.365	37217.99
626.72	37249.18
627.075	37143.19
627.43	37078.11
627.785	37013.02
628.14	37095.51
628.495	37213.7
628.85	37183.64
629.205	37110.65
629.559	37188.84
629.914	36892.8
630.269	36994.27
630.623	36945.68
630.978	36820.94
631.332	36918.79
631.687	36947.94
632.041	36738
632.396	36768.06
632.75	36566.71
633.104	36793.59
633.459	36578.69
633.813	36471.8
634.167	36468.18
634.521	36420.95
634.875	36576.43
635.229	36385.47
635.583	36301.4
635.937	36399.48
636.291	36282.2
636.645	36417.56
636.999	36252.14
637.352	36392.48
637.706	36075.87
638.06	36211.92
638.413	36129.43
638.767	36023.22
639.121	36139.83
639.474	35870.46
639.828	35894.18
640.181	35950.68
640.534	35847.18
640.888	35821.19
641.241	35631.37
641.594	35700.97
641.947	35792.72
642.301	35596.11
642.654	35588.2
643.007	35631.82
643.36	35494.19
643.713	35462.1
644.066	35699.84
644.419	35321.32
644.771	35205.16
645.124	34764.04
645.477	34655.12
645.83	34380.78
646.182	34352.3
646.535	34371.96
646.888	34305.98
647.24	34263.72
647.593	34417.16
647.945	34273.89
648.298	33996.83
648.65	33996.83
649.002	33993.67
649.355	33969.26
649.707	33860.56
650.059	34099.65
650.411	34413.54
650.763	34399.76
651.115	34765.63
651.467	34780.31
651.819	34779.18
652.171	34533.77
652.523	34472.3
652.875	34550.04
653.227	34461.68
653.578	34535.35
653.93	34454
654.282	34362.02
654.633	34375.13
654.985	34418.74
655.337	34429.14
655.688	34215.36
656.039	34420.78
656.391	34124.51
656.742	34234.34
657.094	34317.5
657.445	34419.42
657.796	34307.33
658.147	34134.91
658.498	34060.33
658.849	34159.09
659.2	33981.92
659.551	33896.04
659.902	34099.65
660.253	33979.21
660.604	33991.63
660.955	33945.31
661.306	34022.14
661.656	33985.08
662.007	33952.09
662.358	33927.68
662.708	33851.53
663.059	33865.31
663.409	33694.47
663.76	33858.98
664.11	33945.53
664.461	33865.99
664.811	33886.1
665.161	33813.79
665.511	33638.42
665.862	33666.22
666.212	33752.32
666.562	33736.73
666.912	33614.92
667.262	33604.53
667.612	33612.66
667.962	33698.76
668.312	33608.14
668.662	33793.45
669.011	33668.03
669.361	33524.53
669.711	33468.26
670.06	33608.82
670.41	33463.51
670.76	33411.31
671.109	33499.9
671.459	33359.11
671.808	33280.92
672.157	33429.62
672.507	33221.94
672.856	33230.3
673.205	33323.4
673.554	33340.58
673.904	33221.49
674.253	33322.95
674.602	33262.84
674.951	32757.77
675.3	32648.62
675.649	33099.68
675.998	33095.39
676.346	33127.93
676.695	33202.05
677.044	33046.57
677.393	32990.3
677.741	33096.74
678.09	33053.81
678.438	32838.67
678.787	33023.07
679.135	32837.31
679.484	32652.23
679.832	32945.56
680.181	32625.57
680.529	32617.21
680.877	32568.4
681.225	32663.53
681.573	32861.95
681.922	32345.58
682.27	32424.22
682.618	32472.58
682.966	32313.94
683.314	32342.41
683.661	32261.06
684.009	32168.63
684.357	32149.2
684.705	32111.01
685.053	32012.7
685.4	32026.49
685.748	31913.95
686.095	31869.88
686.443	31858.81
686.79	31633.73
687.138	31868.98
687.485	31723.45
687.832	31585.6
688.18	31614.52
688.527	31427.86
688.874	31393.74
689.221	31348.31
689.568	31338.6
689.915	31199.17
690.262	31041.88
690.609	31113.97
690.956	31006.4
691.303	30905.61
691.65	30805.5
691.997	30756.69
692.344	30763.24
692.69	30747.43
693.037	30731.83
693.383	30466.76
693.73	30533.19
694.077	30393.99
694.423	30434.67
694.769	30396.25
695.116	30220.21
695.462	30060.66
695.808	29987.22
696.155	29966.88
696.501	29902.02
696.847	29747.68
697.193	29451.87
697.539	29550.85
697.885	29397.86
698.231	29326.45
698.577	29242.15
698.923	29211.87
699.269	29205.55
699.614	29008.94
699.96	29022.27
700.306	28915.84
700.651	28880.81
700.997	28698.67
701.342	28862.73
701.688	28724.65
702.033	28582.96
702.379	28592.91
702.724	28396.53
703.069	28530.76
703.415	28136.42
703.76	28234.27
704.105	28228.62
704.45	28209.19
704.795	28053.49
705.14	27973.26
705.485	27863.43
705.83	27732.14
706.175	27782.98
706.52	27690.56
706.865	27595.64
707.209	27527.17
707.554	27445.59
707.899	27402.88
708.243	27380.96
708.588	27364.92
708.932	27143.23
709.277	27084.02
709.621	27128.54
709.966	26959.95
710.31	27053.06
710.654	26883.35
710.998	26862.78
711.342	26837.02
711.687	26719.74
712.031	26558.61
712.375	26536.01
712.719	26536.92
713.063	26403.59
713.407	26587.08
713.75	26396.81
714.094	26416.01
714.438	26194.33
714.782	26287.88
715.125	26192.52
715.469	26257.83
715.812	26162.91
716.156	25852.41
716.499	25922.92
716.843	26045.63
717.186	25705.75
717.53	25982.13
717.873	25890.83
718.216	25912.52
718.559	25628.92
718.902	25493.78
719.246	25599.09
719.589	25473.44
719.932	25411.07
720.275	25475.02
720.617	25356.83
720.96	25262.37
721.303	25313.9
721.646	25180.34
721.989	25118.65
722.331	25127.69
722.674	25080.46
723.016	25058.31
723.359	24930.86
723.701	24929.5
724.044	24840.69
724.386	24727.02
724.729	24776.28
725.071	24821.71
725.413	24828.71
725.755	24825.55
726.097	24598.21
726.439	24404.32
726.782	24508.27
727.124	24543.3
727.465	24411.77
727.807	24459.91
728.149	24521.6
728.491	24346.69
728.833	24349.18
729.175	24288.16
729.516	24183.08
729.858	24123.42
730.199	24173.59
730.541	24049.97
730.882	24071.67
731.224	24023.99
731.565	23872.8
731.906	23967.94
732.248	23822.86
732.589	23772.69
732.93	23750.1
733.271	23728.85
733.612	23844.33
733.953	23805.24
734.294	23744.67
734.635	23730.89
734.976	23702.87
735.317	23576.54
735.658	23534.06
735.999	23580.61
736.339	23487.05
736.68	23533.38
737.021	23462.65
737.361	23297
737.702	23471.01
738.042	23287.96
738.383	23222.88
738.723	23274.63
739.063	23172.48
739.404	23357.56
739.744	23170.68
740.084	23042.09
740.424	23087.06
740.764	23036.44
741.104	23020.4
741.444	22927.07
741.784	22981.3
742.124	22880.06
742.464	22900.63
742.804	22802.78
743.143	22792.61
743.483	22722.55
743.823	22646.4
744.162	22547.19
744.502	22636.45
744.841	22556.68
745.181	22605.27
745.52	22549
745.86	22485.95
746.199	22385.39
746.538	22411.6
746.877	22432.16
747.216	22427.64
747.556	22350.13
747.895	22311.72
748.234	22167.31
748.573	22110.82
748.911	22160.99
749.25	22103.59
749.589	22019.75
749.928	22074.89
750.267	22060.65
750.605	21988.56
750.944	21760.09
751.283	21799.86
751.621	21837.38
751.96	21798.28
752.298	21728.23
752.636	21811.39
752.975	21599.42
753.313	21455.69
753.651	21592.64
753.989	21429.25
754.327	21511.06
754.666	21299.76
755.004	21289.14
755.342	21452.98
755.679	21273.32
756.017	21236.49
756.355	21234.23
756.693	21097.96
757.031	21107.68
757.368	20951.3
757.706	20962.37
758.044	20822.26
758.381	20785.88
758.719	20725.54
759.056	20685.54
759.394	20777.74
759.731	20569.39
760.068	20465.44
760.405	20386.12
760.743	20297.08
761.08	20446.68
761.417	20333.91
761.754	20260.7
762.091	20235.61
762.428	20131.66
762.765	19991.78
763.102	20040.14
763.438	19970.99
763.775	19745.68
764.112	19792.23
764.449	19885.79
764.785	19674.72
765.122	19585.69
765.458	19454.39
765.795	19562.18
766.131	19501.62
766.467	19416.42
766.804	19313.6
767.14	19100.5
767.476	19228.63
767.812	19048.52
768.148	19064.8
768.485	18959.94
768.821	18803.11
769.157	18854.63
769.492	18782.54
769.828	18847.4
770.164	18647.86
770.5	18599.72
770.836	18624.13
771.171	18491.25
771.507	18459.16
771.842	18352.5
772.178	18390.69
772.513	18278.15
772.849	18185.72
773.184	18013.3
773.519	18079.28
773.855	17956.35
774.19	17903.02
774.525	17873.41
774.86	17834.09
775.195	17721.55
775.53	17699.63
775.865	17542.12
776.2	17478.17
776.535	17373.31
776.87	17410.6
777.205	17291.96
777.539	17139.42
777.874	17218.52
778.209	17071.4
778.543	16960.9
778.878	16921.8
779.212	16883.38
779.547	16810.39
779.881	16844.29
780.215	16736.95
780.55	16741.92
780.884	16608.59
781.218	16518.87
781.552	16651.98
781.886	16534.69
782.22	16367.01
782.554	16322.72
782.888	16181.71
783.222	16079.79
783.556	16043.41
783.889	16030.98
784.223	15936.52
784.557	15901.26
784.89	15958.89
785.224	15830.76
785.557	15743.98
785.891	15749.4
786.224	15645.68
786.558	15570.42
786.891	15464.66
787.224	15472.57
787.557	15375.63
787.891	15376.76
788.224	15336.08
788.557	15246.59
788.89	15207.04
789.223	15206.37
789.556	15050.66
789.888	15061.74
790.221	14911.46
790.554	14861.97
790.887	14804.34
791.219	14837.11
791.552	14723.89
791.884	14700.16
792.217	14609.77
792.549	14646.15
792.882	14505.59
793.214	14400.06
793.546	14425.82
793.879	14354.64
794.211	14290.01
794.543	14251.59
794.875	14296.79
795.207	14321.87
795.539	14116.45
795.871	14172.27
796.203	14057.47
796.535	14035.1
796.867	13957.13
797.198	13846.4
797.53	13894.31
797.862	13828.77
798.193	13736.57
798.525	13760.08
798.856	13763.69
799.188	13612.74
799.519	13554.21
799.85	13462.91
800.182	13530.93
800.513	13560.53
800.844	13384.04
801.175	13380.2
801.506	13414.77
801.837	13281.9
802.168	13263.14
802.499	13232.63
802.83	13124.84
803.161	13224.04
803.491	13093.2
803.822	13088.68
804.153	12913.32
804.483	12905.64
804.814	12896.82
805.145	12797.62
805.475	12828.8
805.805	12758.29
806.136	12811.17
806.466	12789.93
806.796	12739.99
807.126	12648.69
807.457	12604.63
807.787	12546.32
808.117	12512.2
808.447	12483.27
808.777	12467
809.107	12472.2
809.436	12390.85
809.766	12366.89
810.096	12355.37
810.426	12353.56
810.755	12324.18
811.085	12304.07
811.414	12303.39
811.744	12103.4
812.073	12057.97
812.403	12062.72
812.732	12011.2
813.061	12072.44
813.39	11943.85
813.719	11904.53
814.049	11994.25
814.378	11907.02
814.707	11872.44
815.036	11826.12
815.365	11882.39
815.693	11714.48
816.022	11674.26
816.351	11686.01
816.68	11629.06
817.008	11658.44
817.337	11609.62
817.665	11484.43
817.994	11514.26
818.322	11538.67
818.651	11437.65
818.979	11441.04
819.307	11462.74
819.636	11412.12
819.964	11394.26
820.292	11363.53
820.62	11309.74
820.948	11260.03
821.276	11349.97
821.604	11277.43
821.932	11260.48
822.259	11319.69
822.587	11215.96
822.915	11209.63
823.243	11303.42
823.57	11265.68
823.898	11250.54
824.225	11237.88
824.553	11231.1
824.88	11272.68
825.207	11303.87
825.535	11251.89
825.862	11283.31
826.189	11200.82
826.516	11273.59
826.843	11355.17
827.17	11208.28
827.497	11202.86
827.824	11263.87
828.151	11297.54
828.478	11236.98
828.805	11302.29
829.131	11115.85
829.458	11161.05
829.785	11134.38
830.111	11213.7
830.438	11196.3
830.764	11162.4
831.09	11096.64
831.417	11134.83
831.743	11224.1
832.069	11156.98
832.395	11088.73
832.722	11123.54
833.048	11098
833.374	11100.03
833.7	11062.52
834.026	11068.4
834.351	11037.89
834.677	11034.27
835.003	11135.29
835.329	11092.58
835.654	10983.2
835.98	10963.99
836.306	10996.53
836.631	10932.35
836.956	10920.38
837.282	10894.16
837.607	10897.55
837.932	10882.19
838.258	10895.74
838.583	10790.89
838.908	10780.27
839.233	10806.48
839.558	10816.65
839.883	10735.97
840.208	10689.42
840.533	10734.39
840.858	10706.82
841.182	10700.27
841.507	10621.18
841.832	10629.31
842.156	10637.22
842.481	10587.05
842.805	10612.81
843.13	10480.39
843.454	10570.56
843.778	10445.81
844.103	10518.13
844.427	10428.19
844.751	10430.67
845.075	10424.12
845.399	10355.42
845.723	10243.11
846.047	10305.7
846.371	10173.73
846.695	10220.96
847.019	10162.66
847.343	10103
847.666	10001.76
847.99	9982.1
848.313	9983.23
848.637	9951.81
848.96	9946.84
849.284	9962.66
849.607	9768.32
849.931	9771.93
850.254	9706.17
850.577	9652.61
850.9	9583.46
851.223	9546.85
851.546	9595.89
851.869	9440.64
852.192	9574.65
852.515	9493.75
852.838	9362.68
853.161	9399.29
853.483	9349.12
853.806	9395.22
854.129	9354.32
854.451	9232.74
854.774	9204.04
855.096	9216.01
855.419	9199.07
855.741	9114.32
856.063	9096.47
856.385	9113.42
856.708	9030.93
857.03	9040.43
857.352	9016.7
857.674	8987.09
857.996	8889.92
858.318	8853.99
858.64	8938.06
858.961	8815.8
859.283	8830.04
859.605	8802.24
859.926	8797.95
860.248	8757.5
860.57	8714.11
860.891	8707.78
861.212	8657.84
861.534	8723.82
861.855	8624.17
862.176	8620.55
862.498	8638.4
862.819	8632.08
863.14	8594.56
863.461	8609.03
863.782	8532.64
864.103	8511.63
864.424	8532.42
864.745	8492.19
865.065	8441.12
865.386	8443.38
865.707	8444.51
866.027	8492.19
866.348	8470.05
866.668	8501.01
866.989	8407
867.309	8317.06
867.63	8352.08
867.95	8317.51
868.27	8266.44
868.59	8308.02
868.91	8333.55
869.23	8272.76
869.55	8253.55
869.87	8307.11
870.19	8205.42
870.51	8258.07
870.83	8246.77
871.15	8204.06
871.469	8202.71
871.789	8200.9
872.109	8131.52
872.428	8123.84
872.748	8137.17
873.067	8068.7
873.386	8112.99
873.706	8117.51
874.025	8085.2
874.344	8007.01
874.663	8073.9
874.982	8098.08
875.301	8040.68
875.62	8013.33
875.939	7992.09
876.258	8033.45
876.577	7946.9
876.896	7985.76
877.214	7908.25
877.533	7881.59
877.852	7898.08
878.17	7855.37
878.489	7912.55
878.807	7847.92
879.125	7854.69
879.444	7846.56
879.762	7807.01
880.08	7801.14
880.398	7729.73
880.716	7786.9
881.034	7798.2
881.352	7780.12
881.67	7746.67
881.988	7769.27
882.306	7721.82
882.624	7625.77
882.941	7656.73
883.259	7634.36
883.577	7589.62
883.894	7614.47
884.212	7585.55
884.529	7561.82
884.846	7468.94
885.164	7484.76
885.481	7475.95
885.798	7452.22
886.115	7445.21
886.432	7454.93
886.75	7418.1
887.067	7396.4
887.383	7347.59
887.7	7428.49
888.017	7383.29
888.334	7360.7
888.651	7342.84
888.967	7287.7
889.284	7233.47
889.6	7214.26
889.917	7147.14
890.233	7213.81
890.55	7214.49
890.866	7180.81
891.182	7172
891.498	7149.63
891.815	7077.54
892.131	7114.15
892.447	7062.17
892.763	7047.71
893.079	6995.96
893.395	7004.55
893.71	6963.87
894.026	6980.82
894.342	6942.63
894.657	6871.9
894.973	6907.6
895.289	6863.31
895.604	6897.43
895.92	6818.34
896.235	6768.17
896.55	6808.39
896.865	6765.23
897.181	6770.43
897.496	6695.86
897.811	6701.28
898.126	6688.62
898.441	6651.56
898.756	6657.44
899.071	6631.9
899.386	6592.35
899.7	6553.26
900.015	6536.76
900.33	6461.74
900.644	6492.92
900.959	6473.04
901.273	6402.3
901.588	6423.32
901.902	6353.94
902.216	6393.04
902.531	6352.36
902.845	6303.1
903.159	6313.94
903.473	6229.65
903.787	6261.97
904.101	6207.96
904.415	6205.7
904.729	6183.33
905.042	6122.08
905.356	6106.72
905.67	6086.38
905.984	6114.18
906.297	6113.95
906.611	5974.52
906.924	5985.37
907.237	6004.12
907.551	5950.11
907.864	5955.31
908.177	5963.22
908.491	5901.07
908.804	5857.46
909.117	5881.87
909.43	5813.39
909.743	5839.38
910.056	5776.33
910.368	5772.49
910.681	5718.03
910.994	5712.83
911.307	5699.05
911.619	5620.86
911.932	5708.08
912.244	5596.45
912.557	5635.54
912.869	5559.16
913.181	5602.78
913.494	5584.02
913.806	5469.45
914.118	5468.54
914.43	5471.25
914.742	5454.31
915.054	5441.2
915.366	5363.01
915.678	5336.34
915.99	5299.96
916.302	5351.48
916.613	5280.98
916.925	5326.85
917.236	5311.48
917.548	5242.33
917.859	5246.85
918.171	5184.93
918.482	5185.16
918.794	5163.69
919.105	5163.47
919.416	5108.55
919.727	5085.95
920.038	5054.09
920.349	5035.11
920.66	5063.36
920.971	5050.93
921.282	4976.58
921.593	4947.2
921.903	4945.39
922.214	4902
922.525	4952.4
922.835	4869.91
923.146	4873.53
923.456	4830.59
923.767	4843.25
924.077	4787.66
924.387	4773.65
924.697	4770.26
925.008	4765.28
925.318	4720.77
925.628	4698.39
925.938	4761.44
926.248	4671.05
926.558	4665.85
926.867	4639.19
927.177	4591.96
927.487	4615.68
927.796	4563.26
928.106	4626.76
928.416	4496.36
928.725	4525.52
929.034	4489.59
929.344	4483.48
929.653	4443.03
929.962	4470.15
930.271	4368.23
930.581	4417.27
930.89	4381.57
931.199	4321.91
931.508	4350.61
931.817	4332.98
932.125	4285.3
932.434	4296.14
932.743	4294.56
933.051	4257.28
933.36	4261.79
933.669	4243.04
933.977	4205.3
934.286	4173.21
934.594	4132.98
934.902	4092.31
935.21	4145.19
935.519	4139.54
935.827	4117.39
936.135	4091.18
936.443	4072.2
936.751	4053.89
937.059	3996.49
937.367	3985.19
937.674	4004.17
937.982	3948.81
938.29	3943.84
938.597	3946.1
938.905	3905.65
939.213	3901.35
939.52	3870.39
939.827	3886.21
940.135	3860.45
940.442	3848.25
940.749	3838.3
941.056	3789.49
941.363	3793.78
941.67	3794.01
941.977	3782.26
942.284	3722.37
942.591	3783.84
942.898	3670.85
943.205	3700
943.511	3652.32
943.818	3690.74
944.125	3632.88
944.431	3652.55
944.738	3617.97
945.044	3565.99
945.35	3616.61
945.657	3584.98
945.963	3546.79
946.269	3535.26
946.575	3517.41
946.881	3479.67
947.187	3495.71
947.493	3513.34
947.799	3470.4
948.105	3399.67
948.41	3400.8
948.716	3431.08
949.022	3419.78
949.327	3422.72
949.633	3377.52
949.938	3343.63
950.244	3366.9
950.549	3333.01
950.854	3333.68
951.16	3300.24
951.465	3330.75
951.77	3264.76
952.075	3270.41
952.38	3217.75
952.685	3216.17
952.99	3210.52
953.294	3206.68
953.599	3194.93
953.904	3165.1
954.209	3180.24
954.513	3138.89
954.818	3157.42
955.122	3094.37
955.426	3135.04
955.731	3108.15
956.035	3083.75
956.339	3096.85
956.643	3044.88
956.948	3075.16
957.252	3036.29
957.556	3056.4
957.86	3008.27
958.163	2998.55
958.467	2978.44
958.771	2942.51
959.075	2980.02
959.378	2930.53
959.682	2954.94
959.985	2942.28
960.289	2873.81
960.592	2906.58
960.896	2862.74
961.199	2869.74
961.502	2873.36
961.805	2796.97
962.108	2850.08
962.411	2808.27
962.714	2773.7
963.017	2795.84
963.32	2782.96
963.623	2784.32
963.926	2762.63
964.228	2733.02
964.531	2748.16
964.833	2750.65
965.136	2716.75
965.438	2690.08
965.741	2707.03
966.043	2692.57
966.345	2675.62
966.648	2641.27
966.95	2650.31
967.252	2649.18
967.554	2625.68
967.856	2609.86
968.158	2600.6
968.46	2625
968.761	2579.35
969.063	2562.86
969.365	2547.26
969.666	2529.86
969.968	2502.29
970.269	2537.32
970.571	2515.17
970.872	2504.78
971.174	2517.66
971.475	2484.89
971.776	2470.2
972.077	2423.88
972.378	2463.2
972.679	2446.02
972.98	2436.31
973.281	2460.94
973.582	2410.32
973.883	2414.84
974.183	2416.19
974.484	2398.57
974.785	2369.19
975.085	2395.86
975.386	2317.67
975.686	2332.13
975.986	2330.09
976.287	2326.7
976.587	2274.95
976.887	2299.36
977.187	2300.04
977.487	2295.52
977.787	2267.04
978.087	2275.86
978.387	2267.5
978.687	2267.04
978.987	2233.83
979.286	2213.71
979.586	2203.77
979.885	2208.52
980.185	2166.48
980.484	2174.39
980.784	2168.29
981.083	2202.19
981.382	2195.86
981.682	2178.69
981.981	2119.48
982.28	2133.49
982.579	2099.37
982.878	2108.63
983.177	2093.04
983.475	2086.94
983.774	2089.2
984.073	2063.21
984.372	2058.24
984.67	2088.97
984.969	2033.15
985.267	2025.02
985.566	2015.98
985.864	2038.12
986.162	2048.97
986.461	2016.43
986.759	2005.36
987.057	2034.51
987.355	2002.87
987.653	1959.93
987.951	1964.68
988.249	1964
988.547	1964.45
988.844	1902.08
989.142	1943.89
989.44	1922.87
989.737	1911.35
990.035	1916.77
990.332	1875.87
990.63	1882.2
990.927	1867.96
991.224	1882.42
991.521	1868.86
991.819	1839.94
992.116	1867.96
992.413	1847.39
992.71	1785.48
993.006	1856.43
993.303	1799.26
993.6	1786.83
993.897	1794.97
994.193	1811.01
994.49	1768.98
994.787	1788.64
995.083	1759.26
995.379	1773.5
995.676	1772.59
995.972	1723.1
996.268	1745.93
996.565	1710.9
996.861	1703.67
997.157	1708.42
997.453	1708.19
997.749	1689.43
998.044	1686.27
998.34	1695.08
998.636	1675.65
998.932	1668.64
999.227	1669.09
999.523	1632.03
999.818	1637
1000.114	1635.88
1000.409	1575.31
1000.704	1595.2
1001	1632.03
1001.295	1584.35
1001.59	1599.94
1001.885	1575.76
1002.18	1575.09
1002.475	1563.56
1002.77	1545.93
1003.065	1515.88
1003.359	1530.57
1003.654	1535.99
1003.949	1522.88
1004.243	1517.23
1004.538	1492.6
1004.832	1477.69
1005.127	1483.79
1005.421	1501.64
1005.715	1479.72
1006.009	1451.7
1006.304	1459.61
1006.598	1434.98
1006.892	1446.28
1007.186	1467.52
1007.48	1429.55
1007.773	1443.79
1008.067	1445.37
1008.361	1411.02
1008.655	1394.3
1008.948	1388.42
1009.242	1380.51
1009.535	1382.77
1009.829	1370.12
1010.122	1361.98
1010.415	1364.47
1010.708	1362.66
1011.001	1339.84
1011.295	1340.74
1011.588	1340.29
1011.881	1329.89
1012.173	1321.53
1012.466	1324.92
1012.759	1289.67
1013.052	1314.08
1013.344	1291.48
1013.637	1307.52
1013.93	1305.04
1014.222	1284.47
1014.514	1253.51
1014.807	1268.88
1015.099	1256.45
1015.391	1208.77
1015.683	1201.76
1015.976	1225.26
1016.268	1211.25
1016.56	1205.6
1016.851	1221.65
1017.143	1183.23
1017.435	1200.63
1017.727	1204.02
1018.018	1180.07
1018.31	1177.13
1018.602	1198.15
1018.893	1153.18
1019.185	1154.08
1019.476	1147.98
1019.767	1127.87
1020.058	1123.12
1020.35	1126.96
1020.641	1121.31
1020.932	1130.35
1021.223	1110.69
1021.514	1103.46
1021.804	1071.37
1022.095	1078.83
1022.386	1070.92
1022.677	1104.59
1022.967	1048.55
1023.258	1092.61
1023.548	1023.91
1023.839	1091.26
1024.129	1042.9
1024.419	1019.85
1024.709	1035.21
1025	1026.17
1025.29	1008.32
1025.58	985.95
1025.87	984.14
1026.16	987.76
1026.449	987.08
1026.739	976.23
1027.029	977.14
1027.319	990.92
1027.608	964.25
1027.898	963.58
1028.187	944.14
1028.477	953.63
1028.766	983.69
1029.055	939.62
1029.344	920.87
1029.634	911.83
1029.923	900.3
1030.212	919.74
1030.501	919.96
1030.79	904.59
1031.078	889.23
1031.367	894.65
1031.656	874.54
1031.945	889.68
1032.233	876.12
1032.522	894.88
1032.81	855.56
1033.099	869.57
1033.387	875.9
1033.675	851.49
1033.963	861.88
1034.251	852.62
1034.54	844.71
1034.828	845.61
1035.116	819.4
1035.403	837.7
1035.691	823.02
1035.979	841.32
1036.267	816.46
1036.554	802.68
1036.842	799.74
1037.129	781.89
1037.417	795.9
1037.704	772.17
1037.992	773.3
1038.279	761.32
1038.566	772.62
1038.853	772.62
1039.14	772.62
