Data from plate_porcelain_FLMS001491_010.txt Node
Date: Tue Feb 07 11:18:39 GMT 2017
User: dcchb
Spectrometer: FLMS00149
Trigger mode: 0
Integration Time (sec): 2.000000E-2
Scans to average: 10
Electric dark correction enabled: true
Nonlinearity correction enabled: false
Boxcar width: 0
XAxis mode: Wavelengths
Number of Pixels in Spectrum: 2048
>>>>>Begin Spectral Data<<<<<
341.393	-21.68
341.776	-21.68
342.16	-21.68
342.543	-54.67
342.927	-77.05
343.31	-56.71
343.693	-68.46
344.077	-62.81
344.46	-70.72
344.843	-55.35
345.226	-52.64
345.61	-19.87
345.993	-32.98
346.376	-3.38
346.759	1.37
347.142	47.02
347.525	46.11
347.908	68.94
348.291	68.03
348.674	82.27
349.057	109.16
349.44	131.76
349.823	137.41
350.206	165.66
350.588	224.87
350.971	261.7
351.354	241.82
351.737	270.52
352.119	294.02
352.502	308.48
352.884	328.59
353.267	328.59
353.65	329.27
354.032	334.69
354.414	328.82
354.797	359.33
355.179	361.13
355.562	347.58
355.944	373.56
356.326	386.67
356.709	377.63
357.091	382.38
357.473	387.35
357.855	400.46
358.238	377.86
358.62	391.42
359.002	387.8
359.384	398.65
359.766	402.04
360.148	390.06
360.53	407.46
360.912	348.71
361.294	378.54
361.676	385.31
362.057	387.35
362.439	376.28
362.821	361.81
363.203	398.42
363.584	397.52
363.966	384.86
364.348	410.62
364.729	388.93
365.111	382.6
365.493	384.41
365.874	397.07
366.256	405.65
366.637	392.32
367.019	395.48
367.4	387.35
367.781	391.42
368.163	407.91
368.544	390.51
368.925	425.99
369.306	396.39
369.688	408.82
370.069	397.74
370.45	391.64
370.831	403.62
371.212	405.43
371.593	421.92
371.974	428.48
372.355	415.82
372.736	417.63
373.117	416.73
373.498	438.42
373.879	418.99
374.26	410.85
374.641	406.78
375.021	436.39
375.402	433.68
375.783	457.63
376.163	467.8
376.544	458.99
376.925	470.96
377.305	468.02
377.686	470.74
378.066	468.02
378.447	475.26
378.827	481.58
379.208	488.36
379.588	480.91
379.968	489.94
380.349	482.71
380.729	501.24
381.109	494.69
381.489	502.6
381.87	518.87
382.25	518.87
382.63	535.59
383.01	506.67
383.39	534.92
383.77	523.62
384.15	551.19
384.53	529.04
384.91	537.4
385.29	552.54
385.67	551.19
386.049	571.3
386.429	571.07
386.809	562.71
387.189	556.84
387.568	599.77
387.948	624.4
388.328	590.96
388.707	608.13
389.087	602.03
389.466	614.01
389.846	634.57
390.225	623.27
390.605	634.8
390.984	648.58
391.363	653.1
391.743	651.97
392.122	665.99
392.501	669.15
392.881	698.3
393.26	684.97
393.639	701.92
394.018	692.43
394.397	703.27
394.776	717.74
395.155	722.93
395.534	723.61
395.913	741.01
396.292	752.76
396.671	774.91
397.05	743.27
397.429	787.11
397.808	789.15
398.186	783.5
398.565	788.69
398.944	825.3
399.323	811.74
399.701	805.42
400.08	815.36
400.458	821.01
400.837	858.97
401.215	882.48
401.594	868.24
401.972	857.17
402.351	884.06
402.729	889.71
403.107	903.49
403.486	937.62
403.864	925.19
404.242	951.18
404.62	943.72
404.999	970.61
405.377	998.41
405.755	979.42
406.133	1002.25
406.511	998.41
406.889	1033.43
407.267	1034.56
407.645	1036.6
408.023	1052.64
408.401	1053.55
408.779	1094.9
409.156	1099.87
409.534	1125.18
409.912	1145.97
410.29	1152.07
410.667	1170.38
411.045	1190.72
411.422	1217.38
411.8	1225.07
412.178	1229.59
412.555	1249.92
412.933	1260.32
413.31	1291.96
413.687	1291.05
414.065	1317.49
414.442	1345.52
414.819	1348.23
415.197	1382.35
415.574	1384.16
415.951	1387.77
416.328	1412.63
416.705	1441.78
417.082	1433.2
417.46	1468.22
417.837	1462.8
418.214	1487.88
418.591	1498.51
418.967	1528.56
419.344	1525.4
419.721	1561.78
420.098	1550.71
420.475	1591.84
420.852	1581.89
421.228	1637.03
421.605	1636.13
421.982	1658.73
422.358	1653.08
422.735	1681.55
423.111	1686.52
423.488	1736.24
423.864	1736.24
424.241	1752.51
424.617	1811.04
424.994	1819.85
425.37	1827.08
425.746	1825.95
426.123	1889.91
426.499	1866.18
426.875	1898.27
427.251	1932.84
427.627	2001.77
428.003	1995.44
428.379	1995.89
428.756	2013.52
429.132	2098.26
429.507	2132.39
429.883	2128.32
430.259	2142.78
430.635	2196.79
431.011	2173.74
431.387	2279.05
431.763	2339.84
432.138	2328.09
432.514	2333.51
432.89	2375.32
433.265	2414.41
433.641	2475.43
434.016	2477.24
434.392	2534.18
434.767	2581.42
435.143	2578.48
435.518	2579.38
435.894	2635.88
436.269	2675.2
436.644	2699.38
437.02	2705.03
437.395	2737.8
437.77	2793.16
438.145	2851.01
438.52	2858.47
438.895	2899.15
439.271	2943.89
439.646	2971.01
440.021	2976.89
440.395	2998.13
440.77	3005.36
441.145	3047.84
441.52	3088.29
441.895	3072.02
442.27	3128.75
442.645	3137.11
443.019	3180.27
443.394	3166.94
443.769	3201.29
444.143	3218.23
444.518	3277.22
444.892	3255.3
445.267	3306.59
445.641	3341.17
446.016	3411.68
446.39	3412.35
446.764	3383.88
447.139	3425.69
447.513	3479.47
447.887	3509.53
448.262	3524.44
448.636	3558.79
449.01	3599.92
449.384	3622.97
449.758	3602.86
450.132	3697.32
450.506	3698.9
450.88	3745
451.254	3810.76
451.628	3816.18
452.002	3890.99
452.376	3915.84
452.75	3957.88
453.123	3941.38
453.497	4067.48
453.871	4048.95
454.244	4130.53
454.618	4216.85
454.992	4258.21
455.365	4238.09
455.739	4369.84
456.112	4390.41
456.486	4453.91
456.859	4432.21
457.232	4611.87
457.606	4566.67
457.979	4678.99
458.352	4751.3
458.725	4827.01
459.099	4819.55
459.472	4962.6
459.845	4979.09
460.218	5037.62
460.591	5151.74
460.964	5141.35
461.337	5261.12
461.71	5337.05
462.083	5385.86
462.456	5436.93
462.829	5431.06
463.201	5524.39
463.574	5528.46
463.947	5703.14
464.32	5814.32
464.692	5844.61
465.065	5893.19
465.438	5982.68
465.81	6073.75
466.183	6120.98
466.555	6289.79
466.928	6333.41
467.3	6293.63
467.672	6439.39
468.045	6617.92
468.417	6578.15
468.789	6687.07
469.161	6740.18
469.534	6855.65
469.906	7053.39
470.278	7144.69
470.65	7179.49
471.022	7358.01
471.394	7435.52
471.766	7510.1
472.138	7600.72
472.51	7779.47
472.882	7914.61
473.253	8024.44
473.625	8114.83
473.997	8360.02
474.369	8386.69
474.74	8452.45
475.112	8669.84
475.484	8786.68
475.855	8910.97
476.227	8982.15
476.598	9272.31
476.97	9359.32
477.341	9600.44
477.713	9738.97
478.084	9698.52
478.455	10049.92
478.827	10173.53
479.198	10481.55
479.569	10460.98
479.94	10734.87
480.311	10812.84
480.682	11117.46
481.053	11350.22
481.424	11473.84
481.795	11599.26
482.166	11893.26
482.537	12061.84
482.908	12245.12
483.279	12431.55
483.65	12582.73
484.021	12880.81
484.391	13035.15
484.762	13142.95
485.133	13265.2
485.503	13519.66
485.874	13746.32
486.244	13908.57
486.615	14144.05
486.985	14401.67
487.356	14568.44
487.726	14766.41
488.097	15109.22
488.467	15132.27
488.837	15466.95
489.207	15711.92
489.578	15896.77
489.948	16021.74
490.318	16241.62
490.688	16336.76
491.058	16550.99
491.428	16907.59
491.798	17019.45
492.168	17367.47
492.538	17400.46
492.908	17601.59
493.278	17848.81
493.648	17940.79
494.017	18146.43
494.387	18371.28
494.757	18453.54
495.126	18740.76
495.496	18823.93
495.866	19013.75
496.235	19179.4
496.605	19298.26
496.974	19460.75
497.344	19648.54
497.713	19856.89
498.082	20002.88
498.452	20216.88
498.821	20297.56
499.19	20359.7
499.559	20556.99
499.928	20720.6
500.298	20867.04
500.667	21165.79
501.036	21106.8
501.405	21447.13
501.774	21328.49
502.143	21550.86
502.512	21740.01
502.88	21848.71
503.249	21990.4
503.618	22101.35
503.987	22230.16
504.356	22415.92
504.724	22599.42
505.093	22645.75
505.462	22876.25
505.83	23015.45
506.199	23315.79
506.567	23442.79
506.936	23522.11
507.304	23878.48
507.672	23958.03
508.041	24009.33
508.409	24312.82
508.777	24412.48
509.145	24662.64
509.514	24621.97
509.882	24906.03
510.25	24896.31
510.618	25105.34
510.986	25360.25
511.354	25588.27
511.722	25807.02
512.09	25941.93
512.458	26002.72
512.826	26251.53
513.193	26399.55
513.561	26608.81
513.929	26792.76
514.297	27030.49
514.664	27307.09
515.032	27347.09
515.4	27686.52
515.767	27778.27
516.135	27886.74
516.502	27942.33
516.869	28413.96
517.237	28462.77
517.604	28500.96
517.972	28858.46
518.339	29073.15
518.706	29138.91
519.073	29351.56
519.44	29577.09
519.808	29875.16
520.175	29870.87
520.542	30444.86
520.909	30381.81
521.276	30589.72
521.643	30814.12
522.009	31073.32
522.376	31464.95
522.743	31525.96
523.11	31836.24
523.477	32174.31
523.843	32306.28
524.21	32673.05
524.577	32957.79
524.943	32920.5
525.31	33206.6
525.676	33557.1
526.043	33797.32
526.409	33924.32
526.776	34488.37
527.142	34545.55
527.508	34738.54
527.874	35038.64
528.241	35268.24
528.607	35359.54
528.973	35688.12
529.339	35730.83
529.705	36021.67
530.071	36322.22
530.437	36447.19
530.803	36679.28
531.169	36939.16
531.535	36954.3
531.901	37140.96
532.267	37233.61
532.632	37585.24
532.998	37783.88
533.364	37992.46
533.73	38282.85
534.095	38644.42
534.461	38602.84
534.826	38860.69
535.192	38912.21
535.557	39238.98
535.923	39163.05
536.288	39344.97
536.653	39622.93
537.019	39570.5
537.384	39801.68
537.749	39858.4
538.114	40036.93
538.479	40105.63
538.845	40457.71
539.21	40429.69
539.575	40712.62
539.94	40843.01
540.305	41012.5
540.67	41033.06
541.034	41077.13
541.399	41269.44
541.764	41356.89
542.129	41583.55
542.494	41718.01
542.858	41899.25
543.223	41981.96
543.587	42395.96
543.952	42301.27
544.316	42408.62
544.681	42459.69
545.045	42649.51
545.41	42966.34
545.774	42862.62
546.138	43094.93
546.503	43195.94
546.867	43155.04
547.231	43545.08
547.595	43618.3
547.959	43838.18
548.324	43815.13
548.688	43835.7
549.052	44210.38
549.416	44240.88
549.779	44357.49
550.143	44497.15
550.507	44858.27
550.871	44943.01
551.235	44867.31
551.599	45234.53
551.962	45398.82
552.326	45375.09
552.689	45696.44
553.053	45488.76
553.417	45764.23
553.78	46218.69
554.143	46095.3
554.507	46269.98
554.87	46425.91
555.234	46815.96
555.597	46689.18
555.96	46817.09
556.323	47052.56
556.686	47290.97
557.05	47405.1
557.413	47653
557.776	47591.31
558.139	47840.79
558.502	48044.4
558.865	48083.04
559.228	48352.19
559.59	48437.38
559.953	48512.86
560.316	48935
560.679	48985.39
561.041	49283.69
561.404	49459.5
561.767	49620.18
562.129	49450.47
562.492	49848.19
562.854	49890.45
563.217	49974.07
563.579	50072.14
563.941	50428.29
564.304	50552.58
564.666	50755.97
565.028	50740.37
565.39	50934.04
565.753	51108.05
566.115	51241.15
566.477	51345.1
566.839	51382.17
567.201	51766.11
567.563	51639.11
567.925	51984.64
568.287	51984.41
568.648	52090.62
569.01	52207.68
569.372	52496.49
569.734	52392.08
570.095	52633.66
570.457	52667.1
570.819	52822.58
571.18	52778.97
571.542	52984.61
571.903	52931.05
572.265	53111.84
572.626	53270.93
572.987	53338.05
573.349	53362.23
573.71	53551.15
574.071	53635.67
574.432	53630.02
574.794	53897.13
575.155	53776.91
575.516	53716.34
575.877	53985.04
576.238	53990.91
576.599	54029.33
576.96	54095.99
577.32	54161.3
577.681	54243.11
578.042	54344.12
578.403	54340.51
578.763	54420.96
579.124	54497.79
579.485	54488.3
579.845	54613.27
580.206	54495.98
580.566	54570.1
580.927	54606.26
581.287	54761.96
581.648	54665.24
582.008	54789.76
582.368	54748.63
582.728	54823.21
583.089	54721.97
583.449	54677.9
583.809	54801.51
584.169	54891
584.529	54734.62
584.889	54986.36
585.249	54745.69
585.609	54731.68
585.969	54970.32
586.329	54867.5
586.688	54944.78
587.048	54866.82
587.408	54852.81
587.768	54827.73
588.127	54837.44
588.487	54730.78
588.846	54923.54
589.206	54904.11
589.565	54861.62
589.925	55047.61
590.284	54845.8
590.643	55047.83
591.003	55029.53
591.362	55132.35
591.721	55030.43
592.08	55081.05
592.44	55175.74
592.799	55132.58
593.158	55028.85
593.517	55091.67
593.876	55151.78
594.235	55122.86
594.593	55125.12
594.952	55214.38
595.311	55015.74
595.67	55130.32
596.029	55254.61
596.387	55243.76
596.746	55336.41
597.104	55211.44
597.463	55192.01
597.822	55380.48
598.18	55301.16
598.538	55255.51
598.897	55434.49
599.255	55247.83
599.613	55574.82
599.972	55333.7
600.33	55484.2
600.688	55399.24
601.046	55522.4
601.404	55684.88
601.762	55543.64
602.12	55650.08
602.478	55590.87
602.836	55684.2
603.194	55508.61
603.552	55620.47
603.91	55588.61
604.268	55709.96
604.625	55662.28
604.983	55838.77
605.341	55670.19
605.698	55812.11
606.056	55791.77
606.413	55860.01
606.771	55935.49
607.128	55981.37
607.485	55837.42
607.843	55901.82
608.2	55947.92
608.557	56073.79
608.914	55939.56
609.272	56050.97
609.629	56143.85
609.986	56283.51
610.343	56091.19
610.7	56269.27
611.057	56307.69
611.414	56259.55
611.771	56305.2
612.127	56364.86
612.484	56370.74
612.841	56427.23
613.198	56314.47
613.554	56376.16
613.911	56474.91
614.267	56512.43
614.624	56469.94
614.98	56539.77
615.337	56688.69
615.693	56632.42
616.05	56582.48
616.406	56773.21
616.762	56635.59
617.118	56618.19
617.475	56643.04
617.831	56745.19
618.187	56772.76
618.543	56759.88
618.899	56885.98
619.255	56854.79
619.611	56823.15
619.967	56965.07
620.323	56890.72
620.678	56871.74
621.034	56817.73
621.39	56755.58
621.746	56829.93
622.101	57065.63
622.457	56891.85
622.812	56910.83
623.168	57066.99
623.523	57007.1
623.879	57036.03
624.234	56848.24
624.589	57018.63
624.945	56951.74
625.3	56946.31
625.655	56985.41
626.01	56998.74
626.365	56967.33
626.72	56975.01
627.075	56998.06
627.43	56917.39
627.785	56859.99
628.14	56929.82
628.495	56876.48
628.85	56822.02
629.205	56782.7
629.559	56952.87
629.914	56735.02
630.269	56823.15
630.623	56763.27
630.978	56688.24
631.332	56792.19
631.687	56821.57
632.041	56644.85
632.396	56786.54
632.75	56646.43
633.104	56642.14
633.459	56545.19
633.813	56551.75
634.167	56554.23
634.521	56459.09
634.875	56605.76
635.229	56546.1
635.583	56369.83
635.937	56382.26
636.291	56280.79
636.645	56374.13
636.999	56245.54
637.352	56350.62
637.706	56190.85
638.06	56256.39
638.413	56191.76
638.767	56100.46
639.121	56147.01
639.474	55986.79
639.828	55954.25
640.181	55981.14
640.534	56053
640.888	55930.29
641.241	55895.49
641.594	55930.97
641.947	55953.12
642.301	55853.69
642.654	55823.41
643.007	55860.24
643.36	55815.72
643.713	55712.22
644.066	55796.97
644.419	55589.29
644.771	55415.73
645.124	55194.72
645.477	55116.08
645.83	54918.8
646.182	54723.32
646.535	54732.59
646.888	54723.1
647.24	54680.84
647.593	54786.14
647.945	54700.95
648.298	54524.91
648.65	54385.02
649.002	54363.56
649.355	54479.03
649.707	54402.88
650.059	54621.18
650.411	54903.43
650.763	54933.03
651.115	55186.81
651.467	55118.56
651.819	55090.54
652.171	54974.84
652.523	54966.7
652.875	54947.5
653.227	54717.67
653.578	54958.8
653.93	54841.06
654.282	54652.36
654.633	54587.96
654.985	54653.94
655.337	54727.39
655.688	54787.73
656.039	54707.28
656.391	54554.74
656.742	54547.96
657.094	54600.84
657.445	54754.51
657.796	54650.78
658.147	54610.56
658.498	54552.25
658.849	54576.43
659.2	54496.21
659.551	54453.95
659.902	54578.47
660.253	54553.61
660.604	54661.85
660.955	54389.09
661.306	54409.2
661.656	54367.17
662.007	54373.5
662.358	54331.47
662.708	54369.21
663.059	54318.59
663.409	54118.37
663.76	54291.92
664.11	54225.93
664.461	54202.66
664.811	54252.37
665.161	54211.92
665.511	54276.78
665.862	54210.79
666.212	54387.06
666.562	54296.21
666.912	54252.15
667.262	54147.97
667.612	54308.42
667.962	54220.06
668.312	54217.35
668.662	54266.16
669.011	54114.52
669.361	54055.09
669.711	54069.33
670.06	54034.75
670.41	53988.43
670.76	53995.2
671.109	54042.21
671.459	53987.3
671.808	53994.07
672.157	54015.54
672.507	53789.11
672.856	53901.87
673.205	53924.47
673.554	53943.45
673.904	53813.97
674.253	54016.22
674.602	53845.15
674.951	53472.05
675.3	53261.44
675.649	53798.37
675.998	53777.36
676.346	53685.16
676.695	53875.89
677.044	53556.57
677.393	53674.76
677.741	53781.42
678.09	53579.85
678.438	53534.88
678.787	53569.91
679.135	53661.2
679.484	53409.46
679.832	53519.51
680.181	53361.1
680.529	53493.75
680.877	53325.39
681.225	53209.24
681.573	53451.49
681.922	53258.73
682.27	53114.32
682.618	53155
682.966	53053.08
683.314	53079.52
683.661	52974.67
684.009	52816.48
684.357	52778.51
684.705	52751.4
685.053	52806.76
685.4	52730.83
685.748	52562.47
686.095	52433.66
686.443	52385.53
686.79	52274.8
687.138	52398.86
687.485	52419.65
687.832	52231.41
688.18	52310.73
688.527	52063.96
688.874	52039.78
689.221	52038.65
689.568	51908.03
689.915	51861.7
690.262	51889.27
690.609	51736.05
690.956	51601.82
691.303	51443.63
691.65	51315.5
691.997	51435.5
692.344	51219.91
692.69	51154.6
693.037	51297.87
693.383	50927.04
693.73	51128.39
694.077	50837.1
694.423	50687.27
694.769	50615.63
695.116	50503.32
695.462	50519.36
695.808	50486.37
696.155	50523.43
696.501	50226.04
696.847	50302.87
697.193	50003.22
697.539	50189.43
697.885	49850.68
698.231	49840.29
698.577	49792.6
698.923	49690.01
699.269	49441.2
699.614	49285.05
699.96	49224.93
700.306	49260.19
700.651	49185.84
700.997	49094.77
701.342	48923.47
701.688	48805.28
702.033	48718.96
702.379	48624.5
702.724	48580.21
703.069	48608.68
703.415	48168.69
703.76	48192.42
704.105	48231.06
704.45	48008.7
704.795	47709.95
705.14	47685.54
705.485	47773
705.83	47633.79
706.175	47662.49
706.52	47475.15
706.865	47416.17
707.209	47328.94
707.554	47243.52
707.899	47356.28
708.243	46935.96
708.588	47046.46
708.932	46726.47
709.277	46780.7
709.621	46770.08
709.966	46609.18
710.31	46611.22
710.654	46134.39
710.998	46295.97
711.342	46331.9
711.687	46159.48
712.031	46003.32
712.375	45830
712.719	45935.08
713.063	45849.43
713.407	45845.36
713.75	45672.49
714.094	45658.47
714.438	45443.57
714.782	45557.23
715.125	45269.11
715.469	45360.4
715.812	45032.73
716.156	44905.05
716.499	44913.41
716.843	44978.94
717.186	44615.56
717.53	44920.19
717.873	44908.66
718.216	44758.39
718.559	44608.56
718.902	44430.48
719.246	44499.41
719.589	44253.09
719.932	44212.86
720.275	44155.46
720.617	44001.8
720.96	44004.28
721.303	43904.4
721.646	43925.41
721.989	43689.26
722.331	43863.72
722.674	43629.38
723.016	43724.51
723.359	43565.2
723.701	43635.7
724.044	43371.08
724.386	43142.83
724.729	43413.79
725.071	43131.08
725.413	43134.93
725.755	42999.56
726.097	42867.36
726.439	42782.62
726.782	42736.07
727.124	42879.56
727.465	42648.16
727.807	42608.16
728.149	42526.81
728.491	42461.04
728.833	42476.86
729.175	42303.08
729.516	42186.48
729.858	42140.83
730.199	42222.18
730.541	42205.46
730.882	42023.54
731.224	42143.09
731.565	41777.9
731.906	41755.53
732.248	41916.2
732.589	41622.42
732.93	41517.79
733.271	41543.55
733.612	41554.4
733.953	41518.7
734.294	41350.79
734.635	41401.41
734.976	41348.31
735.317	41322.32
735.658	41017.92
735.999	41162.77
736.339	41074.41
736.68	41155.09
737.021	40879.17
737.361	40791.03
737.702	41067.41
738.042	40753.74
738.383	40727.76
738.723	40641.21
739.063	40445.96
739.404	40585.61
739.744	40459.52
740.084	40356.02
740.424	40433.3
740.764	40206.19
741.104	40330.03
741.444	40085.74
741.784	39887.55
742.124	39889.36
742.464	39827.67
742.804	39881.45
743.143	39724.85
743.483	39889.81
743.823	39566.66
744.162	39568.92
744.502	39688.24
744.841	39529.82
745.181	39588.13
745.52	39404.85
745.86	39294.35
746.199	39434.46
746.538	39106.33
746.877	39227.23
747.216	39150.62
747.556	39018.65
747.895	38984.3
748.234	38864.75
748.573	38791.99
748.911	38669.28
749.25	38707.24
749.589	38470.42
749.928	38636.74
750.267	38379.34
750.605	38320.81
750.944	38204.89
751.283	38244.66
751.621	38333.02
751.96	37952.91
752.298	37976.64
752.636	38058
752.975	37772.58
753.313	37754.05
753.651	37868.85
753.989	37606.48
754.327	37552.25
754.666	37533.94
755.004	37531.23
755.342	37601.96
755.679	37339.82
756.017	37154.97
756.355	37195.42
756.693	36912.72
757.031	37202.43
757.368	36742.55
757.706	36785.26
758.044	36605.15
758.381	36650.12
758.719	36573.97
759.056	36578.04
759.394	36389.79
759.731	36131.04
760.068	36204.03
760.405	35844.04
760.743	35873.2
761.08	35791.39
761.417	35610.15
761.754	35405.41
762.091	35564.28
762.428	35368.8
762.765	35275.47
763.102	35316.83
763.438	35035.25
763.775	34872.54
764.112	34804.97
764.449	34875.48
764.785	34690.18
765.122	34477.3
765.458	34248.38
765.795	34266.01
766.131	34255.61
766.467	33990.53
766.804	33881.16
767.14	33807.49
767.476	33724.1
767.812	33475.97
768.148	33562.75
768.485	33346.03
768.821	33289.31
769.157	33194.62
769.492	33081.4
769.828	33125.47
770.164	32749.21
770.5	32789.43
770.836	32650
771.171	32473.51
771.507	32466.73
771.842	32296.34
772.178	32242.56
772.513	32230.13
772.849	32002.11
773.184	31921.66
773.519	31956.01
773.855	31833.53
774.19	31549.24
774.525	31390.6
774.86	31441.22
775.195	31347.21
775.53	31142.92
775.865	31010.5
776.2	30806.44
776.535	30587.91
776.87	30716.72
777.205	30686.44
777.539	30431.53
777.874	30428.59
778.209	30041.71
778.543	30030.41
778.878	29904.76
779.212	29834.03
779.547	29720.36
779.881	29751.77
780.215	29539.12
780.55	29622.29
780.884	29376.64
781.218	29273.37
781.552	29285.57
781.886	29031.57
782.22	28898.24
782.554	28818.69
782.888	28532.6
783.222	28439.04
783.556	28390.45
783.889	28369.44
784.223	28219.84
784.557	28084.02
784.89	28190.46
785.224	27898.26
785.557	27745.95
785.891	27829.56
786.224	27595.67
786.558	27653.75
786.891	27261.22
787.224	27332.4
787.557	27182.8
787.891	27280.65
788.224	27298.73
788.557	27134.22
788.89	27015.8
789.223	26954.11
789.556	26777.16
789.888	26733.77
790.221	26595.92
790.554	26344.18
790.887	26355.71
791.219	26274.13
791.552	26182.38
791.884	26052.66
792.217	26074.81
792.549	25987.35
792.882	25877.3
793.214	25641.6
793.546	25633.01
793.879	25541.94
794.211	25328.84
794.543	25399.35
794.875	25244.55
795.207	25210.65
795.539	25134.95
795.871	25156.64
796.203	25014.5
796.535	24772.47
796.867	24717.56
797.198	24623.55
797.53	24727.27
797.862	24581.51
798.193	24518.92
798.525	24302.2
798.856	24402.99
799.188	24109.44
799.519	24004.35
799.85	23951.25
800.182	24032.83
800.513	24015.43
800.844	23925.26
801.175	23886.84
801.506	23832.61
801.837	23708.77
802.168	23566.4
802.499	23560.3
802.83	23431.26
803.161	23395.33
803.491	23494.09
803.822	23259.06
804.153	23031.95
804.483	22995.57
804.814	22881.22
805.145	22910.15
805.475	22890.94
805.805	22757.61
806.136	22727.1
806.466	22727.55
806.796	22746.53
807.126	22436.26
807.457	22477.84
807.787	22435.81
808.117	22289.82
808.447	22236.27
808.777	22174.12
809.107	22136.83
809.436	22107
809.766	22111.75
810.096	21980.45
810.426	21978.87
810.755	21845.09
811.085	21859.33
811.414	21721.93
811.744	21608.49
812.073	21640.58
812.403	21516.51
812.732	21424.76
813.061	21448.72
813.39	21322.39
813.719	21255.73
814.049	21356.97
814.378	21198.78
814.707	21101.15
815.036	21026.58
815.365	20989.29
815.693	20801.5
816.022	20846.02
816.351	20887.37
816.68	20754.72
817.008	20755.63
817.337	20549.53
817.665	20443.54
817.994	20561.73
818.322	20499.36
818.651	20407.39
818.979	20340.95
819.307	20356.54
819.636	20316.99
819.964	20129.88
820.292	20242.87
820.62	20323.77
820.948	20085.81
821.276	20193.38
821.604	20093.27
821.932	20173.04
822.259	20139.15
822.587	20132.14
822.915	20094.4
823.243	20100.05
823.57	19989.32
823.898	20057.57
824.225	19933.05
824.553	20011.01
824.88	20030.9
825.207	20131.01
825.535	20051.46
825.862	20093.5
826.189	19915.65
826.516	20024.8
826.843	20208.3
827.17	20070.9
827.497	20056.21
827.824	20037
828.151	20091.01
828.478	20046.72
828.805	19997.23
829.131	19923.56
829.458	19896.44
829.785	19864.8
830.111	19971.47
830.438	20105.47
830.764	19946.16
831.09	19925.14
831.417	19863.22
831.743	19898.25
832.069	19897.34
832.395	19715.65
832.722	19839.72
833.048	19875.88
833.374	19897.57
833.7	19716.56
834.026	19773.05
834.351	19764.24
834.677	19747.52
835.003	19701.19
835.329	19818.93
835.654	19708.87
835.98	19612.15
836.306	19685.6
836.631	19624.58
836.956	19679.5
837.282	19616.22
837.607	19610.57
837.932	19489.67
838.258	19482.67
838.583	19417.81
838.908	19265.95
839.233	19250.81
839.558	19305.5
839.883	19287.42
840.208	19218.27
840.533	19181.66
840.858	19179.4
841.182	19193.86
841.507	19111.83
841.832	19118.38
842.156	19025.05
842.481	18949.57
842.805	18988.67
843.13	18859.18
843.454	18824.83
843.778	18738.73
844.103	18747.54
844.427	18663.25
844.751	18754.32
845.075	18596.59
845.399	18619.86
845.723	18495.12
846.047	18592.52
846.371	18338.97
846.695	18235.24
847.019	18142.59
847.343	18035.25
847.666	18040.22
847.99	17835.03
848.313	17929.03
848.637	17731.3
848.96	17648.82
849.284	17709.15
849.607	17627.12
849.931	17548.48
850.254	17387.58
850.577	17285.89
850.9	17251.09
851.223	17111.43
851.546	17011.32
851.869	16937.65
852.192	17034.14
852.515	16927.93
852.838	16929.51
853.161	16795.5
853.483	16834.15
853.806	16674.83
854.129	16631.22
854.451	16679.8
854.774	16552.12
855.096	16346.48
855.419	16495.85
855.741	16445.91
856.063	16271.68
856.385	16246.14
856.708	16209.53
857.03	16096.31
857.352	16057.67
857.674	16042.53
857.996	15983.32
858.318	15808.86
858.64	15877.79
858.961	15863.33
859.283	15751.92
859.605	15728.64
859.926	15835.98
860.248	15749.2
860.57	15583.11
860.891	15669.43
861.212	15564.12
861.534	15604.8
861.855	15435.77
862.176	15539.04
862.498	15430.57
862.819	15423.79
863.14	15329.1
863.461	15392.38
863.782	15270.12
864.103	15354.64
864.424	15214.98
864.745	15326.39
865.065	15165.72
865.386	15131.59
865.707	15161.88
866.027	15115.32
866.348	15109.67
866.668	15109.22
866.989	14986.51
867.309	14958.26
867.63	14990.81
867.95	14942.67
868.27	14878.49
868.59	14896.8
868.91	14786.07
869.23	14842.79
869.55	14826.97
869.87	14864.48
870.19	14842.79
870.51	14789.91
870.83	14772.96
871.15	14596.47
871.469	14689.12
871.789	14615
872.109	14580.42
872.428	14473.98
872.748	14574.09
873.067	14597.82
873.386	14533.19
873.706	14506.98
874.025	14364.38
874.344	14320.99
874.663	14347.66
874.982	14448.9
875.301	14419.3
875.62	14324.61
875.939	14295.46
876.258	14262.69
876.577	14246.19
876.896	14228.57
877.214	14161
877.533	14224.27
877.852	14190.6
878.17	14126.65
878.489	14122.13
878.807	14166.65
879.125	14082.58
879.444	14008.69
879.762	14035.58
880.08	13978.18
880.398	13976.14
880.716	13955.58
881.034	13992.64
881.352	13951.51
881.67	13835.36
881.988	13861.34
882.306	13774.79
882.624	13808.92
882.941	13667.23
883.259	13607.57
883.577	13609.37
883.894	13667
884.212	13573.44
884.529	13499.09
884.846	13556.72
885.164	13460.45
885.481	13432.43
885.798	13407.12
886.115	13277.63
886.432	13279.66
886.75	13336.16
887.067	13303.62
887.383	13314.01
887.7	13265.2
888.017	13223.62
888.334	13205.77
888.651	13152.66
888.967	13158.76
889.284	13102.49
889.6	13063.85
889.917	12978.43
890.233	13000.35
890.55	12905.66
890.866	12919.22
891.182	12861.82
891.498	12729.17
891.815	12681.26
892.131	12634.71
892.447	12615.5
892.763	12656.4
893.079	12614.6
893.395	12515.39
893.71	12565.56
894.026	12479.91
894.342	12426.35
894.657	12397.88
894.973	12417.31
895.289	12316.3
895.604	12272.69
895.92	12215.06
896.235	12182.52
896.55	12160.37
896.865	12178.68
897.181	12098.68
897.496	12087.83
897.811	12018.23
898.126	11929.87
898.441	11912.7
898.756	11957.44
899.071	11820.49
899.386	11826.37
899.7	11700.95
900.015	11708.86
900.33	11660.05
900.644	11555.42
900.959	11604.68
901.273	11556.32
901.588	11541.41
901.902	11372.14
902.216	11358.13
902.531	11367.4
902.845	11290.79
903.159	11208.76
903.473	11239.72
903.787	11118.14
904.101	11082.43
904.415	11069.78
904.729	11038.37
905.042	10885.38
905.356	10928.77
905.67	10877.24
905.984	10916.34
906.297	10954.3
906.611	10835.21
906.924	10797.02
907.237	10787.98
907.551	10744.14
907.864	10672.5
908.177	10672.05
908.491	10568.78
908.804	10514.31
909.117	10475.9
909.43	10362.23
909.743	10368.1
910.056	10345.73
910.368	10347.99
910.681	10260.99
910.994	10194.77
911.307	10125.4
911.619	10186.19
911.932	10139.41
912.244	10063.03
912.557	10074.55
912.869	9952.97
913.181	9972.86
913.494	9947.78
913.806	9824.39
914.118	9819.87
914.43	9768.12
914.742	9750.04
915.054	9711.62
915.366	9643.15
915.678	9551.4
915.99	9540.1
916.302	9475.47
916.613	9464.85
916.925	9482.7
917.236	9422.37
917.548	9348.47
917.859	9398.64
918.171	9217.17
918.482	9302.14
918.794	9218.53
919.105	9164.97
919.416	9143.28
919.727	9111.41
920.038	9082.94
920.349	9032.77
920.66	9009.27
920.971	8906.22
921.282	8894.47
921.593	8827.58
921.903	8760.69
922.214	8790.52
922.525	8687.47
922.835	8718.2
923.146	8652.89
923.456	8648.15
923.767	8587.81
924.077	8560.92
924.387	8584.87
924.697	8474.82
925.008	8355.5
925.318	8402.73
925.628	8384.2
925.938	8303.75
926.248	8271.21
926.558	8201.83
926.867	8234.15
927.177	8142.85
927.487	8146.24
927.796	8059.01
928.106	8037.32
928.416	8029.18
928.725	7965.91
929.034	7946.02
929.344	8012.46
929.653	7962.29
929.962	7830.99
930.271	7856.53
930.581	7748.28
930.89	7717.1
931.199	7726.36
931.508	7683.43
931.817	7693.15
932.125	7680.72
932.434	7584.67
932.743	7612.7
933.051	7526.14
933.36	7474.85
933.669	7484.56
933.977	7424.9
934.286	7313.27
934.594	7363.66
934.902	7285.92
935.21	7230.56
935.519	7249.09
935.827	7211.58
936.135	7188.07
936.443	7085.03
936.751	7109.66
937.059	7127.06
937.367	7082.54
937.674	7098.58
937.982	7015.87
938.29	7037.8
938.597	6974.29
938.905	6892.49
939.213	6896.78
939.52	6866.73
939.827	6916.44
940.135	6828.76
940.442	6810
940.749	6768.2
941.056	6807.74
941.363	6678.03
941.67	6638.71
941.977	6680.97
942.284	6529.79
942.591	6566.4
942.898	6520.52
943.205	6503.35
943.511	6502.22
943.818	6469
944.125	6361.2
944.431	6343.12
944.738	6336.12
945.044	6346.51
945.35	6351.03
945.657	6269.23
945.963	6261.54
946.269	6191.04
946.575	6231.71
946.881	6219.74
947.187	6147.42
947.493	6147.65
947.799	6077.82
948.105	6036.01
948.41	6006.86
948.716	6010.48
949.022	5962.8
949.327	5915.79
949.633	5885.06
949.938	5925.51
950.244	5913.53
950.549	5828.11
950.854	5801.67
951.16	5795.12
951.465	5760.31
951.77	5714.89
952.075	5739.3
952.38	5676.25
952.685	5647.78
952.99	5606.19
953.294	5608.91
953.599	5549.47
953.904	5566.2
954.209	5571.39
954.513	5453.88
954.818	5503.37
955.122	5501.56
955.426	5442.13
955.731	5406.43
956.035	5301.34
956.339	5305.86
956.643	5315.35
956.948	5267.22
957.252	5267.22
957.556	5245.53
957.86	5256.83
958.163	5225.19
958.467	5176.38
958.771	5168.47
959.075	5185.87
959.378	5154.45
959.682	5108.81
959.985	5106.32
960.289	5040.11
960.592	5079.43
960.896	5009.15
961.199	4953.78
961.502	4937.74
961.805	4915.37
962.108	4960.34
962.411	4905.42
962.714	4861.81
963.017	4873.78
963.32	4884.18
963.623	4864.74
963.926	4837.18
964.228	4789.27
964.531	4794.01
964.833	4756.95
965.136	4732.55
965.438	4698.42
965.741	4710.4
966.043	4617.97
966.345	4640.8
966.648	4660.23
966.95	4587.92
967.252	4543.62
967.554	4579.33
967.856	4549.05
968.158	4541.14
968.46	4504.98
968.761	4436.28
969.063	4467.47
969.365	4499.56
969.666	4401.93
969.968	4365.55
970.269	4361.71
970.571	4362.84
970.872	4369.16
971.174	4315.15
971.475	4324.19
971.776	4326.91
972.077	4288.49
972.378	4183.41
972.679	4250.07
972.98	4166.46
973.281	4179.79
973.582	4175.95
973.883	4132.33
974.183	4118.78
974.484	4142.73
974.785	4042.62
975.085	4071.09
975.386	4079.23
975.686	3999.46
975.986	4066.8
976.287	4044.2
976.587	3964.88
976.887	3974.6
977.187	3914.26
977.487	3898.22
977.787	3917.2
978.087	3875.84
978.387	3807.6
978.687	3831.78
978.987	3882.17
979.286	3788.84
979.586	3810.54
979.885	3762.18
980.185	3721.95
980.484	3731.67
980.784	3707.94
981.083	3709.07
981.382	3683.76
981.682	3693.25
981.981	3676.53
982.28	3661.61
982.579	3637.21
982.878	3671.1
983.177	3623.65
983.475	3580.94
983.774	3564.89
984.073	3534.16
984.372	3507.27
984.67	3516.31
984.969	3516.98
985.267	3496.87
985.566	3486.02
985.864	3423.43
986.162	3449.41
986.461	3431.11
986.759	3402.86
987.057	3404.9
987.355	3354.05
987.653	3329.87
987.951	3339.59
988.249	3324.9
988.547	3346.37
988.844	3284.9
989.142	3260.04
989.44	3260.95
989.737	3205.81
990.035	3234.05
990.332	3227.05
990.63	3189.53
990.927	3205.81
991.224	3227.27
991.521	3166.94
991.819	3134.39
992.116	3165.58
992.413	3112.25
992.71	3137.11
993.006	3082.64
993.303	3084.9
993.6	3043.32
993.897	3011.69
994.193	3069.99
994.49	3008.52
994.787	2964.23
995.083	2975.53
995.379	2952.7
995.676	2934.4
995.972	2907.96
996.268	2911.12
996.565	2864.35
996.861	2854.63
997.157	2866.83
997.453	2841.75
997.749	2836.78
998.044	2828.87
998.34	2828.87
998.636	2773.5
998.932	2730.79
999.227	2734.41
999.523	2760.85
999.818	2745.03
1000.114	2740.06
1000.409	2671.58
1000.704	2684.24
1001	2680.62
1001.295	2686.05
1001.59	2645.82
1001.885	2658.7
1002.18	2610.57
1002.475	2620.74
1002.77	2575.77
1003.065	2586.16
1003.359	2527.41
1003.654	2539.16
1003.949	2534.18
1004.243	2538.93
1004.538	2523.79
1004.832	2478.37
1005.127	2492.15
1005.421	2453.73
1005.715	2424.81
1006.009	2431.14
1006.304	2421.42
1006.598	2392.49
1006.892	2377.58
1007.186	2394.3
1007.48	2383.91
1007.773	2343
1008.067	2323.57
1008.361	2272.27
1008.655	2298.71
1008.948	2309.33
1009.242	2287.64
1009.535	2275.21
1009.829	2256
1010.122	2230.46
1010.415	2205.61
1010.708	2244.7
1011.001	2213.29
1011.295	2190.92
1011.588	2153.86
1011.881	2145.04
1012.173	2143.91
1012.466	2141.43
1012.759	2116.34
1013.052	2121.77
1013.344	2136.23
1013.637	2085.83
1013.93	2058.27
1014.222	2062.56
1014.514	2034.08
1014.807	2026.63
1015.099	2018.04
1015.391	2004.71
1015.683	2007.19
1015.976	1991.37
1016.268	1956.12
1016.56	1945.05
1016.851	1929.91
1017.143	1955.67
1017.435	1900.08
1017.727	1902.11
1018.018	1880.64
1018.31	1886.97
1018.602	1857.59
1018.893	1851.94
1019.185	1820.76
1019.476	1844.49
1019.767	1841.1
1020.058	1835.67
1020.35	1799.51
1020.641	1801.1
1020.932	1753.87
1021.223	1766.75
1021.514	1776.46
1021.804	1707.54
1022.095	1704.83
1022.386	1704.38
1022.677	1693.75
1022.967	1663.02
1023.258	1689.01
1023.548	1653.76
1023.839	1658.5
1024.129	1674.77
1024.419	1643.36
1024.709	1622.12
1025	1595.68
1025.29	1606.98
1025.58	1576.24
1025.87	1576.47
1026.16	1577.37
1026.449	1548.9
1026.739	1515.68
1027.029	1508.45
1027.319	1519.52
1027.608	1531.95
1027.898	1476.81
1028.187	1476.36
1028.477	1507.32
1028.766	1451.95
1029.055	1447.89
1029.344	1448.34
1029.634	1435.46
1029.923	1448.79
1030.212	1425.97
1030.501	1404.05
1030.79	1394.33
1031.078	1391.84
1031.367	1402.92
1031.656	1413.99
1031.945	1328.11
1032.233	1366.53
1032.522	1338.51
1032.81	1334.44
1033.099	1307.78
1033.387	1324.05
1033.675	1307.55
1033.963	1298.51
1034.251	1290.38
1034.54	1258.51
1034.828	1262.58
1035.116	1211.73
1035.403	1264.61
1035.691	1229.13
1035.979	1232.3
1036.267	1239.76
1036.554	1237.27
1036.842	1198.4
1037.129	1199.76
1037.417	1181.68
1037.704	1173.54
1037.992	1189.81
1038.279	1150.27
1038.566	1153.2
1038.853	1153.2
1039.14	1153.2
