Data from plate_porcelain_FLMS001491_064.txt Node
Date: Tue Feb 07 11:19:41 GMT 2017
User: dcchb
Spectrometer: FLMS00149
Trigger mode: 0
Integration Time (sec): 2.000000E-2
Scans to average: 10
Electric dark correction enabled: true
Nonlinearity correction enabled: false
Boxcar width: 0
XAxis mode: Wavelengths
Number of Pixels in Spectrum: 2048
>>>>>Begin Spectral Data<<<<<
341.393	-11.44
341.776	-11.44
342.16	-11.44
342.543	-62.96
342.927	-62.06
343.31	-62.29
343.693	-71.33
344.077	-60.7
344.46	-56.18
344.843	-57.54
345.226	-42.63
345.61	-20.71
345.993	-18.45
346.376	-15.96
346.759	-9.41
347.142	26.98
347.525	35.34
347.908	54.32
348.291	81.21
348.674	112.17
349.057	105.17
349.44	116.92
349.823	149.01
350.206	184.03
350.588	229.91
350.971	257.25
351.354	245.5
351.737	285.27
352.119	283.24
352.502	292.96
352.884	309
353.267	319.85
353.65	334.09
354.032	333.41
354.414	348.32
354.797	351.71
355.179	356.23
355.562	358.27
355.944	363.69
356.326	371.6
356.709	379.74
357.091	386.06
357.473	370.92
357.855	403.24
358.238	395.78
358.62	402.11
359.002	370.24
359.384	370.92
359.766	381.09
360.148	374.54
360.53	378.15
360.912	393.75
361.294	400.3
361.676	367.98
362.057	394.2
362.439	380.64
362.821	367.08
363.203	381.09
363.584	379.06
363.966	391.03
364.348	368.66
364.729	370.7
365.111	383.58
365.493	380.87
365.874	397.14
366.256	384.26
366.637	395.78
367.019	390.13
367.4	397.36
367.781	403.69
368.163	393.52
368.544	396.23
368.925	400.07
369.306	409.11
369.688	409.57
370.069	429.23
370.45	428.1
370.831	409.34
371.212	401.43
371.593	398.27
371.974	429.68
372.355	414.54
372.736	421.99
373.117	427.87
373.498	412.96
373.879	423.58
374.26	417.47
374.641	412.5
375.021	416.8
375.402	412.05
375.783	447.98
376.163	480.75
376.544	473.97
376.925	456.34
377.305	445.27
377.686	458.6
378.066	450.47
378.447	477.13
378.827	462.9
379.208	480.75
379.588	488.43
379.968	441.66
380.349	466.97
380.729	488.21
381.109	493.86
381.489	506.74
381.87	487.08
382.25	532.73
382.63	514.87
383.01	537.47
383.39	544.25
383.77	550.58
384.15	529.11
384.53	519.62
384.91	537.47
385.29	534.99
385.67	545.83
386.049	550.58
386.429	547.41
386.809	582.44
387.189	591.93
387.568	584.48
387.948	584.02
388.328	588.54
388.707	588.32
389.087	625.83
389.466	603.23
389.846	645.04
390.225	624.02
390.605	621.09
390.984	642.78
391.363	632.61
391.743	658.82
392.122	659.5
392.501	652.95
392.881	677.36
393.26	691.59
393.639	693.4
394.018	695.21
394.397	714.64
394.776	707.18
395.155	711.48
395.534	724.36
395.913	736.79
396.292	761.42
396.671	763.23
397.05	756.9
397.429	753.74
397.808	767.3
398.186	775.88
398.565	773.4
398.944	794.87
399.323	815.88
399.701	823.57
400.08	825.15
400.458	820.4
400.837	815.88
401.215	860.63
401.594	849.78
401.972	862.21
402.351	865.82
402.729	848.42
403.107	878.03
403.486	886.84
403.864	900.63
404.242	945.82
404.62	922.77
404.999	949.66
405.377	966.16
405.755	954.64
406.133	983.56
406.511	998.93
406.889	992.83
407.267	1017.46
407.645	1016.78
408.023	1026.5
408.401	1089.77
408.779	1082.54
409.156	1082.09
409.534	1106.27
409.912	1126.38
410.29	1123.9
410.667	1126.16
411.045	1167.96
411.422	1176.55
411.8	1174.97
412.178	1200.73
412.555	1224.01
412.933	1251.35
413.31	1289.32
413.687	1262.42
414.065	1275.76
414.442	1283.67
414.819	1324.12
415.197	1333.16
415.574	1341.52
415.951	1385.59
416.328	1380.16
416.705	1408.86
417.082	1419.93
417.46	1427.39
417.837	1431.69
418.214	1473.49
418.591	1505.36
418.967	1489.31
419.344	1478.46
419.721	1537.45
420.098	1529.54
420.475	1569.08
420.852	1578.8
421.228	1586.94
421.605	1598.69
421.982	1617.67
422.358	1655.63
422.735	1665.8
423.111	1655.86
423.488	1695.41
423.864	1684.56
424.241	1741.96
424.617	1744.67
424.994	1771.79
425.37	1774.95
425.746	1809.08
426.123	1835.29
426.499	1856.99
426.875	1847.49
427.251	1922.97
427.627	1945.34
428.003	1940.82
428.379	2015.85
428.756	1992.57
429.132	2030.09
429.507	2075.06
429.883	2094.27
430.259	2141.95
430.635	2155.96
431.011	2143.08
431.387	2225.34
431.763	2253.58
432.138	2263.75
432.514	2326.58
432.89	2276.64
433.265	2373.81
433.641	2410.42
434.016	2434.6
434.392	2440.02
434.767	2524.09
435.143	2510.3
435.518	2564.54
435.894	2588.72
436.269	2623.97
436.644	2651.54
437.02	2696.74
437.395	2666.46
437.77	2734.02
438.145	2779.67
438.52	2780.8
438.895	2845.21
439.271	2826.23
439.646	2894.7
440.021	2909.84
440.395	2967.69
440.77	2934.24
441.145	2965.88
441.52	3015.37
441.895	3042.49
442.27	3059.21
442.645	3057.41
443.019	3130.62
443.394	3108.93
443.769	3172.66
444.143	3131.75
444.518	3211.07
444.892	3216.95
445.267	3265.99
445.641	3282.26
446.016	3252.2
446.39	3336.72
446.764	3384.4
447.139	3361.8
447.513	3426.89
447.887	3444.97
448.262	3417.85
448.636	3476.15
449.01	3497.17
449.384	3537.62
449.758	3574.45
450.132	3602.02
450.506	3635.47
450.88	3666.43
451.254	3688.58
451.628	3716.15
452.002	3784.39
452.376	3794.11
452.75	3874.33
453.123	3871.17
453.497	3980.55
453.871	3989.36
454.244	4050.6
454.618	4094.67
454.992	4123.37
455.365	4169.69
455.739	4275
456.112	4290.59
456.486	4319.07
456.859	4375.56
457.232	4487.42
457.606	4509.8
457.979	4562.45
458.352	4669.34
458.725	4684.48
459.099	4725.61
459.472	4842.22
459.845	4871.6
460.218	4926.51
460.591	4953.4
460.964	4999.73
461.337	5165.15
461.71	5269.32
462.083	5270.68
462.456	5289.44
462.829	5300.96
463.201	5487.62
463.574	5458.7
463.947	5528.53
464.32	5660.95
464.692	5693.72
465.065	5774.62
465.438	5831.12
465.81	5988.63
466.183	6004.22
466.555	6085.12
466.928	6177.78
467.3	6187.04
467.672	6349.07
468.045	6386.36
468.417	6433.14
468.789	6459.12
469.161	6579.57
469.534	6719.91
469.906	6804.88
470.278	6887.81
470.65	6946.34
471.022	7109.5
471.394	7270.85
471.766	7288.25
472.138	7393.56
472.51	7601.01
472.882	7754.46
473.253	7802.59
473.625	7932.31
473.997	8151.96
474.369	8143.15
474.74	8226.31
475.112	8403.71
475.484	8609.8
475.855	8764.6
476.227	8844.37
476.598	9011.15
476.97	9125.95
477.341	9314.87
477.713	9425.6
478.084	9542.43
478.455	9713.73
478.827	9864.23
479.198	10072.59
479.569	10124.79
479.94	10437.55
480.311	10585.34
480.682	10887.26
481.053	11060.81
481.424	11240.47
481.795	11370.63
482.166	11518.2
482.537	11711.19
482.908	11951.18
483.279	11995.25
483.65	12340.78
484.021	12528.12
484.391	12689.47
484.762	12789.35
485.133	12925.62
485.503	13096.24
485.874	13441.54
486.244	13533.97
486.615	13815.54
486.985	13965.14
487.356	14237.45
487.726	14385.92
488.097	14662.52
488.467	14761.5
488.837	14999.92
489.207	15227.25
489.578	15429.51
489.948	15650.52
490.318	15837.86
490.688	15843.96
491.058	16194.24
491.428	16389.03
491.798	16508.13
492.168	16952.63
492.538	16933.42
492.908	17167.32
493.278	17441.66
493.648	17409.8
494.017	17702.67
494.387	17864.93
494.757	17977.69
495.126	18207.29
495.496	18389.88
495.866	18504
496.235	18742.64
496.605	18907.38
496.974	18957.55
497.344	19192.57
497.713	19243.42
498.082	19434.83
498.452	19609.51
498.821	19728.83
499.19	19922.27
499.559	20091.08
499.928	20203.62
500.298	20329.49
500.667	20646.1
501.036	20534.91
501.405	20754.79
501.774	20761.57
502.143	21034.33
502.512	21043.83
502.88	21349.35
503.249	21402.69
503.618	21569.01
503.987	21635.9
504.356	21817.14
504.724	21978.26
505.093	22126.28
505.462	22197.69
505.83	22439.04
506.199	22564.92
506.567	22913.61
506.936	22867.73
507.304	23169.42
507.672	23236.31
508.041	23406.25
508.409	23597.2
508.777	23759.91
509.145	24035.61
509.514	24103.41
509.882	24221.59
510.25	24311.31
510.618	24440.8
510.986	24595.82
511.354	24922.37
511.722	25082.36
512.09	25339.53
512.458	25245.52
512.826	25515.57
513.193	25767.99
513.561	25852.96
513.929	26108.55
514.297	26325.04
514.664	26549.44
515.032	26628.76
515.4	26842.09
515.767	27057
516.135	27304
516.502	27139.03
516.869	27599.59
517.237	27718.9
517.604	27699.24
517.972	28103.53
518.339	28280.02
518.706	28275.27
519.073	28546.68
519.44	28749.61
519.808	29063.05
520.175	29198.19
520.542	29498.07
520.909	29651.96
521.276	29687.89
521.643	30069.8
522.009	30286.29
522.376	30493.07
522.743	30814.19
523.11	31032.49
523.477	31364.68
523.843	31517.9
524.21	31941.84
524.577	32125.79
524.943	32201.95
525.31	32443.07
525.676	32781.37
526.043	32851.65
526.409	33077.86
526.776	33487.34
527.142	33613.44
527.508	33915.58
527.874	34096.82
528.241	34257.49
528.607	34429.46
528.973	34684.82
529.339	34722.56
529.705	35130.01
530.071	35343.11
530.437	35580.84
530.803	35881.63
531.169	36162.75
531.535	36083.88
531.901	36138.34
532.267	36314.16
532.632	36595.73
532.998	36791.21
533.364	37086.12
533.73	37138.77
534.095	37529.27
534.461	37591.64
534.826	37813.33
535.192	37877.28
535.557	38257.84
535.923	38245.63
536.288	38391.39
536.653	38509.35
537.019	38506.64
537.384	38620.99
537.749	38914.32
538.114	38896.92
538.479	39152.95
538.845	39316.11
539.21	39348.43
539.575	39587.29
539.94	39735.09
540.305	39975.08
540.67	39942.31
541.034	40219.37
541.399	40346.14
541.764	40412.81
542.129	40429.3
542.494	40622.07
542.858	40914.49
543.223	40869.07
543.587	41112.68
543.952	41121.04
544.316	41127.36
544.681	41351.54
545.045	41640.35
545.41	41825.43
545.774	41827.69
546.138	41921.92
546.503	42140.9
546.867	42243.04
547.231	42536.37
547.595	42566.65
547.959	42564.84
548.324	42738.62
548.688	42876.92
549.052	43003.02
549.416	43190.81
549.779	43301.09
550.143	43409.79
550.507	43667.86
550.871	43772.04
551.235	43798.26
551.599	44273.04
551.962	44319.82
552.326	44344.91
552.689	44551.91
553.053	44507.39
553.417	44727.72
553.78	45167.03
554.143	45047.94
554.507	45320.02
554.87	45511.66
555.234	45899.22
555.597	45717.75
555.96	45896.73
556.323	46192.99
556.686	46058.31
557.05	46560.89
557.413	46513.89
557.776	46602.48
558.139	46966.53
558.502	46909.36
558.865	47028
559.228	47328.78
559.59	47489.01
559.953	47555.9
560.316	48017.58
560.679	47952.72
561.041	48230.68
561.404	48415.99
561.767	48607.62
562.129	48597.23
562.492	48899.36
562.854	48867.73
563.217	49107.27
563.579	49169.87
563.941	49466.81
564.304	49660.7
564.666	49859.34
565.028	49890.07
565.39	49975.27
565.753	50322.83
566.115	50369.61
566.477	50408.25
566.839	50532.77
567.201	50898.41
567.563	50779.09
567.925	51080.78
568.287	51064.5
568.648	51229.92
569.01	51401.22
569.372	51645.51
569.734	51493.87
570.095	51774.09
570.457	51918.49
570.819	51900.87
571.18	51990.36
571.542	52199.16
571.903	52224.47
572.265	52279.16
572.626	52412.49
572.987	52418.37
573.349	52618.36
573.71	52798.47
574.071	52774.29
574.432	52870.11
574.794	53177.67
575.155	53171.57
575.516	52993.72
575.877	53099.03
576.238	53307.84
576.599	53301.96
576.96	53412.01
577.32	53363.88
577.681	53532.24
578.042	53539.92
578.403	53638.9
578.763	53692.46
579.124	53755.73
579.485	53809.74
579.845	53877.09
580.206	53789.4
580.566	53897.88
580.927	53881.15
581.287	54039.12
581.648	53906.46
582.008	54053.58
582.368	53916.41
582.728	54103.07
583.089	54063.75
583.449	53986.24
583.809	54080.47
584.169	54213.12
584.529	53999.12
584.889	54234.82
585.249	54104.88
585.609	54022.85
585.969	54152.79
586.329	54125.89
586.688	54148.94
587.048	54109.62
587.408	54174.03
587.768	54132.67
588.127	54106.46
588.487	54141.94
588.846	54322.27
589.206	54111.88
589.565	54142.39
589.925	54235.72
590.284	54199.56
590.643	54252.67
591.003	54350.52
591.362	54429.61
591.721	54316.85
592.08	54331.99
592.44	54407.02
592.799	54402.95
593.158	54384.42
593.517	54398.88
593.876	54386.68
594.235	54349.62
594.593	54522.49
594.952	54521.36
595.311	54410.18
595.67	54461.48
596.029	54582.15
596.387	54572.21
596.746	54627.57
597.104	54491.31
597.463	54608.37
597.822	54682.26
598.18	54607.46
598.538	54613.34
598.897	54828.93
599.255	54551.42
599.613	54878.64
599.972	54747.57
600.33	54772.88
600.688	54799.32
601.046	54828.47
601.404	55002.03
601.762	54836.16
602.12	54972.2
602.478	55016.72
602.836	54932.43
603.194	54806.33
603.552	54962.71
603.91	54839.55
604.268	54979.66
604.625	54928.58
604.983	55075.25
605.341	54983.95
605.698	55098.3
606.056	55172.42
606.413	55138.07
606.771	55230.04
607.128	55246.99
607.485	55108.24
607.843	55129.93
608.2	55316.6
608.557	55454.67
608.914	55348.69
609.272	55434.11
609.629	55467.33
609.986	55552.97
610.343	55447.89
610.7	55708.45
611.057	55621.22
611.414	55572.63
611.771	55628.68
612.127	55703.7
612.484	55727.66
612.841	55767.43
613.198	55676.59
613.554	55731.73
613.911	55879.29
614.267	55913.64
614.624	55894.89
614.98	55872.51
615.337	56058.27
615.693	55968.56
616.05	55988.67
616.406	56106.86
616.762	55976.01
617.118	55985.05
617.475	56002.23
617.831	56037.93
618.187	56103.69
618.543	56093.75
618.899	56258.94
619.255	56224.6
619.611	56172.85
619.967	56316.57
620.323	56326.29
620.678	56205.61
621.034	56159.06
621.39	56129.23
621.746	56100.53
622.101	56424.14
622.457	56262.11
622.812	56249
623.168	56347.53
623.523	56382.78
623.879	56331.26
624.234	56227.98
624.589	56392.5
624.945	56391.82
625.3	56342.33
625.655	56287.42
626.01	56335.1
626.365	56342.33
626.72	56268.89
627.075	56292.62
627.43	56267.08
627.785	56163.35
628.14	56258.49
628.495	56230.24
628.85	56265.5
629.205	56091.72
629.559	56156.57
629.914	56152.96
630.269	56220.08
630.623	56153.86
630.978	56066.18
631.332	56115.67
631.687	56136.91
632.041	56022.34
632.396	56079.74
632.75	55932.17
633.104	55959.74
633.459	55896.69
633.813	55832.52
634.167	55881.1
634.521	55893.3
634.875	55894.66
635.229	55867.77
635.583	55649.47
635.937	55660.32
636.291	55594.33
636.645	55674.55
636.999	55605.4
637.352	55668.68
637.706	55503.71
638.06	55581
638.413	55542.58
638.767	55519.08
639.121	55526.76
639.474	55274.79
639.828	55329.25
640.181	55429.36
640.534	55323.38
640.888	55222.36
641.241	55162.48
641.594	55110.27
641.947	55200.44
642.301	55193.89
642.654	55164.96
643.007	55118.86
643.36	55075.02
643.713	54970.62
644.066	55133.1
644.419	54842.71
644.771	54762.26
645.124	54513.23
645.477	54393.23
645.83	54224.65
646.182	54070.98
646.535	53870.31
646.888	54054.26
647.24	53949.17
647.593	54012.68
647.945	53946.91
648.298	53848.39
648.65	53795.96
649.002	53712.34
649.355	53790.53
649.707	53748.05
650.059	53836.64
650.411	54182.61
650.763	54176.51
651.115	54528.82
651.467	54306.91
651.819	54340.12
652.171	54235.04
652.523	54262.16
652.875	54097.87
653.227	53994.37
653.578	54153.46
653.93	54145.33
654.282	54041.6
654.633	53876.18
654.985	54008.83
655.337	54039.79
655.688	53950.53
656.039	54069.62
656.391	53825.79
656.742	53890.65
657.094	53885.22
657.445	53945.33
657.796	53863.98
658.147	53847.93
658.498	53801.61
658.849	53910.76
659.2	53842.28
659.551	53792.57
659.902	53897.88
660.253	53756.41
660.604	53853.13
660.955	53613.36
661.306	53809.52
661.656	53655.62
662.007	53642.29
662.358	53668.96
662.708	53591.44
663.059	53572.01
663.409	53433.93
663.76	53545.57
664.11	53481.84
664.461	53536.53
664.811	53545.34
665.161	53528.39
665.511	53522.75
665.862	53553.25
666.212	53586.47
666.562	53507.15
666.912	53487.27
667.262	53517.77
667.612	53607.49
667.962	53559.35
668.312	53417.89
668.662	53644.1
669.011	53414.05
669.361	53325.24
669.711	53318.91
670.06	53280.04
670.41	53355.07
670.76	53207.95
671.109	53328.85
671.459	53268.97
671.808	53186.71
672.157	53292.69
672.507	52999.6
672.856	53155.75
673.205	53224.22
673.554	53271.68
673.904	53086.82
674.253	53296.99
674.602	53042.31
674.951	52597.12
675.3	52474.19
675.649	52988.3
675.998	53007.96
676.346	52980.39
676.695	53048.41
677.044	52720.51
677.393	52919.15
677.741	53026.26
678.09	52877.79
678.438	52788.08
678.787	52866.94
679.135	52840.96
679.484	52612.49
679.832	52831.69
680.181	52576.33
680.529	52647.97
680.877	52639.83
681.225	52475.09
681.573	52637.12
681.922	52540.17
682.27	52347.86
682.618	52401.19
682.966	52313.51
683.314	52355.54
683.661	52220.63
684.009	52165.04
684.357	51974.31
684.705	51943.13
685.053	52043.24
685.4	51878.49
685.748	51865.39
686.095	51810.25
686.443	51538.39
686.79	51547.88
687.138	51612.96
687.485	51545.85
687.832	51506.3
688.18	51487.32
688.527	51384.72
688.874	51228.57
689.221	51144.5
689.568	50980.67
689.915	50949.93
690.262	51033.32
690.609	50821.57
690.956	50761.69
691.303	50704.97
691.65	50508.81
691.997	50501.58
692.344	50398.76
692.69	50424.3
693.037	50489.6
693.383	50150.18
693.73	50211.87
694.077	49938.88
694.423	49879.23
694.769	49873.8
695.116	49874.25
695.462	49902.5
695.808	49704.54
696.155	49590.42
696.501	49359.01
696.847	49421.84
697.193	49234.5
697.539	49400.14
697.885	49056.42
698.231	48954.73
698.577	48955.86
698.923	48902.53
699.269	48710.22
699.614	48475.87
699.96	48482.65
700.306	48456.21
700.651	48363.78
700.997	48166.05
701.342	48098.26
701.688	47908.2
702.033	47864.81
702.379	47826.62
702.724	47664.37
703.069	47671.83
703.415	47469.8
703.76	47347.54
704.105	47277.26
704.45	47100.09
704.795	47005.63
705.14	46851.28
705.485	46819.42
705.83	46560.22
706.175	46716.6
706.52	46562.7
706.865	46505.98
707.209	46531.29
707.554	46284.07
707.899	46306.66
708.243	46110.96
708.588	46065.09
708.932	45751.2
709.277	45823.06
709.621	45808.37
709.966	45629.62
710.31	45725.21
710.654	45254.49
710.998	45387.14
711.342	45312.79
711.687	45253.58
712.031	45059.24
712.375	44953.71
712.719	44948.73
713.063	44948.06
713.407	44889.98
713.75	44650.21
714.094	44768.17
714.438	44517.33
714.782	44554.85
715.125	44343.1
715.469	44274.17
715.812	44167.96
716.156	44057.46
716.499	43859.72
716.843	44027.4
717.186	43670.35
717.53	43829.44
717.873	43868.08
718.216	43897.01
718.559	43624.02
718.902	43488.88
719.246	43603.01
719.589	43453.63
719.932	43357.36
720.275	43228.1
720.617	43190.36
720.96	43043.47
721.303	42909.01
721.646	43098.61
721.989	42709.7
722.331	42873.53
722.674	42796.02
723.016	42819.3
723.359	42672.86
723.701	42589.25
724.044	42335.24
724.386	42170.73
724.729	42355.81
725.071	42155.36
725.413	42171.86
725.755	42159.2
726.097	41916.04
726.439	41757.18
726.782	41771.87
727.124	41986.78
727.465	41710.63
727.807	41596.51
728.149	41524.19
728.491	41409.84
728.833	41465.21
729.175	41342.27
729.516	41248.04
729.858	41322.61
730.199	41174.82
730.541	41021.15
730.882	40971.66
731.224	41047.82
731.565	40782.29
731.906	40893.47
732.248	40951.55
732.589	40671.56
732.93	40556.53
733.271	40625.01
733.612	40734.61
733.953	40673.59
734.294	40382.3
734.635	40328.29
734.976	40509.3
735.317	40261.62
735.658	40261.85
735.999	40280.83
736.339	40128.52
736.68	40315.18
737.021	40123.78
737.361	39796.78
737.702	40039.94
738.042	39883.33
738.383	39631.81
738.723	39763.11
739.063	39639.95
739.404	39721.07
739.744	39769.89
740.084	39483.79
740.424	39560.4
740.764	39260.75
741.104	39507.52
741.444	39100.07
741.784	38991.6
742.124	39214.87
742.464	39016.23
742.804	39117.25
743.143	38816.69
743.483	39001.77
743.823	38694.43
744.162	38719.97
744.502	38789.35
744.841	38491.73
745.181	38759.74
745.52	38441.56
745.86	38596.58
746.199	38425.06
746.538	38280.43
746.877	38270.94
747.216	38276.59
747.556	38005.64
747.895	38089.25
748.234	37916.15
748.573	37949.6
748.911	37739.88
749.25	37668.47
749.589	37666.66
749.928	37657.63
750.267	37623.95
750.605	37518.65
750.944	37446.33
751.283	37250.4
751.621	37322.49
751.96	36984.42
752.298	37079.11
752.636	37078.43
752.975	36913.24
753.313	36909.85
753.651	36805.67
753.989	36646.58
754.327	36663.3
754.666	36527.71
755.004	36673.47
755.342	36593.02
755.679	36401.16
756.017	36202.52
756.355	36315.97
756.693	36150.09
757.031	36161.39
757.368	35976.99
757.706	35974.96
758.044	35966.37
758.381	35793.72
758.719	35566.83
759.056	35740.16
759.394	35488.87
759.731	35232.15
760.068	35171.59
760.405	34934.99
760.743	35017.7
761.08	34999.62
761.417	34646.41
761.754	34826.97
762.091	34735.89
762.428	34631.72
762.765	34422.91
763.102	34366.19
763.438	34245.51
763.775	34061.11
764.112	34025.18
764.449	34035.35
764.785	33798.07
765.122	33547
765.458	33630.61
765.795	33466.55
766.131	33425.19
766.467	33182.72
766.804	33087.35
767.14	33023.62
767.476	32985.88
767.812	32819.79
768.148	32837.41
768.485	32597.87
768.821	32395.84
769.157	32526.69
769.492	32302.29
769.828	32274.72
770.164	32055.74
770.5	32160.6
770.836	31924.44
771.171	31701.62
771.507	31558.35
771.842	31483.55
772.178	31574.85
772.513	31429.77
772.849	31259.15
773.184	31239.72
773.519	31187.74
773.855	31070.45
774.19	30809.67
774.525	30729.9
774.86	30626.4
775.195	30617.13
775.53	30455.33
775.865	30188.44
776.2	30081.55
776.535	29900.99
776.87	29927.89
777.205	29773.77
777.539	29624.62
777.874	29736.03
778.209	29546.88
778.543	29443.6
778.878	29207.68
779.212	29237.06
779.547	29040.9
779.881	29050.85
780.215	28853.79
780.55	28875.94
780.884	28737.63
781.218	28650.4
781.552	28497.64
781.886	28379.9
782.22	28350.3
782.554	28243.86
782.888	27985.56
783.222	27768.85
783.556	27771.56
783.889	27873.93
784.223	27464.45
784.557	27628.28
784.89	27482.07
785.224	27233.94
785.557	27258.58
785.891	27122.31
786.224	26996.44
786.558	26897.68
786.891	26723.9
787.224	26651.14
787.557	26591.02
787.891	26549.9
788.224	26403.91
788.557	26437.81
788.89	26378.6
789.223	26275.78
789.556	25954.66
789.888	26019.06
790.221	25842.34
790.554	25802.57
790.887	25640.09
791.219	25575.01
791.552	25614.1
791.884	25492.75
792.217	25366.2
792.549	25297.95
792.882	25309.7
793.214	25007.34
793.546	25076.26
793.879	24927.56
794.211	24695.71
794.543	24846.89
794.875	24757.17
795.207	24766.44
795.539	24484.41
795.871	24562.6
796.203	24326.22
796.535	24312.89
796.867	24248.94
797.198	24130.3
797.53	24080.81
797.862	23937.76
798.193	23944.09
798.525	23869.51
798.856	23804.66
799.188	23584.1
799.519	23471.56
799.85	23377.32
800.182	23420.49
800.513	23405.57
800.844	23232.24
801.175	23411.67
801.506	23301.39
801.837	23157.67
802.168	22976.2
802.499	22940.27
802.83	22752.48
803.161	22802.88
803.491	22854.17
803.822	22722.88
804.153	22582.09
804.483	22446.73
804.814	22306.62
805.145	22318.82
805.475	22340.29
805.805	22246.51
806.136	22230.69
806.466	22163.34
806.796	22198.6
807.126	21959.51
807.457	22052.39
807.787	21894.65
808.117	21845.84
808.447	21742.11
808.777	21746.63
809.107	21714.77
809.436	21380.99
809.766	21654.2
810.096	21433.42
810.426	21428.9
810.755	21343.03
811.085	21301.45
811.414	21253.09
811.744	21067.78
812.073	21015.58
812.403	21068.23
812.732	20863.94
813.061	20920.66
813.39	20837.5
813.719	20772.19
814.049	20925.64
814.378	20732.65
814.707	20618.07
815.036	20615.36
815.365	20511.41
815.693	20310.74
816.022	20380.34
816.351	20309.16
816.68	20206.56
817.008	20270.96
817.337	20163.85
817.665	20115.71
817.994	20148.03
818.322	20045.21
818.651	19915.49
818.979	19868.04
819.307	19951.42
819.636	19820.58
819.964	19671.43
820.292	19713.46
820.62	19710.07
820.948	19583.3
821.276	19659.68
821.604	19679.12
821.932	19686.35
822.259	19704.2
822.587	19583.98
822.915	19707.14
823.243	19647.93
823.57	19557.76
823.898	19637.76
824.225	19556.18
824.553	19547.37
824.88	19685.44
825.207	19572.45
825.535	19584.88
825.862	19594.6
826.189	19551.89
826.516	19644.99
826.843	19690.41
827.17	19669.62
827.497	19599.34
827.824	19603.41
828.151	19665.56
828.478	19492.45
828.805	19560.02
829.131	19552.56
829.458	19511.66
829.785	19450.19
830.111	19440.93
830.438	19647.25
830.764	19495.62
831.09	19445.68
831.417	19421.95
831.743	19494.26
832.069	19466.01
832.395	19379.01
832.722	19425.11
833.048	19252.46
833.374	19337.2
833.7	19249.75
834.026	19354.15
834.351	19353.93
834.677	19219.92
835.003	19330.88
835.329	19342.85
835.654	19174.04
835.98	19118.23
836.306	19189.64
836.631	19148.73
836.956	19145.8
837.282	19215.85
837.607	19037.32
837.932	19017.66
838.258	19063.31
838.583	18983.77
838.908	18917.1
839.233	18883.66
839.558	18799.14
839.883	18735.86
840.208	18690.89
840.533	18747.39
840.858	18784.68
841.182	18754.85
841.507	18773.83
841.832	18636.88
842.156	18541.74
842.481	18557.56
842.805	18360.51
843.13	18432.37
843.454	18400.96
843.778	18238.7
844.103	18298.81
844.427	18247.74
844.751	18263.33
845.075	18186.05
845.399	18215.43
845.723	18035.99
846.047	18057.69
846.371	17943.34
846.695	17860.63
847.019	17743.8
847.343	17622.9
847.666	17592.62
847.99	17525.05
848.313	17440.3
848.637	17408.67
848.96	17316.69
849.284	17270.82
849.607	17141.1
849.931	17095.45
850.254	16936.59
850.577	16907.44
850.9	16918.28
851.223	16817.95
851.546	16760.32
851.869	16610.04
852.192	16717.16
852.515	16531.85
852.838	16518.07
853.161	16406.43
853.483	16363.95
853.806	16292.99
854.129	16309.94
854.451	16082.83
854.774	16109.49
855.096	16146.1
855.419	16046.22
855.741	15994.24
856.063	15974.81
856.385	15907.01
856.708	15791.31
857.03	15749.5
857.352	15803.29
857.674	15701.82
857.996	15602.39
858.318	15524.42
858.64	15578.21
858.961	15550.41
859.283	15392.67
859.605	15275.84
859.926	15433.13
860.248	15301.15
860.57	15302.51
860.891	15291.43
861.212	15150.19
861.534	15278.33
861.855	15132.79
862.176	15170.53
862.498	15128.73
862.819	15196.52
863.14	15074.04
863.461	14886.47
863.782	14971.44
864.103	14992.91
864.424	14911.56
864.745	14982.29
865.065	14835.17
865.386	14775.29
865.707	14749.75
866.027	14833.14
866.348	14745.69
866.668	14804.67
866.989	14725.8
867.309	14642.19
867.63	14662.75
867.95	14569.42
868.27	14510.89
868.59	14541.85
868.91	14495.52
869.23	14445.81
869.55	14484.68
869.87	14505.01
870.19	14522.87
870.51	14464.34
870.83	14448.97
871.15	14194.29
871.469	14313.61
871.789	14329.65
872.109	14259.14
872.428	14219.6
872.748	14300.05
873.067	14135.53
873.386	14214.63
873.706	14250.33
874.025	14140.96
874.344	14073.84
874.663	14051.24
874.982	14070.22
875.301	14030.68
875.62	13979.6
875.939	13923.11
876.258	13884.47
876.577	13870.23
876.896	13894.41
877.214	13855.31
877.533	13862.32
877.852	13888.53
878.17	13841.98
878.489	13854.86
878.807	13763.79
879.125	13754.07
879.444	13742.1
879.762	13764.92
880.08	13664.58
880.398	13652.16
880.716	13683.79
881.034	13621.42
881.352	13609.9
881.67	13594.08
881.988	13569.67
882.306	13584.13
882.624	13511.82
882.941	13286.29
883.259	13272.73
883.577	13343.46
883.894	13286.74
884.212	13240.19
884.529	13295.78
884.846	13169
885.164	13127.2
885.481	13120.42
885.798	13141.43
886.115	13033.64
886.432	12997.48
886.75	12973.53
887.067	13015.79
887.383	12946.19
887.7	12993.42
888.017	12934.21
888.334	12893.98
888.651	12788.22
888.967	12764.72
889.284	12786.19
889.6	12662.8
889.917	12620.32
890.233	12658.28
890.55	12625.06
890.866	12573.77
891.182	12543.94
891.498	12469.59
891.815	12440.21
892.131	12405.63
892.447	12422.36
892.763	12414.67
893.079	12299.87
893.395	12271.4
893.71	12288.8
894.026	12148.69
894.342	12159.54
894.657	12121.8
894.973	12055.59
895.289	12049.71
895.604	12017.85
895.92	11884.97
896.235	11892.88
896.55	11898.75
896.865	11765.43
897.181	11722.71
897.496	11833.67
897.811	11774.24
898.126	11750.28
898.441	11709.61
898.756	11599.55
899.071	11532.44
899.386	11533.57
899.7	11484.3
900.015	11420.35
900.33	11323.18
900.644	11365.89
900.959	11389.39
901.273	11355.49
901.588	11204.08
901.902	11208.38
902.216	11089.96
902.531	11131.54
902.845	11093.8
903.159	10977.42
903.473	10975.39
903.787	10868.73
904.101	10833.02
904.415	10899.69
904.729	10795.06
905.042	10717.09
905.356	10772.91
905.67	10685.23
905.984	10674.61
906.297	10589.86
906.611	10563.42
906.924	10610.43
907.237	10582.63
907.551	10445.91
907.864	10455.18
908.177	10454.27
908.491	10379.02
908.804	10286.59
909.117	10318.23
909.43	10162.3
909.743	10117.56
910.056	10156.65
910.368	10085.92
910.681	9971.8
910.994	10017.22
911.307	9957.11
911.619	9912.59
911.932	9866.72
912.244	9789.43
912.557	9829.88
912.869	9748.98
913.181	9717.8
913.494	9752.37
913.806	9622.43
914.118	9629.21
914.43	9600.74
914.742	9482.1
915.054	9469.21
915.366	9422.66
915.678	9435.77
915.99	9365.26
916.302	9286.39
916.613	9312.83
916.925	9321.2
917.236	9236
917.548	9182.89
917.859	9157.58
918.171	9099.96
918.482	9007.31
918.794	9002.79
919.105	8985.61
919.416	8908.33
919.727	8881.89
920.038	8897.25
920.349	8834.88
920.66	8725.28
920.971	8795.33
921.282	8727.76
921.593	8668.11
921.903	8596.92
922.214	8587.88
922.525	8600.31
922.835	8533.65
923.146	8465.17
923.456	8457.72
923.767	8401.9
924.077	8434.89
924.387	8403.25
924.697	8317.61
925.008	8225.86
925.318	8255.91
925.628	8224.28
925.938	8133.66
926.248	8139.08
926.558	8088.69
926.867	8032.19
927.177	7968.91
927.487	8015.02
927.796	7892.08
928.106	7953.77
928.416	7864.51
928.725	7870.61
929.034	7786.77
929.344	7771.18
929.653	7705.19
929.962	7695.48
930.271	7620.9
930.581	7588.81
930.89	7603.05
931.199	7557.17
931.508	7554.01
931.817	7531.41
932.125	7492.77
932.434	7449.15
932.743	7346.33
933.051	7323.51
933.36	7334.13
933.669	7282.83
933.977	7243.51
934.286	7149.73
934.594	7217.07
934.902	7142.72
935.21	7162.38
935.519	7135.49
935.827	7033.8
936.135	7050.52
936.443	6991.54
936.751	6976.62
937.059	6955.16
937.367	6892.33
937.674	6915.84
937.982	6854.14
938.29	6820.7
938.597	6865.67
938.905	6770.3
939.213	6744.31
939.52	6735.05
939.827	6737.31
940.135	6639.68
940.442	6670.87
940.749	6648.05
941.056	6570.31
941.363	6502.74
941.67	6511.1
941.977	6505.22
942.284	6458.45
942.591	6428.39
942.898	6407.83
943.205	6399.24
943.511	6364.44
943.818	6276.98
944.125	6241.5
944.431	6255.97
944.738	6202.63
945.044	6177.78
945.35	6152.24
945.657	6092.81
945.963	6088.06
946.269	6081.73
946.575	6107.95
946.881	6055.74
947.187	6003.99
947.493	5985.24
947.799	5957.22
948.105	5919.48
948.41	5884.22
948.716	5859.37
949.022	5848.52
949.327	5880.61
949.633	5767.84
949.938	5801.51
950.244	5762.42
950.549	5739.37
950.854	5666.38
951.16	5690.33
951.465	5630.45
951.77	5651.91
952.075	5574.4
952.38	5605.81
952.685	5559.03
952.99	5486.04
953.294	5459.6
953.599	5417.12
953.904	5412.82
954.209	5440.17
954.513	5384.8
954.818	5341.41
955.122	5318.14
955.426	5304.58
955.731	5292.15
956.035	5274.52
956.339	5223.22
956.643	5238.82
956.948	5210.57
957.252	5155.2
957.556	5130.35
957.86	5135.99
958.163	5103.23
958.467	5115.88
958.771	5063.23
959.075	5113.4
959.378	5032.95
959.682	4991.82
959.985	4972.84
960.289	4960.41
960.592	4888.54
960.896	4918.37
961.199	4942.55
961.502	4898.49
961.805	4847.87
962.108	4781.2
962.411	4827.08
962.714	4760.86
963.017	4775.1
963.32	4749.34
963.623	4712.05
963.926	4719.73
964.228	4685.16
964.531	4666.18
964.833	4699.17
965.136	4649.91
965.438	4603.35
965.741	4600.87
966.043	4582.79
966.345	4553.64
966.648	4551.83
966.95	4531.72
967.252	4455.79
967.554	4457.14
967.856	4459.85
968.158	4431.15
968.46	4409.46
968.761	4406.3
969.063	4343.47
969.365	4302.12
969.666	4319.75
969.968	4326.75
970.269	4274.77
970.571	4232.97
970.872	4252.63
971.174	4220.31
971.475	4155.68
971.776	4162.24
972.077	4120.65
972.378	4127.66
972.679	4143.03
972.98	4127.89
973.281	4094.21
973.582	4119.75
973.883	4075.68
974.183	4037.27
974.484	4049.24
974.785	4014.67
975.085	4002.01
975.386	3984.39
975.686	3956.59
975.986	3907.55
976.287	3955.46
976.587	3915.91
976.887	3877.27
977.187	3892.86
977.487	3873.88
977.787	3796.82
978.087	3833.66
978.387	3778.06
978.687	3768.35
978.987	3756.37
979.286	3709.59
979.586	3722.47
979.885	3687.67
980.185	3683.38
980.484	3639.99
980.784	3648.8
981.083	3611.29
981.382	3608.13
981.682	3608.13
981.981	3616.03
982.28	3590.27
982.579	3565.64
982.878	3530.39
983.177	3513.21
983.475	3501.91
983.774	3525.64
984.073	3483.38
984.372	3465.76
984.67	3442.71
984.969	3466.21
985.267	3428.7
985.566	3410.62
985.864	3404.97
986.162	3395.02
986.461	3392.09
986.759	3346.44
987.057	3305.99
987.355	3288.13
987.653	3295.59
987.951	3248.59
988.249	3255.59
988.547	3290.62
988.844	3201.58
989.142	3257.85
989.44	3199.77
989.737	3188.48
990.035	3167.91
990.332	3160.91
990.63	3097.86
990.927	3113.68
991.224	3126.1
991.521	3107.8
991.819	3049.04
992.116	3111.87
992.413	3052.89
992.71	3022.15
993.006	3049.95
993.303	2995.49
993.6	2974.02
993.897	2958.2
994.193	2960.23
994.49	2928.82
994.787	2957.3
995.083	2934.7
995.379	2917.52
995.676	2911.19
995.972	2858.31
996.268	2813.12
996.565	2846.56
996.861	2806.79
997.157	2784.87
997.453	2774.25
997.749	2758.88
998.044	2737.64
998.34	2748.49
998.636	2757.75
998.932	2689.96
999.227	2708.49
999.523	2718.21
999.818	2659.45
1000.114	2636.17
1000.409	2663.52
1000.704	2686.57
1001	2637.76
1001.295	2579.9
1001.59	2567.93
1001.885	2550.07
1002.18	2560.02
1002.475	2577.64
1002.77	2527.93
1003.065	2525.67
1003.359	2535.61
1003.654	2492.9
1003.949	2506.69
1004.243	2492.22
1004.538	2443.64
1004.832	2433.92
1005.127	2433.69
1005.421	2424.65
1005.715	2368.61
1006.009	2378.55
1006.304	2384.88
1006.598	2334.49
1006.892	2339.01
1007.186	2336.75
1007.48	2326.13
1007.773	2310.53
1008.067	2292.23
1008.361	2285.22
1008.655	2260.36
1008.948	2238.44
1009.242	2232.79
1009.535	2228.73
1009.829	2232.79
1010.122	2182.4
1010.415	2197.54
1010.708	2176.75
1011.001	2165
1011.295	2144.21
1011.588	2153.47
1011.881	2106.24
1012.173	2124.1
1012.466	2111.67
1012.759	2089.07
1013.052	2064.89
1013.344	2042.29
1013.637	2035.96
1013.93	2032.8
1014.222	2022.18
1014.514	2006.59
1014.807	2001.61
1015.099	1965.68
1015.391	1967.94
1015.683	1970.65
1015.976	1937.66
1016.268	1945.12
1016.56	1948.28
1016.851	1896.53
1017.143	1903.31
1017.435	1904.89
1017.727	1863.09
1018.018	1869.19
1018.31	1847.27
1018.602	1855.18
1018.893	1841.17
1019.185	1837.78
1019.476	1820.15
1019.767	1801.85
1020.058	1790.55
1020.35	1749.19
1020.641	1759.36
1020.932	1765.91
1021.223	1736.54
1021.514	1681.4
1021.804	1687.05
1022.095	1689.76
1022.386	1710.32
1022.677	1687.05
1022.967	1665.35
1023.258	1616.77
1023.548	1640.49
1023.839	1626.26
1024.129	1627.16
1024.419	1604.79
1024.709	1586.71
1025	1569.54
1025.29	1544.45
1025.58	1543.55
1025.87	1508.97
1026.16	1534.51
1026.449	1516.66
1026.739	1507.39
1027.029	1501.51
1027.319	1493.6
1027.608	1497.9
1027.898	1467.39
1028.187	1447.96
1028.477	1438.47
1028.766	1431.46
1029.055	1427.84
1029.344	1416.09
1029.634	1426.94
1029.923	1402.53
1030.212	1409.09
1030.501	1376.32
1030.79	1361.4
1031.078	1366.6
1031.367	1334.51
1031.656	1378.81
1031.945	1374.29
1032.233	1348.3
1032.522	1312.14
1032.81	1306.49
1033.099	1292.48
1033.387	1288.64
1033.675	1301.75
1033.963	1284.57
1034.251	1274.4
1034.54	1242.09
1034.828	1220.62
1035.116	1228.3
1035.403	1209.77
1035.691	1246.38
1035.979	1205.48
1036.267	1208.19
1036.554	1190.79
1036.842	1174.74
1037.129	1178.36
1037.417	1161.18
1037.704	1168.19
1037.992	1184.46
1038.279	1143.11
1038.566	1126.61
1038.853	1126.61
1039.14	1126.61
