Data from plate_porcelain_FLMS001491_034.txt Node
Date: Tue Feb 07 11:19:12 GMT 2017
User: dcchb
Spectrometer: FLMS00149
Trigger mode: 0
Integration Time (sec): 2.000000E-2
Scans to average: 10
Electric dark correction enabled: true
Nonlinearity correction enabled: false
Boxcar width: 0
XAxis mode: Wavelengths
Number of Pixels in Spectrum: 2048
>>>>>Begin Spectral Data<<<<<
341.393	-22.16
341.776	-22.16
342.16	-22.16
342.543	-26.68
342.927	-65.32
343.31	-49.73
343.693	-78.88
344.077	-76.85
344.46	-64.65
344.843	-21.26
345.226	-40.47
345.61	-26.45
345.993	-11.54
346.376	-16.06
346.759	12.87
347.142	29.59
347.525	42.24
347.908	72.53
348.291	69.14
348.674	49.25
349.057	110.27
349.44	126.99
349.823	127.89
350.206	173.99
350.588	217.83
350.971	227.32
351.354	256.93
351.737	279.98
352.119	286.76
352.502	301.22
352.884	315.01
353.267	325.63
353.65	341.9
354.032	343.71
354.414	339.19
354.797	365.63
355.179	365.17
355.562	383.25
355.944	366.53
356.326	350.26
356.709	372.18
357.091	364.5
357.473	363.14
357.855	409.47
358.238	388.68
358.62	379.18
359.002	371.95
359.384	382.35
359.766	387.09
360.148	396.59
360.53	404.27
360.912	375.57
361.294	398.39
361.676	390.94
362.057	384.61
362.439	382.12
362.821	406.3
363.203	396.59
363.584	365.4
363.966	410.14
364.348	391.84
364.729	386.87
365.111	376.25
365.493	391.16
365.874	400.65
366.256	392.07
366.637	388
367.019	369.92
367.4	394.55
367.781	380.54
368.163	410.14
368.544	397.04
368.925	384.83
369.306	402.01
369.688	376.47
370.069	412.4
370.45	402.24
370.831	383.25
371.212	393.2
371.593	400.65
371.974	412.18
372.355	414.66
372.736	427.32
373.117	441.33
373.498	442.01
373.879	401.56
374.26	428.22
374.641	409.47
375.021	409.47
375.402	406.75
375.783	411.05
376.163	443.14
376.544	451.95
376.925	429.13
377.305	458.05
377.686	437.04
378.066	435
378.447	448.34
378.827	458.96
379.208	482.69
379.588	494.66
379.968	488.33
380.349	478.17
380.729	493.31
381.109	482.23
381.489	496.02
381.87	481.56
382.25	487.66
382.63	502.12
383.01	515.68
383.39	533.08
383.77	519.52
384.15	518.16
384.53	529.01
384.91	545.96
385.29	538.73
385.67	528.79
386.049	559.52
386.429	572.17
386.809	560.2
387.189	570.59
387.568	575.11
387.948	580.08
388.328	588.9
388.707	620.08
389.087	594.32
389.466	609.01
389.846	610.37
390.225	608.33
390.605	623.7
390.984	620.76
391.363	629.8
391.743	653.3
392.122	645.17
392.501	667.76
392.881	683.81
393.26	699.85
393.639	663.7
394.018	681.32
394.397	698.72
394.776	700.08
395.155	712.96
395.534	738.72
395.913	738.27
396.292	723.58
396.671	745.05
397.05	756.8
397.429	740.53
397.808	753.64
398.186	772.62
398.565	782.79
398.944	785.28
399.323	794.54
399.701	805.61
400.08	806.52
400.458	795.9
400.837	812.62
401.215	845.39
401.594	859.17
401.972	842.9
402.351	856.69
402.729	858.04
403.107	853.52
403.486	909.34
403.864	894.2
404.242	913.18
404.62	910.92
404.999	933.75
405.377	948.21
405.755	952.96
406.133	975.33
406.511	985.27
406.889	1006.29
407.267	1013.29
407.645	1025.72
408.023	1021.65
408.401	1040.86
408.779	1065.27
409.156	1058.72
409.534	1089.22
409.912	1073.86
410.29	1126.74
410.667	1124.93
411.045	1168.09
411.422	1194.76
411.8	1173.97
412.178	1205.38
412.555	1214.87
412.933	1218.26
413.31	1245.83
413.687	1263
414.065	1276.79
414.442	1292.61
414.819	1307.52
415.197	1343.68
415.574	1314.75
415.951	1370.57
416.328	1374.41
416.705	1397.92
417.082	1400.85
417.46	1417.35
417.837	1427.29
418.214	1453.06
418.591	1465.03
418.967	1471.13
419.344	1481.75
419.721	1544.13
420.098	1518.36
420.475	1529.66
420.852	1579.83
421.228	1583.22
421.605	1584.35
421.982	1605.14
422.358	1628.64
422.735	1661.64
423.111	1677.46
423.488	1693.05
423.864	1723.78
424.241	1712.71
424.617	1773.05
424.994	1778.92
425.37	1784.8
425.746	1787.06
426.123	1834.97
426.499	1825.25
426.875	1853.72
427.251	1889.65
427.627	1944.57
428.003	1955.19
428.379	1977.56
428.756	2019.82
429.132	2048.75
429.507	2020.95
429.883	2074.51
430.259	2149.99
430.635	2140.27
431.011	2159.48
431.387	2206.48
431.763	2267.72
432.138	2234.73
432.514	2301.39
432.89	2328.96
433.265	2365.57
433.641	2399.24
434.016	2405.8
434.392	2441.96
434.767	2549.3
435.143	2512.69
435.518	2511.56
435.894	2556.75
436.269	2625.68
436.644	2677.66
437.02	2664.55
437.395	2698.22
437.77	2738.44
438.145	2768.27
438.52	2794.04
438.895	2804.88
439.271	2820.7
439.646	2897.54
440.021	2943.64
440.395	2964.65
440.77	2934.15
441.145	2970.98
441.52	3002.17
441.895	2991.77
442.27	3054.82
442.645	3070.19
443.019	3075.16
443.394	3106.12
443.769	3163.74
444.143	3165.78
444.518	3233.8
444.892	3209.17
445.267	3291.88
445.641	3276.96
446.016	3287.81
446.39	3316.73
446.764	3381.14
447.139	3332.78
447.513	3394.7
447.887	3385.66
448.262	3433.12
448.636	3450.97
449.01	3546.56
449.384	3568.48
449.758	3594.02
450.132	3601.02
450.506	3640.34
450.88	3676.95
451.254	3709.04
451.628	3753.33
452.002	3769.38
452.376	3812.99
452.75	3836.95
453.123	3898.87
453.497	3901.35
453.871	3967.11
454.244	4068.13
454.618	4115.58
454.992	4200.78
455.365	4180.44
455.739	4271.29
456.112	4324.39
456.486	4361.45
456.859	4390.6
457.232	4458.63
457.606	4534.78
457.979	4547.44
458.352	4667.66
458.725	4700.43
459.099	4711.05
459.472	4832.85
459.845	4913.75
460.218	4916.24
460.591	5049.34
460.964	5046.18
461.337	5137.7
461.71	5270.13
462.083	5289.79
462.456	5306.29
462.829	5302.45
463.201	5452.95
463.574	5445.94
463.947	5594.19
464.32	5722.1
464.692	5755.99
465.065	5743.56
465.438	5863.33
465.81	5919.6
466.183	6054.06
466.555	6128.86
466.928	6174.51
467.3	6238.47
467.672	6337.22
468.045	6483.88
468.417	6448.18
468.789	6565.24
469.161	6608.17
469.534	6777.66
469.906	6907.15
470.278	6926.81
470.65	7008.16
471.022	7177.42
471.394	7356.63
471.766	7401.37
472.138	7502.84
472.51	7684.98
472.882	7783.74
473.253	7929.49
473.625	7986.89
473.997	8147.12
474.369	8232.09
474.74	8370.16
475.112	8399.31
475.484	8619.42
475.855	8722.47
476.227	8828.45
476.598	9098.5
476.97	9190.03
477.341	9447.42
477.713	9523.8
478.084	9598.15
478.455	9854.64
478.827	9925.6
479.198	10295.31
479.569	10272.26
479.94	10513.16
480.311	10627.05
480.682	10922.86
481.053	11116.98
481.424	11268.39
481.795	11463.19
482.166	11655.27
482.537	11716.97
482.908	12019.1
483.279	12176.39
483.65	12334.58
484.021	12628.13
484.391	12738.41
484.762	12942.92
485.133	13046.2
485.503	13243.71
485.874	13572.96
486.244	13691.83
486.615	13981.99
486.985	14052.95
487.356	14367.74
487.726	14454.3
488.097	14791.46
488.467	14921.18
488.837	15154.62
489.207	15447.26
489.578	15713.92
489.948	15768.84
490.318	15993.24
490.688	16091.54
491.058	16267.13
491.428	16533.34
491.798	16757.29
492.168	17068.69
492.538	17142.36
492.908	17373.09
493.278	17613.53
493.648	17502.35
494.017	17929.46
494.387	17990.7
494.757	18157.02
495.126	18413.96
495.496	18560.18
495.866	18657.12
496.235	18987.51
496.605	19101.63
496.974	19217.79
497.344	19328.74
497.713	19527.16
498.082	19667.72
498.452	19904.55
498.821	19939.12
499.19	20034.49
499.559	20212.34
499.928	20366
500.298	20623.85
500.667	20810.51
501.036	20691.19
501.405	20981.81
501.774	21054.57
502.143	21289.82
502.512	21370.5
502.88	21623.6
503.249	21630.15
503.618	21792.86
503.987	21955.79
504.356	22053.64
504.724	22302.22
505.093	22392.84
505.462	22415.67
505.83	22687.52
506.199	22816.34
506.567	23138.36
506.936	23111.47
507.304	23433.72
507.672	23553.26
508.041	23648.86
508.409	23849.3
508.777	24054.72
509.145	24392.34
509.514	24220.82
509.882	24501.49
510.25	24568.15
510.618	24745.1
510.986	24923.62
511.354	25149.16
511.722	25413.78
512.09	25498.52
512.458	25655.36
512.826	25841.11
513.193	25891.73
513.561	26154.78
513.929	26468.22
514.297	26697.14
514.664	26858.94
515.032	26968.32
515.4	27079.05
515.767	27364.24
516.135	27555.42
516.502	27337.35
516.869	28059.59
517.237	27967.16
517.604	27987.5
517.972	28538.67
518.339	28512.68
518.706	28654.15
519.073	28804.2
519.44	29070.63
519.808	29332.32
520.175	29463.17
520.542	29943.61
520.909	30045.98
521.276	30016.37
521.643	30457.49
522.009	30619.97
522.376	30872.39
522.743	31066.29
523.11	31359.84
523.477	31602.32
523.843	31858.13
524.21	32109.88
524.577	32470.77
524.943	32502.86
525.31	32745.34
525.676	33060.13
526.043	33350.97
526.409	33395.27
526.776	33798.87
527.142	33914.35
527.508	34165.19
527.874	34467.55
528.241	34662.13
528.607	34790.71
528.973	35042.68
529.339	35174.65
529.705	35568.77
530.071	35693.96
530.437	35870.68
530.803	36149.09
531.169	36436.09
531.535	36337.56
531.901	36447.39
532.267	36658.23
532.632	36974.61
532.998	37250.76
533.364	37428.15
533.73	37533.91
534.095	37944.52
534.461	37854.81
534.826	38143.84
535.192	38297.51
535.557	38517.17
535.923	38531.63
536.288	38703.83
536.653	38939.08
537.019	38745.41
537.384	39152.85
537.749	39138.62
538.114	39373.87
538.479	39386.07
538.845	39743.57
539.21	39754.42
539.575	39888.65
539.94	40035.54
540.305	40418.58
540.67	40320.06
541.034	40496.32
541.399	40569.09
541.764	40690.67
542.129	40918.23
542.494	41051.56
542.858	41200.48
543.223	41342.63
543.587	41419.69
543.952	41581.72
544.316	41716.4
544.681	41736.52
545.045	41950.07
545.41	42150.06
545.774	42242.72
546.138	42259.44
546.503	42369.49
546.867	42443.84
547.231	42794.79
547.595	42892.87
547.959	43110.72
548.324	43094.67
548.688	43265.97
549.052	43363.59
549.416	43498.5
549.779	43604.72
550.143	43758.16
550.507	43972.39
550.871	44200.41
551.235	44161.99
551.599	44568.98
551.962	44547.29
552.326	44788.41
552.689	44858.92
553.053	44685.36
553.417	45098.69
553.78	45515.17
554.143	45276.31
554.507	45622.52
554.87	45651.67
555.234	46188.38
555.597	45914.26
555.96	46131.43
556.323	46366
556.686	46308.15
557.05	46676.05
557.413	46741.13
557.776	46897.51
558.139	47130.95
558.502	47164.62
558.865	47367.33
559.228	47697.94
559.59	47827.88
559.953	47874.66
560.316	48289.34
560.679	48383.57
561.041	48561.19
561.404	48592.83
561.767	48916.67
562.129	48815.2
562.492	49215.87
562.854	49141.29
563.217	49275.53
563.579	49547.84
563.941	49715.51
564.304	49898.79
564.666	50027.82
565.028	50216.07
565.39	50336.29
565.753	50421.26
566.115	50593.23
566.477	50696.96
566.839	50836.39
567.201	51006.33
567.563	51128.36
567.925	51310.05
568.287	51417.16
568.648	51414.45
569.01	51626.2
569.372	51790.94
569.734	51722.24
570.095	52007.66
570.457	52157.03
570.819	52242.68
571.18	52199.52
571.542	52444.03
571.903	52489.68
572.265	52591.6
572.626	52503.92
572.987	52629.34
573.349	52858.26
573.71	52871.14
574.071	52992.72
574.432	52992.04
574.794	53312.26
575.155	53185.03
575.516	53177.57
575.877	53326.49
576.238	53502.31
576.599	53521.74
576.96	53573.04
577.32	53499.6
577.681	53698.91
578.042	53761.28
578.403	53754.5
578.763	53836.99
579.124	53927.83
579.485	53923.09
579.845	54062.07
580.206	53967.15
580.566	53973.48
580.927	54081.28
581.287	54168.51
581.648	54004.22
582.008	54188.84
582.368	54109.3
582.728	54243.08
583.089	54135.29
583.449	54148.84
583.809	54251.44
584.169	54315.85
584.529	54227.03
584.889	54468.38
585.249	54293.7
585.609	54299.58
585.969	54386.58
586.329	54277.88
586.688	54458.44
587.048	54337.31
587.408	54338.44
587.768	54287.82
588.127	54300.93
588.487	54356.75
588.846	54521.72
589.206	54332.34
589.565	54299.58
589.925	54528.72
590.284	54347.03
590.643	54460.25
591.003	54582.73
591.362	54601.71
591.721	54480.59
592.08	54494.15
592.44	54586.12
592.799	54565.33
593.158	54504.77
593.517	54547.93
593.876	54624.99
594.235	54499.8
594.593	54633.35
594.952	54600.58
595.311	54553.13
595.67	54615.27
596.029	54720.13
596.387	54687.14
596.746	54821.82
597.104	54646.91
597.463	54698.89
597.822	54804.19
598.18	54746.34
598.538	54687.59
598.897	54830.41
599.255	54683.07
599.613	55064.3
599.972	54794.48
600.33	54884.64
600.688	54829.96
601.046	55002.61
601.404	54974.13
601.762	54996.05
602.12	55140.23
602.478	55100.46
602.836	55102.72
603.194	54998.31
603.552	55107.69
603.91	54993.57
604.268	55092.1
604.625	55048.48
604.983	55185.88
605.341	55093.23
605.698	55271.75
606.056	55294.35
606.413	55290.74
606.771	55354.91
607.128	55361.24
607.485	55316.27
607.843	55280.57
608.2	55490.96
608.557	55490.28
608.914	55459.54
609.272	55637.84
609.629	55598.3
609.986	55661.57
610.343	55534.57
610.7	55805.98
611.057	55812.3
611.414	55797.39
611.771	55793.55
612.127	55869.93
612.484	55838.52
612.841	55880.32
613.198	55844.17
613.554	55862.92
613.911	55993.54
614.267	55973.66
614.624	55979.08
614.98	56077.61
615.337	56150.6
615.693	56193.99
616.05	56088.91
616.406	56259.75
616.762	56134.1
617.118	56158.96
617.475	56063.14
617.831	56220.43
618.187	56251.84
618.543	56292.07
618.899	56419.52
619.255	56387.43
619.611	56292.97
619.967	56378.39
620.323	56400.31
620.678	56329.8
621.034	56300.88
621.39	56393.53
621.746	56323.25
622.101	56611.6
622.457	56362.8
622.812	56474.89
623.168	56504.94
623.523	56370.71
623.879	56499.29
624.234	56383.36
624.589	56488.67
624.945	56447.32
625.3	56464.49
625.655	56466.75
626.01	56516.69
626.365	56475.56
626.72	56475.56
627.075	56464.94
627.43	56421.1
627.785	56376.81
628.14	56341.33
628.495	56336.36
628.85	56320.99
629.205	56252.52
629.559	56352.18
629.914	56265.4
630.269	56299.97
630.623	56213.88
630.978	56153.09
631.332	56245.51
631.687	56264.27
632.041	56167.1
632.396	56215.91
632.75	56157.15
633.104	56141.56
633.459	56002.36
633.813	56005.07
634.167	56003.26
634.521	56082.35
634.875	56024.05
635.229	55918.74
635.583	55812.98
635.937	55829.7
636.291	55782.25
636.645	55834.68
636.999	55778.18
637.352	55791.06
637.706	55616.15
638.06	55733.66
638.413	55718.75
638.767	55662.48
639.121	55613.66
639.474	55493.44
639.828	55434.91
640.181	55468.58
640.534	55429.49
640.888	55396.72
641.241	55282.83
641.594	55360.11
641.947	55385.65
642.301	55327.34
642.654	55311.53
643.007	55311.53
643.36	55154.69
643.713	55192.66
644.066	55224.3
644.419	55071.08
644.771	54875.38
645.124	54612.11
645.477	54655.05
645.83	54379.35
646.182	54263.42
646.535	54159.69
646.888	54214.38
647.24	54070.2
647.593	54185.91
647.945	54029.3
648.298	53989.3
648.65	53869.08
649.002	53816.42
649.355	54064.78
649.707	53856.42
650.059	53998.34
650.411	54325.11
650.763	54378.67
651.115	54571.66
651.467	54507.93
651.819	54521.94
652.171	54405.34
652.523	54381.83
652.875	54301.61
653.227	54174.61
653.578	54384.32
653.93	54232.46
654.282	54118.79
654.633	54072.69
654.985	54165.12
655.337	54191.56
655.688	54142.52
656.039	54240.82
656.391	53957.89
656.742	54047.83
657.094	54060.49
657.445	54162.18
657.796	54088.28
658.147	54020.26
658.498	53977.55
658.849	54034.5
659.2	53873.15
659.551	53875.63
659.902	54027.49
660.253	53924.9
660.604	53942.3
660.955	53715.41
661.306	53928.74
661.656	53772.13
662.007	53717.67
662.358	53748.4
662.708	53768.06
663.059	53730.1
663.409	53643.55
663.76	53678.35
664.11	53671.34
664.461	53717.67
664.811	53642.87
665.161	53681.74
665.511	53647.16
665.862	53637.45
666.212	53699.14
666.562	53675.41
666.912	53694.17
667.262	53627.28
667.612	53598.35
667.962	53708.18
668.312	53620.04
668.662	53755.18
669.011	53639.48
669.361	53530.56
669.711	53478.35
670.06	53498.24
670.41	53489.2
670.76	53454.63
671.109	53484.23
671.459	53431.12
671.808	53387.96
672.157	53475.19
672.507	53189.77
672.856	53316.1
673.205	53354.97
673.554	53373.5
673.904	53215.08
674.253	53418.02
674.602	53215.54
674.951	52832.5
675.3	52733.29
675.649	53168.31
675.998	53193.62
676.346	53147.06
676.695	53239.26
677.044	52950.01
677.393	53183.45
677.741	53243.56
678.09	53021.19
678.438	52971.02
678.787	52958.14
679.135	52992.26
679.484	52852.61
679.832	52867.3
680.181	52720.86
680.529	52759.73
680.877	52731.25
681.225	52596.79
681.573	52864.81
681.922	52599.96
682.27	52508.21
682.618	52594.08
682.966	52480.41
683.314	52483.8
683.661	52394.09
684.009	52219.4
684.357	52151.83
684.705	52106.19
685.053	52242
685.4	52111.38
685.748	51871.84
686.095	51898.73
686.443	51668.01
686.79	51778.51
687.138	51636.59
687.485	51714.78
687.832	51628.23
688.18	51730.83
688.527	51487.9
688.874	51425.3
689.221	51327.68
689.568	51222.82
689.915	51242.48
690.262	51116.83
690.609	51103.05
690.956	50896.73
691.303	50835.49
691.65	50729.73
691.997	50635.72
692.344	50474.59
692.69	50486.79
693.037	50670.07
693.383	50358.21
693.73	50319.34
694.077	50098.1
694.423	50152.57
694.769	50018.56
695.116	50011.1
695.462	49983.08
695.808	49766.13
696.155	49817.43
696.501	49488.4
696.847	49642.97
697.193	49356.2
697.539	49417.67
697.885	49150.11
698.231	49139.48
698.577	49139.94
698.923	48960.28
699.269	48794.18
699.614	48664.24
699.96	48521.87
700.306	48704.47
700.651	48374.76
700.997	48349.68
701.342	48279.62
701.688	48098.38
702.033	47938.61
702.379	47957.82
702.724	47825.4
703.069	47880.31
703.415	47367.55
703.76	47524.84
704.105	47441.22
704.45	47327.78
704.795	47094.11
705.14	47017.28
705.485	47114.45
705.83	46874.01
706.175	46851.41
706.52	46795.59
706.865	46636.05
707.209	46573.45
707.554	46406.45
707.899	46589.27
708.243	46202.84
708.588	46296.62
708.932	46040.36
709.277	45912.22
709.621	45925.33
709.966	45709.97
710.31	45876.29
710.654	45530.54
710.998	45603.76
711.342	45527.83
711.687	45351.34
712.031	45046.49
712.375	45131.91
712.719	45182.98
713.063	45058.69
713.407	45116.99
713.75	44806.94
714.094	44712.26
714.438	44768.75
714.782	44762.65
715.125	44540.28
715.469	44459.16
715.812	44203.12
716.156	44062.56
716.499	44091.71
716.843	44129.45
717.186	43836.35
717.53	44082.44
717.873	44034.76
718.216	43923.58
718.559	43803.58
718.902	43590.7
719.246	43839.06
719.589	43581.66
719.932	43490.37
720.275	43408.34
720.617	43300.54
720.96	43092.19
721.303	43103.49
721.646	43176.03
721.989	42903.94
722.331	43058.74
722.674	42886.77
723.016	42914.56
723.359	42742.36
723.701	42852.19
724.044	42560.67
724.386	42416.05
724.729	42521.13
725.071	42362.49
725.413	42349.38
725.755	42353.22
726.097	42121.82
726.439	41943.97
726.782	41933.35
727.124	42224.41
727.465	41772.9
727.807	41782.84
728.149	41714.6
728.491	41688.38
728.833	41708.49
729.175	41609.51
729.516	41439.12
729.858	41355.73
730.199	41561.83
730.541	41328.84
730.882	41169.07
731.224	41357.32
731.565	41071.45
731.906	41025.8
732.248	41257.43
732.589	40911.23
732.93	40735.41
733.271	40822.19
733.612	40834.84
733.953	40865.8
734.294	40595.98
734.635	40567.05
734.976	40622.87
735.317	40365.48
735.658	40332.03
735.999	40453.16
736.339	40273.05
736.68	40263.11
737.021	40212.49
737.361	40063.34
737.702	40114.41
738.042	39973.62
738.383	39932.5
738.723	39912.38
739.063	39779.96
739.404	39899.05
739.744	39786.06
740.084	39687.3
740.424	39549.91
740.764	39452.51
741.104	39717.36
741.444	39411.6
741.784	39113.76
742.124	39306.75
742.464	39177.03
742.804	39123.93
743.143	39157.37
743.483	38976.81
743.823	38985.4
744.162	38961.9
744.502	38921.22
744.841	38720.32
745.181	38785.86
745.52	38660.44
745.86	38840.77
746.199	38586.99
746.538	38551.06
746.877	38487.56
747.216	38514.91
747.556	38209.6
747.895	38358.98
748.234	38034.69
748.573	38021.81
748.911	37999.44
749.25	37928.25
749.589	37828.82
749.928	37818.2
750.267	37852.32
750.605	37653.91
750.944	37694.36
751.283	37370.08
751.621	37569.39
751.96	37165.11
752.298	37271.55
752.636	37260.25
752.975	36987.94
753.313	37005.34
753.651	37065.23
753.989	36867.72
754.327	36669.08
754.666	36569.65
755.004	36829.53
755.342	36793.82
755.679	36613.03
756.017	36458.46
756.355	36580.04
756.693	36289.88
757.031	36371.46
757.368	36181.18
757.706	36055.54
758.044	35881.53
758.381	35953.39
758.719	35739.16
759.056	35924.92
759.394	35624.81
759.731	35513.63
760.068	35356.34
760.405	35337.81
760.743	35273.18
761.08	35269.34
761.417	34972.63
761.754	34945.96
762.091	34908.22
762.428	34644.72
762.765	34637.27
763.102	34687.44
763.438	34363.38
763.775	34312.3
764.112	34200.22
764.449	34287.22
764.785	34012.88
765.122	33817.18
765.458	33577.41
765.795	33758.19
766.131	33586.45
766.467	33496.96
766.804	33325.66
767.14	33120.92
767.476	33119.12
767.812	32914.37
768.148	32988.05
768.485	32790.76
768.821	32643.2
769.157	32605.23
769.492	32463.77
769.828	32449.08
770.164	32237.33
770.5	32186.03
770.836	32102.42
771.171	31793.05
771.507	31917.34
771.842	31643.22
772.178	31785.59
772.513	31570.46
772.849	31600.28
773.184	31391.93
773.519	31380.63
773.855	31086.63
774.19	31023.35
774.525	30862.45
774.86	30744.49
775.195	30800.08
775.53	30556.47
775.865	30483.48
776.2	30260.43
776.535	30025.41
776.87	30080.78
777.205	29956.03
777.539	29878.97
777.874	29824.96
778.209	29679.66
778.543	29449.61
778.878	29411.42
779.212	29330.74
779.547	29292.55
779.881	29217.97
780.215	28985.89
780.55	29016.62
780.884	28864.31
781.218	28692.79
781.552	28705.9
781.886	28603.75
782.22	28378.9
782.554	28283.54
782.888	28077.44
783.222	27918.57
783.556	27835.19
783.889	27738.92
784.223	27649.88
784.557	27699.82
784.89	27679.26
785.224	27399.94
785.557	27356.78
785.891	27445.59
786.224	27127.86
786.558	27154.53
786.891	26932.84
787.224	26739.62
787.557	26765.38
787.891	26636.8
788.224	26650.81
788.557	26491.72
788.89	26535.11
789.223	26436.13
789.556	26301.44
789.888	26188
790.221	25947.55
790.554	25914.11
790.887	25839.76
791.219	25743.94
791.552	25788.91
791.884	25494.23
792.217	25508.47
792.549	25418.53
792.882	25291.52
793.214	25141.02
793.546	25163.62
793.879	24933.34
794.211	24885.43
794.543	24887.02
794.875	24721.6
795.207	24794.81
795.539	24703.74
795.871	24580.81
796.203	24428.27
796.535	24326.58
796.867	24312.11
797.198	24226.24
797.53	24188.73
797.862	24020.15
798.193	24042.52
798.525	23908.28
798.856	23924.33
799.188	23695.41
799.519	23530.67
799.85	23472.14
800.182	23510.1
800.513	23531.57
800.844	23286.61
801.175	23411.57
801.506	23384
801.837	23262.65
802.168	23192.82
802.499	23058.14
802.83	22910.8
803.161	22922.55
803.491	22812.04
803.822	22835.77
804.153	22630.58
804.483	22502.9
804.814	22469.9
805.145	22367.31
805.475	22391.04
805.805	22366.18
806.136	22263.36
806.466	22312.62
806.796	22220.64
807.126	22037.15
807.457	21861.11
807.787	21936.58
808.117	21836.93
808.447	21817.72
808.777	21875.79
809.107	21811.39
809.436	21655.91
809.766	21718.74
810.096	21622.24
810.426	21489.14
810.755	21435.13
811.085	21443.04
811.414	21292.99
811.744	21171.86
812.073	21137.74
812.403	21090.28
812.732	21022.94
813.061	21009.83
813.39	20813.9
813.719	20769.84
814.049	20958.08
814.378	20856.16
814.707	20680.57
815.036	20595.38
815.365	20550.41
815.693	20392.22
816.022	20374.37
816.351	20377.08
816.68	20250.75
817.008	20352.22
817.337	20058.44
817.665	20173.47
817.994	20222.05
818.322	20213.01
818.651	20115.16
818.979	20060.7
819.307	20086.01
819.636	19893.02
819.964	19821.61
820.292	19897.32
820.62	19702.29
820.948	19765.79
821.276	19900.25
821.604	19727.6
821.932	19788.62
822.259	19689.64
822.587	19745.23
822.915	19719.69
823.243	19703.42
823.57	19649.41
823.898	19666.36
824.225	19666.36
824.553	19702.52
824.88	19656.42
825.207	19744.55
825.535	19555.63
825.862	19719.69
826.189	19576.42
826.516	19686.7
826.843	19760.6
827.17	19790.65
827.497	19717.66
827.824	19743.65
828.151	19722.18
828.478	19546.36
828.805	19679.92
829.131	19618.23
829.458	19546.59
829.785	19417.78
830.111	19553.14
830.438	19612.35
830.764	19626.14
831.09	19566.03
831.417	19519.02
831.743	19637.66
832.069	19556.53
832.395	19476.54
832.722	19434.96
833.048	19456.65
833.374	19488.74
833.7	19328.29
834.026	19515.18
834.351	19395.63
834.677	19480.38
835.003	19388.63
835.329	19484.9
835.654	19229.31
835.98	19235.64
836.306	19307.05
836.631	19268.41
836.956	19336.43
837.282	19202.19
837.607	19088.98
837.932	19138.47
838.258	19166.26
838.583	19059.15
838.908	18933.5
839.233	19106.83
839.558	18874.52
839.883	18824.12
840.208	18886.72
840.533	18831.13
840.858	18786.38
841.182	18871.58
841.507	18797.68
841.832	18613.96
842.156	18648.99
842.481	18640.63
842.805	18546.62
843.13	18560.63
843.454	18424.59
843.778	18332.84
844.103	18411.71
844.427	18264.36
844.751	18366.51
845.075	18198.83
845.399	18173.29
845.723	18029.79
846.047	18165.16
846.371	17969.91
846.695	17981.21
847.019	17810.59
847.343	17742.8
847.666	17659.18
847.99	17518.85
848.313	17552.74
848.637	17419.19
848.96	17514.33
849.284	17355.24
849.607	17239.08
849.931	17197.27
850.254	17053.32
850.577	16972.65
850.9	16919.32
851.223	16943.04
851.546	16779.88
851.869	16658.3
852.192	16819.43
852.515	16598.19
852.838	16556.84
853.161	16497.41
853.483	16399.1
853.806	16404.3
854.129	16371.76
854.451	16296.28
854.774	16238.43
855.096	16116.85
855.419	16036.85
855.741	16078.66
856.063	15982.84
856.385	15977.42
856.708	15909.4
857.03	15841.6
857.352	15848.61
857.674	15777.42
857.996	15710.76
858.318	15582.4
858.64	15641.38
858.961	15526.58
859.283	15465.57
859.605	15378.11
859.926	15492.23
860.248	15435.29
860.57	15321.84
860.891	15307.38
861.212	15184.22
861.534	15213.82
861.855	15169.3
862.176	15146.71
862.498	15173.37
862.819	15160.94
863.14	14976.09
863.461	15035.75
863.782	14946.71
864.103	14982.87
864.424	14975.41
864.745	14965.02
865.065	14898.8
865.386	14812.25
865.707	14906.71
866.027	14847.28
866.348	14830.1
866.668	14792.14
866.989	14745.36
867.309	14596.66
867.63	14618.13
867.95	14549.66
868.27	14484.35
868.59	14605.25
868.91	14508.76
869.23	14586.72
869.55	14564.8
869.87	14659.71
870.19	14498.81
870.51	14507.85
870.83	14499.04
871.15	14301.08
871.469	14301.3
871.789	14340.63
872.109	14327.29
872.428	14223.34
872.748	14258.14
873.067	14300.63
873.386	14263.79
873.706	14199.61
874.025	14173.4
874.344	14147.64
874.663	14176.34
874.982	14092.27
875.301	14053.18
875.62	14016.57
875.939	13949.68
876.258	14010.69
876.577	13963.69
876.896	14024.93
877.214	13851.15
877.533	13898.83
877.852	13908.55
878.17	13890.92
878.489	13825.61
878.807	13790.58
879.125	13773.18
879.444	13759.4
879.762	13740.87
880.08	13742.45
880.398	13688.44
880.716	13805.5
881.034	13639.18
881.352	13630.36
881.67	13567.76
881.988	13584.49
882.306	13587.88
882.624	13472.4
882.941	13430.37
883.259	13440.08
883.577	13375.91
883.894	13371.16
884.212	13290.94
884.529	13230.6
884.846	13240.99
885.164	13230.82
885.481	13121
885.798	13203.71
886.115	13095.01
886.432	13007.33
886.75	13022.47
887.067	12949.25
887.383	12938.85
887.7	13064.5
888.017	12925.97
888.334	13010.04
888.651	12830.38
888.967	12831.29
889.284	12796.49
889.6	12771.18
889.917	12666.77
890.233	12633.33
890.55	12558.98
890.866	12717.84
891.182	12635.13
891.498	12503.39
891.815	12523.05
892.131	12418.19
892.447	12339.77
892.763	12391.75
893.079	12327.12
893.395	12320.34
893.71	12323.73
894.026	12258.42
894.342	12177.97
894.657	12119.44
894.973	12154.92
895.289	12075.37
895.604	12028.14
895.92	11908.15
896.235	11938.88
896.55	11908.37
896.865	11852.78
897.181	11856.4
897.496	11841.26
897.811	11806.23
898.126	11839.22
898.441	11735.27
898.756	11657.53
899.071	11555.39
899.386	11573.47
899.7	11522.17
900.015	11467.03
900.33	11419.8
900.644	11379.35
900.959	11403.08
901.273	11330.31
901.588	11215.51
901.902	11240.82
902.216	11227.26
902.531	11165.79
902.845	11139.58
903.159	11076.76
903.473	11062.75
903.787	10930.09
904.101	11021.39
904.415	10905.69
904.729	10883.77
905.042	10796.99
905.356	10822.53
905.67	10768.97
905.984	10777.56
906.297	10728.29
906.611	10590.67
906.924	10582.53
907.237	10610.33
907.551	10521.74
907.864	10502.08
908.177	10489.2
908.491	10455.08
908.804	10330.11
909.117	10310.68
909.43	10289.43
909.743	10187.74
910.056	10153.39
910.368	10081.98
910.681	10026.16
910.994	10020.29
911.307	9990.46
911.619	9897.35
911.932	9989.55
912.244	9822.55
912.557	9856
912.869	9759.28
913.181	9787.98
913.494	9728.77
913.806	9680.41
914.118	9677.92
914.43	9667.75
914.742	9608.32
915.054	9522.9
915.366	9432.73
915.678	9479.74
915.99	9379.63
916.302	9292.62
916.613	9282.45
916.925	9289.23
917.236	9261.21
917.548	9198.61
917.859	9193.19
918.171	9162.46
918.482	9089.01
918.794	9052.86
919.105	9009.69
919.416	8913.42
919.727	8939.64
920.038	8931.5
920.349	8821.67
920.66	8792.75
920.971	8789.13
921.282	8745.07
921.593	8611.51
921.903	8606.31
922.214	8566.54
922.525	8556.37
922.835	8580.1
923.146	8524.96
923.456	8467.79
923.767	8530.84
924.077	8473.66
924.387	8403.15
924.697	8364.29
925.008	8268.92
925.318	8270.73
925.628	8250.84
925.938	8159.77
926.248	8148.7
926.558	8108.47
926.867	8116.83
927.177	8062.6
927.487	8068.93
927.796	7925.65
928.106	7897.41
928.416	7925.2
928.725	7935.37
929.034	7790.52
929.344	7785.54
929.653	7802.72
929.962	7684.3
930.271	7676.62
930.581	7678.88
930.89	7661.03
931.199	7610.63
931.508	7522.73
931.817	7568.6
932.125	7536.96
932.434	7470.52
932.743	7398.89
933.051	7378.77
933.36	7336.74
933.669	7319.57
933.977	7244.32
934.286	7226.24
934.594	7200.25
934.902	7179.68
935.21	7103.08
935.519	7110.53
935.827	7096.07
936.135	7066.01
936.443	7017.43
936.751	6964.32
937.059	6967.94
937.367	6904.66
937.674	6922.97
937.982	6863.08
938.29	6819.92
938.597	6896.75
938.905	6767.72
939.213	6776.08
939.52	6730.88
939.827	6750.09
940.135	6692.24
940.442	6617.44
940.749	6673.03
941.056	6593.03
941.363	6573.82
941.67	6488.4
941.977	6510.78
942.284	6468.29
942.591	6430.55
942.898	6452.7
943.205	6420.16
943.511	6385.58
943.818	6322.53
944.125	6270.33
944.431	6249.09
944.738	6217.68
945.044	6210.22
945.35	6209.54
945.657	6156.66
945.963	6182.42
946.269	6050
946.575	6097.45
946.881	6039.38
947.187	6088.41
947.493	5983.78
947.799	5951.69
948.105	5936.78
948.41	5884.8
948.716	5828.99
949.022	5869.89
949.327	5883.67
949.633	5796.67
949.938	5756.9
950.244	5744.69
950.549	5705.6
950.854	5704.47
951.16	5702.89
951.465	5611.59
951.77	5618.37
952.075	5569.78
952.38	5532.95
952.685	5567.52
952.99	5541.99
953.294	5485.04
953.599	5446.85
953.904	5422.67
954.209	5388.09
954.513	5453.4
954.818	5361.43
955.122	5329.11
955.426	5312.61
955.731	5285.72
956.035	5262.9
956.339	5258.83
956.643	5242.79
956.948	5264.71
957.252	5270.58
957.556	5207.53
957.86	5126.4
958.163	5174.09
958.467	5129.12
958.771	5114.2
959.075	5106.74
959.378	5045.5
959.682	5069.91
959.985	5043.47
960.289	4990.14
960.592	4923.25
960.896	4939.29
961.199	4882.8
961.502	4889.57
961.805	4849.8
962.108	4815
962.411	4813.64
962.714	4760.31
963.017	4722.57
963.32	4814.32
963.623	4748.79
963.926	4764.61
964.228	4691.84
964.531	4698.62
964.833	4699.75
965.136	4635.57
965.438	4626.76
965.741	4602.8
966.043	4554.44
966.345	4566.65
966.648	4570.26
966.95	4482.81
967.252	4471.96
967.554	4467.89
967.856	4498.62
968.158	4444.39
968.46	4427.89
968.761	4403.94
969.063	4353.77
969.365	4373.66
969.666	4330.49
969.968	4300.21
970.269	4319.19
970.571	4291.4
970.872	4233.09
971.174	4207.78
971.475	4274.45
971.776	4204.4
972.077	4194.23
972.378	4173.21
972.679	4153.32
972.98	4127.79
973.281	4135.47
973.582	4087.79
973.883	4093.21
974.183	4058.86
974.484	4049.6
974.785	3982.71
975.085	4026.77
975.386	4001.46
975.686	3940.9
975.986	3917.62
976.287	3904.29
976.587	3925.98
976.887	3887.57
977.187	3900.67
977.487	3838.75
977.787	3827.91
978.087	3807.57
978.387	3833.33
978.687	3795.14
978.987	3763.95
979.286	3740.45
979.586	3723.28
979.885	3724.41
980.185	3733.22
980.484	3702.71
980.784	3692.77
981.083	3684.63
981.382	3644.86
981.682	3608.93
981.981	3617.29
982.28	3583.85
982.579	3581.59
982.878	3556.05
983.177	3545.2
983.475	3569.84
983.774	3500.01
984.073	3504.53
984.372	3462.95
984.67	3448.93
984.969	3447.58
985.267	3441.03
985.566	3426.56
985.864	3432.89
986.162	3376.62
986.461	3349.73
986.759	3377.07
987.057	3317.19
987.355	3317.41
987.653	3291.42
987.951	3275.38
988.249	3266.11
988.547	3244.19
988.844	3263.18
989.142	3256.17
989.44	3176.17
989.737	3187.92
990.035	3186.34
990.332	3147.02
990.63	3205.33
990.927	3176.17
991.224	3147.02
991.521	3143.86
991.819	3043.75
992.116	3046.01
992.413	3078.1
992.71	3050.08
993.006	3019.12
993.303	3031.54
993.6	3011.21
993.897	2999
994.193	2952
994.49	2948.38
994.787	2956.07
995.083	2948.38
995.379	2888.05
995.676	2897.08
995.972	2819.12
996.268	2852.57
996.565	2853.02
996.861	2869.29
997.157	2808.73
997.453	2798.78
997.749	2763.76
998.044	2823.41
998.34	2768.27
998.636	2734.6
998.932	2743.64
999.227	2686.47
999.523	2689.86
999.818	2666.58
1000.114	2661.16
1000.409	2672.68
1000.704	2696.41
1001	2629.97
1001.295	2619.13
1001.59	2582.06
1001.885	2612.57
1002.18	2586.36
1002.475	2559.92
1002.77	2570.09
1003.065	2524.89
1003.359	2540.94
1003.654	2509.3
1003.949	2488.51
1004.243	2465.23
1004.538	2467.49
1004.832	2448.51
1005.127	2446.25
1005.421	2418.23
1005.715	2374.61
1006.009	2402.63
1006.304	2378.91
1006.598	2320.38
1006.892	2346.14
1007.186	2332.13
1007.48	2350.66
1007.773	2282.64
1008.067	2276.99
1008.361	2284.9
1008.655	2297.55
1008.948	2280.6
1009.242	2281.51
1009.535	2235.86
1009.829	2212.81
1010.122	2226.14
1010.415	2186.82
1010.708	2183.66
1011.001	2171.91
1011.295	2163.32
1011.588	2137.33
1011.881	2135.97
1012.173	2119.93
1012.466	2101.4
1012.759	2069.54
1013.052	2081.74
1013.344	2059.59
1013.637	2033.6
1013.93	2053.27
1014.222	2025.47
1014.514	2005.81
1014.807	2005.13
1015.099	1990.89
1015.391	1975.53
1015.683	1952.7
1015.976	1952.25
1016.268	1935.3
1016.56	1950.44
1016.851	1906.15
1017.143	1900.27
1017.435	1903.66
1017.727	1867.51
1018.018	1855.98
1018.31	1841.52
1018.602	1855.76
1018.893	1810.79
1019.185	1825.47
1019.476	1808.53
1019.767	1771.92
1020.058	1790
1020.35	1794.29
1020.641	1771.01
1020.932	1730.79
1021.223	1751.58
1021.514	1715.42
1021.804	1691.69
1022.095	1705.7
1022.386	1685.59
1022.677	1668.19
1022.967	1672.26
1023.258	1650.11
1023.548	1621.86
1023.839	1610.11
1024.129	1611.47
1024.419	1599.04
1024.709	1604.69
1025	1583.67
1025.29	1590.45
1025.58	1549.1
1025.87	1564.01
1026.16	1531.7
1026.449	1549.55
1026.739	1532.83
1027.029	1503.68
1027.319	1486.5
1027.608	1483.11
1027.898	1485.14
1028.187	1456.44
1028.477	1453.73
1028.766	1434.52
1029.055	1466.16
1029.344	1434.07
1029.634	1423.9
1029.923	1417.58
1030.212	1378.71
1030.501	1373.74
1030.79	1411.7
1031.078	1384.36
1031.367	1361.98
1031.656	1372.15
1031.945	1340.06
1032.233	1369.67
1032.522	1317.47
1032.81	1331.48
1033.099	1314.75
1033.387	1294.87
1033.675	1281.99
1033.963	1275.43
1034.251	1302.55
1034.54	1265.26
1034.828	1248.31
1035.116	1234.3
1035.403	1240.41
1035.691	1240.86
1035.979	1244.92
1036.267	1210.58
1036.554	1212.84
1036.842	1208.99
1037.129	1189.56
1037.417	1164.93
1037.704	1173.74
1037.992	1171.71
1038.279	1141.2
1038.566	1149.33
1038.853	1149.33
1039.14	1149.33
