Data from plate_ceramic_FLMS001491_078.txt Node
Date: Tue Feb 07 11:17:17 GMT 2017
User: dcchb
Spectrometer: FLMS00149
Trigger mode: 0
Integration Time (sec): 2.000000E-2
Scans to average: 10
Electric dark correction enabled: true
Nonlinearity correction enabled: false
Boxcar width: 0
XAxis mode: Wavelengths
Number of Pixels in Spectrum: 2048
>>>>>Begin Spectral Data<<<<<
341.393	-7.26
341.776	-7.26
342.16	-7.26
342.543	-63.53
342.927	-70.76
343.31	-67.37
343.693	-62.63
344.077	-66.92
344.46	-60.14
344.843	-41.61
345.226	-40.48
345.61	-30.76
345.993	-24.43
346.376	-18.56
346.759	20.54
347.142	19.63
347.525	37.48
347.908	53.98
348.291	69.12
348.674	100.99
349.057	111.16
349.44	141.21
349.823	152.74
350.206	174.88
350.588	221.21
350.971	219.4
351.354	244.49
351.737	253.3
352.119	268.44
352.502	262.79
352.884	300.53
353.267	303.01
353.65	320.19
354.032	314.99
354.414	306.4
354.797	335.56
355.179	331.04
355.562	370.36
355.944	357.48
356.326	364.71
356.709	359.51
357.091	381.66
357.473	356.35
357.855	367.65
358.238	362.22
358.62	365.16
359.002	371.04
359.384	387.53
359.766	362.9
360.148	375.1
360.53	362.22
360.912	366.29
361.294	343.24
361.676	379.85
362.057	373.75
362.439	349.79
362.821	398.83
363.203	352.05
363.584	373.97
363.966	370.36
364.348	374.43
364.729	343.24
365.111	356.57
365.493	373.97
365.874	353.18
366.256	362.9
366.637	359.74
367.019	367.19
367.4	376.23
367.781	358.83
368.163	387.31
368.544	370.13
368.925	360.64
369.306	346.4
369.688	367.65
370.069	373.75
370.45	380.3
370.831	377.59
371.212	362.9
371.593	371.49
371.974	361.32
372.355	360.64
372.736	366.29
373.117	381.88
373.498	364.03
373.879	360.19
374.26	373.75
374.641	387.31
375.021	370.81
375.402	392.28
375.783	375.33
376.163	409.9
376.544	414.2
376.925	399.74
377.305	401.32
377.686	387.08
378.066	426.85
378.447	401.77
378.827	407.64
379.208	414.88
379.588	406.29
379.968	426.85
380.349	407.19
380.729	434.31
381.109	433.63
381.489	432.28
381.87	450.36
382.25	446.29
382.63	425.27
383.01	449.9
383.39	434.08
383.77	447.42
384.15	444.93
384.53	444.48
384.91	453.52
385.29	456.91
385.67	459.62
386.049	479.51
386.429	463.24
386.809	486.29
387.189	481.09
387.568	484.25
387.948	503.46
388.328	509.11
388.707	506.63
389.087	489.45
389.466	528.32
389.846	501.88
390.225	533.97
390.605	516.57
390.984	524.93
391.363	544.14
391.743	528.32
392.122	528.77
392.501	546.4
392.881	570.35
393.26	538.04
393.639	560.18
394.018	553.4
394.397	580.97
394.776	563.12
395.155	572.16
395.534	538.94
395.913	591.37
396.292	597.47
396.671	578.49
397.05	609.45
397.429	575.78
397.808	622.1
398.186	613.06
398.565	604.48
398.944	644.93
399.323	639.95
399.701	647.86
400.08	643.12
400.458	652.38
400.837	677.92
401.215	676.56
401.594	662.33
401.972	673.17
402.351	688.54
402.729	676.11
403.107	685.38
403.486	709.78
403.864	705.49
404.242	707.52
404.62	721.76
404.999	742.78
405.377	754.3
405.755	749.33
406.133	755.88
406.511	761.08
406.889	787.52
407.267	796.56
407.645	796.56
408.023	803.57
408.401	816.22
408.779	847.63
409.156	821.42
409.534	818.48
409.912	851.02
410.29	873.85
410.667	872.04
411.045	882.89
411.422	873.17
411.8	893.06
412.178	908.87
412.555	909.78
412.933	951.13
413.31	919.5
413.687	960.62
414.065	955.43
414.442	1005.6
414.819	992.49
415.197	1017.57
415.574	1029.55
415.951	1042.88
416.328	1032.49
416.705	1059.15
417.082	1057.57
417.46	1052.83
417.837	1089.66
418.214	1080.4
418.591	1100.06
418.967	1117.91
419.344	1124.24
419.721	1137.79
420.098	1144.12
420.475	1142.77
420.852	1146.16
421.228	1181.64
421.605	1184.8
421.982	1188.42
422.358	1222.31
422.735	1282.88
423.111	1246.72
423.488	1265.7
423.864	1269.09
424.241	1294.18
424.617	1272.71
424.994	1305.02
425.37	1311.8
425.746	1333.27
426.123	1342.08
426.499	1341.63
426.875	1366.94
427.251	1404.91
427.627	1435.87
428.003	1409.43
428.379	1454.85
428.756	1460.27
429.132	1477.67
429.507	1523.1
429.883	1551.12
430.259	1544.56
430.635	1572.81
431.011	1576.88
431.387	1599.03
431.763	1663.66
432.138	1640.38
432.514	1684.9
432.89	1675.18
433.265	1709.98
433.641	1748.17
434.016	1778.46
434.392	1754.05
434.767	1832.69
435.143	1824.78
435.518	1833.14
435.894	1857.32
436.269	1877.44
436.644	1902.07
437.02	1956.98
437.395	1929.86
437.77	1921.28
438.145	1990.88
438.52	2003.08
438.895	2025.23
439.271	2012.12
439.646	2076.53
440.021	2101.61
440.395	2071.1
440.77	2101.61
441.145	2121.27
441.52	2145.45
441.895	2165.34
442.27	2170.08
442.645	2195.85
443.019	2223.64
443.394	2225.68
443.769	2238.1
444.143	2211.21
444.518	2274.49
444.892	2272.68
445.267	2301.15
445.641	2308.61
446.016	2316.52
446.39	2366.01
446.764	2382.28
447.139	2369.17
447.513	2406.69
447.887	2388.38
448.262	2419.8
448.636	2422.73
449.01	2458.44
449.384	2487.82
449.758	2493.69
450.132	2527.81
450.506	2542.73
450.88	2597.64
451.254	2569.85
451.628	2625.44
452.002	2629.73
452.376	2680.81
452.75	2703.18
453.123	2748.15
453.497	2789.95
453.871	2763.51
454.244	2872.21
454.618	2857.52
454.992	2945.43
455.365	2880.12
455.739	2995.15
456.112	2987.69
456.486	3045.32
456.859	3096.16
457.232	3114.92
457.606	3118.31
457.979	3170.06
458.352	3254.8
458.725	3278.3
459.099	3304.29
459.472	3358.98
459.845	3407.34
460.218	3404.18
460.591	3475.81
460.964	3499.99
461.337	3522.59
461.71	3570.73
462.083	3663.83
462.456	3684.17
462.829	3669.25
463.201	3766.43
463.574	3779.99
463.947	3787.67
464.32	3909.7
464.692	3979.3
465.065	3942.24
465.438	4010.49
465.81	4112.63
466.183	4120.77
466.555	4239.63
466.928	4299.52
467.3	4271.05
467.672	4325.06
468.045	4405.51
468.417	4465.39
468.789	4483.7
469.161	4576.57
469.534	4627.65
469.906	4723.01
470.278	4773.41
470.65	4813.63
471.022	4944.02
471.394	5004.13
471.766	5004.59
472.138	5110.8
472.51	5196.67
472.882	5318.25
473.253	5361.64
473.625	5449.77
473.997	5570.9
474.369	5551.92
474.74	5675.75
475.112	5751.91
475.484	5825.58
475.855	5999.81
476.227	6020.38
476.598	6214.95
476.97	6187.83
477.341	6380.59
477.713	6454.94
478.084	6520.25
478.455	6760.7
478.827	6760.25
479.198	6943.52
479.569	6972.22
479.94	7134.02
480.311	7234.13
480.682	7452.88
481.053	7555.93
481.424	7612.88
481.795	7753.89
482.166	7889.93
482.537	7992.53
482.908	8171.96
483.279	8272.07
483.65	8408.11
484.021	8543.48
484.391	8640.2
484.762	8781.89
485.133	8893.3
485.503	8971.94
485.874	9174.87
486.244	9232.5
486.615	9410.35
486.985	9586.39
487.356	9661.86
487.726	9811.69
488.097	10091.01
488.467	10027.28
488.837	10301.85
489.207	10371.45
489.578	10531.67
489.948	10630.2
490.318	10821.38
490.688	10852.57
491.058	10945.67
491.428	11196.29
491.798	11241.94
492.168	11459.56
492.538	11530.74
492.908	11671.08
493.278	11871.75
493.648	11902.48
494.017	12078.52
494.387	12162.59
494.757	12212.08
495.126	12383.15
495.496	12434.45
495.866	12611.62
496.235	12672.86
496.605	12864.04
496.974	12877.15
497.344	13017.71
497.713	13104.26
498.082	13210.7
498.452	13404.14
498.821	13318.04
499.19	13561.65
499.559	13584.93
499.928	13632.38
500.298	13818.82
500.667	13871.7
501.036	13962.32
501.405	14152.37
501.774	14069.88
502.143	14346.94
502.512	14361.4
502.88	14557.78
503.249	14491.79
503.618	14717.1
503.987	14649.53
504.356	14745.8
504.724	14879.35
505.093	15043.42
505.462	15042.29
505.83	15194.37
506.199	15337.87
506.567	15505.55
506.936	15511.88
507.304	15689.73
507.672	15856.28
508.041	15908.48
508.409	16051.53
508.777	16097.4
509.145	16245.42
509.514	16248.13
509.882	16472.08
510.25	16493.55
510.618	16622.13
510.986	16727.44
511.354	16872.07
511.722	17015.57
512.09	17122.69
512.458	17155.68
512.826	17321.55
513.193	17463.24
513.561	17498.27
513.929	17775.32
514.297	17878.6
514.664	18018.93
515.032	18086.95
515.4	18231.13
515.767	18246.27
516.135	18413.72
516.502	18408.3
516.869	18738.69
517.237	18857.1
517.604	18823.43
517.972	19098.68
518.339	19195.85
518.706	19291.44
519.073	19449.86
519.44	19525.56
519.808	19739.79
520.175	19857.3
520.542	20037.19
520.909	20148.14
521.276	20248.7
521.643	20468.59
522.009	20555.36
522.376	20701.35
522.743	20754.23
523.11	21127.33
523.477	21141.11
523.843	21333.65
524.21	21558.73
524.577	21848.89
524.943	21809.79
525.31	21984.48
525.676	22242.32
526.043	22459.72
526.409	22543.79
526.776	22642.77
527.142	22854.96
527.508	23008.86
527.874	23103.55
528.241	23333.82
528.607	23342.63
528.973	23617.66
529.339	23655.85
529.705	23828.72
530.071	23953.24
530.437	24021.26
530.803	24296.28
531.169	24491.31
531.535	24562.04
531.901	24628.48
532.267	24743.05
532.632	24976.94
532.998	25051.74
533.364	25226.43
533.73	25337.38
534.095	25556.36
534.461	25623.03
534.826	25663.48
535.192	25717.94
535.557	25953.19
535.923	26069.12
536.288	26083.13
536.653	26360.63
537.019	26340.75
537.384	26423.01
537.749	26737.57
538.114	26591.14
538.479	26577.13
538.845	26814.86
539.21	26813.5
539.575	26929.21
539.94	26966.95
540.305	27289.65
540.67	27248.52
541.034	27314.28
541.399	27399.7
541.764	27584.11
542.129	27655.52
542.494	27869.3
542.858	27922.63
543.223	28008.05
543.587	28054.15
543.952	28043.3
544.316	28255.05
544.681	28261.15
545.045	28448.04
545.41	28517.64
545.774	28533.46
546.138	28653.68
546.503	28873.34
546.867	28845.77
547.231	29064.97
547.595	29092.54
547.959	29255.93
548.324	29259.99
548.688	29370.72
549.052	29648.68
549.416	29532.08
549.779	29762.13
550.143	29974.32
550.507	30026.75
550.871	30136.58
551.235	30175.9
551.599	30258.16
551.962	30399.62
552.326	30510.58
552.689	30712.38
553.053	30661.09
553.417	30711.93
553.78	31141.53
554.143	30960.51
554.507	31282.31
554.87	31259.26
555.234	31563.89
555.597	31437.34
555.96	31536.54
556.323	31684.34
556.686	31817.21
557.05	32108.51
557.413	32089.52
557.776	32297.43
558.139	32533.58
558.502	32626.68
558.865	32704.87
559.228	32811.31
559.59	33018.76
559.953	33014.7
560.316	33343.95
560.679	33449.94
561.041	33530.16
561.404	33811.29
561.767	34025.52
562.129	33886.76
562.492	34419.41
562.854	34322.91
563.217	34403.59
563.579	34597.03
563.941	34897.81
564.304	34947.53
564.666	35199.72
565.028	35206.05
565.39	35333.51
565.753	35544.12
566.115	35630.9
566.477	35749.77
566.839	35898.91
567.201	36165.57
567.563	36208.51
567.925	36451.67
568.287	36458.9
568.648	36634.49
569.01	36798.33
569.372	36977.08
569.734	36933.46
570.095	37270.86
570.457	37441.47
570.819	37443.51
571.18	37356.05
571.542	37766.66
571.903	37739.54
572.265	37874
572.626	38062.93
572.987	38077.16
573.349	38258.85
573.71	38409.36
574.071	38362.8
574.432	38433.76
574.794	38715.34
575.155	38732.06
575.516	38707.2
575.877	38859.06
576.238	39027.19
576.599	39174.76
576.96	39103.12
577.32	39233.06
577.681	39511.93
578.042	39627.18
578.403	39501.53
578.763	39558.03
579.124	39819.26
579.485	39847.74
579.845	39932.03
580.206	39788.76
580.566	39762.32
580.927	39842.99
581.287	40015.87
581.648	39932.71
582.008	40061.74
582.368	39883.22
582.728	40082.53
583.089	39965.93
583.449	40031.01
583.809	40162.08
584.169	40224.9
584.529	40170.89
584.889	40534.5
585.249	40231.91
585.609	40143.55
585.969	40265.35
586.329	40303.09
586.688	40243.89
587.048	40176.54
587.408	40278.69
587.768	40296.99
588.127	40216.09
588.487	40310.78
588.846	40525.91
589.206	40346.71
589.565	40348.29
589.925	40546.25
590.284	40361.62
590.643	40302.41
591.003	40577.89
591.362	40673.25
591.721	40623.54
592.08	40669.18
592.44	40600.71
592.799	40747.83
593.158	40667.15
593.517	40581.73
593.876	40682.52
594.235	40557.32
594.593	40643.87
594.952	40816.75
595.311	40496.99
595.67	40687.94
596.029	41003.87
596.387	41005.45
596.746	41008.39
597.104	40826.47
597.463	40796.19
597.822	41018.1
598.18	40925.9
598.538	40951.89
598.897	41096.29
599.255	40892.68
599.613	41474.36
599.972	41254.48
600.33	41313.01
600.688	41156.86
601.046	41157.53
601.404	41349.84
601.762	41301.26
602.12	41496.73
602.478	41554.81
602.836	41503.51
603.194	41367.25
603.552	41435.94
603.91	41382.39
604.268	41624.64
604.625	41512.1
604.983	41589.61
605.341	41460.58
605.698	41729.27
606.056	41772.43
606.413	41719.78
606.771	41899.44
607.128	41977.85
607.485	41787.8
607.843	41954.12
608.2	42113.67
608.557	42157.28
608.914	41949.83
609.272	42124.29
609.629	42078.64
609.986	42277.96
610.343	42263.04
610.7	42456.48
611.057	42381
611.414	42477.95
611.771	42514.11
612.127	42546.42
612.484	42417.16
612.841	42713.2
613.198	42504.16
613.554	42564.05
613.911	42845.17
614.267	42875
614.624	42770.6
614.98	42922.91
615.337	43011.95
615.693	42897.37
616.05	42842.01
616.406	43153.41
616.762	43144.37
617.118	43003.36
617.475	43041.55
617.831	43261.66
618.187	43187.08
618.543	43172.62
618.899	43267.08
619.255	43215.33
619.611	43173.75
619.967	43432.5
620.323	43467.98
620.678	43373.97
621.034	43229.34
621.39	43310.92
621.746	43243.58
622.101	43797.46
622.457	43259.85
622.812	43487.19
623.168	43399.51
623.523	43566.51
623.879	43574.42
624.234	43342.56
624.589	43473.86
624.945	43438.83
625.3	43519.05
625.655	43367.19
626.01	43500.07
626.365	43578.94
626.72	43456
627.075	43370.81
627.43	43518.6
627.785	43409.45
628.14	43416.68
628.495	43462.33
628.85	43383.01
629.205	43315.22
629.559	43420.98
629.914	43290.58
630.269	43241.77
630.623	43253.52
630.978	43152.96
631.332	43267.76
631.687	43239.96
632.041	43015.34
632.396	43145.5
632.75	42898.28
633.104	43153.41
633.459	42561.11
633.813	42772.41
634.167	42766.53
634.521	42846.08
634.875	42880.65
635.229	42794.1
635.583	42740.09
635.937	42524.73
636.291	42675.69
636.645	42593.43
636.999	42620.55
637.352	42662.13
637.706	42397.28
638.06	42578.51
638.413	42319.09
638.767	42305.53
639.121	42312.76
639.474	41996.61
639.828	42071.41
640.181	42159.99
640.534	41989.38
640.888	42084.51
641.241	41802.26
641.594	42020.79
641.947	42046.78
642.301	41793.9
642.654	41989.15
643.007	41860.57
643.36	41879.32
643.713	41843.62
644.066	41809.49
644.419	41418.77
644.771	41224.65
645.124	40747.37
645.477	40845.45
645.83	40527.72
646.182	40452.24
646.535	40292.25
646.888	40472.58
647.24	40215.19
647.593	40460.83
647.945	40263.32
648.298	40119.14
648.65	40046.83
649.002	39932.71
649.355	40037.56
649.707	39875.76
650.059	39897
650.411	40405.69
650.763	40567.94
651.115	41019.46
651.467	40842.29
651.819	40806.13
652.171	40666.02
652.523	40702.86
652.875	40576.98
653.227	40469.64
653.578	40769.07
653.93	40680.03
654.282	40432.35
654.633	40352.36
654.985	40479.13
655.337	40530.43
655.688	40387.61
656.039	40527.04
656.391	40163.44
656.742	40308.29
657.094	40296.09
657.445	40308.74
657.796	40367.27
658.147	40020.84
658.498	40167.28
658.849	40239.14
659.2	40185.58
659.551	40172.93
659.902	40048.18
660.253	40133.83
660.604	40171.12
660.955	39831.47
661.306	40120.72
661.656	39861.52
662.007	40025.81
662.358	39940.16
662.708	39905.59
663.059	39897.68
663.409	39628.31
663.76	40065.81
664.11	39759.38
664.461	39843.67
664.811	39770.23
665.161	39868.98
665.511	39811.13
665.862	39817.68
666.212	39891.35
666.562	39846.83
666.912	39708.98
667.262	39736.55
667.612	39652.94
667.962	39512.83
668.312	39593.05
668.662	39736.1
669.011	39483.68
669.361	39495.88
669.711	39556.45
670.06	39480.29
670.41	39510.12
670.76	39384.47
671.109	39438.93
671.459	39531.81
671.808	39409.56
672.157	39411.14
672.507	39082.79
672.856	39150.35
673.205	39232.39
673.554	39258.15
673.904	39167.98
674.253	39274.42
674.602	39269.67
674.951	38804.6
675.3	38407.55
675.649	39179.05
675.998	39155.78
676.346	39075.55
676.695	39258.37
677.044	38865.84
677.393	38908.55
677.741	39038.27
678.09	38783.36
678.438	38794.21
678.787	38813.64
679.135	38865.39
679.484	38466.98
679.832	38796.92
680.181	38396.48
680.529	38615.68
680.877	38535.23
681.225	38408
681.573	38686.86
681.922	38355.57
682.27	38235.58
682.618	38443.71
682.966	38230.38
683.314	38324.61
683.661	38131.4
684.009	38000.33
684.357	37861.35
684.705	37873.55
685.053	37897.05
685.4	37848.92
685.748	37510.17
686.095	37673.56
686.443	37505.43
686.79	37491.19
687.138	37429.95
687.485	37429.5
687.832	37392.66
688.18	37395.15
688.527	37148.83
688.874	37097.98
689.221	37041.94
689.568	36959.68
689.915	36929.85
690.262	36884.43
690.609	36809.85
690.956	36689.63
691.303	36730.31
691.65	36528.73
691.997	36468.62
692.344	36251.9
692.69	36212.13
693.037	36403.76
693.383	35968.74
693.73	36217.55
694.077	35922.19
694.423	35878.8
694.769	35872.47
695.116	35779.37
695.462	35619.37
695.808	35578.25
696.155	35555.65
696.501	35213.06
696.847	35234.98
697.193	34985.49
697.539	35173.28
697.885	34810.13
698.231	34641.09
698.577	34707.08
698.923	34733.07
699.269	34563.13
699.614	34285.17
699.96	34264.61
700.306	34354.1
700.651	34154.33
700.997	34177.38
701.342	34052.86
701.688	34040.88
702.033	33885.63
702.379	33830.27
702.724	33876.6
703.069	33818.29
703.415	33265.54
703.76	33372.2
704.105	33452.65
704.45	33369.72
704.795	33128.37
705.14	33131.3
705.485	33002.49
705.83	32894.02
706.175	33012.21
706.52	32838.2
706.865	32801.14
707.209	32775.83
707.554	32514.6
707.899	32703.52
708.243	32552.11
708.588	32419.01
708.932	32158.9
709.277	32174.94
709.621	32256.52
709.966	32101.05
710.31	32185.11
710.654	31770.89
710.998	31781.96
711.342	31910.55
711.687	31696.31
712.031	31648.63
712.375	31560.95
712.719	31656.99
713.063	31427.62
713.407	31460.16
713.75	31277.57
714.094	31279.83
714.438	31254.07
714.782	31266.95
715.125	31033.73
715.469	31152.6
715.812	30983.56
716.156	30773.17
716.499	30831.25
716.843	30914.19
717.186	30769.56
717.53	30809.11
717.873	30723.46
718.216	30582.9
718.559	30593.52
718.902	30392.17
719.246	30432.17
719.589	30357.59
719.932	30119.63
720.275	30122.12
720.617	30168.67
720.96	30035.34
721.303	30218.16
721.646	30024.04
721.989	29838.74
722.331	29863.37
722.674	29828.11
723.016	29847.1
723.359	29694.56
723.701	29744.05
724.044	29579.31
724.386	29361.69
724.729	29530.04
725.071	29457.28
725.413	29473.55
725.755	29353.32
726.097	29329.82
726.439	29128.25
726.782	29140.22
727.124	29257.51
727.465	29139.09
727.807	28962.37
728.149	29033.33
728.491	28914.69
728.833	28931.41
729.175	28889.16
729.516	28774.36
729.858	28743.62
730.199	28755.15
730.541	28724.87
730.882	28661.14
731.224	28665.88
731.565	28548.15
731.906	28501.14
732.248	28399.45
732.589	28428.6
732.93	28279.23
733.271	28373.91
733.612	28412.78
733.953	28253.69
734.294	28249.85
734.635	28175.95
734.976	28259.12
735.317	28036.52
735.658	28147.93
735.999	28017.99
736.339	27926.7
736.68	28046.24
737.021	27894.15
737.361	27849.41
737.702	27891.44
738.042	27818.22
738.383	27656.42
738.723	27715.18
739.063	27545.46
739.404	27751.56
739.744	27596.76
740.084	27506.82
740.424	27590.21
740.764	27417.78
741.104	27418.01
741.444	27281.74
741.784	27205.81
742.124	27446.48
742.464	27217.34
742.804	27195.64
743.143	27132.82
743.483	27113.16
743.823	27024.8
744.162	27003.56
744.502	26970.11
744.841	26965.59
745.181	26950.9
745.52	26840.85
745.86	26815.99
746.199	26787.06
746.538	26765.6
746.877	26739.38
747.216	26625.26
747.556	26637.69
747.895	26618.03
748.234	26449.9
748.573	26374.19
748.911	26382.78
749.25	26358.15
749.589	26283.12
749.928	26269.34
750.267	26218.72
750.605	26124.93
750.944	26090.36
751.283	26007.42
751.621	26023.24
751.96	25890.14
752.298	25863.25
752.636	25847.2
752.975	25778.28
753.313	25549.58
753.651	25741.44
753.989	25494.67
754.327	25552.07
754.666	25454.22
755.004	25469.58
755.342	25449.47
755.679	25256.26
756.017	25161.8
756.355	25275.47
756.693	25293.32
757.031	25194.56
757.368	24994.12
757.706	25044.96
758.044	24797.06
758.381	24837.28
758.719	24821.69
759.056	24830.96
759.394	24757.74
759.731	24518.2
760.068	24627.8
760.405	24477.75
760.743	24463.06
761.08	24415.6
761.417	24273.46
761.754	24298.32
762.091	24172.22
762.428	23937.65
762.765	23846.12
763.102	23919.34
763.438	23753.47
763.775	23648.62
764.112	23715.51
764.449	23783.98
764.785	23537.21
765.122	23430.54
765.458	23374.5
765.795	23275.74
766.131	23376.53
766.467	23269.42
766.804	23117.1
767.14	23052.7
767.476	22941.06
767.812	22895.87
768.148	22892.93
768.485	22670.79
768.821	22574.29
769.157	22500.85
769.492	22480.96
769.828	22382.66
770.164	22249.56
770.5	22266.73
770.836	22203.91
771.171	22073.97
771.507	22040.52
771.842	21921.88
772.178	21893.41
772.513	21818.38
772.849	21683.02
773.184	21567.54
773.519	21656.13
773.855	21539.52
774.19	21416.36
774.525	21293.2
774.86	21279.64
775.195	21229.92
775.53	21173.88
775.865	21040.32
776.2	20878.29
776.535	20751.29
776.87	20848.69
777.205	20723.49
777.539	20589.26
777.874	20628.58
778.209	20509.94
778.543	20406.89
778.878	20237.86
779.212	20272.89
779.547	20039.9
779.881	20081.48
780.215	20024.53
780.55	20037.41
780.884	19819.11
781.218	19852.78
781.552	19755.16
781.886	19697.53
782.22	19602.17
782.554	19546.35
782.888	19414.15
783.222	19333.47
783.556	19320.59
783.889	19121.28
784.223	19063.43
784.557	19147.72
784.89	19060.49
785.224	18888.97
785.557	18894.16
785.891	18792.92
786.224	18745.92
786.558	18675.86
786.891	18557.22
787.224	18555.87
787.557	18535.76
787.891	18502.31
788.224	18384.8
788.557	18426.61
788.89	18283.56
789.223	18248.53
789.556	18157.91
789.888	18054.19
790.221	18000.4
790.554	17798.6
790.887	17849.67
791.219	17815.55
791.552	17755.66
791.884	17646.74
792.217	17598.38
792.549	17476.57
792.882	17452.62
793.214	17332.4
793.546	17377.37
793.879	17249.69
794.211	17239.97
794.543	17218.73
794.875	17128.11
795.207	17168.11
795.539	17091.73
795.871	17014.44
796.203	16918.4
796.535	16837.27
796.867	16702.13
797.198	16761.34
797.53	16638.18
797.862	16577.61
798.193	16612.64
798.525	16440.67
798.856	16527.45
799.188	16368.81
799.519	16298.98
799.85	16299.88
800.182	16251.07
800.513	16247.91
800.844	16026.44
801.175	16179.89
801.506	16014.24
801.837	15984.18
802.168	15953
802.499	15881.14
802.83	15878.88
803.161	15842.49
803.491	15707.36
803.822	15781.25
804.153	15722.95
804.483	15425.33
804.814	15492.22
805.145	15400.02
805.475	15430.53
805.805	15357.31
806.136	15392.56
806.466	15357.08
806.796	15342.62
807.126	15212
807.457	15109.86
807.787	15087.94
808.117	15026.47
808.447	15041.16
808.777	15090.65
809.107	14855.4
809.436	14861.5
809.766	14881.61
810.096	14872.35
810.426	14740.6
810.755	14772.69
811.085	14747.61
811.414	14634.84
811.744	14595.75
812.073	14556.2
812.403	14484.79
812.732	14402.98
813.061	14436.88
813.39	14314.85
813.719	14285.47
814.049	14364.11
814.378	14349.65
814.707	14362.98
815.036	14292.7
815.365	14198.69
815.693	14142.88
816.022	14118.47
816.351	14123.22
816.68	13964.58
817.008	14083.9
817.337	13918.02
817.665	13879.15
817.994	13883.45
818.322	13936.78
818.651	13748.31
818.979	13756.22
819.307	13863.79
819.636	13885.71
819.964	13731.36
820.292	13753.28
820.62	13744.24
820.948	13648.88
821.276	13637.13
821.604	13603.68
821.932	13697.92
822.259	13623.12
822.587	13558.03
822.915	13637.13
823.243	13627.41
823.57	13501.99
823.898	13590.35
824.225	13536.11
824.553	13528.66
824.88	13596.45
825.207	13506.28
825.535	13462.89
825.862	13511.25
826.189	13484.59
826.516	13497.24
826.843	13495.66
827.17	13490.24
827.497	13516.68
827.824	13491.59
828.151	13508.09
828.478	13416.12
828.805	13541.76
829.131	13406.85
829.458	13440.52
829.785	13336.12
830.111	13443.91
830.438	13473.29
830.764	13438.26
831.09	13471.93
831.417	13269.23
831.743	13433.29
832.069	13469.22
832.395	13404.37
832.722	13367.53
833.048	13355.78
833.374	13366.4
833.7	13319.4
834.026	13312.39
834.351	13353.52
834.677	13320.75
835.003	13302.22
835.329	13300.19
835.654	13334.99
835.98	13280.07
836.306	13285.5
836.631	13203.24
836.956	13204.6
837.282	13275.55
837.607	13087.31
837.932	13125.5
838.258	13217.7
838.583	13012.28
838.908	12981.78
839.233	12989.46
839.558	12991.72
839.883	12970.7
840.208	12901.78
840.533	13006.18
840.858	12977.03
841.182	13007.54
841.507	12890.71
841.832	12810.93
842.156	12805.28
842.481	12756.25
842.805	12725.74
843.13	12738.17
843.454	12694.1
843.778	12589.25
844.103	12616.14
844.427	12644.61
844.751	12608.68
845.075	12545.63
845.399	12524.84
845.723	12420.89
846.047	12391.06
846.371	12292.53
846.695	12274.23
847.019	12225.86
847.343	12221.57
847.666	12165.08
847.99	12115.81
848.313	12085.53
848.637	12048.24
848.96	11969.6
849.284	11900.45
849.607	11899.55
849.931	11739.1
850.254	11745.88
850.577	11674.02
850.9	11603.28
851.223	11625.88
851.546	11518.54
851.869	11497.52
852.192	11507.47
852.515	11429.28
852.838	11331.43
853.161	11407.58
853.483	11333.91
853.806	11265.44
854.129	11198.1
854.451	11260.69
854.774	11184.08
855.096	11179.11
855.419	11106.12
855.741	11055.27
856.063	10971.66
856.385	10951.77
856.708	10965.11
857.03	10943.86
857.352	10974.15
857.674	10861.61
857.996	10781.38
858.318	10665.23
858.64	10724.66
858.961	10676.75
859.283	10635.17
859.605	10636.75
859.926	10661.61
860.248	10588.17
860.57	10546.14
860.891	10559.69
861.212	10511.11
861.534	10446.7
861.855	10410.09
862.176	10447.61
862.498	10453.93
862.819	10454.39
863.14	10423.2
863.461	10407.61
863.782	10358.34
864.103	10308.63
864.424	10266.59
864.745	10201.74
865.065	10220.04
865.386	10168.97
865.707	10213.49
866.027	10234.5
866.348	10149.99
866.668	10144.56
866.989	10167.61
867.309	10045.36
867.63	10068.18
867.95	10073.61
868.27	10013.04
868.59	10070.22
868.91	10102.3
869.23	10075.41
869.55	9988.86
869.87	10048.07
870.19	9961.29
870.51	9991.8
870.83	9964.68
871.15	9910.9
871.469	9889.88
871.789	9966.49
872.109	9822.99
872.428	9792.26
872.748	9843.33
873.067	9786.83
873.386	9793.16
873.706	9731.47
874.025	9800.84
874.344	9762.65
874.663	9837.45
874.982	9686.5
875.301	9721.52
875.62	9642.88
875.939	9674.97
876.258	9667.51
876.577	9625.93
876.896	9590.23
877.214	9589.55
877.533	9594.97
877.852	9560.62
878.17	9580.51
878.489	9531.25
878.807	9495.77
879.125	9542.55
879.444	9474.98
879.762	9505.94
880.08	9407.18
880.398	9369.22
880.716	9386.17
881.034	9358.82
881.352	9411.02
881.67	9303.46
881.988	9328.99
882.306	9392.72
882.624	9328.77
882.941	9249.22
883.259	9230.24
883.577	9213.97
883.894	9128.09
884.212	9135.78
884.529	9154.76
884.846	9066.63
885.164	9078.15
885.481	9149.11
885.798	9085.16
886.115	8972.84
886.432	8979.4
886.75	8995.67
887.067	8983.01
887.383	9021.2
887.7	8937.14
888.017	8903.69
888.334	8927.42
888.651	8846.29
888.967	8834.09
889.284	8804.49
889.6	8766.29
889.917	8765.17
890.233	8725.84
890.55	8684.04
890.866	8739.18
891.182	8771.27
891.498	8708.44
891.815	8683.59
892.131	8540.54
892.447	8536.47
892.763	8557.49
893.079	8499.64
893.395	8429.35
893.71	8439.52
894.026	8489.47
894.342	8453.31
894.657	8344.84
894.973	8337.15
895.289	8368.79
895.604	8363.59
895.92	8279.08
896.235	8181
896.55	8238.4
896.865	8239.53
897.181	8121.34
897.496	8169.7
897.811	8073.21
898.126	8094.45
898.441	8064.39
898.756	8060.78
899.071	7926.77
899.386	7976.03
899.7	7892.19
900.015	7885.19
900.33	7856.49
900.644	7856.04
900.959	7825.98
901.273	7838.86
901.588	7814.68
901.902	7765.64
902.216	7706.89
902.531	7732.42
902.845	7675.93
903.159	7604.07
903.473	7507.12
903.787	7517.29
904.101	7491.75
904.415	7486.33
904.729	7470.96
905.042	7405.65
905.356	7444.3
905.67	7402.49
905.984	7428.48
906.297	7383.05
906.611	7309.61
906.924	7293.79
907.237	7243.85
907.551	7277.07
907.864	7212.89
908.177	7228.26
908.491	7194.13
908.804	7088.82
909.117	7079.56
909.43	7057.41
909.743	7026.45
910.056	7028.71
910.368	6957.3
910.681	6934.03
910.994	6891.77
911.307	6891.54
911.619	6885.89
911.932	6824.88
912.244	6825.55
912.557	6756.63
912.869	6756.18
913.181	6737.2
913.494	6717.31
913.806	6723.86
914.118	6624.43
914.43	6590.08
914.742	6620.81
915.054	6573.13
915.366	6554.15
915.678	6517.99
915.99	6528.16
916.302	6405.91
916.613	6405.23
916.925	6354.83
917.236	6424.89
917.548	6343.08
917.859	6352.35
918.171	6282.97
918.482	6286.59
918.794	6233.48
919.105	6221.73
919.416	6142.64
919.727	6123.65
920.038	6098.12
920.349	6050.89
920.66	6066.93
920.971	6079.13
921.282	6059.7
921.593	6025.58
921.903	5964.79
922.214	6015.86
922.525	5941.28
922.835	5906.03
923.146	5854.73
923.456	5889.31
923.767	5835.07
924.077	5805.02
924.387	5730.67
924.697	5727.5
925.008	5744.45
925.318	5653.16
925.628	5691.12
925.938	5648.86
926.248	5583.78
926.558	5615.19
926.867	5572.03
927.177	5626.04
927.487	5572.48
927.796	5499.49
928.106	5465.82
928.416	5459.94
928.725	5453.84
929.034	5390.56
929.344	5398.02
929.653	5362.54
929.962	5340.62
930.271	5355.76
930.581	5319.61
930.89	5306.05
931.199	5219.72
931.508	5240.06
931.817	5220.63
932.125	5194.19
932.434	5184.24
932.743	5149.89
933.051	5130.46
933.36	5076.45
933.669	5041.65
933.977	5057.24
934.286	5018.37
934.594	5032.83
934.902	4988.09
935.21	4971.59
935.519	4931.82
935.827	4985.38
936.135	4934.98
936.443	4891.59
936.751	4851.6
937.059	4885.94
937.367	4839.62
937.674	4825.83
937.982	4811.14
938.29	4752.84
938.597	4783.57
938.905	4769.34
939.213	4668.55
939.52	4651.37
939.827	4677.81
940.135	4653.18
940.442	4602.56
940.749	4600.08
941.056	4606.18
941.363	4560.08
941.67	4506.97
941.977	4468.78
942.284	4507.65
942.591	4462.68
942.898	4422.45
943.205	4441.89
943.511	4393.98
943.818	4367.09
944.125	4348.33
944.431	4325.28
944.738	4335.9
945.044	4358.28
945.35	4260.88
945.657	4258.62
945.963	4302.46
946.269	4310.59
946.575	4206.64
946.881	4191.5
947.187	4232.18
947.493	4171.16
947.799	4158.51
948.105	4132.29
948.41	4092.52
948.716	4125.06
949.022	4088.9
949.327	4065.85
949.633	4064.72
949.938	4022.24
950.244	3991.28
950.549	4027.66
950.854	3995.8
951.16	3969.13
951.465	3936.14
951.77	3909.93
952.075	3897.95
952.38	3905.41
952.685	3897.04
952.99	3882.36
953.294	3904.05
953.599	3860.44
953.904	3840.55
954.209	3804.39
954.513	3767.1
954.818	3753.55
955.122	3758.97
955.426	3742.7
955.731	3684.39
956.035	3695.69
956.339	3703.15
956.643	3664.73
956.948	3693.43
957.252	3653.66
957.556	3617.73
957.86	3614.79
958.163	3597.84
958.467	3581.35
958.771	3572.99
959.075	3561.46
959.378	3551.29
959.682	3539.99
959.985	3498.64
960.289	3498.18
960.592	3442.37
960.896	3446.43
961.199	3390.84
961.502	3429.26
961.805	3388.13
962.108	3409.15
962.411	3396.04
962.714	3387
963.017	3361.47
963.32	3351.07
963.623	3330.51
963.926	3321.69
964.228	3297.96
964.531	3249.6
964.833	3293.22
965.136	3253.9
965.438	3239.89
965.741	3205.54
966.043	3215.03
966.345	3220.23
966.648	3194.92
966.95	3148.14
967.252	3133
967.554	3137.74
967.856	3123.73
968.158	3125.31
968.46	3121.7
968.761	3093.9
969.063	3076.73
969.365	3091.64
969.666	3060.46
969.968	2992.21
970.269	3009.16
970.571	3035.37
970.872	3023.4
971.174	2983.85
971.475	2976.16
971.776	2977.29
972.077	3004.41
972.378	2952.21
972.679	2913.34
972.98	2943.85
973.281	2913.57
973.582	2883.96
973.883	2879.44
974.183	2886.45
974.484	2829.28
974.785	2837.41
975.085	2857.52
975.386	2835.6
975.686	2801.48
975.986	2775.72
976.287	2770.97
976.587	2733.91
976.887	2762.16
977.187	2751.76
977.487	2732.1
977.787	2733.01
978.087	2700.47
978.387	2666.12
978.687	2718.32
978.987	2636.74
979.286	2644.65
979.586	2639.45
979.885	2630.64
980.185	2632.22
980.484	2577.76
980.784	2599.23
981.083	2580.69
981.382	2557.19
981.682	2577.98
981.981	2565.33
982.28	2534.37
982.579	2502.96
982.878	2485.33
983.177	2522.62
983.475	2520.58
983.774	2469.29
984.073	2487.59
984.372	2455.73
984.67	2447.14
984.969	2446.01
985.267	2453.92
985.566	2441.94
985.864	2420.93
986.162	2416.41
986.461	2395.61
986.759	2375.73
987.057	2338.67
987.355	2370.76
987.653	2342.06
987.951	2322.85
988.249	2334.37
988.547	2305.45
988.844	2296.63
989.142	2284.66
989.44	2277.43
989.737	2286.92
990.035	2262.51
990.332	2282.17
990.63	2228.39
990.927	2229.74
991.224	2217.31
991.521	2220.93
991.819	2193.81
992.116	2193.59
992.413	2210.31
992.71	2183.87
993.006	2141.16
993.303	2155.4
993.6	2109.29
993.897	2128.28
994.193	2148.39
994.49	2127.83
994.787	2128.05
995.083	2076.3
995.379	2098
995.676	2068.17
995.972	2060.03
996.268	2073.82
996.565	2023.42
996.861	2019.58
997.157	2043.08
997.453	2010.99
997.749	2012.35
998.044	1979.35
998.34	1974.38
998.636	1988.39
998.932	1988.39
999.227	1936.19
999.523	1951.56
999.818	1966.25
1000.114	1920.37
1000.409	1914.27
1000.704	1926.47
1001	1899.58
1001.295	1877.66
1001.59	1879.47
1001.885	1853.93
1002.18	1857.32
1002.475	1832.24
1002.77	1838.34
1003.065	1815.97
1003.359	1834.73
1003.654	1857.55
1003.949	1804.9
1004.243	1805.57
1004.538	1774.84
1004.832	1786.14
1005.127	1759.02
1005.421	1732.81
1005.715	1763.77
1006.009	1749.76
1006.304	1719.25
1006.598	1684.45
1006.892	1714.05
1007.186	1687.61
1007.48	1685.8
1007.773	1673.15
1008.067	1670.44
1008.361	1646.48
1008.655	1642.41
1008.948	1655.75
1009.242	1643.09
1009.535	1626.37
1009.829	1626.82
1010.122	1616.88
1010.415	1620.04
1010.708	1593.83
1011.001	1587.73
1011.295	1582.98
1011.588	1538.46
1011.881	1546.15
1012.173	1558.57
1012.466	1522.87
1012.759	1530.33
1013.052	1527.84
1013.344	1509.99
1013.637	1523.1
1013.93	1505.02
1014.222	1525.58
1014.514	1507.28
1014.807	1476.54
1015.099	1445.36
1015.391	1491.23
1015.683	1436.54
1015.976	1459.14
1016.268	1417.79
1016.56	1437.67
1016.851	1425.92
1017.143	1405.13
1017.435	1380.5
1017.727	1366.26
1018.018	1371.46
1018.31	1385.25
1018.602	1382.08
1018.893	1374.62
1019.185	1341.86
1019.476	1327.85
1019.767	1323.1
1020.058	1302.08
1020.35	1295.98
1020.641	1310.9
1020.932	1260.05
1021.223	1285.36
1021.514	1269.32
1021.804	1278.36
1022.095	1261.18
1022.386	1258.47
1022.677	1269.32
1022.967	1249.43
1023.258	1206.95
1023.548	1208.53
1023.839	1229.09
1024.129	1200.84
1024.419	1178.92
1024.709	1190.67
1025	1167.4
1025.29	1172.37
1025.58	1171.47
1025.87	1144.35
1026.16	1157.91
1026.449	1167.4
1026.739	1126.5
1027.029	1123.56
1027.319	1141.64
1027.608	1113.84
1027.898	1128.98
1028.187	1098.02
1028.477	1070
1028.766	1095.08
1029.055	1082.88
1029.344	1097.8
1029.634	1067.06
1029.923	1074.52
1030.212	1067.97
1030.501	1046.95
1030.79	1038.36
1031.078	1007.4
1031.367	1017.35
1031.656	1018.93
1031.945	1014.86
1032.233	1032.26
1032.522	1003.34
1032.81	1019.15
1033.099	1003.56
1033.387	979.38
1033.675	994.75
1033.963	984.8
1034.251	971.7
1034.54	969.66
1034.828	954.97
1035.116	959.49
1035.403	955.2
1035.691	923.11
1035.979	957.23
1036.267	919.04
1036.554	912.49
1036.842	910.91
1037.129	892.6
1037.417	893.96
1037.704	890.57
1037.992	907.07
1038.279	900.97
1038.566	884.47
1038.853	884.47
1039.14	884.47
