Data from plate_porcelain_FLMS001491_035.txt Node
Date: Tue Feb 07 11:19:13 GMT 2017
User: dcchb
Spectrometer: FLMS00149
Trigger mode: 0
Integration Time (sec): 2.000000E-2
Scans to average: 10
Electric dark correction enabled: true
Nonlinearity correction enabled: false
Boxcar width: 0
XAxis mode: Wavelengths
Number of Pixels in Spectrum: 2048
>>>>>Begin Spectral Data<<<<<
341.393	-21.12
341.776	-21.12
342.16	-21.12
342.543	-59.31
342.927	-76.03
343.31	-88.68
343.693	-54.56
344.077	-73.54
344.46	-72.19
344.843	-43.49
345.226	-31.06
345.61	-28.12
345.993	-6.43
346.376	-9.59
346.759	6.45
347.142	30.18
347.525	38.32
347.908	45.55
348.291	71.76
348.674	84.42
349.057	130.97
349.44	159.9
349.823	135.26
350.206	174.36
350.588	234.92
350.971	245.32
351.354	283.96
351.737	256.62
352.119	299.55
352.502	301.36
352.884	301.81
353.267	316.28
353.65	344.52
354.032	343.85
354.414	359.44
354.797	366.45
355.179	376.39
355.562	373
355.944	371.64
356.326	376.39
356.709	392.43
357.091	388.82
357.473	380.23
357.855	373
358.238	400.79
358.62	387.46
359.002	377.97
359.384	398.53
359.766	398.53
360.148	380.23
360.53	396.95
360.912	396.27
361.294	379.33
361.676	382.49
362.057	406.22
362.439	373.9
362.821	391.76
363.203	393.56
363.584	384.3
363.966	375.26
364.348	369.61
364.729	414.58
365.111	397.4
365.493	396.95
365.874	401.7
366.256	397.86
366.637	399.44
367.019	384.75
367.4	396.5
367.781	408.7
368.163	382.72
368.544	396.95
368.925	391.76
369.306	430.85
369.688	403.28
370.069	391.08
370.45	392.89
370.831	396.5
371.212	402.6
371.593	423.17
371.974	408.25
372.355	434.24
372.736	412.32
373.117	441.25
373.498	424.07
373.879	436.5
374.26	412.55
374.641	426.78
375.021	404.41
375.402	416.61
375.783	437.63
376.163	469.95
376.544	461.36
376.925	449.38
377.305	444.18
377.686	460.91
378.066	465.2
378.447	452.32
378.827	474.69
379.208	486.44
379.588	488.02
379.968	488.7
380.349	492.32
380.729	490.96
381.109	495.93
381.489	504.07
381.87	474.92
382.25	529.15
382.63	516.95
383.01	518.98
383.39	526.67
383.77	537.51
384.15	527.12
384.53	532.99
384.91	538.87
385.29	536.61
385.67	567.8
386.049	541.13
386.429	544.29
386.809	589.49
387.189	554.46
387.568	557.85
387.948	563.28
388.328	591.3
388.707	632.43
389.087	589.26
389.466	589.04
389.846	605.76
390.225	624.07
390.605	636.27
390.984	630.84
391.363	647.12
391.743	666.1
392.122	648.92
392.501	651.41
392.881	673.56
393.26	683.5
393.639	683.5
394.018	689.83
394.397	727.34
394.776	705.65
395.155	714.68
395.534	717.17
395.913	717.4
396.292	719.66
396.671	752.42
397.05	746.77
397.429	760.11
397.808	750.39
398.186	765.3
398.565	780.22
398.944	789.03
399.323	791.29
399.701	811.41
400.08	810.05
400.458	834
400.837	826.55
401.215	859.09
401.594	857.73
401.972	847.11
402.351	873.32
402.729	859.77
403.107	878.75
403.486	894.57
403.864	911.06
404.242	922.59
404.62	925.3
404.999	942.93
405.377	921.23
405.755	966.2
406.133	975.24
406.511	975.02
406.889	1006.88
407.267	1003.26
407.645	1025.41
408.023	1029.7
408.401	1049.37
408.779	1044.39
409.156	1096.37
409.534	1078.29
409.912	1109.48
410.29	1128.01
410.667	1155.12
411.045	1118.06
411.422	1191.06
411.8	1190.6
412.178	1188.57
412.555	1208.68
412.933	1226.31
413.31	1266.76
413.687	1276.93
414.065	1284.39
414.442	1273.99
414.819	1299.53
415.197	1345.63
415.574	1369.13
415.951	1361.67
416.328	1358.06
416.705	1395.8
417.082	1379.98
417.46	1417.72
417.837	1431.5
418.214	1460.43
418.591	1472.63
418.967	1498.39
419.344	1508.79
419.721	1529.35
420.098	1560.54
420.475	1587.43
420.852	1560.31
421.228	1582.46
421.605	1586.07
421.982	1629.46
422.358	1654.09
422.735	1662.91
423.111	1665.62
423.488	1679.86
423.864	1706.07
424.241	1736.35
424.617	1747.65
424.994	1798.05
425.37	1794.66
425.746	1802.11
426.123	1859.51
426.499	1832.85
426.875	1872.39
427.251	1886.18
427.627	1924.6
428.003	1958.72
428.379	1992.62
428.756	2021.32
429.132	2038.27
429.507	2073.52
429.883	2040.75
430.259	2095.89
430.635	2165.27
431.011	2161.88
431.387	2232.38
431.763	2256.34
432.138	2250.24
432.514	2305.83
432.89	2328.2
433.265	2378.6
433.641	2401.42
434.016	2409.33
434.392	2466.05
434.767	2522.77
435.143	2516.45
435.518	2555.09
435.894	2570.91
436.269	2629.66
436.644	2675.54
437.02	2682.09
437.395	2719.6
437.77	2720.96
438.145	2761.64
438.52	2749.66
438.895	2802.31
439.271	2819.94
439.646	2880.96
440.021	2940.39
440.395	2927.73
440.77	2926.38
441.145	2979.03
441.52	3052.25
441.895	3050.22
442.27	3044.34
442.645	3066.04
443.019	3146.49
443.394	3116.88
443.769	3173.83
444.143	3163.66
444.518	3215.18
444.892	3210.21
445.267	3223.55
445.641	3293.15
446.016	3282.98
446.39	3316.65
446.764	3364.78
447.139	3349.64
447.513	3426.93
447.887	3425.8
448.262	3438.45
448.636	3429.42
449.01	3522.07
449.384	3558.68
449.758	3585.8
450.132	3625.34
450.506	3675.28
450.88	3651.78
451.254	3683.65
451.628	3726.81
452.002	3799.58
452.376	3838.22
452.75	3890.42
453.123	3941.04
453.497	3977.65
453.871	3999.34
454.244	4065.56
454.618	4111.66
454.992	4159.79
455.365	4181.49
455.739	4295.61
456.112	4317.3
456.486	4404.31
456.859	4422.84
457.232	4495.38
457.606	4479.11
457.979	4573.11
458.352	4660.12
458.725	4717.29
459.099	4743.51
459.472	4829.83
459.845	4968.13
460.218	4927
460.591	5018.75
460.964	4988.47
461.337	5080.67
461.71	5225.53
462.083	5294.45
462.456	5310.95
462.829	5318.63
463.201	5435.46
463.574	5519.3
463.947	5561.11
464.32	5672.07
464.692	5779.86
465.065	5750.26
465.438	5867.09
465.81	5960.87
466.183	6034.09
466.555	6191.83
466.928	6198.38
467.3	6196.57
467.672	6253.75
468.045	6470.47
468.417	6501.2
468.789	6553.18
469.161	6668.43
469.534	6762.44
469.906	6895.54
470.278	6912.49
470.65	7074.97
471.022	7154.74
471.394	7261.41
471.766	7386.6
472.138	7476.31
472.51	7653.94
472.882	7829.3
473.253	7907.94
473.625	8017.77
473.997	8137.09
474.369	8206.01
474.74	8318.33
475.112	8561.94
475.484	8546.57
475.855	8822.04
476.227	8861.36
476.598	9154.24
476.97	9178.42
477.341	9377.96
477.713	9496.83
478.084	9623.6
478.455	9816.82
478.827	10008.23
479.198	10256.35
479.569	10240.76
479.94	10627.42
480.311	10687.08
480.682	10865.15
481.053	11134.52
481.424	11336.33
481.795	11404.57
482.166	11580.84
482.537	11775.86
482.908	11994.39
483.279	12202.29
483.65	12407.71
484.021	12605.22
484.391	12775.61
484.762	12924.76
485.133	13020.12
485.503	13196.16
485.874	13557.28
486.244	13650.84
486.615	13943.72
486.985	14096.25
487.356	14454.44
487.726	14462.12
488.097	14888.78
488.467	14951.6
488.837	15281.31
489.207	15302.32
489.578	15607.17
489.948	15748.19
490.318	16043.32
490.688	16158.57
491.058	16247.84
491.428	16530.31
491.798	16687.6
492.168	17020.47
492.538	17118.1
492.908	17381.82
493.278	17579.78
493.648	17647.35
494.017	17918.07
494.387	18107.9
494.757	18308.35
495.126	18293.21
495.496	18507.21
495.866	18579.53
496.235	18895.68
496.605	19021.55
496.974	19156.01
497.344	19341.54
497.713	19541.53
498.082	19572.49
498.452	19941.07
498.821	19992.37
499.19	20087.06
499.559	20234.4
499.928	20424.22
500.298	20669.64
500.667	20761.39
501.036	20755.29
501.405	21056.97
501.774	21106.01
502.143	21278.44
502.512	21332.67
502.88	21585.77
503.249	21691.31
503.618	21820.34
503.987	21896.5
504.356	22114.35
504.724	22238.19
505.093	22350.5
505.462	22539.87
505.83	22651.06
506.199	22866.64
506.567	23143.25
506.936	23093.08
507.304	23470.47
507.672	23609.9
508.041	23718.15
508.409	23763.12
508.777	24046.5
509.145	24220.28
509.514	24308.64
509.882	24538.46
510.25	24476.55
510.618	24817.1
510.986	24841.28
511.354	25132.8
511.722	25312
512.09	25649.85
512.458	25518.55
512.826	25853.68
513.193	26038.54
513.561	26025.43
513.929	26415.48
514.297	26610.95
514.664	26826.09
515.032	27061.56
515.4	27198.96
515.767	27362.35
516.135	27499.97
516.502	27318.05
516.869	27876
517.237	28023.8
517.604	28073.06
517.972	28335.88
518.339	28616.32
518.706	28629.88
519.073	28737.45
519.44	28986.94
519.808	29442.97
520.175	29430.31
520.542	29853.13
520.909	29978.77
521.276	30045.44
521.643	30450.63
522.009	30686.33
522.376	30794.57
522.743	31161.57
523.11	31352.75
523.477	31673.87
523.843	31832.74
524.21	32158.38
524.577	32458.71
524.943	32586.16
525.31	32820.96
525.676	33085.58
526.043	33273.15
526.409	33464.11
526.776	33922.4
527.142	33932.57
527.508	34174.6
527.874	34542.5
528.241	34532.55
528.607	34685.09
528.973	35113.1
529.339	35027.91
529.705	35435.13
530.071	35763.48
530.437	35926.19
530.803	36085.05
531.169	36281.43
531.535	36425.16
531.901	36537.92
532.267	36689.56
532.632	37042.54
532.998	37108.76
533.364	37456.77
533.73	37571.57
534.095	37804.78
534.461	37838.23
534.826	38324.32
535.192	38383.3
535.557	38564.08
535.923	38559.57
536.288	38770.41
536.653	38982.38
537.019	38869.39
537.384	39157.97
537.749	39243.16
538.114	39404.29
538.479	39443.38
538.845	39796.59
539.21	39677.73
539.575	39973.31
539.94	39992.3
540.305	40417.6
540.67	40413.08
541.034	40426.18
541.399	40689
541.764	40909.56
542.129	40909.79
542.494	41012.83
542.858	41186.61
543.223	41276.78
543.587	41477
543.952	41509.32
544.316	41674.74
544.681	41812.14
545.045	42016.42
545.41	42183.2
545.774	42290.09
546.138	42296.64
546.503	42352.23
546.867	42520.82
547.231	42956.74
547.595	42954.7
547.959	42988.38
548.324	43089.16
548.688	43198.54
549.052	43408.25
549.416	43531.41
549.779	43510.62
550.143	43707.9
550.507	44041.68
550.871	44340.2
551.235	44073.09
551.599	44586.53
551.962	44517.83
552.326	44569.58
552.689	44971.37
553.053	44811.6
553.417	45007.76
553.78	45395.77
554.143	45355.32
554.507	45597.57
554.87	45804.35
555.234	46169.99
555.597	45925.25
555.96	46245.46
556.323	46471.67
556.686	46278.01
557.05	46635.29
557.413	46821.27
557.776	46872.79
558.139	47174.48
558.502	47284.31
558.865	47279.11
559.228	47530.18
559.59	47763.62
559.953	47872.31
560.316	48324.51
560.679	48308.24
561.041	48498.74
561.404	48695.12
561.767	48955.22
562.129	48740.09
562.492	49211.49
562.854	49191.15
563.217	49326.97
563.579	49510.24
563.941	49811.25
564.304	49956.55
564.666	50114.29
565.028	50230.44
565.39	50210.11
565.753	50595.41
566.115	50621.62
566.477	50732.13
566.839	50792.46
567.201	51036.98
567.563	51112.23
567.925	51283.07
568.287	51377.08
568.648	51345.67
569.01	51670.18
569.372	51813.91
569.734	51673.57
570.095	52042.6
570.457	52072.66
570.819	52168.25
571.18	52186.1
571.542	52394.68
571.903	52419.54
572.265	52565.07
572.626	52583.38
572.987	52684.62
573.349	52901.79
573.71	52901.56
574.071	52924.16
574.432	53070.37
574.794	53332.06
575.155	53257.03
575.516	53174.77
575.877	53467.87
576.238	53519.4
576.599	53580.87
576.96	53473.75
577.32	53540.19
577.681	53751.26
578.042	53806.62
578.403	53757.13
578.763	53887.75
579.124	53828.54
579.485	53906.28
579.845	54042.1
580.206	53960.97
580.566	53962.78
580.927	54045.94
581.287	54093.62
581.648	54056.56
582.008	54268.53
582.368	54143.34
582.728	54244.35
583.089	54176.1
583.449	54170.45
583.809	54244.8
584.169	54271.02
584.529	54253.39
584.889	54451.58
585.249	54288.87
585.609	54179.04
585.969	54330.68
586.329	54348.98
586.688	54345.82
587.048	54351.47
587.408	54353.5
587.768	54307.17
588.127	54327.74
588.487	54296.55
588.846	54425.14
589.206	54299.49
589.565	54327.96
589.925	54491.12
590.284	54462.88
590.643	54415.19
591.003	54534.06
591.362	54521.18
591.721	54479.15
592.08	54478.24
592.44	54654.74
592.799	54594.62
593.158	54531.8
593.517	54590.56
593.876	54632.59
594.235	54462.42
594.593	54556.88
594.952	54617
595.311	54497.68
595.67	54626.26
596.029	54760.95
596.387	54703.32
596.746	54755.75
597.104	54676.88
597.463	54740.16
597.822	54864.22
598.18	54771.79
598.538	54721.4
598.897	54841.62
599.255	54645.92
599.613	54972.92
599.972	54797.56
600.33	54949.87
600.688	54868.97
601.046	54998.23
601.404	55060.37
601.762	54913.94
602.12	55174.04
602.478	55050.21
602.836	55128.4
603.194	54988.96
603.552	55080.94
603.91	54985.12
604.268	55186.47
604.625	55155.06
604.983	55244.32
605.341	55054.27
605.698	55274.15
606.056	55205.91
606.413	55260.82
606.771	55429.63
607.128	55485.9
607.485	55353.02
607.843	55376.98
608.2	55461.04
608.557	55520.93
608.914	55497.88
609.272	55591.21
609.629	55611.09
609.986	55717.08
610.343	55568.61
610.7	55789.17
611.057	55755.72
611.414	55718.44
611.771	55765.44
612.127	55807.02
612.484	55850.86
612.841	55984.42
613.198	55811.31
613.554	55826.23
613.911	56003.17
614.267	56021.7
614.624	55988.26
614.98	55963.63
615.337	56183.51
615.693	56105.54
616.05	56062.83
616.406	56272.32
616.762	56088.37
617.118	56150.97
617.475	56183.28
617.831	56283.39
618.187	56234.13
618.543	56247.69
618.899	56413.33
619.255	56379.44
619.611	56300.34
619.967	56409.27
620.323	56415.37
620.678	56417.85
621.034	56328.82
621.39	56292.21
621.746	56300.34
622.101	56553.89
622.457	56294.01
622.812	56380.34
623.168	56473.22
623.523	56432.32
623.879	56544.4
624.234	56386.67
624.589	56446.55
624.945	56423.05
625.3	56529.71
625.655	56452.2
626.01	56424.86
626.365	56504.63
626.72	56467.12
627.075	56450.39
627.43	56365.42
627.785	56368.81
628.14	56317.97
628.495	56433.9
628.85	56326.33
629.205	56228.48
629.559	56437.06
629.914	56262.15
630.269	56297.4
630.623	56213.79
630.978	56082.04
631.332	56192.55
631.687	56322.26
632.041	56212.66
632.396	56298.08
632.75	56055.83
633.104	56185.99
633.459	55988.03
633.813	55966.11
634.167	56000.24
634.521	56051.08
634.875	56065.32
635.229	55947.13
635.583	55840.24
635.937	55910.97
636.291	55792.33
636.645	55877.98
636.999	55732.45
637.352	55826.91
637.706	55658.32
638.06	55758.44
638.413	55644.77
638.767	55627.37
639.121	55708.94
639.474	55466.69
639.828	55435.96
640.181	55517.99
640.534	55525.22
640.888	55348.73
641.241	55266.02
641.594	55381.04
641.947	55451.78
642.301	55313.25
642.654	55321.84
643.007	55314.15
643.36	55185.34
643.713	55226.47
644.066	55244.1
644.419	55061.5
644.771	54896.31
645.124	54693.6
645.477	54600.27
645.83	54424.23
646.182	54190.34
646.535	54119.61
646.888	54145.82
647.24	54076.9
647.593	54096.56
647.945	54202.77
648.298	53971.82
648.65	53935.43
649.002	53772.95
649.355	54012.72
649.707	53921.87
650.059	54044.58
650.411	54332.71
650.763	54351.47
651.115	54655.87
651.467	54526.15
651.819	54528.86
652.171	54422.65
652.523	54382.65
652.875	54319.6
653.227	54244.35
653.578	54401.18
653.93	54253.39
654.282	54149.89
654.633	54096.78
654.985	54108.53
655.337	54172.71
655.688	54176.78
656.039	54217.23
656.391	53912.61
656.742	54057.91
657.094	53977.69
657.445	54128.87
657.796	54049.33
658.147	53987.86
658.498	53982.66
658.849	53978.59
659.2	53948.54
659.551	53863.8
659.902	53944.92
660.253	53932.95
660.604	53996.9
660.955	53749.45
661.306	53897.02
661.656	53808.66
662.007	53774.53
662.358	53783.35
662.708	53759.84
663.059	53786.96
663.409	53496.57
663.76	53810.46
664.11	53650.02
664.461	53652.5
664.811	53647.08
665.161	53683.46
665.511	53574.76
665.862	53642.33
666.212	53653.63
666.562	53691.6
666.912	53618.15
667.262	53616.8
667.612	53583.58
667.962	53676.68
668.312	53708.32
668.662	53742.22
669.011	53573.18
669.361	53512.62
669.711	53542.45
670.06	53466.07
670.41	53489.79
670.76	53432.62
671.109	53508.55
671.459	53419.29
671.808	53387.65
672.157	53466.29
672.507	53258.61
672.856	53224.49
673.205	53304.04
673.554	53392.4
673.904	53250.25
674.253	53358.5
674.602	53243.25
674.951	52909.24
675.3	52739.53
675.649	53154.66
675.998	53101.78
676.346	53152.63
676.695	53251.16
677.044	52987.21
677.393	53140.88
677.741	53157.6
678.09	53004.61
678.438	52984.5
678.787	53008.45
679.135	52923.93
679.484	52811.17
679.832	52856.36
680.181	52728.46
680.529	52760.77
680.877	52715.13
681.225	52645.52
681.573	52885.52
681.922	52619.08
682.27	52568.24
682.618	52490.27
682.966	52517.39
683.314	52550.16
683.661	52423.16
684.009	52281.24
684.357	52193.78
684.705	52122.82
685.053	52067.91
685.4	52129.83
685.748	51907.69
686.095	51959.89
686.443	51759.67
686.79	51680.8
687.138	51760.35
687.485	51781.59
687.832	51641.48
688.18	51686.23
688.527	51516.29
688.874	51405.1
689.221	51420.24
689.568	51243.3
689.915	51187.93
690.262	51154.26
690.609	51019.8
690.956	50950.65
691.303	50950.43
691.65	50835.17
691.997	50672.47
692.344	50510.66
692.69	50572.36
693.037	50573.94
693.383	50204.46
693.73	50413.72
694.077	50295.75
694.423	50022.31
694.769	49995.42
695.116	49919.49
695.462	49930.57
695.808	49809.44
696.155	49852.38
696.501	49539.62
696.847	49548.88
697.193	49297.81
697.539	49430.92
697.885	49172.39
698.231	49158.83
698.577	49136.91
698.923	48954.77
699.269	48774.21
699.614	48663.48
699.96	48537.61
700.306	48634.55
700.651	48492.86
700.997	48277.05
701.342	48248.8
701.688	48087.22
702.033	47976.27
702.379	47871.64
702.724	47884.29
703.069	47814.01
703.415	47498.31
703.76	47511.42
704.105	47520.69
704.45	47303.52
704.795	46953.02
705.14	47035.05
705.485	47000.02
705.83	46800.03
706.175	46833.92
706.52	46835.28
706.865	46685
707.209	46643.65
707.554	46467.61
707.899	46668.73
708.243	46382.86
708.588	46272.58
708.932	45890.22
709.277	45956.66
709.621	46028.52
709.966	45689.1
710.31	45859.26
710.654	45562.77
710.998	45640.96
711.342	45558.7
711.687	45373.4
712.031	45186.28
712.375	45100.64
712.719	45134.99
713.063	45079.85
713.407	45120.07
713.75	44903.81
714.094	44877.82
714.438	44659.07
714.782	44711.72
715.125	44499.52
715.469	44480.31
715.812	44198.29
716.156	44063.83
716.499	44133.88
716.843	44131.4
717.186	43930.27
717.53	44004.39
717.873	44127.1
718.216	43944.06
718.559	43780.9
718.902	43521.69
719.246	43748.58
719.589	43570.96
719.932	43374.58
720.275	43284.19
720.617	43295.03
720.96	43205.32
721.303	43225.43
721.646	43151.08
721.989	42905.67
722.331	43099.56
722.674	42901.6
723.016	42896.85
723.359	42756.97
723.701	42829.28
724.044	42589.97
724.386	42495.28
724.729	42630.64
725.071	42427.26
725.413	42417.32
725.755	42191.33
726.097	42123.54
726.439	42068.85
726.782	42147.49
727.124	42101.39
727.465	41962.64
727.807	41766.94
728.149	41809.42
728.491	41692.36
728.833	41791.12
729.175	41599.26
729.516	41442.2
729.858	41435.2
730.199	41481.07
730.541	41339.83
730.882	41239.72
731.224	41359.94
731.565	41131.7
731.906	41054.87
732.248	41170.8
732.589	40923.8
732.93	40791.14
733.271	41002.44
733.612	40925.15
733.953	40932.38
734.294	40696.46
734.635	40547.76
734.976	40738.04
735.317	40580.3
735.658	40404.49
735.999	40349.8
736.339	40350.48
736.68	40343.47
737.021	40169.24
737.361	40080.2
737.702	40193.65
738.042	40023.71
738.383	39879.08
738.723	40061.9
739.063	39894.9
739.404	39985.52
739.744	39804.5
740.084	39621.23
740.424	39603.38
740.764	39601.57
741.104	39685.41
741.444	39404.06
741.784	39307.57
742.124	39280.45
742.464	39324.29
742.804	39264.18
743.143	39019.21
743.483	39121.36
743.823	38969.27
744.162	38898.54
744.502	38914.13
744.841	38689.28
745.181	38830.07
745.52	38653.12
745.86	38673.46
746.199	38727.02
746.538	38532.9
746.877	38666
747.216	38452.22
747.556	38294.94
747.895	38320.25
748.234	38030.31
748.573	38034.83
748.911	37922.75
749.25	38002.97
749.589	37747.38
749.928	37896.76
750.267	37722.07
750.605	37492.47
750.944	37632.13
751.283	37387.84
751.621	37534.51
751.96	37244.12
752.298	37305.13
752.636	37345.36
752.975	36985.14
753.313	36961.42
753.651	37087.06
753.989	36854.3
754.327	36814.75
754.666	36588.54
755.004	36713.51
755.342	36666.73
755.679	36587.87
756.017	36375.44
756.355	36546.74
756.693	36470.81
757.031	36292.51
757.368	36078.95
757.706	36074.88
758.044	35986.53
758.381	36004.38
758.719	35782.92
759.056	35722.13
759.394	35681.67
759.731	35539.98
760.068	35330.95
760.405	35269.26
760.743	35150.62
761.08	35095.02
761.417	34855.48
761.754	34919.21
762.091	34890.51
762.428	34781.36
762.765	34557.18
763.102	34535.49
763.438	34384.31
763.775	34294.59
764.112	34326.91
764.449	34239
764.785	33952.23
765.122	33869.97
765.458	33726.25
765.795	33706.81
766.131	33582.52
766.467	33404.9
766.804	33219.59
767.14	33142.98
767.476	33166.03
767.812	32853.73
768.148	33014.17
768.485	32717.91
768.821	32573.06
769.157	32606.28
769.492	32554.53
769.828	32491.48
770.164	32182.78
770.5	32193.4
770.836	32105.72
771.171	31894.88
771.507	31830.02
771.842	31559.75
772.178	31625.28
772.513	31662.12
772.849	31574.66
773.184	31322.69
773.519	31339.42
773.855	31137.84
774.19	30922.25
774.525	30777.4
774.86	30709.15
775.195	30720
775.53	30665.54
775.865	30408.14
776.2	30224.87
776.535	30093.12
776.87	30080.92
777.205	29972.45
777.539	29840.25
777.874	29875.95
778.209	29639.35
778.543	29665.34
778.878	29336.3
779.212	29339.47
779.547	29096.99
779.881	29189.19
780.215	28995.07
780.55	29019.7
780.884	28889.76
781.218	28816.77
781.552	28658.36
781.886	28598.92
782.22	28420.85
782.554	28324.58
782.888	28173.17
783.222	28037.36
783.556	27844.59
783.889	27829.68
784.223	27787.87
784.557	27702.22
784.89	27638.5
785.224	27454.09
785.557	27344.49
785.891	27129.81
786.224	27185.85
786.558	27049.59
786.891	26910.38
787.224	26703.83
787.557	26556.72
787.891	26784.06
788.224	26804.17
788.557	26582.7
788.89	26560.11
789.223	26466.55
789.556	26148.14
789.888	26170.51
790.221	26092.1
790.554	25849.16
790.887	25845.78
791.219	25753.57
791.552	25659.11
791.884	25496.41
792.217	25498.21
792.549	25404.88
792.882	25295.96
793.214	25153.59
793.546	25144.55
793.879	25023.88
794.211	24862.07
794.543	24905.01
794.875	24820.04
795.207	24854.84
795.539	24597.45
795.871	24630.67
796.203	24453.95
796.535	24272.03
796.867	24219.38
797.198	24134.18
797.53	24223.44
797.862	23983
798.193	24052.15
798.525	23798.82
798.856	23975.32
799.188	23684.93
799.519	23499.62
799.85	23346.63
800.182	23576.23
800.513	23543.69
800.844	23315.22
801.175	23453.97
801.506	23409.68
801.837	23248.78
802.168	23095.57
802.499	22970.82
802.83	22945.29
803.161	22799.53
803.491	22806.76
803.822	22799.53
804.153	22624.17
804.483	22541.68
804.814	22441.8
805.145	22349.37
805.475	22436.83
805.805	22289.94
806.136	22318.64
806.466	22267.79
806.796	22193.89
807.126	22011.3
807.457	22032.77
807.787	21927.46
808.117	21820.8
808.447	21749.39
808.777	21876.84
809.107	21670.52
809.436	21671.87
809.766	21766.79
810.096	21586.23
810.426	21504.65
810.755	21524.53
811.085	21290.64
811.414	21242.96
811.744	21202.06
812.073	21101.72
812.403	21127.26
812.732	20961.84
813.061	20986.69
813.39	20942.85
813.719	20894.04
814.049	20930.88
814.378	20800.03
814.707	20701.96
815.036	20697.66
815.365	20563.88
815.693	20381.06
816.022	20471
816.351	20454.96
816.68	20387.61
817.008	20353.72
817.337	20178.35
817.665	20131.58
817.994	20191.69
818.322	20237.34
818.651	20000.51
818.979	19904.46
819.307	20020.39
819.636	19891.58
819.964	19793.73
820.292	19875.99
820.62	19780.4
820.948	19830.57
821.276	19817.69
821.604	19685.03
821.932	19817.91
822.259	19847.74
822.587	19760.29
822.915	19772.71
823.243	19794.18
823.57	19771.36
823.898	19719.16
824.225	19603.45
824.553	19681.87
824.88	19680.74
825.207	19662.66
825.535	19674.41
825.862	19694.98
826.189	19677.12
826.516	19745.6
826.843	19752.83
827.17	19819.27
827.497	19733.17
827.824	19657.92
828.151	19691.13
828.478	19618.59
828.805	19699.5
829.131	19581.53
829.458	19643.23
829.785	19512.61
830.111	19603.23
830.438	19653.17
830.764	19635.99
831.09	19587.63
831.417	19531.36
831.743	19599.61
832.069	19498.82
832.395	19507.41
832.722	19536.56
833.048	19413.63
833.374	19433.74
833.7	19430.35
834.026	19468.99
834.351	19340.86
834.677	19371.14
835.003	19406.17
835.329	19387.41
835.654	19274.42
835.98	19251.6
836.306	19298.38
836.631	19224.71
836.956	19281.2
837.282	19184.26
837.607	19205.5
837.932	19148.1
838.258	19129.79
838.583	19164.59
838.908	18916.47
839.233	18990.14
839.558	18871.95
839.883	18803.47
840.208	18877.6
840.533	18791.5
840.858	18768.45
841.182	18796.7
841.507	18793.98
841.832	18753.98
842.156	18692.97
842.481	18617.49
842.805	18543.82
843.13	18516.25
843.454	18471.05
843.778	18343.15
844.103	18309.93
844.427	18263.38
844.751	18294.56
845.075	18202.81
845.399	18250.72
845.723	18099.31
846.047	18102.93
846.371	17989.26
846.695	18029.71
847.019	17796.72
847.343	17761.92
847.666	17617.29
847.99	17491.42
848.313	17609.61
848.637	17414.13
848.96	17426.56
849.284	17396.05
849.607	17196.74
849.931	17247.58
850.254	17065.89
850.577	17011.21
850.9	16915.84
851.223	16854.15
851.546	16775.51
851.869	16694.6
852.192	16776.64
852.515	16634.72
852.838	16482.86
853.161	16550.2
853.483	16455.06
853.806	16349.08
854.129	16389.53
854.451	16332.35
854.774	16195.63
855.096	16143.66
855.419	16060.72
855.741	16059.59
856.063	15978.24
856.385	15976.43
856.708	15827.51
857.03	15860.05
857.352	15849.88
857.674	15749.09
857.996	15644.01
858.318	15555.2
858.64	15655.08
858.961	15631.58
859.283	15524.46
859.605	15420.06
859.926	15420.96
860.248	15402.21
860.57	15272.27
860.891	15287.86
861.212	15241.99
861.534	15199.95
861.855	15136.68
862.176	15192.95
862.498	15251.25
862.819	15211.03
863.14	15079.96
863.461	15071.14
863.782	14934.65
864.103	14987.08
864.424	14974.65
864.745	14962.67
865.065	14914.54
865.386	14915.89
865.707	14826.86
866.027	14873.63
866.348	14880.19
866.668	14812.39
866.989	14721.55
867.309	14612.85
867.63	14650.59
867.95	14636.35
868.27	14489.92
868.59	14641.1
868.91	14581.21
869.23	14519.75
869.55	14562.23
869.87	14578.95
870.19	14594.55
870.51	14560.42
870.83	14473.64
871.15	14281.11
871.469	14297.38
871.789	14314.78
872.109	14328.56
872.428	14232.07
872.748	14276.14
873.067	14211.96
873.386	14162.47
873.706	14141.68
874.025	14221.45
874.344	14109.36
874.663	14110.04
874.982	14103.49
875.301	14024.62
875.62	14073.43
875.939	14039.53
876.258	14055.35
876.577	14012.19
876.896	13976.26
877.214	13996.82
877.533	13950.49
877.852	13958.63
878.17	13887.45
878.489	13936.03
878.807	13916.37
879.125	13799.99
879.444	13788.92
879.762	13714.79
880.08	13769.71
880.398	13618.75
880.716	13721.57
881.034	13632.76
881.352	13661.91
881.67	13637.73
881.988	13576.27
882.306	13569.71
882.624	13463.28
882.941	13456.27
883.259	13442.94
883.577	13404.29
883.894	13282.94
884.212	13296.27
884.529	13286.78
884.846	13229.61
885.164	13153.23
885.481	13135.15
885.798	13163.85
886.115	13005.21
886.432	13055.38
886.75	13017.64
887.067	13053.8
887.383	13051.76
887.7	13084.08
888.017	12911.88
888.334	12931.54
888.651	12870.52
888.967	12889.73
889.284	12808.38
889.6	12764.09
889.917	12675.73
890.233	12755.27
890.55	12609.29
890.866	12645.9
891.182	12623.75
891.498	12501.04
891.815	12530.42
892.131	12410.87
892.447	12473.25
892.763	12392.8
893.079	12377.43
893.395	12301.5
893.71	12329.52
894.026	12215.63
894.342	12180.15
894.657	12152.58
894.973	12133.59
895.289	12089.3
895.604	12075.52
895.92	11990.77
896.235	11939.93
896.55	11882.07
896.865	11883.88
897.181	11858.12
897.496	11821.51
897.811	11841.17
898.126	11835.75
898.441	11732.93
898.756	11638.01
899.071	11560.95
899.386	11562.53
899.7	11564.34
900.015	11510.78
900.33	11420.84
900.644	11419.04
900.959	11420.39
901.273	11317.12
901.588	11291.81
901.902	11210.45
902.216	11251.36
902.531	11145.82
902.845	11127.52
903.159	11028.76
903.473	11056.56
903.787	10954.64
904.101	10893.85
904.415	10955.32
904.729	10825.38
905.042	10770.69
905.356	10814.31
905.67	10806.4
905.984	10771.82
906.297	10655.67
906.611	10608.66
906.924	10602.33
907.237	10547.87
907.551	10554.65
907.864	10474.88
908.177	10440.76
908.491	10470.13
908.804	10402.34
909.117	10249.58
909.43	10253.87
909.743	10162.35
910.056	10080.09
910.368	10078.28
910.681	10082.35
910.994	10048
911.307	9982.24
911.619	9931.17
911.932	9939.98
912.244	9816.37
912.557	9836.25
912.869	9784.5
913.181	9789.25
913.494	9780.43
913.806	9683.94
914.118	9715.8
914.43	9629.93
914.742	9572.3
915.054	9518.97
915.366	9546.54
915.678	9414.79
915.99	9416.38
916.302	9386.77
916.613	9319.66
916.925	9329.6
917.236	9222.26
917.548	9219.32
917.859	9172.77
918.171	9215.93
918.482	9039.66
918.794	8987.46
919.105	9014.58
919.416	8935.49
919.727	8913.34
920.038	8870.85
920.349	8792.89
920.66	8856.17
920.971	8796.51
921.282	8764.64
921.593	8675.15
921.903	8631.54
922.214	8673.57
922.525	8576.4
922.835	8532.78
923.146	8473.8
923.456	8531.65
923.767	8467.25
924.077	8408.95
924.387	8384.99
924.697	8357.42
925.008	8297.76
925.318	8284.88
925.628	8174.38
925.938	8220.7
926.248	8061.16
926.558	8095.28
926.867	8095.28
927.177	8005.11
927.487	7981.61
927.796	7930.54
928.106	7970.31
928.416	7909.3
928.725	7829.07
929.034	7845.57
929.344	7843.31
929.653	7778.23
929.962	7707.5
930.271	7675.41
930.581	7608.97
930.89	7634.5
931.199	7548.63
931.508	7574.17
931.817	7555.18
932.125	7512.47
932.434	7470.67
932.743	7429.31
933.051	7372.14
933.36	7375.3
933.669	7329.43
933.977	7250.11
934.286	7322.65
934.594	7224.12
934.902	7184.57
935.21	7125.36
935.519	7057.79
935.827	7056.21
936.135	7077.91
936.443	7041.52
936.751	6990.45
937.059	6966.5
937.367	6922.66
937.674	6914.07
937.982	6895.09
938.29	6893.05
938.597	6856.67
938.905	6786.39
939.213	6792.72
939.52	6721.98
939.827	6766.73
940.135	6694.19
940.442	6663.91
940.749	6573.51
941.056	6619.39
941.363	6538.71
941.67	6558.15
941.977	6510.92
942.284	6498.04
942.591	6493.06
942.898	6409.9
943.205	6403.12
943.511	6354.08
943.818	6340.53
944.125	6288.78
944.431	6276.12
944.738	6261.21
945.044	6232.96
945.35	6144.6
945.657	6164.26
945.963	6136.01
946.269	6130.59
946.575	6104.15
946.881	6053.3
947.187	6078.39
947.493	6001.55
947.799	6003.36
948.105	5914.55
948.41	5839.52
948.716	5829.58
949.022	5839.52
949.327	5821.89
949.633	5779.18
949.938	5783.03
950.244	5779.18
950.549	5705.06
950.854	5732.86
951.16	5617.83
951.465	5654.89
951.77	5661.67
952.075	5603.14
952.38	5593.43
952.685	5554.11
952.99	5564.27
953.294	5541.22
953.599	5449.48
953.904	5393.21
954.209	5425.97
954.513	5400.89
954.818	5385.97
955.122	5365.18
955.426	5272.98
955.731	5282.25
956.035	5269.14
956.339	5252.19
956.643	5254.23
956.948	5216.94
957.252	5205.41
957.556	5179.65
957.86	5174.68
958.163	5109.15
958.467	5080.9
958.771	5142.82
959.075	5099.65
959.378	5037.73
959.682	5069.37
959.985	5000
960.289	4934.01
960.592	4944.86
960.896	4960
961.199	4930.84
961.502	4904.4
961.805	4854.01
962.108	4812.2
962.411	4800.68
962.714	4783.96
963.017	4742.15
963.32	4785.99
963.623	4757.29
963.926	4744.18
964.228	4763.39
964.531	4698.99
964.833	4676.16
965.136	4639.78
965.438	4632.1
965.741	4565.88
966.043	4622.6
966.345	4572.44
966.648	4559.78
966.95	4538.54
967.252	4504.19
967.554	4496.51
967.856	4493.57
968.158	4402.05
968.46	4423.29
968.761	4426
969.063	4390.29
969.365	4356.62
969.666	4353.01
969.968	4315.27
970.269	4279.79
970.571	4305.32
970.872	4330.41
971.174	4254.93
971.475	4228.04
971.776	4194.14
972.077	4181.26
972.378	4193.01
972.679	4150.07
972.98	4107.14
973.281	4097.42
973.582	4078.66
973.883	4132.9
974.183	4053.35
974.484	4041.38
974.785	4046.57
975.085	3981.94
975.386	3980.36
975.686	3959.35
975.986	3964.99
976.287	3967.71
976.587	3908.27
976.887	3906.92
977.187	3929.74
977.487	3848.84
977.787	3844.09
978.087	3814.26
978.387	3830.31
978.687	3766.36
978.987	3817.65
979.286	3721.84
979.586	3702.18
979.885	3733.14
980.185	3664.66
980.484	3723.42
980.784	3674.38
981.083	3651.33
981.382	3663.76
981.682	3638.9
981.981	3605
982.28	3642.52
982.579	3587.6
982.878	3558.45
983.177	3554.38
983.475	3534.72
983.774	3537.21
984.073	3514.38
984.372	3480.71
984.67	3437.55
984.969	3469.41
985.267	3446.36
985.566	3426.7
985.864	3407.04
986.162	3388.06
986.461	3422.86
986.759	3339.93
987.057	3329.31
987.355	3319.36
987.653	3313.26
987.951	3266.03
988.249	3298.8
988.547	3312.36
988.844	3226.26
989.142	3245.47
989.44	3204.11
989.737	3243.88
990.035	3163.43
990.332	3168.86
990.63	3160.04
990.927	3139.71
991.224	3116.66
991.521	3099.03
991.819	3120.95
992.116	3084.34
992.413	3087.96
992.71	3057.67
993.006	3052.02
993.303	3039.37
993.6	2969.54
993.897	2989.43
994.193	2994.4
994.49	2933.38
994.787	2919.6
995.083	2913.5
995.379	2910.33
995.676	2914.4
995.972	2864.91
996.268	2855.19
996.565	2847.28
996.861	2834.4
997.157	2780.39
997.453	2779.49
997.749	2777.23
998.044	2749.43
998.34	2744.24
998.636	2775.42
998.932	2749.21
999.227	2685.71
999.523	2698.59
999.818	2685.48
1000.114	2661.3
1000.409	2657.46
1000.704	2656.55
1001	2632.37
1001.295	2585.14
1001.59	2615.2
1001.885	2610.68
1002.18	2568.87
1002.475	2557.57
1002.77	2546.95
1003.065	2523.68
1003.359	2515.09
1003.654	2525.03
1003.949	2479.61
1004.243	2480.29
1004.538	2476.22
1004.832	2472.83
1005.127	2438.93
1005.421	2407.97
1005.715	2414.3
1006.009	2421.76
1006.304	2375.66
1006.598	2374.75
1006.892	2353.06
1007.186	2346.73
1007.48	2282.1
1007.773	2321.87
1008.067	2300.86
1008.361	2282.55
1008.655	2260.86
1008.948	2274.19
1009.242	2237.36
1009.535	2241.88
1009.829	2237.36
1010.122	2243.46
1010.415	2192.39
1010.708	2182.67
1011.001	2179.96
1011.295	2148.32
1011.588	2147.19
1011.881	2147.42
1012.173	2126.4
1012.466	2094.99
1012.759	2093.41
1013.052	2080.3
1013.344	2081.43
1013.637	2044.82
1013.93	2063.8
1014.222	2005.05
1014.514	2035.1
1014.807	2002.79
1015.099	1970.7
1015.391	1972.05
1015.683	1998.72
1015.976	1936.35
1016.268	1948.78
1016.56	1974.99
1016.851	1913.07
1017.143	1901.55
1017.435	1880.98
1017.727	1877.82
1018.018	1869.68
1018.31	1824.26
1018.602	1844.82
1018.893	1839.4
1019.185	1830.36
1019.476	1789.91
1019.767	1811.6
1020.058	1787.88
1020.35	1783.36
1020.641	1767.76
1020.932	1758.95
1021.223	1737.93
1021.514	1742
1021.804	1716.01
1022.095	1700.42
1022.386	1704.94
1022.677	1701.1
1022.967	1639.63
1023.258	1644.6
1023.548	1640.99
1023.839	1620.88
1024.129	1638.95
1024.419	1623.36
1024.709	1602.57
1025	1568.45
1025.29	1593.31
1025.58	1596.24
1025.87	1553.31
1026.16	1542.01
1026.449	1551.72
1026.739	1559.18
1027.029	1520.99
1027.319	1531.84
1027.608	1500.88
1027.898	1502.91
1028.187	1467.21
1028.477	1462.24
1028.766	1466.3
1029.055	1459.98
1029.344	1428.11
1029.634	1418.62
1029.923	1398.51
1030.212	1440.32
1030.501	1397.83
1030.79	1383.59
1031.078	1353.09
1031.367	1347.89
1031.656	1370.26
1031.945	1362.8
1032.233	1333.65
1032.522	1317.38
1032.81	1335.46
1033.099	1321.22
1033.387	1302.01
1033.675	1324.84
1033.963	1247.55
1034.251	1283.26
1034.54	1271.96
1034.828	1261.79
1035.116	1244.84
1035.403	1250.72
1035.691	1231.51
1035.979	1226.54
1036.267	1195.58
1036.554	1207.78
1036.842	1198.74
1037.129	1205.07
1037.417	1172.98
1037.704	1154.67
1037.992	1158.74
1038.279	1136.14
1038.566	1152.87
1038.853	1152.87
1039.14	1152.87
