Data from plate_porcelain_FLMS001491_055.txt Node
Date: Tue Feb 07 11:19:32 GMT 2017
User: dcchb
Spectrometer: FLMS00149
Trigger mode: 0
Integration Time (sec): 2.000000E-2
Scans to average: 10
Electric dark correction enabled: true
Nonlinearity correction enabled: false
Boxcar width: 0
XAxis mode: Wavelengths
Number of Pixels in Spectrum: 2048
>>>>>Begin Spectral Data<<<<<
341.393	11.26
341.776	11.26
342.16	11.26
342.543	-46.14
342.927	-79.14
343.31	-67.39
343.693	-55.63
344.077	-64
344.46	-58.35
344.843	-58.12
345.226	-38.23
345.61	-9.76
345.993	-45.01
346.376	-13.38
346.759	18.26
347.142	36.57
347.525	21.65
347.908	65.49
348.291	65.94
348.674	97.58
349.057	104.36
349.44	112.95
349.823	135.77
350.206	168.09
350.588	231.82
350.971	226.62
351.354	266.62
351.737	269.56
352.119	298.03
352.502	313.62
352.884	304.36
353.267	321.76
353.65	331.93
354.032	321.31
354.414	357.24
354.797	353.62
355.179	366.28
355.562	358.37
355.944	372.38
356.326	372.83
356.709	362.21
357.091	386.16
357.473	378.93
357.855	394.75
358.238	393.62
358.62	386.16
359.002	390.23
359.384	395.65
359.766	381.19
360.148	367.41
360.53	397.91
360.912	388.42
361.294	370.34
361.676	386.39
362.057	401.3
362.439	378.25
362.821	398.59
363.203	406.05
363.584	385.94
363.966	387.74
364.348	362.89
364.729	418.93
365.111	407.18
365.493	384.58
365.874	403.56
366.256	385.26
366.637	405.82
367.019	401.98
367.4	401.98
367.781	415.31
368.163	425.94
368.544	390.91
368.925	399.72
369.306	413.73
369.688	399.95
370.069	407.63
370.45	403.56
370.831	400.4
371.212	416.44
371.593	426.16
371.974	420.51
372.355	423.22
372.736	445.14
373.117	439.95
373.498	442.66
373.879	404.24
374.26	442.66
374.641	404.92
375.021	442.66
375.402	451.92
375.783	454.86
376.163	497.8
376.544	489.21
376.925	467.74
377.305	443.79
377.686	438.14
378.066	463
378.447	493.96
378.827	451.92
379.208	472.04
379.588	496.22
379.968	496.89
380.349	477.69
380.729	482.88
381.109	528.53
381.489	494.63
381.87	505.48
382.25	501.19
382.63	521.75
383.01	531.92
383.39	541.64
383.77	527.4
384.15	537.8
384.53	537.12
384.91	550
385.29	562.2
385.67	567.63
386.049	562.43
386.429	572.15
386.809	584.58
387.189	585.7
387.568	583.22
387.948	585.03
388.328	614.18
388.707	606.04
389.087	598.81
389.466	617.57
389.846	623.22
390.225	627.06
390.605	639.49
390.984	642.88
391.363	681.07
391.743	656.66
392.122	695.08
392.501	673.16
392.881	684.91
393.26	698.92
393.639	710.67
394.018	719.03
394.397	702.31
394.776	721.97
395.155	733.05
395.534	732.14
395.913	745.7
396.292	740.05
396.671	766.72
397.05	750.22
397.429	772.82
397.808	779.6
398.186	786.6
398.565	762.42
398.944	795.87
399.323	809.43
399.701	812.14
400.08	814.63
400.458	831.12
400.837	829.31
401.215	846.94
401.594	864.12
401.972	852.14
402.351	885.36
402.729	910.22
403.107	918.58
403.486	909.09
403.864	906.37
404.242	906.15
404.62	933.72
404.999	968.52
405.377	967.84
405.755	981.17
406.133	964
406.511	1010.1
406.889	1000.84
407.267	1032.02
407.645	1033.6
408.023	1054.62
408.401	1076.99
408.779	1078.57
409.156	1121.51
409.534	1106.37
409.912	1112.47
410.29	1141.62
410.667	1189.76
411.045	1190.21
411.422	1187.05
411.8	1208.97
412.178	1232.02
412.555	1245.57
412.933	1275.86
413.31	1258.68
413.687	1310.66
414.065	1304.1
414.442	1339.36
414.819	1349.98
415.197	1367.61
415.574	1392.92
415.951	1398.56
416.328	1415.74
416.705	1423.2
417.082	1451.22
417.46	1469.07
417.837	1477.66
418.214	1469.52
418.591	1491.44
418.967	1502.74
419.344	1518.79
419.721	1528.96
420.098	1592.68
420.475	1563.76
420.852	1586.36
421.228	1610.99
421.605	1642.17
421.982	1663.42
422.358	1657.77
422.735	1674.04
423.111	1662.96
423.488	1724.21
423.864	1732.34
424.241	1745.45
424.617	1761.72
424.994	1780.93
425.37	1829.51
425.746	1816.63
426.123	1860.25
426.499	1841.72
426.875	1882.85
427.251	1981.37
427.627	1983.86
428.003	1988.38
428.379	2016.4
428.756	2022.5
429.132	2067.02
429.507	2078.1
429.883	2157.64
430.259	2176.17
430.635	2184.31
431.011	2199.67
431.387	2239.67
431.763	2306.56
432.138	2278.54
432.514	2338.88
432.89	2340.46
433.265	2408.93
433.641	2416.39
434.016	2473.11
434.392	2515.15
434.767	2548.82
435.143	2562.15
435.518	2583.17
435.894	2628.59
436.269	2629.94
436.644	2706.78
437.02	2690.51
437.395	2705.65
437.77	2798.53
438.145	2846.66
438.52	2843.27
438.895	2835.82
439.271	2903.61
439.646	2962.59
440.021	2981.12
440.395	2990.61
440.77	2990.61
441.145	2995.36
441.52	3051.63
441.895	3063.83
442.27	3134.79
442.645	3116.94
443.019	3168.01
443.394	3201.91
443.769	3253.21
444.143	3202.13
444.518	3267.89
444.892	3269.93
445.267	3272.87
445.641	3311.51
446.016	3319.42
446.39	3368
446.764	3417.72
447.139	3377.95
447.513	3427.44
447.887	3478.51
448.262	3483.71
448.636	3485.06
449.01	3534.1
449.384	3620.65
449.758	3616.36
450.132	3657.94
450.506	3706.98
450.88	3766.19
451.254	3701.1
451.628	3833.98
452.002	3842.12
452.376	3853.87
452.75	3897.03
453.123	3939.97
453.497	4021.09
453.871	4077.14
454.244	4106.97
454.618	4156.23
454.992	4208.43
455.365	4210.47
455.739	4382.22
456.112	4383.12
456.486	4424.93
456.859	4482.1
457.232	4580.4
457.606	4556.9
457.979	4643.45
458.352	4733.62
458.725	4776.56
459.099	4815.65
459.472	4950.79
459.845	4968.19
460.218	4991.24
460.591	5079.37
460.964	5112.59
461.337	5217.45
461.71	5243.89
462.083	5393.71
462.456	5392.81
462.829	5391.23
463.201	5497.67
463.574	5524.56
463.947	5619.02
464.32	5688.85
464.692	5785.12
465.065	5836.41
465.438	5929.29
465.81	6036.64
466.183	6059.69
466.555	6254.03
466.928	6269.4
467.3	6329.96
467.672	6407.47
468.045	6504.87
468.417	6558.88
468.789	6616.73
469.161	6729.27
469.534	6854.92
469.906	6979.44
470.278	7057.63
470.65	7055.37
471.022	7302.59
471.394	7418.29
471.766	7428.91
472.138	7569.7
472.51	7735.57
472.882	7885.85
473.253	7957.04
473.625	8077.71
473.997	8229.8
474.369	8296.91
474.74	8381.66
475.112	8557.7
475.484	8737.13
475.855	8831.36
476.227	8907.07
476.598	9157.23
476.97	9257.34
477.341	9478.58
477.713	9620.72
478.084	9662.08
478.455	9960.83
478.827	10039.02
479.198	10363.3
479.569	10328.5
479.94	10669.51
480.311	10787.7
480.682	10941.36
481.053	11236.95
481.424	11404.63
481.795	11591.74
482.166	11699.31
482.537	11903.6
482.908	12141.11
483.279	12281.22
483.65	12460.87
484.021	12760.53
484.391	12930.01
484.762	12987.19
485.133	13195.99
485.503	13349.21
485.874	13685.47
486.244	13809.76
486.615	14026.03
486.985	14216.53
487.356	14544.66
487.726	14652.23
488.097	14952.56
488.467	15001.37
488.837	15329.95
489.207	15505.99
489.578	15628.25
489.948	15890.39
490.318	16155.24
490.688	16139.87
491.058	16498.51
491.428	16625.06
491.798	16775.34
492.168	17100.98
492.538	17253.29
492.908	17475.66
493.278	17732.37
493.648	17794.29
494.017	18079.71
494.387	18249.2
494.757	18336.65
495.126	18516.76
495.496	18648.73
495.866	18801.72
496.235	19054.37
496.605	19144.76
496.974	19259.56
497.344	19441.71
497.713	19671.98
498.082	19796.27
498.452	19966.89
498.821	20070.62
499.19	20322.14
499.559	20459.53
499.928	20609.36
500.298	20598.06
500.667	20853.42
501.036	20967.09
501.405	21127.76
501.774	21145.39
502.143	21445.27
502.512	21510.35
502.88	21688.2
503.249	21804.36
503.618	21999.61
503.987	22103.11
504.356	22318.47
504.724	22339.71
505.093	22504
505.462	22679.81
505.83	22803.43
506.199	22949.86
506.567	23266.46
506.936	23300.36
507.304	23612.9
507.672	23690.41
508.041	23783.97
508.409	24026.9
508.777	24229.83
509.145	24377.17
509.514	24540.56
509.882	24636.82
510.25	24631.85
510.618	24941.67
510.986	25086.53
511.354	25308.67
511.722	25614.2
512.09	25746.4
512.458	25774.2
512.826	25965.83
513.193	26180.74
513.561	26283.56
513.929	26526.04
514.297	26834.51
514.664	27047.61
515.032	27126.02
515.4	27444.89
515.767	27390.2
516.135	27693.47
516.502	27573.24
516.869	28147.92
517.237	28118.54
517.604	28191.76
517.972	28663.61
518.339	28831.74
518.706	28854.34
519.073	29030.38
519.44	29349.69
519.808	29641.44
520.175	29682.12
520.542	30089.79
520.909	30176.11
521.276	30241.2
521.643	30577.01
522.009	30842.99
522.376	31021.51
522.743	31235.29
523.11	31547.6
523.477	31941.26
523.843	32011.55
524.21	32364.3
524.577	32601.81
524.943	32804.52
525.31	32994.34
525.676	33288.12
526.043	33456.93
526.409	33614.22
526.776	34012.4
527.142	34178.49
527.508	34379.84
527.874	34713.17
528.241	34971.47
528.607	34942.77
528.973	35404.9
529.339	35339.82
529.705	35739.36
530.071	36084.43
530.437	36182.06
530.803	36375.05
531.169	36692.1
531.535	36589.5
531.901	36810.74
532.267	36973.22
532.632	37184.52
532.998	37448.01
533.364	37809.81
533.73	37833.99
534.095	38126.41
534.461	38182.46
534.826	38403.47
535.192	38523.69
535.557	38900.86
535.923	38958.93
536.288	39014.53
536.653	39142.88
537.019	39157.8
537.384	39407.96
537.749	39529.77
538.114	39586.26
538.479	39985.8
538.845	39981.73
539.21	40045.46
539.575	40287.71
539.94	40386.01
540.305	40609.74
540.67	40588.72
541.034	40809.96
541.399	41060.35
541.764	41035.04
542.129	41166.56
542.494	41282.49
542.858	41472.09
543.223	41538.98
543.587	41837.5
543.952	41840.89
544.316	41962.02
544.681	42072.98
545.045	42227.32
545.41	42585.96
545.774	42556.8
546.138	42590.7
546.503	42842.67
546.867	42800.87
547.231	43192.72
547.595	43186.84
547.959	43420.74
548.324	43500.73
548.688	43536.21
549.052	43758.13
549.416	43846.26
549.779	43916.54
550.143	44039.7
550.507	44388.85
550.871	44525.11
551.235	44619.12
551.599	44873.13
551.962	44959.45
552.326	45043.07
552.689	45207.13
553.053	45166
553.417	45344.3
553.78	45883.5
554.143	45664.97
554.507	45787.45
554.87	45979.09
555.234	46476.7
555.597	46261.34
555.96	46504.5
556.323	46795.56
556.686	46785.39
557.05	47150.36
557.413	47137.7
557.776	47243.91
558.139	47568.65
558.502	47624.02
558.865	47685.48
559.228	48009.77
559.59	48064.68
559.953	48237.56
560.316	48564.33
560.679	48557.55
561.041	48913.25
561.404	49029.18
561.767	49303.52
562.129	49159.12
562.492	49609.5
562.854	49515.04
563.217	49581.7
563.579	49844.07
563.941	50075.93
564.304	50172.2
564.666	50466.43
565.028	50473.43
565.39	50593.66
565.753	50751.62
566.115	50917.94
566.477	51053.3
566.839	51181.66
567.201	51420.75
567.563	51473.63
567.925	51492.84
568.287	51689.67
568.648	51762.21
569.01	51864.13
569.372	52084.01
569.734	51947.07
570.095	52275.42
570.457	52406.49
570.819	52500.95
571.18	52509.99
571.542	52747.72
571.903	52769.42
572.265	52901.62
572.626	52899.13
572.987	52947.72
573.349	53162.4
573.71	53225
574.071	53318.33
574.432	53333.02
574.794	53547.93
575.155	53516.74
575.516	53504.77
575.877	53631.09
576.238	53707.25
576.599	53815.04
576.96	53884.19
577.32	53853.46
577.681	53976.17
578.042	54103.62
578.403	54082.15
578.763	54130.96
579.124	54152.88
579.485	54240.57
579.845	54330.51
580.206	54265.2
580.566	54323.73
580.927	54406.21
581.287	54459.32
581.648	54314.24
582.008	54518.52
582.368	54499.77
582.728	54497.51
583.089	54494.57
583.449	54434.46
583.809	54570.5
584.169	54598.3
584.529	54532.76
584.889	54769.82
585.249	54492.08
585.609	54466.77
585.969	54648.01
586.329	54551.52
586.688	54628.58
587.048	54728.24
587.408	54558.98
587.768	54589.71
588.127	54596.04
588.487	54513.55
588.846	54793.09
589.206	54559.88
589.565	54596.26
589.925	54708.58
590.284	54666.54
590.643	54784.05
591.003	54803.71
591.362	54832.87
591.721	54706.32
592.08	54798.52
592.44	54905.63
592.799	54949.7
593.158	54883.26
593.517	54829.48
593.876	54796.71
594.235	54758.74
594.593	54843.49
594.952	54965.74
595.311	54848.23
595.67	54861.11
596.029	55056.59
596.387	55080.54
596.746	55059.98
597.104	55001.22
597.463	55032.41
597.822	55095.23
598.18	55060.88
598.538	55022.24
598.897	55128.45
599.255	54984.05
599.613	55260.2
599.972	55122.12
600.33	55134.55
600.688	55140.2
601.046	55320.99
601.404	55324.15
601.762	55288.9
602.12	55428.56
602.478	55307.66
602.836	55398.05
603.194	55237.6
603.552	55298.16
603.91	55254.32
604.268	55423.81
604.625	55412.06
604.983	55494.09
605.341	55373.87
605.698	55502.45
606.056	55564.82
606.413	55525.28
606.771	55647.31
607.128	55680.53
607.485	55574.54
607.843	55599.63
608.2	55757.81
608.557	55894.99
608.914	55670.58
609.272	55870.58
609.629	55858.15
609.986	55976.11
610.343	55832.16
610.7	56093.4
611.057	56040.07
611.414	55930.01
611.771	56012.72
612.127	56092.72
612.484	56063.34
612.841	56258.82
613.198	56112.38
613.554	56173.17
613.911	56344.69
614.267	56216.11
614.624	56247.52
614.98	56395.99
615.337	56418.59
615.693	56392.15
616.05	56372.03
616.406	56455.65
616.762	56419.04
617.118	56387.63
617.475	56422.88
617.831	56468.76
618.187	56488.64
618.543	56496.55
618.899	56690.44
619.255	56604.12
619.611	56587.85
619.967	56668.3
620.323	56692.03
620.678	56634.4
621.034	56605.93
621.39	56602.54
621.746	56605.7
622.101	56803.44
622.457	56642.08
622.812	56653.38
623.168	56722.31
623.523	56723.21
623.879	56873.72
624.234	56649.54
624.589	56701.29
624.945	56784.45
625.3	56753.27
625.655	56701.07
626.01	56743.32
626.365	56772.93
626.72	56715.75
627.075	56753.27
627.43	56617
627.785	56608.41
628.14	56686.38
628.495	56607.96
628.85	56649.09
629.205	56478.7
629.559	56645.7
629.914	56548.3
630.269	56578.36
630.623	56506.95
630.978	56522.77
631.332	56546.27
631.687	56554.4
632.041	56467.85
632.396	56542.65
632.75	56390.34
633.104	56420.17
633.459	56233.96
633.813	56240.51
634.167	56360.06
634.521	56281.87
634.875	56268.53
635.229	56265.37
635.583	56038.71
635.937	56134.75
636.291	56102.21
636.645	56161.42
636.999	56056.79
637.352	56078.48
637.706	55860.86
638.06	55997.13
638.413	55958.03
638.767	55859.73
639.121	55917.81
639.474	55713.97
639.828	55735.44
640.181	55779.51
640.534	55760.98
640.888	55666.29
641.241	55602.79
641.594	55576.8
641.947	55687.76
642.301	55594.65
642.654	55607.31
643.007	55638.27
643.36	55511.94
643.713	55443.25
644.066	55524.6
644.419	55441.66
644.771	55179.98
645.124	54874.45
645.477	54985.4
645.83	54730.5
646.182	54554.91
646.535	54436.49
646.888	54490.73
647.24	54411.41
647.593	54600.33
647.945	54434.46
648.298	54318.76
648.65	54222.03
649.002	54204.86
649.355	54246.67
649.707	54176.61
650.059	54341.81
650.411	54634.91
650.763	54664.28
651.115	54891.85
651.467	54843.94
651.819	54752.87
652.171	54648.01
652.523	54786.77
652.875	54635.81
653.227	54536.38
653.578	54730.27
653.93	54613.89
654.282	54378.19
654.633	54403.95
654.985	54426.1
655.337	54451.86
655.688	54460.9
656.039	54490.95
656.391	54258.64
656.742	54344.97
657.094	54381.35
657.445	54461.8
657.796	54429.94
658.147	54353.56
658.498	54195.82
658.849	54254.58
659.2	54269.72
659.551	54146.1
659.902	54304.52
660.253	54187.01
660.604	54278.98
660.955	54069.27
661.306	54190.4
661.656	54101.13
662.007	54115.37
662.358	54046.67
662.708	53969.16
663.059	53919.22
663.409	53871.76
663.76	53971.87
664.11	54027.46
664.461	54060.01
664.811	53986.33
665.161	54021.14
665.511	53906.11
665.862	53942.04
666.212	54006.22
666.562	53973
666.912	54009.84
667.262	53855.94
667.612	53971.87
667.962	53900.24
668.312	53933.68
668.662	53982.72
669.011	53872.44
669.361	53841.71
669.711	53800.35
670.06	53784.98
670.41	53697.3
670.76	53665.21
671.109	53814.81
671.459	53765.55
671.808	53656.4
672.157	53699.34
672.507	53559.91
672.856	53588.83
673.205	53613.01
673.554	53724.42
673.904	53502.51
674.253	53631.32
674.602	53551.32
674.951	53175.96
675.3	53024.1
675.649	53523.07
675.998	53420.7
676.346	53466.8
676.695	53577.31
677.044	53264.09
677.393	53496.4
677.741	53534.82
678.09	53379.8
678.438	53229.07
678.787	53316.75
679.135	53354.26
679.484	53158.79
679.832	53205.34
680.181	53073.14
680.529	53177.77
680.877	52964.21
681.225	52968.73
681.573	53168.5
681.922	52920.6
682.27	52853.03
682.618	52969.41
682.966	52685.58
683.314	52811.68
683.661	52597.44
684.009	52491.23
684.357	52539.37
684.705	52444.68
685.053	52430.22
685.4	52444
685.748	52276.78
686.095	52268.41
686.443	52029.78
686.79	52013.05
687.138	52171.69
687.485	52088.98
687.832	52019.15
688.18	52012.83
688.527	51859.84
688.874	51816.22
689.221	51694.42
689.568	51629.33
689.915	51413.52
690.262	51463.01
690.609	51306.41
690.956	51293.07
691.303	51183.47
691.65	50974.66
691.997	51020.09
692.344	50766.76
692.69	50835.46
693.037	50872.97
693.383	50677.04
693.73	50715.69
694.077	50499.42
694.423	50460.1
694.769	50392.53
695.116	50263.72
695.462	50263.49
695.808	50216.04
696.155	50227.56
696.501	49887.23
696.847	49979.66
697.193	49567.69
697.539	49800
697.885	49563.17
698.231	49472.1
698.577	49475.72
698.923	49425.55
699.269	49101.72
699.614	49033.47
699.96	48912.8
700.306	48921.38
700.651	48838
700.997	48776.53
701.342	48673.71
701.688	48570.88
702.033	48390.32
702.379	48189.65
702.724	48235.53
703.069	48314.85
703.415	47863.56
703.76	47936.55
704.105	47845.93
704.45	47665.82
704.795	47519.39
705.14	47467.86
705.485	47455.88
705.83	47238.49
706.175	47270.58
706.52	47108.78
706.865	46981.77
707.209	47040.08
707.554	46795.56
707.899	46829.69
708.243	46701.1
708.588	46609.35
708.932	46336.59
709.277	46251.17
709.621	46458.85
709.966	46161.23
710.31	46341.11
710.654	45938.41
710.998	45993.32
711.342	45986.09
711.687	45833.33
712.031	45650.28
712.375	45550.17
712.719	45534.58
713.063	45477.18
713.407	45507.46
713.75	45262.5
714.094	45351.76
714.438	45063.41
714.782	45155.61
715.125	44947.25
715.469	44857.08
715.812	44696.86
716.156	44598.33
716.499	44620.93
716.843	44603.98
717.186	44261.62
717.53	44643.08
717.873	44534.61
718.216	44437.21
718.559	44227.95
718.902	44006.48
719.246	44101.85
719.589	44061.4
719.932	43843.32
720.275	43789.31
720.617	43698.47
720.96	43631.8
721.303	43640.17
721.646	43579.38
721.989	43254.41
722.331	43430.23
722.674	43401.98
723.016	43299.61
723.359	43229.78
723.701	43223.45
724.044	43000.41
724.386	42877.47
724.729	42884.48
725.071	42785.95
725.413	42764.93
725.755	42744.6
726.097	42438.16
726.439	42340.99
726.782	42423.47
727.124	42613.07
727.465	42343.93
727.807	42279.98
728.149	42141.9
728.491	42059.64
728.833	42117.95
729.175	41969.48
729.516	41837.28
729.858	41818.52
730.199	41830.27
730.541	41808.8
730.882	41612.87
731.224	41788.46
731.565	41634.8
731.906	41446.55
732.248	41519.09
732.589	41300.57
732.93	41237.07
733.271	41313.22
733.612	41263.05
733.953	41235.26
734.294	40954.36
734.635	40928.82
734.976	41040.69
735.317	40810.64
735.658	40740.58
735.999	40820.35
736.339	40713.01
736.68	40663.3
737.021	40499.01
737.361	40374.94
737.702	40554.6
738.042	40455.62
738.383	40307.82
738.723	40397.09
739.063	40183.99
739.404	40179.47
739.744	40019.02
740.084	40010.21
740.424	39932.47
740.764	39912.13
741.104	40133.82
741.444	39724.79
741.784	39572.48
742.124	39647.73
742.464	39551.91
742.804	39564.34
743.143	39439.82
743.483	39434.85
743.823	39219.94
744.162	39292.71
744.502	39201.41
744.841	38996.22
745.181	39209.77
745.52	39008.88
745.86	39085.03
746.199	38901.99
746.538	38866.96
746.877	38986.28
747.216	38778.15
747.556	38733.85
747.895	38701.31
748.234	38477.59
748.573	38403.02
748.911	38241.66
749.25	38414.31
749.589	38079.41
749.928	38335.22
750.267	38167.77
750.605	38100.88
750.944	37992.86
751.283	37726.2
751.621	37945.17
751.96	37622.92
752.298	37721.68
752.636	37747.67
752.975	37290.5
753.313	37482.36
753.651	37443.27
753.989	37079.43
754.327	37187.23
754.666	37003.5
755.004	37206.21
755.342	37132.99
755.679	37161.24
756.017	36841.7
756.355	36873.79
756.693	36547.47
757.031	36537.53
757.368	36323.3
757.706	36426.57
758.044	36390.87
758.381	36368.27
758.719	36168.72
759.056	36240.36
759.394	36180.7
759.731	35846.92
760.068	35742.52
760.405	35615.29
760.743	35453.94
761.08	35448.52
761.417	35310.44
761.754	35274.28
762.091	35216.43
762.428	35081.07
762.765	34845.37
763.102	34906.38
763.438	34772.83
763.775	34545.04
764.112	34670.91
764.449	34516.34
764.785	34357.7
765.122	34004.94
765.458	34109.8
765.795	34001.32
766.131	33917.26
766.467	33788.67
766.804	33573.54
767.14	33476.37
767.476	33399.76
767.812	33192.08
768.148	33401.11
768.485	33030.95
768.821	32963.16
769.157	32888.13
769.492	32842.03
769.828	32793.67
770.164	32533.11
770.5	32389.39
770.836	32416.96
771.171	32295.15
771.507	32058.55
771.842	31773.59
772.178	31796.64
772.513	31884.77
772.849	31709.86
773.184	31703.98
773.519	31653.14
773.855	31359.59
774.19	31210.44
774.525	31131.34
774.86	31113.26
775.195	31020.38
775.53	30876.43
775.865	30781.3
776.2	30395.54
776.535	30398.93
776.87	30429.67
777.205	30250.69
777.539	30137.92
777.874	30200.75
778.209	29831.49
778.543	29794.43
778.878	29729.12
779.212	29665.62
779.547	29429.92
779.881	29463.59
780.215	29194.44
780.55	29339.53
780.884	29255.23
781.218	29117.61
781.552	29102.7
781.886	28772.53
782.22	28696.83
782.554	28563.27
782.888	28414.35
783.222	28294.81
783.556	28141.59
783.889	28074.25
784.223	27891.88
784.557	27852.78
784.89	27916.51
785.224	27680.13
785.557	27614.15
785.891	27415.51
786.224	27508.39
786.558	27335.06
786.891	27130.54
787.224	27126.48
787.557	27043.77
787.891	26916.99
788.224	26846.94
788.557	26799.93
788.89	26777.33
789.223	26653.04
789.556	26496.66
789.888	26387.51
790.221	26306.61
790.554	26001.99
790.887	26234.07
791.219	26024.58
791.552	26055.32
791.884	25847.19
792.217	25792.95
792.549	25713.63
792.882	25546.63
793.214	25383.7
793.546	25479.29
793.879	25221.44
794.211	25059.64
794.543	25069.81
794.875	25021.67
795.207	25024.38
795.539	24763.6
795.871	24948
796.203	24715.01
796.535	24588.92
796.867	24623.72
797.198	24449.03
797.53	24411.52
797.862	24321.13
798.193	24338.3
798.525	24023.51
798.856	24156.84
799.188	23816.96
799.519	23760.69
799.85	23758.2
800.182	23751.88
800.513	23696.06
800.844	23631.88
801.175	23661.71
801.506	23586.46
801.837	23334.26
802.168	23343.3
802.499	23324.32
802.83	23225.56
803.161	23035.06
803.491	23132
803.822	23060.14
804.153	22951.22
804.483	22739.7
804.814	22656.54
805.145	22724.33
805.475	22734.05
805.805	22527.73
806.136	22605.01
806.466	22521.85
806.796	22499.71
807.126	22274.85
807.457	22293.38
807.787	22269.88
808.117	22056.33
808.447	22011.58
808.777	21984.01
809.107	21937.01
809.436	21912.15
809.766	21811.59
810.096	21841.64
810.426	21685.94
810.755	21775.66
811.085	21706.73
811.414	21546.51
811.744	21377.25
812.073	21419.28
812.403	21307.19
812.732	21210.7
813.061	21156.24
813.39	21192.39
813.719	21048.9
814.049	21160.76
814.378	20994.66
814.707	20887.54
815.036	20994.66
815.365	20738.4
815.693	20632.18
816.022	20632.64
816.351	20617.49
816.68	20465.18
817.008	20535.01
817.337	20337.28
817.665	20380.44
817.994	20348.8
818.322	20389.03
818.651	20132.31
818.979	20130.5
819.307	20267.67
819.636	20108.81
819.964	20033.78
820.292	20175.02
820.62	20168.69
820.948	19870.85
821.276	19944.07
821.604	19930.28
821.932	20104.06
822.259	19994.46
822.587	19901.13
822.915	19980.22
823.243	19970.73
823.57	19860.23
823.898	19876.95
824.225	19781.36
824.553	19866.33
824.88	19881.47
825.207	19975.7
825.535	19854.8
825.862	19872.66
826.189	19766.9
826.516	19892.32
826.843	20055.7
827.17	19941.81
827.497	19969.38
827.824	19876.95
828.151	19918.08
828.478	19779.55
828.805	19820.91
829.131	19814.8
829.458	19861.58
829.785	19701.59
830.111	19778.65
830.438	19798.31
830.764	19827.68
831.09	19759.89
831.417	19732.09
831.743	19754.01
832.069	19743.85
832.395	19638.54
832.722	19768.48
833.048	19681.7
833.374	19601.48
833.7	19529.16
834.026	19632.66
834.351	19533.68
834.677	19560.12
835.003	19650.97
835.329	19537.97
835.654	19456.85
835.98	19454.14
836.306	19401.03
836.631	19396.51
836.956	19408.03
837.282	19483.06
837.607	19351.09
837.932	19276.51
838.258	19350.41
838.583	19245.1
838.908	19196.52
839.233	19195.39
839.558	19134.14
839.883	19105.67
840.208	19025.45
840.533	18997.65
840.858	18924.66
841.182	19003.3
841.507	18991.32
841.832	18803.08
842.156	18869.97
842.481	18899.35
842.805	18700.93
843.13	18597.89
843.454	18691.67
843.778	18532.35
844.103	18508.17
844.427	18575.29
844.751	18608.73
845.075	18435.86
845.399	18358.8
845.723	18328.52
846.047	18285.8
846.371	18128.52
846.695	18185.24
847.019	17964.01
847.343	17972.59
847.666	17830.22
847.99	17715.65
848.313	17611.92
848.637	17611.47
848.96	17609.66
849.284	17570.34
849.607	17392.04
849.931	17345.72
850.254	17274.76
850.577	17114.99
850.9	17137.36
851.223	16981.21
851.546	16936.01
851.869	16811.04
852.192	16900.98
852.515	16768.1
852.838	16776.69
853.161	16609.01
853.483	16553.19
853.806	16539.86
854.129	16483.82
854.451	16490.15
854.774	16324.5
855.096	16312.75
855.419	16273.65
855.741	16257.84
856.063	16114.79
856.385	16178.74
856.708	15996.83
857.03	16028.69
857.352	16042.7
857.674	15870.5
857.996	15778.75
858.318	15780.33
858.64	15733.1
858.961	15721.35
859.283	15649.72
859.605	15571.53
859.926	15563.16
860.248	15452.43
860.57	15507.8
860.891	15560.9
861.212	15494.01
861.534	15395.71
861.855	15252.44
862.176	15398.87
862.498	15325.88
862.819	15348.71
863.14	15222.83
863.461	15205.66
863.782	15214.92
864.103	15115.94
864.424	15119.33
864.745	15172.89
865.065	15012.67
865.386	14968.15
865.707	14986.91
866.027	15050.18
866.348	14970.19
866.668	14907.59
866.989	14981.48
867.309	14766.58
867.63	14893.35
867.95	14872.56
868.27	14750.08
868.59	14696.29
868.91	14736.29
869.23	14769.74
869.55	14723.64
869.87	14840.92
870.19	14684.32
870.51	14686.35
870.83	14643.87
871.15	14485.9
871.469	14444.55
871.789	14438.22
872.109	14409.52
872.428	14376.08
872.748	14472.35
873.067	14419.69
873.386	14445.23
873.706	14404.55
874.025	14200.49
874.344	14222.86
874.663	14297.43
874.982	14321.61
875.301	14224.22
875.62	14154.84
875.939	14142.86
876.258	14078.23
876.577	14127.04
876.896	14068.74
877.214	14021.06
877.533	14022.64
877.852	14129.08
878.17	14085.69
878.489	13963.66
878.807	14013.37
879.125	13950.55
879.444	13963.88
879.762	13892.02
880.08	13884.79
880.398	13780.61
880.716	13844.34
881.034	13783.32
881.352	13821.29
881.67	13790.1
881.988	13835.75
882.306	13708.3
882.624	13599.6
882.941	13497.91
883.259	13563.67
883.577	13437.34
883.894	13491.81
884.212	13432.37
884.529	13428.08
884.846	13395.76
885.164	13393.73
885.481	13278.7
885.798	13280.74
886.115	13233.73
886.432	13227.18
886.75	13182.89
887.067	13209.55
887.383	13077.13
887.7	13112.38
888.017	13039.16
888.334	13081.42
888.651	13066.96
888.967	13100.86
889.284	12899.28
889.6	12964.14
889.917	12756.68
890.233	12880.75
890.55	12765.95
890.866	12805.5
891.182	12687.99
891.498	12644.6
891.815	12640.98
892.131	12634.65
892.447	12495
892.763	12536.58
893.079	12456.81
893.395	12466.3
893.71	12498.61
894.026	12377.94
894.342	12416.58
894.657	12256.13
894.973	12204.16
895.289	12188.56
895.604	12215.68
895.92	12065.63
896.235	12034.67
896.55	12018.62
896.865	12058.4
897.181	11968.23
897.496	11973.88
897.811	11924.39
898.126	11861.79
898.441	11796.26
898.756	11803.72
899.071	11725.98
899.386	11712.42
899.7	11683.94
900.015	11625.41
900.33	11521.46
900.644	11452.54
900.959	11535.02
901.273	11483.27
901.588	11455.02
901.902	11388.13
902.216	11276.05
902.531	11245.76
902.845	11194.69
903.159	11137.29
903.473	11076.05
903.787	11067.46
904.101	10981.59
904.415	11007.8
904.729	10923.96
905.042	10916.73
905.356	10906.11
905.67	10872.21
905.984	10829.96
906.297	10830.86
906.611	10725.33
906.924	10711.54
907.237	10617.53
907.551	10684.65
907.864	10543.18
908.177	10503.18
908.491	10538.44
908.804	10422.06
909.117	10374.37
909.43	10336.18
909.743	10320.36
910.056	10257.54
910.368	10199.46
910.681	10186.81
910.994	10148.39
911.307	10123.31
911.619	10027.26
911.932	10025.46
912.244	10000.82
912.557	9959.92
912.869	9871.11
913.181	9838.34
913.494	9875.63
913.806	9784.33
914.118	9747.27
914.43	9631.57
914.742	9648.07
915.054	9606.71
915.366	9592.47
915.678	9584.11
915.99	9507.28
916.302	9371.46
916.613	9394.74
916.925	9364.23
917.236	9432.03
917.548	9297.34
917.859	9339.37
918.171	9215.53
918.482	9141.64
918.794	9132.6
919.105	9128.53
919.416	9037.69
919.727	9046.05
920.038	8988.65
920.349	8935.32
920.66	8863.23
920.971	8914.53
921.282	8835.21
921.593	8779.39
921.903	8656.68
922.214	8709.79
922.525	8670.92
922.835	8680.18
923.146	8594.31
923.456	8594.76
923.767	8522.67
924.077	8508.43
924.387	8503.24
924.697	8379.17
925.008	8407.65
925.318	8304.82
925.628	8345.05
925.938	8286.75
926.248	8192.06
926.558	8150.25
926.867	8156.58
927.177	8126.3
927.487	8087.88
927.796	8013.53
928.106	8001.1
928.416	7992.52
928.725	7936.47
929.034	7866.42
929.344	7903.25
929.653	7880.2
929.962	7818.06
930.271	7787.78
930.581	7763.82
930.89	7708.91
931.199	7642.24
931.508	7612.41
931.817	7667.33
932.125	7618.51
932.434	7559.53
932.743	7495.35
933.051	7426.2
933.36	7447.22
933.669	7355.02
933.977	7366.09
934.286	7364.96
934.594	7275.25
934.902	7250.16
935.21	7225.76
935.519	7174.01
935.827	7219.43
936.135	7120.22
936.443	7074.57
936.751	7049.04
937.059	7011.3
937.367	7008.13
937.674	6976.05
937.982	6983.5
938.29	6913.9
938.597	6943.73
938.905	6891.53
939.213	6810.4
939.52	6808.82
939.827	6800.23
940.135	6730.63
940.442	6767.69
940.749	6710.97
941.056	6725.88
941.363	6610.86
941.67	6582.84
941.977	6563.63
942.284	6530.63
942.591	6502.16
942.898	6491.54
943.205	6478.66
943.511	6441.14
943.818	6418.55
944.125	6329.51
944.431	6343.75
944.738	6274.59
945.044	6267.82
945.35	6262.39
945.657	6162.06
945.963	6170.42
946.269	6185.56
946.575	6195.73
946.881	6134.94
947.187	6111.21
947.493	6077.54
947.799	6030.99
948.105	5968.39
948.41	5973.59
948.716	5955.73
949.022	5880.03
949.327	5913.02
949.633	5830.76
949.938	5867.6
950.244	5859.92
950.549	5806.36
950.854	5773.59
951.16	5781.95
951.465	5688.85
951.77	5718.23
952.075	5651.56
952.38	5653.82
952.685	5672.58
952.99	5523.2
953.294	5537.44
953.599	5570.88
953.904	5503.99
954.209	5458.35
954.513	5448.18
954.818	5430.1
955.122	5386.71
955.426	5430.78
955.731	5381.06
956.035	5369.53
956.339	5335.86
956.643	5299.25
956.948	5258.58
957.252	5235.3
957.556	5240.27
957.86	5177.67
958.163	5194.62
958.467	5151.46
958.771	5120.27
959.075	5120.73
959.378	5086.15
959.682	5083.89
959.985	5066.04
960.289	5031.01
960.592	4939.04
960.896	4983.56
961.199	4979.71
961.502	4908.3
961.805	4899.72
962.108	4853.62
962.411	4899.26
962.714	4823.56
963.017	4795.99
963.32	4825.82
963.623	4802.54
963.926	4818.36
964.228	4789.44
964.531	4743.56
964.833	4736.78
965.136	4759.15
965.438	4695.65
965.741	4661.98
966.043	4676.44
966.345	4604.13
966.648	4588.99
966.95	4563.23
967.252	4585.6
967.554	4562.55
967.856	4468.99
968.158	4448.88
968.46	4456.79
968.761	4447.98
969.063	4367.98
969.365	4377.7
969.666	4368.66
969.968	4370.01
970.269	4337.47
970.571	4322.1
970.872	4295.44
971.174	4278.72
971.475	4276.46
971.776	4252.73
972.077	4237.36
972.378	4168.44
972.679	4181.77
972.98	4143.58
973.281	4125.5
973.582	4124.59
973.883	4093.64
974.183	4140.87
974.484	4072.62
974.785	4007.54
975.085	4026.74
975.386	4047.76
975.686	4024.48
975.986	3981.1
976.287	3990.81
976.587	3938.84
976.887	3913.3
977.187	3906.52
977.487	3916.01
977.787	3882.12
978.087	3890.25
978.387	3843.92
978.687	3796.02
978.987	3809.8
979.286	3780.42
979.586	3746.75
979.885	3757.37
980.185	3763.93
980.484	3698.39
980.784	3678.73
981.083	3680.99
981.382	3672.63
981.682	3692.97
981.981	3652.97
982.28	3609.35
982.579	3608.22
982.878	3586.98
983.177	3579.52
983.475	3558.06
983.774	3553.31
984.073	3504.5
984.372	3486.19
984.67	3519.64
984.969	3508.57
985.267	3476.93
985.566	3502.92
985.864	3407.33
986.162	3403.03
986.461	3413.88
986.759	3375.24
987.057	3354.22
987.355	3335.24
987.653	3355.35
987.951	3319.87
988.249	3282.13
988.547	3332.98
988.844	3288.23
989.142	3274
989.44	3259.31
989.737	3218.63
990.035	3269.25
990.332	3238.74
990.63	3200.1
990.927	3151.29
991.224	3165.98
991.521	3129.59
991.819	3138.86
992.116	3116.49
992.413	3101.12
992.71	3084.17
993.006	3060.89
993.303	3036.94
993.6	3025.19
993.897	3010.27
994.193	2988.58
994.49	2961.46
994.787	2931.41
995.083	2948.58
995.379	2934.34
995.676	2899.09
995.972	2933.44
996.268	2927.56
996.565	2881.24
996.861	2850.05
997.157	2880.11
997.453	2829.49
997.749	2826.78
998.044	2801.47
998.34	2795.36
998.636	2778.64
998.932	2766.21
999.227	2753.11
999.523	2742.71
999.818	2755.82
1000.114	2677.85
1000.409	2683.5
1000.704	2672.66
1001	2652.32
1001.295	2648.93
1001.59	2630.85
1001.885	2629.72
1002.18	2591.53
1002.475	2594.69
1002.77	2602.6
1003.065	2530.96
1003.359	2539.55
1003.654	2526.67
1003.949	2499.33
1004.243	2483.51
1004.538	2482.83
1004.832	2457.75
1005.127	2458.2
1005.421	2438.54
1005.715	2446
1006.009	2390.4
1006.304	2378.43
1006.598	2378.2
1006.892	2354.02
1007.186	2344.08
1007.48	2344.75
1007.773	2371.87
1008.067	2299.11
1008.361	2298.43
1008.655	2301.14
1008.948	2284.42
1009.242	2270.86
1009.535	2263.63
1009.829	2246.45
1010.122	2210.29
1010.415	2205.78
1010.708	2199
1011.001	2224.31
1011.295	2212.1
1011.588	2154.25
1011.881	2123.52
1012.173	2132.1
1012.466	2117.19
1012.759	2072.45
1013.052	2059.34
1013.344	2057.3
1013.637	2056.17
1013.93	2055.72
1014.222	2029.28
1014.514	2041.49
1014.807	2038.32
1015.099	2009.4
1015.391	2035.16
1015.683	1965.78
1015.976	1967.14
1016.268	1965.33
1016.56	1929.62
1016.851	1940.92
1017.143	1924.65
1017.435	1908.38
1017.727	1898.89
1018.018	1895.73
1018.31	1861.83
1018.602	1859.57
1018.893	1830.19
1019.185	1807.59
1019.476	1817.99
1019.767	1809.63
1020.058	1799.46
1020.35	1776.86
1020.641	1790.87
1020.932	1736.86
1021.223	1760.82
1021.514	1721.72
1021.804	1736.18
1022.095	1693.47
1022.386	1703.42
1022.677	1679.46
1022.967	1673.36
1023.258	1668.39
1023.548	1664.32
1023.839	1646.69
1024.129	1632.68
1024.419	1603.76
1024.709	1609.18
1025	1629.52
1025.29	1613.25
1025.58	1577.54
1025.87	1593.81
1026.16	1536.64
1026.449	1556.3
1026.739	1552.69
1027.029	1526.7
1027.319	1504.55
1027.608	1484.66
1027.898	1510.65
1028.187	1486.47
1028.477	1489.86
1028.766	1456.19
1029.055	1447.6
1029.344	1479.24
1029.634	1436.76
1029.923	1419.58
1030.212	1386.36
1030.501	1425.68
1030.79	1397.66
1031.078	1375.51
1031.367	1370.09
1031.656	1366.02
1031.945	1357.44
1032.233	1352.92
1032.522	1358.57
1032.81	1332.13
1033.099	1330.77
1033.387	1307.27
1033.675	1324.22
1033.963	1289.87
1034.251	1278.12
1034.54	1267.95
1034.828	1251.45
1035.116	1255.07
1035.403	1239.47
1035.691	1231.11
1035.979	1248.06
1036.267	1209.64
1036.554	1246.93
1036.842	1205.35
1037.129	1191.79
1037.417	1192.47
1037.704	1168.97
1037.992	1165.8
1038.279	1150.44
1038.566	1125.13
1038.853	1125.13
1039.14	1125.13
