Data from plate_porcelain_FLMS001491_062.txt Node
Date: Tue Feb 07 11:19:41 GMT 2017
User: dcchb
Spectrometer: FLMS00149
Trigger mode: 0
Integration Time (sec): 2.000000E-2
Scans to average: 10
Electric dark correction enabled: true
Nonlinearity correction enabled: false
Boxcar width: 0
XAxis mode: Wavelengths
Number of Pixels in Spectrum: 2048
>>>>>Begin Spectral Data<<<<<
341.393	-6.98
341.776	-6.98
342.16	-6.98
342.543	-78.16
342.927	-54.43
343.31	-65.05
343.693	-75
344.077	-57.37
344.46	-61.44
344.843	-44.49
345.226	-44.26
345.61	-24.6
345.993	-18.28
346.376	-3.14
346.759	-15.79
347.142	19.46
347.525	51.33
347.908	66.24
348.291	71.89
348.674	93.36
349.057	107.14
349.44	146.01
349.823	125.9
350.206	196.41
350.588	223.53
350.971	249.97
351.354	271.21
351.737	264.43
352.119	296.74
352.502	299.23
352.884	323.86
353.267	336.74
353.65	335.61
354.032	353.47
354.414	354.6
354.797	339.23
355.179	372.45
355.562	367.02
355.944	362.96
356.326	363.41
356.709	371.32
357.091	387.14
357.473	407.7
357.855	388.49
358.238	386.23
358.62	374.26
359.002	376.06
359.384	393.24
359.766	397.31
360.148	371.09
360.53	389.62
360.912	374.48
361.294	386.46
361.676	389.17
362.057	396.85
362.439	381.94
362.821	385.1
363.203	385.78
363.584	389.85
363.966	400.92
364.348	385.1
364.729	409.73
365.111	375.61
365.493	384.65
365.874	398.44
366.256	393.46
366.637	383.97
367.019	376.74
367.4	381.94
367.781	402.73
368.163	401.15
368.544	398.44
368.925	417.42
369.306	424.88
369.688	401.15
370.069	391.66
370.45	405.89
370.831	408.38
371.212	405.22
371.593	435.27
371.974	411.32
372.355	410.64
372.736	406.8
373.117	415.61
373.498	441.37
373.879	442.28
374.26	430.98
374.641	435.27
375.021	401.83
375.402	412.9
375.783	450.64
376.163	477.76
376.544	468.49
376.925	457.87
377.305	474.14
377.686	461.03
378.066	443.18
378.447	471.2
378.827	462.16
379.208	463.52
379.588	475.72
379.968	479.34
380.349	485.44
380.729	480.24
381.109	492.44
381.489	519.34
381.87	496.96
382.25	532.44
382.63	528.6
383.01	527.92
383.39	527.02
383.77	519.11
384.15	540.35
384.53	535.83
384.91	540.35
385.29	539.9
385.67	545.78
386.049	582.61
386.429	569.96
386.809	576.28
387.189	585.78
387.568	590.52
387.948	580.58
388.328	617.19
388.707	593.91
389.087	611.76
389.466	600.92
389.846	619.45
390.225	642.5
390.605	630.97
390.984	629.16
391.363	653.12
391.743	655.15
392.122	669.62
392.501	665.77
392.881	678.88
393.26	691.76
393.639	695.83
394.018	696.73
394.397	696.96
394.776	696.51
395.155	710.97
395.534	733.34
395.913	741.25
396.292	751.19
396.671	769.73
397.05	747.58
397.429	755.94
397.808	778.54
398.186	794.58
398.565	788.48
398.944	795.49
399.323	799.56
399.701	805.43
400.08	836.16
400.458	839.78
400.837	824.64
401.215	856.5
401.594	850.4
401.972	884.98
402.351	883.17
402.729	862.83
403.107	877.75
403.486	885.43
403.864	913.9
404.242	922.72
404.62	906.9
404.999	955.03
405.377	953.9
405.755	956.39
406.133	969.04
406.511	959.33
406.889	988.25
407.267	1015.14
407.645	1017.18
408.023	1052.66
408.401	1047.46
408.779	1061.47
409.156	1087.91
409.534	1094.01
409.912	1110.06
410.29	1123.61
410.667	1131.07
411.045	1179.66
411.422	1180.79
411.8	1206.55
412.178	1245.87
412.555	1229.83
412.933	1273.67
413.31	1251.75
413.687	1269.83
414.065	1289.94
414.442	1277.96
414.819	1312.31
415.197	1350.95
415.574	1361.57
415.951	1376.94
416.328	1397.05
416.705	1401.12
417.082	1408.13
417.46	1460.1
417.837	1428.47
418.214	1454.45
418.591	1465.98
418.967	1497.62
419.344	1501.23
419.721	1541.68
420.098	1536.03
420.475	1591.4
420.852	1581.91
421.228	1595.92
421.605	1623.26
421.982	1660.1
422.358	1632.75
422.735	1668.46
423.111	1667.1
423.488	1737.16
423.864	1722.24
424.241	1737.16
424.617	1765.18
424.994	1784.39
425.37	1770.6
425.746	1765.86
426.123	1847.21
426.499	1853.54
426.875	1855.57
427.251	1905.29
427.627	1940.77
428.003	1947.1
428.379	1970.82
428.756	1975.57
429.132	2044.49
429.507	2100.76
429.883	2108
430.259	2150.25
430.635	2165.85
431.011	2168.33
431.387	2248.56
431.763	2245.62
432.138	2267.31
432.514	2317.48
432.89	2317.03
433.265	2394.99
433.641	2394.32
434.016	2410.36
434.392	2495.1
434.767	2523.35
435.143	2507.53
435.518	2587.53
435.894	2566.51
436.269	2616.46
436.644	2666.85
437.02	2715.21
437.395	2725.83
437.77	2749.33
438.145	2790.24
438.52	2826.39
438.895	2849.44
439.271	2847.41
439.646	2881.31
440.021	2936.9
440.395	2928.09
440.77	2911.59
441.145	2946.17
441.52	3034.98
441.895	3024.81
442.27	3061.19
442.645	3078.82
443.019	3104.13
443.394	3134.64
443.769	3190.9
444.143	3157.01
444.518	3217.34
444.892	3195.42
445.267	3234.97
445.641	3254.41
446.016	3307.06
446.39	3323.56
446.764	3354.06
447.139	3338.25
447.513	3406.49
447.887	3414.18
448.262	3423.67
448.636	3451.24
449.01	3517.9
449.384	3564.68
449.758	3555.64
450.132	3621.63
450.506	3613.49
450.88	3626.37
451.254	3670.89
451.628	3731
452.002	3776.88
452.376	3771.91
452.75	3867.27
453.123	3893.49
453.497	3955.63
453.871	3987.49
454.244	4037.21
454.618	4114.5
454.992	4130.54
455.365	4197.21
455.739	4281.05
456.112	4290.31
456.486	4344.09
456.859	4408.73
457.232	4493.02
457.606	4469.74
457.979	4536.18
458.352	4628.61
458.725	4704.31
459.099	4725.33
459.472	4852.56
459.845	4892.78
460.218	4916.28
460.591	4949.5
460.964	4993.8
461.337	5185.2
461.71	5217.07
462.083	5300.45
462.456	5252.55
462.829	5339.55
463.201	5452.99
463.574	5460.45
463.947	5606.21
464.32	5652.76
464.692	5709.93
465.065	5749.48
465.438	5885.52
465.81	5894.79
466.183	5978.85
466.555	6146.53
466.928	6210.71
467.3	6158.06
467.672	6257.04
468.045	6421.33
468.417	6505.17
468.789	6517.37
469.161	6573.41
469.534	6692.96
469.906	6895.89
470.278	6944.03
470.65	6979.96
471.022	7133.63
471.394	7275.32
471.766	7317.58
472.138	7393.51
472.51	7552.15
472.882	7701.29
473.253	7796.21
473.625	7947.16
473.997	8125.24
474.369	8126.37
474.74	8252.47
475.112	8391.9
475.484	8557.09
475.855	8686.81
476.227	8772
476.598	9069.85
476.97	9073.91
477.341	9222.38
477.713	9465.99
478.084	9536.5
478.455	9824.63
478.827	9845.42
479.198	10208.8
479.569	10162.25
479.94	10532.41
480.311	10591.61
480.682	10804.72
481.053	11029.57
481.424	11264.59
481.795	11307.08
482.166	11606.28
482.537	11713.17
482.908	11987.06
483.279	12083.1
483.65	12215.07
484.021	12540.04
484.391	12726.25
484.762	12822.74
485.133	12918.56
485.503	13078.1
485.874	13497.53
486.244	13534.59
486.615	13855.03
486.985	13921.02
487.356	14248.24
487.726	14403.94
488.097	14728
488.467	14741.56
488.837	15092.96
489.207	15256.8
489.578	15516.68
489.948	15619.05
490.318	15885.49
490.688	15908.76
491.058	16184.91
491.428	16348.75
491.798	16534.73
492.168	16795.07
492.538	16954.38
492.908	17142.63
493.278	17442.73
493.648	17435.5
494.017	17699.22
494.387	17922.04
494.757	18080.68
495.126	18268.7
495.496	18305.31
495.866	18477.28
496.235	18712.76
496.605	18907.1
496.974	18920.21
497.344	19236.81
497.713	19370.14
498.082	19451.49
498.452	19689.68
498.821	19801.54
499.19	19846.96
499.559	20098.26
499.928	20219.38
500.298	20338.7
500.667	20495.08
501.036	20634.29
501.405	20776.66
501.774	20906.6
502.143	21022.75
502.512	21109.53
502.88	21279.47
503.249	21415.74
503.618	21592
503.987	21704.32
504.356	21866.12
504.724	22015.72
505.093	22048.04
505.462	22294.13
505.83	22436.05
506.199	22590.17
506.567	22867.45
506.936	22864.51
507.304	23128.23
507.672	23361.9
508.041	23384.72
508.409	23516.47
508.777	23910.13
509.145	24024.48
509.514	24009.57
509.882	24122.78
510.25	24304.02
510.618	24553.05
510.986	24548.31
511.354	24925.93
511.722	25116.2
512.09	25301.74
512.458	25333.15
512.826	25540.15
513.193	25634.61
513.561	25831.89
513.929	26167.25
514.297	26402.95
514.664	26472.1
515.032	26653.11
515.4	26830.06
515.767	27021.92
516.135	27248.35
516.502	27083.38
516.869	27667.78
517.237	27623.26
517.604	27630.26
517.972	28152.51
518.339	28390.69
518.706	28463.01
519.073	28535.78
519.44	28827.52
519.808	29135.76
520.175	29100.96
520.542	29612.58
520.909	29745.46
521.276	29619.59
521.643	30123.98
522.009	30300.7
522.376	30519.23
522.743	30730.97
523.11	31103.17
523.477	31382.93
523.843	31513.78
524.21	31882.81
524.577	31978.85
524.943	32255.23
525.31	32437.14
525.676	32678.72
526.043	32890.01
526.409	32954.42
526.776	33493.84
527.142	33553.27
527.508	33762.3
527.874	34143.76
528.241	34259.92
528.607	34351.44
528.973	34764.09
529.339	34775.16
529.705	35222.6
530.071	35436.84
530.437	35637.06
530.803	35814
531.169	35995.47
531.535	35875.02
531.901	36273.65
532.267	36262.35
532.632	36556.36
532.998	36774.2
533.364	37017.36
533.73	37155.66
534.095	37494.18
534.461	37604.01
534.826	37842.65
535.192	37777.57
535.557	38201.06
535.923	38218.01
536.288	38478.11
536.653	38514.27
537.019	38558.11
537.384	38739.57
537.749	38807.6
538.114	38947.25
538.479	39029.28
538.845	39397.86
539.21	39469.95
539.575	39624.75
539.94	39716.72
540.305	39989.94
540.67	39972.76
541.034	40157.62
541.399	40285.97
541.764	40505.86
542.129	40626.08
542.494	40691.16
542.858	40891.38
543.223	40965.05
543.587	41078.5
543.952	41025.39
544.316	41406.17
544.681	41263.35
545.045	41613.85
545.41	41916.21
545.774	41910.11
546.138	42082.31
546.503	42091.8
546.867	42149.65
547.231	42595.07
547.595	42578.34
547.959	42652.01
548.324	42800.71
548.688	42851.56
549.052	43005.9
549.416	43082.51
549.779	43269.4
550.143	43325.44
550.507	43777.41
550.871	43785.77
551.235	43914.58
551.599	44364.74
551.962	44246.55
552.326	44371.52
552.689	44634.11
553.053	44382.36
553.417	44883.82
553.78	45291.27
554.143	45010.37
554.507	45258.05
554.87	45527.19
555.234	45814.87
555.597	45586.17
555.96	45881.31
556.323	46030.23
556.686	46068.42
557.05	46466.38
557.413	46503.66
557.776	46694.39
558.139	46914.73
558.502	47069.53
558.865	47082.18
559.228	47366.47
559.59	47353.36
559.953	47564.43
560.316	47940.69
560.679	47895.94
561.041	48274.92
561.404	48429.49
561.767	48427
562.129	48393.33
562.492	48936.82
562.854	48948.57
563.217	48943.6
563.579	49329.13
563.941	49517.37
564.304	49732.05
564.666	49953.74
565.028	49911.48
565.39	50026.74
565.753	50232.15
566.115	50382.21
566.477	50490.23
566.839	50554.86
567.201	50865.13
567.563	50919.59
567.925	51106.71
568.287	51141.28
568.648	51238.46
569.01	51379.24
569.372	51637.99
569.734	51422.63
570.095	51751.21
570.457	51948.04
570.819	51966.35
571.18	51919.12
571.542	52217.19
571.903	52289.27
572.265	52285.66
572.626	52455.37
572.987	52474.35
573.349	52638.42
573.71	52689.04
574.071	52818.53
574.432	52938.75
574.794	53038.86
575.155	53092.87
575.516	53015.81
575.877	53175.35
576.238	53244.96
576.599	53325.63
576.96	53339.87
577.32	53465.06
577.681	53527.21
578.042	53618.73
578.403	53633.19
578.763	53679.29
579.124	53681.33
579.485	53777.6
579.845	53858.95
580.206	53794.55
580.566	53841.55
580.927	53912.73
581.287	53981.43
581.648	53907.99
582.008	53981.89
582.368	53875.22
582.728	54106.85
583.089	54027.76
583.449	54050.58
583.809	54031.38
584.169	54105.27
584.529	54111.6
584.889	54241.09
585.249	54071.15
585.609	54051.26
585.969	54177.81
586.329	54096.91
586.688	54184.82
587.048	54168.55
587.408	54175.78
587.768	54212.39
588.127	54179.85
588.487	54073.18
588.846	54213.07
589.206	54093.07
589.565	54156.57
589.925	54318.83
590.284	54157.02
590.643	54284.48
591.003	54305.04
591.362	54369.45
591.721	54232.95
592.08	54322.67
592.44	54547.52
592.799	54437.24
593.158	54406.28
593.517	54384.59
593.876	54406.06
594.235	54450.35
594.593	54435.66
594.952	54535.09
595.311	54380.97
595.67	54514.08
596.029	54655.09
596.387	54649.66
596.746	54591.59
597.104	54484.25
597.463	54532.83
597.822	54683.11
598.18	54530.12
598.538	54573.28
598.897	54679.72
599.255	54508.65
599.613	54930.79
599.972	54718.82
600.33	54725.59
600.688	54658.25
601.046	54827.29
601.404	54938.24
601.762	54917.23
602.12	54981.18
602.478	54938.92
602.836	55021.41
603.194	54894.4
603.552	54871.35
603.91	54852.82
604.268	55020.05
604.625	55008.75
604.983	55077.22
605.341	55014.17
605.698	55175.98
606.056	55206.26
606.413	55023.67
606.771	55266.82
607.128	55239.71
607.485	55166.26
607.843	55165.13
608.2	55252.59
608.557	55408.51
608.914	55338.01
609.272	55462.98
609.629	55473.6
609.986	55494.61
610.343	55483.77
610.7	55634.27
611.057	55590.66
611.414	55559.25
611.771	55619.58
612.127	55718.11
612.484	55710.88
612.841	55822.29
613.198	55715.85
613.554	55739.81
613.911	55943.42
614.267	55898.45
614.624	55796.75
614.98	55845.11
615.337	56118.78
615.693	55979.8
616.05	55895.51
616.406	56105.9
616.762	56001.72
617.118	55969.18
617.475	56082.4
617.831	56097.99
618.187	56076.52
618.543	56086.69
618.899	56173.01
619.255	56242.39
619.611	56257.08
619.967	56260.92
620.323	56303.18
620.678	56161.72
621.034	56198.1
621.39	56189.51
621.746	56215.27
622.101	56447.13
622.457	56225.67
622.812	56270.64
623.168	56292.33
623.523	56371.2
623.879	56393.12
624.234	56216.4
624.589	56318.1
624.945	56313.35
625.3	56358.55
625.655	56321.94
626.01	56319.45
626.365	56370.98
626.72	56353.12
627.075	56325.55
627.43	56278.55
627.785	56169.4
628.14	56296.85
628.495	56329.17
628.85	56153.81
629.205	56102.51
629.559	56226.35
629.914	56071.1
630.269	56250.07
630.623	56050.98
630.978	55970.99
631.332	56170.98
631.687	56187.25
632.041	56025
632.396	56040.14
632.75	55991.78
633.104	55953.36
633.459	55811.44
633.813	55895.96
634.167	55882.85
634.521	55910.2
634.875	55878.33
635.229	55880.59
635.583	55730.99
635.937	55698.9
636.291	55692.8
636.645	55596.31
636.999	55599.7
637.352	55668.62
637.706	55500.72
638.06	55572.8
638.413	55549.08
638.767	55475.18
639.121	55572.13
639.474	55303.88
639.828	55408.74
640.181	55384.33
640.534	55365.35
640.888	55256.88
641.241	55145.47
641.594	55183.89
641.947	55235.41
642.301	55197.67
642.654	55101.18
643.007	55185.7
643.36	55091.46
643.713	55020.28
644.066	55125.36
644.419	54857.12
644.771	54735.31
645.124	54456.45
645.477	54446.51
645.83	54227.3
646.182	54002.22
646.535	54015.33
646.888	54087.65
647.24	53891.94
647.593	54114.09
647.945	53968.78
648.298	53823.02
648.65	53695.11
649.002	53577.83
649.355	53774.89
649.707	53733.3
650.059	53846.3
650.411	54138.04
650.763	54199.96
651.115	54499.61
651.467	54268.21
651.819	54299.17
652.171	54299.62
652.523	54242.67
652.875	54123.12
653.227	54061.88
653.578	54107.31
653.93	54125.84
654.282	54019.62
654.633	53926.97
654.985	53993.41
655.337	53981.89
655.688	53870.02
656.039	54046.97
656.391	53832.06
656.742	53930.14
657.094	53862.11
657.445	53981.43
657.796	53953.19
658.147	53872.06
658.498	53795.68
658.849	53810.59
659.2	53883.58
659.551	53659.63
659.902	53984.15
660.253	53711.61
660.604	53887.88
660.955	53707.77
661.306	53877.03
661.656	53705.51
662.007	53651.95
662.358	53617.83
662.708	53627.77
663.059	53613.53
663.409	53327.21
663.76	53617.15
664.11	53592.29
664.461	53645.4
664.811	53650.37
665.161	53559.75
665.511	53517.49
665.862	53483.59
666.212	53611.95
666.562	53604.04
666.912	53560.65
667.262	53489.02
667.612	53482.69
667.962	53566.53
668.312	53503.03
668.662	53606.75
669.011	53392.75
669.361	53432.3
669.711	53361.34
670.06	53413.77
670.41	53225.97
670.76	53234.11
671.109	53373.77
671.459	53266.42
671.808	53297.38
672.157	53274.33
672.507	53045.41
672.856	53146.88
673.205	53203.38
673.554	53286.08
673.904	53087.45
674.253	53217.61
674.602	53140.78
674.951	52707.57
675.3	52500.34
675.649	53107.56
675.998	53024.85
676.346	52966.77
676.695	53047.67
677.044	52833.89
677.393	52932.65
677.741	53032.31
678.09	52929.26
678.438	52851.07
678.787	52837.96
679.135	52916.6
679.484	52648.81
679.832	52843.61
680.181	52527.23
680.529	52618.08
680.877	52529.95
681.225	52393.23
681.573	52616.5
681.922	52483.17
682.27	52465.99
682.618	52451.08
682.966	52313
683.314	52273.91
683.661	52176.06
684.009	52062.16
684.357	51983.29
684.705	51942.62
685.053	51998.21
685.4	51904.88
685.748	51813.13
686.095	51736.97
686.443	51576.75
686.79	51562.74
687.138	51611.33
687.485	51569.75
687.832	51483.87
688.18	51664.88
688.527	51379.69
688.874	51305.8
689.221	51129.53
689.568	51013.83
689.915	50976.99
690.262	50997.33
690.609	50887.28
690.956	50698.58
691.303	50759.82
691.65	50525.03
691.997	50632.14
692.344	50333.17
692.69	50306.95
693.037	50375.65
693.383	50014.08
693.73	50183.79
694.077	50034.19
694.423	50030.13
694.769	49840.3
695.116	49865.38
695.462	49784.48
695.808	49575.22
696.155	49731.6
696.501	49385.62
696.847	49459.07
697.193	49119.64
697.539	49319.86
697.885	49098.4
698.231	48928.23
698.577	49029.93
698.923	48874.68
699.269	48630.61
699.614	48442.82
699.96	48446.89
700.306	48362.15
700.651	48282.15
700.997	48225.43
701.342	48163.73
701.688	47892.55
702.033	47860.46
702.379	47736.85
702.724	47634.93
703.069	47655.27
703.415	47399.91
703.76	47261.38
704.105	47329.41
704.45	47197.66
704.795	46871.34
705.14	46792.92
705.485	46871.34
705.83	46675.86
706.175	46722.87
706.52	46568.07
706.865	46353.16
707.209	46408.53
707.554	46309.32
707.899	46384.12
708.243	46071.13
708.588	46079.49
708.932	45792.04
709.277	45782.55
709.621	45907.07
709.966	45562.22
710.31	45706.17
710.654	45371.72
710.998	45423.92
711.342	45326.29
711.687	45242
712.031	45078.17
712.375	44920.2
712.719	44964.5
713.063	44927.89
713.407	44876.59
713.75	44724.05
714.094	44739.42
714.438	44490.84
714.782	44485.64
715.125	44346.43
715.469	44372.19
715.812	44054.46
716.156	44001.13
716.499	43949.38
716.843	43876.84
717.186	43682.95
717.53	43933.34
717.873	43964.3
718.216	43676.17
718.559	43563.85
718.902	43471.88
719.246	43604.08
719.589	43471.2
719.932	43251.77
720.275	43326.12
720.617	43088.16
720.96	43066.47
721.303	43118.22
721.646	42956.86
721.989	42690.88
722.331	42960.25
722.674	42753.71
723.016	42755.97
723.359	42591.68
723.701	42560.04
724.044	42411.12
724.386	42165.02
724.729	42351.23
725.071	42078.02
725.413	42052.71
725.755	42074.63
726.097	41920.28
726.439	41755.77
726.782	41725.03
727.124	42003.22
727.465	41719.84
727.807	41659.72
728.149	41561.87
728.491	41485.27
728.833	41633.96
729.175	41307.42
729.516	41349.68
729.858	41142
730.199	41174.09
730.541	41103.81
730.882	41044.37
731.224	41163.24
731.565	40975.45
731.906	40989.46
732.248	40978.61
732.589	40701.1
732.93	40643.93
733.271	40717.38
733.612	40846.64
733.953	40785.62
734.294	40478.51
734.635	40385.41
734.976	40494.78
735.317	40224.96
735.658	40222.7
735.999	40233.32
736.339	40064.29
736.68	40238.74
737.021	40098.18
737.361	39970.5
737.702	40121.23
738.042	39874.01
738.383	39660.68
738.723	39860
739.063	39742.49
739.404	39757.17
739.744	39503.17
740.084	39496.16
740.424	39510.4
740.764	39482.15
741.104	39431.08
741.444	39250.52
741.784	39017.31
742.124	39074.71
742.464	39042.17
742.804	38960.13
743.143	39015.27
743.483	39004.2
743.823	38622.74
744.162	38704.1
744.502	38798.78
744.841	38547.72
745.181	38508.17
745.52	38433.59
745.86	38479.47
746.199	38350.43
746.538	38395.63
746.877	38332.13
747.216	38273.37
747.556	38175.07
747.895	37996.54
748.234	37928.07
748.573	37908.86
748.911	37798.13
749.25	37900.95
749.589	37591.81
749.928	37658.02
750.267	37614.86
750.605	37493.28
750.944	37424.81
751.283	37283.57
751.621	37414.19
751.96	37087.41
752.298	37102.56
752.636	37119.05
752.975	36929.9
753.313	36744.6
753.651	36869.79
753.989	36734.2
754.327	36744.15
754.666	36484.94
755.004	36561.1
755.342	36530.14
755.679	36566.07
756.017	36217.16
756.355	36289.02
756.693	36162.02
757.031	36203.82
757.368	35894.9
757.706	35937.84
758.044	35768.35
758.381	35754.34
758.719	35791.4
759.056	35583.05
759.394	35511.41
759.731	35362.26
760.068	35190.29
760.405	35126.79
760.743	34985.55
761.08	35045.89
761.417	34703.07
761.754	34638.44
762.091	34612
762.428	34616.29
762.765	34393.7
763.102	34493.58
763.438	34177.89
763.775	33996.87
764.112	34060.83
764.449	33942.64
764.785	33814.96
765.122	33556.43
765.458	33515.98
765.795	33550.11
766.131	33442.09
766.467	33304.24
766.804	33163.45
767.14	32993.51
767.476	32882.1
767.812	32707.19
768.148	32740.41
768.485	32596.69
768.821	32480.98
769.157	32370.02
769.492	32307.65
769.828	32345.62
770.164	31968
770.5	32092.07
770.836	32008.9
771.171	31724.17
771.507	31674.68
771.842	31442.82
772.178	31464.06
772.513	31358.53
772.849	31424.96
773.184	31300.67
773.519	31238.75
773.855	30923.06
774.19	30776.17
774.525	30657.75
774.86	30596.06
775.195	30619.79
775.53	30486.23
775.865	30246.92
776.2	30152
776.535	30037.2
776.87	29946.36
777.205	29923.31
777.539	29619.59
777.874	29684.9
778.209	29500.5
778.543	29442.42
778.878	29292.37
779.212	29195.64
779.547	29010.34
779.881	29105.7
780.215	28837.69
780.55	28933.05
780.884	28763.79
781.218	28652.83
781.552	28752.27
781.886	28374.88
782.22	28221.66
782.554	28235.9
782.888	27955.45
783.222	27880.88
783.556	27806.08
783.889	27810.37
784.223	27623.48
784.557	27605.86
784.89	27637.49
785.224	27294.23
785.557	27244.51
785.891	27160.67
786.224	27063.72
786.558	26996.38
786.891	26842.94
787.224	26597.52
787.557	26488.15
787.891	26546
788.224	26470.29
788.557	26466.9
788.89	26332.22
789.223	26352.78
789.556	26077.31
789.888	25990.76
790.221	25939.46
790.554	25749.18
790.887	25734.27
791.219	25656.53
791.552	25639.13
791.884	25432.35
792.217	25391.45
792.549	25266.71
792.882	25106.26
793.214	25065.81
793.546	24998.92
793.879	25037.79
794.211	24828.98
794.543	24882.09
794.875	24677.8
795.207	24816.32
795.539	24558.03
795.871	24572.26
796.203	24303.34
796.535	24301.99
796.867	24141.54
797.198	24142.22
797.53	24045.95
797.862	23892.96
798.193	23937.48
798.525	23809.35
798.856	23883.24
799.188	23606.87
799.519	23443.93
799.85	23473.08
800.182	23453.87
800.513	23457.04
800.844	23267.21
801.175	23344.05
801.506	23255.24
801.837	23068.8
802.168	23074.68
802.499	22980.89
802.83	22796.94
803.161	22825.64
803.491	22819.09
803.822	22719.43
804.153	22549.27
804.483	22440.57
804.814	22340.23
805.145	22336.84
805.475	22365.32
805.805	22126
806.136	22265.66
806.466	22220.01
806.796	22128.26
807.126	21948.83
807.457	21956.06
807.787	21886.23
808.117	21802.39
808.447	21761.94
808.777	21814.14
809.107	21610.08
809.436	21561.72
809.766	21607.82
810.096	21565.56
810.426	21473.14
810.755	21460.03
811.085	21371.67
811.414	21288.51
811.744	21094.61
812.073	21071.79
812.403	21033.37
812.732	20810.78
813.061	20972.81
813.39	20761.52
813.719	20762.87
814.049	20951.12
814.378	20725.13
814.707	20598.13
815.036	20539.15
815.365	20500.51
815.693	20261.19
816.022	20458.25
816.351	20334.86
816.68	20255.09
817.008	20306.39
817.337	20130.12
817.665	20119.95
817.994	20086.51
818.322	20049.9
818.651	19943.46
818.979	19945.72
819.307	19914.98
819.636	19976
819.964	19750.24
820.292	19754.76
820.62	19761.77
820.948	19608.33
821.276	19723.58
821.604	19617.59
821.932	19679.06
822.259	19639.29
822.587	19657.59
822.915	19668.66
823.243	19734.42
823.57	19639.29
823.898	19581.89
824.225	19610.13
824.553	19523.36
824.88	19597.48
825.207	19642.9
825.535	19580.98
825.862	19688.55
826.189	19605.84
826.516	19670.47
826.843	19708.66
827.17	19691.26
827.497	19691.26
827.824	19530.14
828.151	19605.61
828.478	19581.66
828.805	19572.62
829.131	19454.88
829.458	19524.49
829.785	19464.83
830.111	19484.94
830.438	19594.54
830.764	19507.76
831.09	19521.55
831.417	19437.48
831.743	19526.75
832.069	19411.04
832.395	19349.12
832.722	19488.78
833.048	19363.13
833.374	19344.38
833.7	19270.71
834.026	19398.84
834.351	19384.15
834.677	19363.81
835.003	19359.75
835.329	19361.33
835.654	19174.21
835.98	19079.98
836.306	19151.16
836.631	19076.59
836.956	19156.59
837.282	19202.69
837.607	19036.14
837.932	19080.88
838.258	19096.25
838.583	18887.67
838.908	18852.19
839.233	18881.79
839.558	18809.03
839.883	18751.4
840.208	18684.96
840.533	18723.15
840.858	18727.67
841.182	18790.72
841.507	18700.33
841.832	18623.95
842.156	18584.85
842.481	18559.54
842.805	18489.03
843.13	18498.3
843.454	18404.29
843.778	18217.63
844.103	18179.44
844.427	18306.21
844.751	18165.43
845.075	18235.03
845.399	18154.13
845.723	18026.22
846.047	18035.03
846.371	17858.54
846.695	17892.67
847.019	17694.25
847.343	17647.47
847.666	17581.71
847.99	17399.8
848.313	17528.83
848.637	17391.21
848.96	17328.39
849.284	17273.25
849.607	17137.66
849.931	17129.97
850.254	16987.15
850.577	16946.02
850.9	16779.25
851.223	16755.75
851.546	16652.02
851.869	16630.1
852.192	16678.69
852.515	16530.22
852.838	16476.21
853.161	16477.34
853.483	16392.14
853.806	16285.7
854.129	16332.48
854.451	16373.16
854.774	16157.12
855.096	16096.33
855.419	16060.17
855.741	16128.87
856.063	15891.36
856.385	15860.4
856.708	15867.41
857.03	15738.15
857.352	15783.79
857.674	15695.66
857.996	15613.4
858.318	15542.44
858.64	15553.07
858.961	15500.41
859.283	15532.73
859.605	15466.29
859.926	15349.23
860.248	15337.03
860.57	15249.34
860.891	15339.74
861.212	15208.67
861.534	15176.35
861.855	15054.55
862.176	15137.26
862.498	15163.92
862.819	15020.2
863.14	15014.77
863.461	15078.28
863.782	14951.5
864.103	15015.9
864.424	14918.51
864.745	14989.69
865.065	14856.81
865.386	14723.03
865.707	14694.33
866.027	14737.95
866.348	14742.69
866.668	14772.3
866.989	14676.25
867.309	14647.55
867.63	14597.84
867.95	14631.28
868.27	14604.16
868.59	14612.53
868.91	14541.34
869.23	14565.75
869.55	14553.32
869.87	14536.82
870.19	14535.01
870.51	14523.04
870.83	14389.48
871.15	14284.85
871.469	14259.99
871.789	14325.53
872.109	14360.1
872.428	14142.03
872.748	14194.01
873.067	14171.18
873.386	14243.27
873.706	14131.18
874.025	14118.53
874.344	14101.35
874.663	14163.05
874.982	14050.28
875.301	14072.65
875.62	13994.24
875.939	13929.38
876.258	13962.82
876.577	13934.35
876.896	13893.22
877.214	13823.17
877.533	13909.04
877.852	13824.07
878.17	13845.09
878.489	13795.15
878.807	13782.72
879.125	13742.94
879.444	13801.47
879.762	13716.96
880.08	13765.32
880.398	13705.66
880.716	13767.58
881.034	13564.42
881.352	13705.2
881.67	13568.03
881.988	13630.63
882.306	13442.84
882.624	13440.58
882.941	13317.19
883.259	13310.64
883.577	13256.63
883.894	13297.98
884.212	13186.8
884.529	13248.72
884.846	13194.03
885.164	13176.18
885.481	13053.47
885.798	13208.27
886.115	13046.24
886.432	13084.2
886.75	12975.96
887.067	13015.28
887.383	12924.66
887.7	13007.37
888.017	12881.95
888.334	12948.16
888.651	12789.3
888.967	12839.46
889.284	12693.93
889.6	12770.09
889.917	12693.93
890.233	12651.9
890.55	12577.55
890.866	12518.12
891.182	12546.37
891.498	12463.88
891.815	12374.62
892.131	12402.87
892.447	12370.55
892.763	12298.01
893.079	12319.7
893.395	12291.46
893.71	12238.58
894.026	12244.68
894.342	12172.14
894.657	12137.11
894.973	12079.03
895.289	11995.42
895.604	12027.73
895.92	11894.18
896.235	11918.81
896.55	11915.65
896.865	11892.82
897.181	11796.55
897.496	11859.83
897.811	11696.22
898.126	11741.19
898.441	11700.06
898.756	11625.49
899.071	11585.71
899.386	11585.71
899.7	11524.7
900.015	11434.08
900.33	11390.24
900.644	11358.83
900.959	11356.79
901.273	11329.67
901.588	11267.08
901.902	11211.48
902.216	11133.97
902.531	11153.41
902.845	11057.59
903.159	11015.33
903.473	10970.36
903.787	10950.47
904.101	10828.22
904.415	10821.44
904.729	10812.17
905.042	10729.24
905.356	10767.65
905.67	10719.75
905.984	10689.69
906.297	10700.99
906.611	10554.1
906.924	10554.78
907.237	10536.7
907.551	10493.09
907.864	10469.13
908.177	10417.61
908.491	10384.61
908.804	10300.77
909.117	10280.21
909.43	10276.82
909.743	10126.32
910.056	10182.36
910.368	10059.65
910.681	10101.23
910.994	10052.87
911.307	9961.35
911.619	9933.55
911.932	9938.98
912.244	9850.84
912.557	9812.65
912.869	9815.36
913.181	9660.79
913.494	9767.46
913.806	9651.3
914.118	9694.24
914.43	9551.64
914.742	9547.8
915.054	9492.66
915.366	9467.12
915.678	9444.3
915.99	9373.12
916.302	9361.14
916.613	9276.85
916.925	9155.04
917.236	9261.25
917.548	9114.82
917.859	9197.07
918.171	9197.98
918.482	9084.76
918.794	9048.15
919.105	9037.53
919.416	8948.49
919.727	8928.61
920.038	8848.61
920.349	8767.03
920.66	8776.52
920.971	8798.21
921.282	8781.72
921.593	8658.56
921.903	8587.15
922.214	8579.92
922.525	8526.58
922.835	8483.42
923.146	8486.58
923.456	8412.91
923.767	8403.88
924.077	8399.13
924.387	8369.07
924.697	8286.14
925.008	8233.71
925.318	8167.95
925.628	8234.84
925.938	8173.15
926.248	8116.43
926.558	8044.56
926.867	8054.73
927.177	8059.03
927.487	7984.45
927.796	7915.3
928.106	7931.12
928.416	7841.4
928.725	7885.7
929.034	7808.64
929.344	7775.42
929.653	7760.73
929.962	7712.37
930.271	7636.89
930.581	7641.18
930.89	7579.94
931.199	7537.68
931.508	7532.49
931.817	7491.58
932.125	7487.06
932.434	7506.72
932.743	7370
933.051	7376.78
933.36	7298.59
933.669	7261.98
933.977	7263.79
934.286	7241.65
934.594	7183.12
934.902	7155.32
935.21	7113.97
935.519	7098.15
935.827	7059.5
936.135	7041.88
936.443	7017.7
936.751	6947.87
937.059	6939.05
937.367	6916.91
937.674	6871.03
937.982	6882.11
938.29	6882.11
938.597	6851.83
938.905	6840.75
939.213	6720.08
939.52	6732.73
939.827	6808.21
940.135	6650.25
940.442	6618.84
940.749	6635.56
941.056	6589.01
941.363	6535.45
941.67	6522.12
941.977	6496.58
942.284	6467.88
942.591	6429.46
942.898	6403.02
943.205	6456.58
943.511	6390.14
943.818	6360.54
944.125	6266.76
944.431	6205.74
944.738	6275.34
945.044	6150.15
945.35	6135.46
945.657	6180.66
945.963	6148.12
946.269	6090.72
946.575	6082.81
946.881	6048.68
947.187	5986.54
947.493	5945.41
947.799	5961
948.105	5919.87
948.41	5854.11
948.716	5872.42
949.022	5849.37
949.327	5818.41
949.633	5751.52
949.938	5763.72
950.244	5755.58
950.549	5749.71
950.854	5730.27
951.16	5662.03
951.465	5630.61
951.77	5642.14
952.075	5628.35
952.38	5603.95
952.685	5584.51
952.99	5484.86
953.294	5503.16
953.599	5440.11
953.904	5376.16
954.209	5437.4
954.513	5408.47
954.818	5370.28
955.122	5362.37
955.426	5310.4
955.731	5327.12
956.035	5289.61
956.339	5236.95
956.643	5243.28
956.948	5238.53
957.252	5204.64
957.556	5195.6
957.86	5099.33
958.163	5132.55
958.467	5067.69
958.771	5088.26
959.075	5052.78
959.378	5014.59
959.682	4985.21
959.985	4983.63
960.289	5001.93
960.592	4873.12
960.896	4900.24
961.199	4954.7
961.502	4872.89
961.805	4896.85
962.108	4798.77
962.411	4769.17
962.714	4731.43
963.017	4734.82
963.32	4745.21
963.623	4733.69
963.926	4720.36
964.228	4659.79
964.531	4741.82
964.833	4674.26
965.136	4660.02
965.438	4630.41
965.741	4596.97
966.043	4572.11
966.345	4565.11
966.648	4579.12
966.95	4533.47
967.252	4500.47
967.554	4468.16
967.856	4470.42
968.158	4435.17
968.46	4461.38
968.761	4409.18
969.063	4392.23
969.365	4351.33
969.666	4358.78
969.968	4315.62
970.269	4276.3
970.571	4285.34
970.872	4228.84
971.174	4228.84
971.475	4184.1
971.776	4200.14
972.077	4157.66
972.378	4148.85
972.679	4130.99
972.98	4072.69
973.281	4076.31
973.582	4065.91
973.883	4074.27
974.183	3989.53
974.484	4044.67
974.785	3962.86
975.085	4015.52
975.386	3983.2
975.686	3901.62
975.986	3939.81
976.287	3938
976.587	3873.82
976.887	3839.7
977.187	3871.11
977.487	3849.19
977.787	3803.54
978.087	3804.9
978.387	3773.94
978.687	3761.74
978.987	3776.88
979.286	3716.77
979.586	3722.64
979.885	3724.22
980.185	3698.69
980.484	3655.07
980.784	3665.69
981.083	3659.82
981.382	3643.77
981.682	3608.97
981.981	3562.19
982.28	3567.39
982.579	3549.31
982.878	3552.7
983.177	3532.59
983.475	3525.36
983.774	3482.65
984.073	3488.3
984.372	3475.87
984.67	3434.97
984.969	3416.44
985.267	3436.77
985.566	3421.18
985.864	3378.02
986.162	3353.61
986.461	3327.4
986.759	3350.22
987.057	3318.81
987.355	3311.58
987.653	3323.56
987.951	3291.02
988.249	3295.76
988.547	3221.41
988.844	3225.03
989.142	3256.67
989.44	3216.44
989.737	3180.28
990.035	3167.63
990.332	3174.41
990.63	3147.74
990.927	3121.75
991.224	3133.05
991.521	3085.37
991.819	3118.59
992.116	3104.58
992.413	3066.39
992.71	3024.36
993.006	3048.99
993.303	3006.05
993.6	3014.41
993.897	2943
994.193	2980.97
994.49	2911.59
994.787	2942.1
995.083	2933.06
995.379	2904.13
995.676	2875.43
995.972	2877.47
996.268	2850.8
996.565	2834.53
996.861	2825.49
997.157	2800.18
997.453	2766.06
997.749	2786.4
998.044	2789.79
998.34	2713.86
998.636	2723.8
998.932	2746.4
999.227	2673.86
999.523	2700.3
999.818	2683.8
1000.114	2641.54
1000.409	2660.3
1000.704	2661.2
1001	2642.67
1001.295	2632.95
1001.59	2613.52
1001.885	2623.24
1002.18	2585.27
1002.475	2567.87
1002.77	2507.76
1003.065	2546.4
1003.359	2510.92
1003.654	2496.91
1003.949	2497.59
1004.243	2434.31
1004.538	2480.19
1004.832	2426.18
1005.127	2430.25
1005.421	2415.56
1005.715	2384.15
1006.009	2372.62
1006.304	2376.46
1006.598	2342.11
1006.892	2326.29
1007.186	2324.71
1007.48	2293.75
1007.773	2291.04
1008.067	2290.59
1008.361	2279.06
1008.655	2264.83
1008.948	2240.2
1009.242	2255.79
1009.535	2213.08
1009.829	2189.58
1010.122	2203.13
1010.415	2158.39
1010.708	2157.26
1011.001	2152.97
1011.295	2112.29
1011.588	2143.02
1011.881	2130.37
1012.173	2097.83
1012.466	2094.44
1012.759	2087.21
1013.052	2084.72
1013.344	2042.46
1013.637	2040.65
1013.93	2024.61
1014.222	2018.73
1014.514	2033.87
1014.807	1974.21
1015.099	2004.27
1015.391	1977.83
1015.683	1966.08
1015.976	1946.19
1016.268	1961.78
1016.56	1926.31
1016.851	1940.09
1017.143	1899.19
1017.435	1902.58
1017.727	1872.75
1018.018	1858.06
1018.31	1832.07
1018.602	1835.23
1018.893	1855.8
1019.185	1800.21
1019.476	1801.79
1019.767	1790.04
1020.058	1816.7
1020.35	1734.9
1020.641	1783.03
1020.932	1745.75
1021.223	1740.1
1021.514	1704.16
1021.804	1696.93
1022.095	1668.46
1022.386	1664.62
1022.677	1680.89
1022.967	1664.84
1023.258	1656.03
1023.548	1606.31
1023.839	1614
1024.129	1608.8
1024.419	1590.27
1024.709	1605.64
1025	1592.53
1025.29	1583.94
1025.58	1585.98
1025.87	1524.28
1026.16	1544.39
1026.449	1536.71
1026.739	1544.62
1027.029	1506.88
1027.319	1500.78
1027.608	1507.79
1027.898	1504.62
1028.187	1458.75
1028.477	1468.01
1028.766	1459.42
1029.055	1446.32
1029.344	1438.86
1029.634	1405.42
1029.923	1412.65
1030.212	1430.5
1030.501	1403.38
1030.79	1387.56
1031.078	1385.75
1031.367	1353.89
1031.656	1338.52
1031.945	1357.28
1032.233	1358.41
1032.522	1336.04
1032.81	1336.72
1033.099	1304.17
1033.387	1305.08
1033.675	1284.51
1033.963	1274.12
1034.251	1259.43
1034.54	1251.29
1034.828	1245.87
1035.116	1222.37
1035.403	1240.67
1035.691	1242.93
1035.979	1210.39
1036.267	1198.19
1036.554	1205.42
1036.842	1166.55
1037.129	1194.12
1037.417	1181.24
1037.704	1174.23
1037.992	1192.77
1038.279	1136.04
1038.566	1146.89
1038.853	1146.89
1039.14	1146.89
