Data from plate_porcelain_FLMS001491_017.txt Node
Date: Tue Feb 07 11:18:52 GMT 2017
User: dcchb
Spectrometer: FLMS00149
Trigger mode: 0
Integration Time (sec): 2.000000E-2
Scans to average: 10
Electric dark correction enabled: true
Nonlinearity correction enabled: false
Boxcar width: 0
XAxis mode: Wavelengths
Number of Pixels in Spectrum: 2048
>>>>>Begin Spectral Data<<<<<
341.393	-9.66
341.776	-9.66
342.16	-9.66
342.543	-48.08
342.927	-75.87
343.31	-53.73
343.693	-72.48
344.077	-70.22
344.46	-59.38
344.843	-53.05
345.226	-37.68
345.61	-54.63
345.993	-15.31
346.376	-13.73
346.759	12.71
347.142	36.44
347.525	54.52
347.908	50.9
348.291	74.63
348.674	99.49
349.057	101.52
349.44	132.26
349.823	168.19
350.206	201.41
350.588	227.4
350.971	249.32
351.354	255.42
351.737	264.23
352.119	292.25
352.502	282.08
352.884	299.71
353.267	324.79
353.65	340.16
354.032	303.33
354.414	326.83
354.797	330.67
355.179	347.39
355.562	362.53
355.944	361.85
356.326	367.5
356.709	347.62
357.091	358.01
357.473	375.87
357.855	399.59
358.238	345.58
358.62	393.94
359.002	368.41
359.384	381.52
359.766	366.15
360.148	401.85
360.53	374.96
360.912	380.39
361.294	384.23
361.676	380.39
362.057	369.31
362.439	404.79
362.821	377.45
363.203	393.94
363.584	381.52
363.966	361.4
364.348	368.18
364.729	384.23
365.111	369.09
365.493	375.64
365.874	397.33
366.256	377.22
366.637	391.91
367.019	376.32
367.4	383.1
367.781	383.78
368.163	400.05
368.544	389.88
368.925	383.32
369.306	400.5
369.688	376.77
370.069	402.53
370.45	389.2
370.831	419.48
371.212	381.06
371.593	394.17
371.974	413.6
372.355	395.98
372.736	419.71
373.117	402.98
373.498	386.71
373.879	400.5
374.26	374.96
374.641	400.72
375.021	411.57
375.402	411.8
375.783	441.85
376.163	430.55
376.544	445.69
376.925	459.48
377.305	452.25
377.686	445.47
378.066	439.14
378.447	457.9
378.827	455.86
379.208	475.52
379.588	467.39
379.968	487.95
380.349	453.15
380.729	446.82
381.109	471.46
381.489	456.99
381.87	485.92
382.25	466.03
382.63	502.87
383.01	481.63
383.39	499.93
383.77	514.85
384.15	509.2
384.53	521.85
384.91	493.83
385.29	520.95
385.67	525.01
386.049	527.05
386.429	532.25
386.809	527.05
387.189	546.26
387.568	557.78
387.948	579.7
388.328	558.01
388.707	567.27
389.087	572.24
389.466	570.44
389.846	596.2
390.225	583.54
390.605	588.29
390.984	614.28
391.363	609.76
391.743	615.86
392.122	611.57
392.501	619.02
392.881	645.92
393.26	659.93
393.639	647.95
394.018	635.29
394.397	649.08
394.776	670.1
395.155	677.55
395.534	676.2
395.913	680.26
396.292	704.22
396.671	725.24
397.05	709.87
397.429	718.68
397.808	725.91
398.186	730.66
398.565	725.24
398.944	733.6
399.323	721.62
399.701	753.71
400.08	767.27
400.458	784.44
400.837	810.43
401.215	783.76
401.594	782.18
401.972	788.06
402.351	802.75
402.729	801.17
403.107	835.51
403.486	849.75
403.864	848.17
404.242	856.53
404.62	884.78
404.999	870.99
405.377	853.82
405.755	860.82
406.133	898.56
406.511	914.16
406.889	933.82
407.267	911.44
407.645	936.3
408.023	971.1
408.401	963.65
408.779	971.1
409.156	997.54
409.534	998
409.912	1021.27
410.29	1054.94
410.667	1060.14
411.045	1082.74
411.422	1048.39
411.8	1080.03
412.178	1103.08
412.555	1128.16
412.933	1121.83
413.31	1134.04
413.687	1162.29
414.065	1174.94
414.442	1180.82
414.819	1207.26
415.197	1204.54
415.574	1244.77
415.951	1218.33
416.328	1269.18
416.705	1286.35
417.082	1290.19
417.46	1276.86
417.837	1314.15
418.214	1331.32
418.591	1302.85
418.967	1344.65
419.344	1341.72
419.721	1402.51
420.098	1372.45
420.475	1418.55
420.852	1419.23
421.228	1409.74
421.605	1434.6
421.982	1461.26
422.358	1485.22
422.735	1498.32
423.111	1493.8
423.488	1520.02
423.864	1519.11
424.241	1575.16
424.617	1568.6
424.994	1624.65
425.37	1588.49
425.746	1620.58
426.123	1628.94
426.499	1651.31
426.875	1665.55
427.251	1685.89
427.627	1720.46
428.003	1746.45
428.379	1786.22
428.756	1800.46
429.132	1799.11
429.507	1843.62
429.883	1854.92
430.259	1871.42
430.635	1878.65
431.011	1912.55
431.387	1981.25
431.763	2000.23
432.138	2005.65
432.514	2050.4
432.89	2063.73
433.265	2105.76
433.641	2141.47
434.016	2181.47
434.392	2177.17
434.767	2200.9
435.143	2188.93
435.518	2211.3
435.894	2284.97
436.269	2303.05
436.644	2332.88
437.02	2362.71
437.395	2348.47
437.77	2435.92
438.145	2421.24
438.52	2468.47
438.895	2496.71
439.271	2478.18
439.646	2552.53
440.021	2522.25
440.395	2552.98
440.77	2573.77
441.145	2611.06
441.52	2649.03
441.895	2672.53
442.27	2691.96
442.645	2679.08
443.019	2738.97
443.394	2719.53
443.769	2770.15
444.143	2748.23
444.518	2776.03
444.892	2818.74
445.267	2795.24
445.641	2867.78
446.016	2863.48
446.39	2891.73
446.764	2903.48
447.139	2912.07
447.513	2971.5
447.887	2988.68
448.262	2952.75
448.636	3017.38
449.01	3033.88
449.384	3090.14
449.758	3092.4
450.132	3108.22
450.506	3124.27
450.88	3180.99
451.254	3201.55
451.628	3240.88
452.002	3296.24
452.376	3278.16
452.75	3331.27
453.123	3401.55
453.497	3437.48
453.871	3453.75
454.244	3565.84
454.618	3510.47
454.992	3575.78
455.365	3610.81
455.739	3670.92
456.112	3760.41
456.486	3747.08
456.859	3806.51
457.232	3843.8
457.606	3911.59
457.979	3900.29
458.352	4029.33
458.725	4058.25
459.099	4102.32
459.472	4170.79
459.845	4201.3
460.218	4218.48
460.591	4282.88
460.964	4293.05
461.337	4372.14
461.71	4432.48
462.083	4545.7
462.456	4527.4
462.829	4547.73
463.201	4620.27
463.574	4669.31
463.947	4735.98
464.32	4811.23
464.692	4929.19
465.065	4939.36
465.438	4992.02
465.81	5035.18
466.183	5077.89
466.555	5223.87
466.928	5260.03
467.3	5287.83
467.672	5355.17
468.045	5520.36
468.417	5535.96
468.789	5591.55
469.161	5617.31
469.534	5737.53
469.906	5840.58
470.278	5898.43
470.65	5978.2
471.022	6093.23
471.394	6180.01
471.766	6286.22
472.138	6351.98
472.51	6371.41
472.882	6517.63
473.253	6598.98
473.625	6697.51
473.997	6903.83
474.369	6919.65
474.74	7030.15
475.112	7132.98
475.484	7215.23
475.855	7306.98
476.227	7396.25
476.598	7681.44
476.97	7722.57
477.341	7894.09
477.713	8004.59
478.084	8019.51
478.455	8269.44
478.827	8340.63
479.198	8607.97
479.569	8606.16
479.94	8862.2
480.311	8875.3
480.682	9140.16
481.053	9312.13
481.424	9468.73
481.795	9536.08
482.166	9715.96
482.537	9845.22
482.908	10058.78
483.279	10100.81
483.65	10350.29
484.021	10619.44
484.391	10707.12
484.762	10761.36
485.133	10901.92
485.503	11030.73
485.874	11245.64
486.244	11410.6
486.615	11605.18
486.985	11696.92
487.356	11924.94
487.726	12094.88
488.097	12316.79
488.467	12371.71
488.837	12666.84
489.207	12747.74
489.578	12946.83
489.948	13091.92
490.318	13294.17
490.688	13303.89
491.058	13639.02
491.428	13789.52
491.798	13845.57
492.168	14210.3
492.538	14281.26
492.908	14361.71
493.278	14597.86
493.648	14631.76
494.017	14792.89
494.387	14942.49
494.757	15085.08
495.126	15290.5
495.496	15349.94
495.866	15480.78
496.235	15643.04
496.605	15859.98
496.974	15837.38
497.344	16061.1
497.713	16176.81
498.082	16265.39
498.452	16427.42
498.821	16535.89
499.19	16538.38
499.559	16795.77
499.928	16923.45
500.298	16954.41
500.667	17285.25
501.036	17153.73
501.405	17399.37
501.774	17372.71
502.143	17539.71
502.512	17641.63
502.88	17863.77
503.249	17986.25
503.618	18042.52
503.987	18185.79
504.356	18216.3
504.724	18346.69
505.093	18467.59
505.462	18483.86
505.83	18809.28
506.199	18874.36
506.567	19079.78
506.936	19113.23
507.304	19326.33
507.672	19464.18
508.041	19444.52
508.409	19727.45
508.777	19895.35
509.145	19982.81
509.514	20113.88
509.882	20212.41
510.25	20260.09
510.618	20497.82
510.986	20625.5
511.354	20747.76
511.722	20971.48
512.09	21112.27
512.458	21168.54
512.826	21324.02
513.193	21512.71
513.561	21542.31
513.929	21862.08
514.297	22059.82
514.664	22126.48
515.032	22182.52
515.4	22454.38
515.767	22510.2
516.135	22649.18
516.502	22676.07
516.869	23085.33
517.237	23224.08
517.604	23131.88
517.972	23439.44
518.339	23683.05
518.706	23661.36
519.073	23839.66
519.44	23996.04
519.808	24302.92
520.175	24410.94
520.542	24771.16
520.909	24821.32
521.276	24818.61
521.643	25140.41
522.009	25273.52
522.376	25461.53
522.743	25562.32
523.11	25856.78
523.477	26178.58
523.843	26241.85
524.21	26542.64
524.577	26819.69
524.943	26862.63
525.31	27099.68
525.676	27318.21
526.043	27602.04
526.409	27623.74
526.776	28012.88
527.142	28002.03
527.508	28247.9
527.874	28484.28
528.241	28729.02
528.607	28745.74
528.973	29041.33
529.339	29090.59
529.705	29248.78
530.071	29488.09
530.437	29712.27
530.803	29883.11
531.169	29989.32
531.535	30103.22
531.901	30194.97
532.267	30267.28
532.632	30621.17
532.998	30682.19
533.364	30916.76
533.73	31020.03
534.095	31438.55
534.461	31373.24
534.826	31609.85
535.192	31815.94
535.557	32045.99
535.923	32080.79
536.288	32124.86
536.653	32346.78
537.019	32227.01
537.384	32483.95
537.749	32604.17
538.114	32607.56
538.479	32805.07
538.845	32831.74
539.21	32883.94
539.575	33080.99
539.94	33196.25
540.305	33533.86
540.67	33343.59
541.034	33590.36
541.399	33698.38
541.764	33961.2
542.129	34025.83
542.494	34107.41
542.858	34180.17
543.223	34265.14
543.587	34525.25
543.952	34397.12
544.316	34859.7
544.681	34750.33
545.045	34930.66
545.41	35074.84
545.774	35054.05
546.138	35130.66
546.503	35376.75
546.867	35423.31
547.231	35741.94
547.595	35711.66
547.959	35884.31
548.324	35896.74
548.688	36062.16
549.052	36170.63
549.416	36452.21
549.779	36530.62
550.143	36587.57
550.507	36789.37
550.871	36876.38
551.235	37005.64
551.599	37219.87
551.962	37357.04
552.326	37362.24
552.689	37650.37
553.053	37548.45
553.417	37699.18
553.78	38047.64
554.143	37962
554.507	38090.13
554.87	38409.22
555.234	38663.9
555.597	38491.93
555.96	38782.99
556.323	38880.39
556.686	39078.35
557.05	39246.48
557.413	39274.28
557.776	39554.72
558.139	39679.92
558.502	39866.8
558.865	39992.9
559.228	40286.68
559.59	40486.22
559.953	40310.86
560.316	40820.45
560.679	40864.07
561.041	41132.99
561.404	41293.43
561.767	41515.58
562.129	41674.67
562.492	41908.79
562.854	41883.02
563.217	41917.37
563.579	42094.99
563.941	42454.31
564.304	42486.4
564.666	42875.31
565.028	42932.71
565.39	43227.39
565.753	43354.62
566.115	43396.66
566.477	43580.61
566.839	43692.47
567.201	44150.31
567.563	43954.16
567.925	44396.63
568.287	44385.1
568.648	44555.04
569.01	44703.29
569.372	45084.07
569.734	44905.99
570.095	45253.1
570.457	45294.68
570.819	45444.96
571.18	45392.99
571.542	45639.31
571.903	45657.84
572.265	45906.42
572.626	45902.13
572.987	46074.78
573.349	46290.36
573.71	46320.19
574.071	46533.97
574.432	46687.19
574.794	46847.64
575.155	46795.21
575.516	46717.02
575.877	46995.66
576.238	47023.9
576.599	47269.32
576.96	47239.49
577.32	47261.19
577.681	47312.71
578.042	47512.03
578.403	47447.62
578.763	47532.82
579.124	47734.85
579.485	47771.46
579.845	47933.94
580.206	47854.39
580.566	47857.33
580.927	47816.65
581.287	48060.26
581.648	47974.16
582.008	48061.84
582.368	48012.13
582.728	47939.81
583.089	48118.34
583.449	47926.25
583.809	48159.69
584.169	48283.31
584.529	48090.77
584.889	48379.35
585.249	48168.96
585.609	48148.62
585.969	48370.54
586.329	48213.03
586.688	48286.02
587.048	48303.65
587.408	48077.89
587.768	48244.21
588.127	48109.07
588.487	48134.61
588.846	48396.07
589.206	48136.19
589.565	48265
589.925	48378.45
590.284	48259.58
590.643	48391.33
591.003	48393.13
591.362	48568.5
591.721	48480.59
592.08	48455.96
592.44	48572.11
592.799	48552.68
593.158	48483.53
593.517	48499.35
593.876	48494.6
594.235	48472.45
594.593	48432.46
594.952	48729.4
595.311	48484.43
595.67	48622.51
596.029	48768.49
596.387	48845.33
596.746	48783.63
597.104	48660.25
597.463	48719.23
597.822	48823.41
598.18	48772.79
598.538	48656.4
598.897	48940.24
599.255	48618.44
599.613	49257.52
599.972	48839.68
600.33	49147.92
600.688	48834.48
601.046	49066.56
601.404	49273.11
601.762	49092.55
602.12	49171.19
602.478	49255.48
602.836	49227.69
603.194	49214.58
603.552	49127.8
603.91	49193.34
604.268	49234.47
604.625	49167.13
604.983	49318.08
605.341	49193.11
605.698	49388.81
606.056	49506.78
606.413	49486.89
606.771	49578.87
607.128	49595.59
607.485	49457.97
607.843	49558.98
608.2	49661.58
608.557	49756.26
608.914	49707
609.272	49930.27
609.629	49804.17
609.986	50003.26
610.343	49816.37
610.7	50089.81
611.057	50009.36
611.414	49912.42
611.771	50016.14
612.127	50184.73
612.484	50106.99
612.841	50277.83
613.198	50050.72
613.554	50128
613.911	50396.92
614.267	50343.37
614.624	50212.07
614.98	50387.43
615.337	50544.94
615.693	50584.72
616.05	50373.65
616.406	50826.06
616.762	50556.92
617.118	50571.38
617.475	50603.25
617.831	50667.65
618.187	50634.43
618.543	50676.46
618.899	50949.23
619.255	50762.11
619.611	50656.58
619.967	50852.28
620.323	50921.66
620.678	50729.8
621.034	50675.33
621.39	50785.16
621.746	50647.76
622.101	51099.73
622.457	50835.1
622.812	50756.91
623.168	51001.43
623.523	50975.89
623.879	51011.6
624.234	50791.72
624.589	50942.45
624.945	50936.12
625.3	50956.68
625.655	50977.93
626.01	50986.74
626.365	50964.82
626.72	50883.46
627.075	50882.79
627.43	50888.89
627.785	50881.88
628.14	50841.88
628.495	50891.15
628.85	50811.83
629.205	50719.4
629.559	50885.05
629.914	50694.99
630.269	50750.81
630.623	50649.12
630.978	50449.8
631.332	50723.24
631.687	50654.09
632.041	50582
632.396	50653.41
632.75	50425.62
633.104	50522.8
633.459	50399.64
633.813	50375
634.167	50389.47
634.521	50360.99
634.875	50352.4
635.229	50323.93
635.583	50113.09
635.937	50161.9
636.291	50101.11
636.645	50108.34
636.999	49934.34
637.352	50095.91
637.706	49850.5
638.06	50038.97
638.413	49770.73
638.767	49793.55
639.121	49880.55
639.474	49659.99
639.828	49593.33
640.181	49737.51
640.534	49652.08
640.888	49588.13
641.241	49462.26
641.594	49465.65
641.947	49436.27
642.301	49452.32
642.654	49355.37
643.007	49444.41
643.36	49360.11
643.713	49259.33
644.066	49197.63
644.419	49076.28
644.771	48733.69
645.124	48369.41
645.477	48356.3
645.83	48082.41
646.182	47968.51
646.535	47936.65
646.888	47945.01
647.24	47749.54
647.593	48022.52
647.945	47927.84
648.298	47636.32
648.65	47585.25
649.002	47626.15
649.355	47639.48
649.707	47556.09
650.059	47674.96
650.411	48103.42
650.763	48060.04
651.115	48361.04
651.467	48356.3
651.819	48332.57
652.171	48172.12
652.523	48091.67
652.875	48028.62
653.227	47919.47
653.578	48077.21
653.93	47949.76
654.282	47799.03
654.633	47806.03
654.985	47801.74
655.337	47803.77
655.688	47813.71
656.039	47964.9
656.391	47559.48
656.742	47643.55
657.094	47699.37
657.445	47747.5
657.796	47623.44
658.147	47628.18
658.498	47677.22
658.849	47672.7
659.2	47692.36
659.551	47516.77
659.902	47649.65
660.253	47496.66
660.604	47537.34
660.955	47213.05
661.306	47492.82
661.656	47372.82
662.007	47364.69
662.358	47250.11
662.708	47247.63
663.059	47386.38
663.409	47128.08
663.76	47343.67
664.11	47332.15
664.461	47292.82
664.811	47301.41
665.161	47274.97
665.511	47161.3
665.862	47237.23
666.212	47301.86
666.562	47271.36
666.912	47169.21
667.262	47078.37
667.612	47161.53
667.962	47185.93
668.312	47085.37
668.662	47307.51
669.011	47232.26
669.361	47089.21
669.711	47067.75
670.06	47038.59
670.41	47038.59
670.76	46812.61
671.109	46961.76
671.459	46900.52
671.808	46622.79
672.157	46812.84
672.507	46608.55
672.856	46568.78
673.205	46577.14
673.554	46752.05
673.904	46553.41
674.253	46774.87
674.602	46527.65
674.951	46077.49
675.3	46002.69
675.649	46629.56
675.998	46381.21
676.346	46508.89
676.695	46606.29
677.044	46254.66
677.393	46405.62
677.741	46424.6
678.09	46354.77
678.438	46157.03
678.787	46278.39
679.135	46251.5
679.484	46023.03
679.832	46293.08
680.181	45826.87
680.529	46129.47
680.877	45867.78
681.225	45807.67
681.573	45989.58
681.922	45749.81
682.27	45574
682.618	45651.96
682.966	45547.33
683.314	45607.44
683.661	45503.27
684.009	45290.39
684.357	45375.59
684.705	45181.02
685.053	45238.19
685.4	45114.12
685.748	45038.42
686.095	45100.57
686.443	44643.4
686.79	44758.2
687.138	44643.85
687.485	44751.87
687.832	44552.56
688.18	44654.25
688.527	44315.95
688.874	44366.35
689.221	44239.35
689.568	44105.34
689.915	43972.01
690.262	44033.47
690.609	43977.88
690.956	43713.48
691.303	43793.48
691.65	43504.9
691.997	43503.32
692.344	43249.77
692.69	43208.41
693.037	43236.43
693.383	42955.31
693.73	42912.83
694.077	42684.13
694.423	42742.21
694.769	42721.19
695.116	42579.95
695.462	42555.55
695.808	42316.46
696.155	42398.49
696.501	42193.07
696.847	41906.53
697.193	41796.25
697.539	41937.94
697.885	41895
698.231	41603.71
698.577	41588.79
698.923	41578.85
699.269	41282.13
699.614	41262.02
699.96	41138.64
700.306	41086.66
700.651	40916.04
700.997	40981.13
701.342	40720.12
701.688	40676.73
702.033	40664.75
702.379	40481.93
702.724	40446.45
703.069	40536.62
703.415	39900.93
703.76	40120.13
704.105	39956.29
704.45	39742.51
704.795	39715.62
705.14	39535.29
705.485	39451.22
705.83	39391.79
706.175	39473.37
706.52	39253.26
706.865	39225.24
707.209	39213.71
707.554	39084.45
707.899	39150.67
708.243	38818.92
708.588	39042.19
708.932	38594.52
709.277	38604.24
709.621	38453.06
709.966	38354.08
710.31	38410.35
710.654	38022.11
710.998	38146.85
711.342	38039.51
711.687	37903.47
712.031	37849
712.375	37682.46
712.719	37741.44
713.063	37748.67
713.407	37794.77
713.75	37549.13
714.094	37538.73
714.438	37322.92
714.782	37439.07
715.125	37195.01
715.469	37298.28
715.812	36966.77
716.156	36910.72
716.499	36921.57
716.843	36958.41
717.186	36647.23
717.53	36787.56
717.873	36718.41
718.216	36655.82
718.559	36578.53
718.902	36288.37
719.246	36420.79
719.589	36266.45
719.932	36179.22
720.275	36060.13
720.617	35989.84
720.96	35887.93
721.303	36038.88
721.646	35945.33
721.989	35713.24
722.331	35722.96
722.674	35683.64
723.016	35623.98
723.359	35633.7
723.701	35532.46
724.044	35340.6
724.386	35160.71
724.729	35338.56
725.071	35379.47
725.413	35222.41
725.755	35142.41
726.097	34961.85
726.439	34780.61
726.782	34861.74
727.124	35065.8
727.465	34838.01
727.807	34809.76
728.149	34716.66
728.491	34555.08
728.833	34758.24
729.175	34582.2
729.516	34433.05
729.858	34307.18
730.199	34420.62
730.541	34463.33
730.882	34226.95
731.224	34394.18
731.565	34082.55
731.906	34132.94
732.248	34178.82
732.589	33976.34
732.93	33850.92
733.271	33902.22
733.612	33878.71
733.953	33900.18
734.294	33793.29
734.635	33656.8
734.976	33776.12
735.317	33499.06
735.658	33617.7
735.999	33526.63
736.339	33408.22
736.68	33455.9
737.021	33242.35
737.361	33062.92
737.702	33257.04
738.042	33135.68
738.383	33099.75
738.723	33071.28
739.063	33020.66
739.404	32981.11
739.744	32930.72
740.084	32717.61
740.424	32840.55
740.764	32718.07
741.104	32906.99
741.444	32575.25
741.784	32625.41
742.124	32516.49
742.464	32574.12
742.804	32406.21
743.143	32461.58
743.483	32373.22
743.823	32215.03
744.162	32136.84
744.502	32306.33
744.841	32057.74
745.181	32064.07
745.52	32024.3
745.86	32016.84
746.199	31913.57
746.538	31863.63
746.877	31862.72
747.216	31932.1
747.556	31809.84
747.895	31680.35
748.234	31519.68
748.573	31469.74
748.911	31511.77
749.25	31472.9
749.589	31371.21
749.928	31330.31
750.267	31212.57
750.605	31195.62
750.944	31066.81
751.283	31027.26
751.621	31048.28
751.96	31003.76
752.298	30853.71
752.636	30827.49
752.975	30624.11
753.313	30557.45
753.651	30713.6
753.989	30567.39
754.327	30422.08
754.666	30315.42
755.004	30451.01
755.342	30398.81
755.679	30255.08
756.017	30008.31
756.355	30120.62
756.693	29982.54
757.031	30056.44
757.368	29880.85
757.706	29849.89
758.044	29790.91
758.381	29689.9
758.719	29561.99
759.056	29629.33
759.394	29379.62
759.731	29248.78
760.068	29204.71
760.405	29210.81
760.743	29126.07
761.08	29160.65
761.417	28988.67
761.754	28834.1
762.091	28766.53
762.428	28717.04
762.765	28607.67
763.102	28733.76
763.438	28437.73
763.775	28283.15
764.112	28217.85
764.449	28272.76
764.785	28211.74
765.122	28003.84
765.458	27954.58
765.795	27800
766.131	27803.85
766.467	27663.06
766.804	27481.37
767.14	27442.27
767.476	27337.19
767.812	27276.63
768.148	27349.85
768.485	27174.94
768.821	27070.53
769.157	27036.41
769.492	26724.55
769.828	26870.54
770.164	26521.17
770.5	26477.55
770.836	26451.11
771.171	26399.14
771.507	26277.78
771.842	26069.2
772.178	26027.62
772.513	26040.5
772.849	25910.11
773.184	25806.16
773.519	25748.08
773.855	25605.94
774.19	25549.44
774.525	25447.3
774.86	25425.15
775.195	25384.93
775.53	25252.73
775.865	25096.12
776.2	25010.25
776.535	24815.22
776.87	24755.11
777.205	24651.61
777.539	24566.87
777.874	24505.63
778.209	24460.2
778.543	24254.56
778.878	24228.8
779.212	24127.11
779.547	24006.88
779.881	24034
780.215	23899.77
780.55	23935.92
780.884	23798.53
781.218	23760.56
781.552	23663.39
781.886	23488.25
782.22	23427.01
782.554	23291.87
782.888	23145.21
783.222	23031.99
783.556	22956.97
783.889	22870.19
784.223	22726.24
784.557	22670.65
784.89	22777.76
785.224	22617.09
785.557	22487.6
785.891	22460.71
786.224	22323.09
786.558	22425.91
786.891	22145.24
787.224	22070.21
787.557	22001.06
787.891	22007.39
788.224	21900.27
788.557	21888.07
788.89	21773.27
789.223	21759.03
789.556	21534.18
789.888	21548.19
790.221	21479.49
790.554	21302.77
790.887	21393.62
791.219	21160.18
791.552	21200.4
791.884	21032.72
792.217	20953.18
792.549	21015.55
792.882	20781.66
793.214	20698.27
793.546	20763.8
793.879	20725.84
794.211	20410.59
794.543	20512.51
794.875	20444.49
795.207	20468.44
795.539	20293.08
795.871	20358.62
796.203	20051.28
796.535	20041.11
796.867	20003.82
797.198	19955.01
797.53	20013.99
797.862	19675.7
798.193	19900.32
798.525	19766.32
798.856	19802.02
799.188	19564.74
799.519	19455.14
799.85	19363.39
800.182	19364.97
800.513	19395.93
800.844	19236.84
801.175	19270.06
801.506	19230.74
801.837	19083.17
802.168	18999.78
802.499	18993.68
802.83	18886.34
803.161	18874.81
803.491	18735.16
803.822	18792.78
804.153	18707.59
804.483	18581.49
804.814	18487.93
805.145	18486.12
805.475	18499.68
805.805	18370.87
806.136	18540.59
806.466	18356.64
806.796	18296.98
807.126	18142.4
807.457	18076.19
807.787	18088.85
808.117	17893.6
808.447	17926.59
808.777	18015.4
809.107	17957.78
809.436	17807.72
809.766	17843.66
810.096	17704.45
810.426	17635.75
810.755	17690.21
811.085	17664
811.414	17658.58
811.744	17374.74
812.073	17371.35
812.403	17406.38
812.732	17356.21
813.061	17281.18
813.39	17149.89
813.719	17225.37
814.049	17159.38
814.378	17057.46
814.707	16980.85
815.036	17036.9
815.365	16927.97
815.693	16815.66
816.022	16810.91
816.351	16744.7
816.68	16686.85
817.008	16787.64
817.337	16576.8
817.665	16583.12
817.994	16571.82
818.322	16619.28
818.651	16481.88
818.979	16463.58
819.307	16594.42
819.636	16438.72
819.964	16360.53
820.292	16452.05
820.62	16357.59
820.948	16345.84
821.276	16355.33
821.604	16283.92
821.932	16291.83
822.259	16266.07
822.587	16283.47
822.915	16215.68
823.243	16173.42
823.57	16114.89
823.898	16189.24
824.225	16124.38
824.553	16137.49
824.88	16163.7
825.207	16079.63
825.535	16117.37
825.862	16165.28
826.189	16122.12
826.516	16153.08
826.843	16179.52
827.17	16179.74
827.497	16201.89
827.824	16151.95
828.151	16221.55
828.478	16066.3
828.805	16174.77
829.131	16036.7
829.458	16064.27
829.785	15994.44
830.111	16036.7
830.438	16165.28
830.764	16060.43
831.09	16047.54
831.417	16018.62
831.743	16072.18
832.069	16013.19
832.395	15903.59
832.722	16040.76
833.048	15927.77
833.374	15971.39
833.7	15929.36
834.026	16008.68
834.351	15992.86
834.677	15916.25
835.003	15966.87
835.329	15940.88
835.654	15816.82
835.98	15770.04
836.306	15810.49
836.631	15848.23
836.956	15818.17
837.282	15819.53
837.607	15718.51
837.932	15775.23
838.258	15616.14
838.583	15619.08
838.908	15439.42
839.233	15646.42
839.558	15537.28
839.883	15515.13
840.208	15483.27
840.533	15471.97
840.858	15481.68
841.182	15376.6
841.507	15446.88
841.832	15384.28
842.156	15321.24
842.481	15360.78
842.805	15255.02
843.13	15235.81
843.454	15157.17
843.778	15079.43
844.103	15105.65
844.427	15115.37
844.751	15016.38
845.075	14959.89
845.399	14977.97
845.723	14867.24
846.047	14929.61
846.371	14713.12
846.695	14766.9
847.019	14661.37
847.343	14711.76
847.666	14423.18
847.99	14469.96
848.313	14417.98
848.637	14316.97
848.96	14278.55
849.284	14334.59
849.607	14144.77
849.931	14091.66
850.254	14053.7
850.577	13944.1
850.9	13882.63
851.223	13881.05
851.546	13832.91
851.869	13709.53
852.192	13842.4
852.515	13678.11
852.838	13623.88
853.161	13585.91
853.483	13579.59
853.806	13475.63
854.129	13357.45
854.451	13389.31
854.774	13362.87
855.096	13359.71
855.419	13258.69
855.741	13186.38
856.063	13146.83
856.385	13090.33
856.708	13014.63
857.03	13107.06
857.352	13055.08
857.674	12981.64
857.996	12883.79
858.318	12819.83
858.64	12891.24
858.961	12763.34
859.283	12754.52
859.605	12695.77
859.926	12685.37
860.248	12597.69
860.57	12696.9
860.891	12607.41
861.212	12571.48
861.534	12511.14
861.855	12483.34
862.176	12527.86
862.498	12521.99
862.819	12522.67
863.14	12423.46
863.461	12408.32
863.782	12303.24
864.103	12364.25
864.424	12266.17
864.745	12239.06
865.065	12165.84
865.386	12233.86
865.707	12217.81
866.027	12224.37
866.348	12221.66
866.668	12225.72
866.989	12078.83
867.309	12030.25
867.63	12051.27
867.95	12017.82
868.27	12020.76
868.59	12001.32
868.91	11977.59
869.23	11902.12
869.55	11944.83
869.87	12012.17
870.19	11978.72
870.51	11941.89
870.83	11908.9
871.15	11750.48
871.469	11752.97
871.789	11884.26
872.109	11824.6
872.428	11755.23
872.748	11793.42
873.067	11729.92
873.386	11784.83
873.706	11696.47
874.025	11626.64
874.344	11546.87
874.663	11603.14
874.982	11596.36
875.301	11643.82
875.62	11565.4
875.939	11515.46
876.258	11556.81
876.577	11439.53
876.896	11433.88
877.214	11471.85
877.533	11375.12
877.852	11410.38
878.17	11406.99
878.489	11478.85
878.807	11383.26
879.125	11273.66
879.444	11336.48
879.762	11230.27
880.08	11303.26
880.398	11178.07
880.716	11210.61
881.034	11070.5
881.352	11198.86
881.67	11107.56
881.988	11226.65
882.306	11109.82
882.624	11094
882.941	10999.32
883.259	10956.15
883.577	10964.29
883.894	10920.45
884.212	11004.29
884.529	10891.07
884.846	10958.64
885.164	10949.83
885.481	10849.94
885.798	10836.61
886.115	10822.14
886.432	10823.05
886.75	10731.53
887.067	10732.43
887.383	10644.3
887.7	10718.42
888.017	10675.71
888.334	10670.28
888.651	10608.82
888.967	10603.62
889.284	10518.88
889.6	10468.26
889.917	10436.62
890.233	10448.82
890.55	10384.64
890.866	10391.65
891.182	10394.36
891.498	10249.96
891.815	10245.66
892.131	10209.96
892.447	10225.1
892.763	10160.47
893.079	10161.6
893.395	10079.34
893.71	10032.79
894.026	10105.1
894.342	10049.06
894.657	10033.92
894.973	9993.47
895.289	9982.17
895.604	9916.63
895.92	9832.57
896.235	9829.63
896.55	9814.26
896.865	9796.86
897.181	9747.37
897.496	9759.57
897.811	9628.28
898.126	9645
898.441	9637.54
898.756	9629.41
899.071	9467.15
899.386	9575.62
899.7	9443.88
900.015	9452.69
900.33	9341.73
900.644	9338.57
900.959	9386.25
901.273	9363.65
901.588	9228.74
901.902	9247.04
902.216	9212.7
902.531	9115.3
902.845	9177.89
903.159	9120.72
903.473	9021.29
903.787	9033.27
904.101	8948.75
904.415	9022.42
904.729	8904
905.042	8871.69
905.356	8948.3
905.67	8870.33
905.984	8843.67
906.297	8771.13
906.611	8755.08
906.924	8705.14
907.237	8651.13
907.551	8683.44
907.864	8625.59
908.177	8551.7
908.491	8558.7
908.804	8502.21
909.117	8459.72
909.43	8407.29
909.743	8388.31
910.056	8344.7
910.368	8329.1
910.681	8255.43
910.994	8259.27
911.307	8194.19
911.619	8152.84
911.932	8182.89
912.244	8104.48
912.557	8101.54
912.869	8029.45
913.181	8032.16
913.494	7963.01
913.806	7905.39
914.118	7883.69
914.43	7926.18
914.742	7864.03
915.054	7814.77
915.366	7748.78
915.678	7781.32
915.99	7733.19
916.302	7668.78
916.613	7622.68
916.925	7570.93
917.236	7658.39
917.548	7500.65
917.859	7534.55
918.171	7458.84
918.482	7440.99
918.794	7381.33
919.105	7379.75
919.416	7338.17
919.727	7349.02
920.038	7278.74
920.349	7284.38
920.66	7170.94
920.971	7187.66
921.282	7243.71
921.593	7140.66
921.903	7060.21
922.214	7060.66
922.525	7073.99
922.835	6974.79
923.146	6998.97
923.456	6967.33
923.767	6940.21
924.077	6907.22
924.387	6875.58
924.697	6778.64
925.008	6839.2
925.318	6810.05
925.628	6758.07
925.938	6715.59
926.248	6684.17
926.558	6631.75
926.867	6644.4
927.177	6626.1
927.487	6559.66
927.796	6561.69
928.106	6527.57
928.416	6439.44
928.725	6452.09
929.034	6434.01
929.344	6424.75
929.653	6365.31
929.962	6330.29
930.271	6315.14
930.581	6283.73
930.89	6273.56
931.199	6205.77
931.508	6173.45
931.817	6187.46
932.125	6187.24
932.434	6152.66
932.743	6074.47
933.051	6063.63
933.36	6041.03
933.669	5971.88
933.977	5975.04
934.286	5937.53
934.594	5935.04
934.902	5918.77
935.21	5935.95
935.519	5882.84
935.827	5846.46
936.135	5824.08
936.443	5790.86
936.751	5772.56
937.059	5768.49
937.367	5700.7
937.674	5710.64
937.982	5728.49
938.29	5626.8
938.597	5610.76
938.905	5593.36
939.213	5522.85
939.52	5560.81
939.827	5491.44
940.135	5467.26
940.442	5436.07
940.749	5458.67
941.056	5403.98
941.363	5391.1
941.67	5326.92
941.977	5334.15
942.284	5316.98
942.591	5289.18
942.898	5224.78
943.205	5256.42
943.511	5214.83
943.818	5226.36
944.125	5152.92
944.431	5151.79
944.738	5122.18
945.044	5064.78
945.35	5135.51
945.657	5030.66
945.963	5056.42
946.269	4980.72
946.575	5025.91
946.881	5003.54
947.187	4973.26
947.493	4939.14
947.799	4898.68
948.105	4926.93
948.41	4851.91
948.716	4852.36
949.022	4834.05
949.327	4842.42
949.633	4796.09
949.938	4757.22
950.244	4766.94
950.549	4795.86
950.854	4712.93
951.16	4689.2
951.465	4686.49
951.77	4662.76
952.075	4615.3
952.38	4584.79
952.685	4580.73
952.99	4535.53
953.294	4560.84
953.599	4550.22
953.904	4507.06
954.209	4462.54
954.513	4470.67
954.818	4426.15
955.122	4445.36
955.426	4426.15
955.731	4426.61
956.035	4322.43
956.339	4328.53
956.643	4308.42
956.948	4327.85
957.252	4304.58
957.556	4279.94
957.86	4283.11
958.163	4219.83
958.467	4180.51
958.771	4181.64
959.075	4135.31
959.378	4159.5
959.682	4132.83
959.985	4106.39
960.289	4106.16
960.592	4089.21
960.896	4100.29
961.199	4039.5
961.502	4050.8
961.805	4030.91
962.108	3947.52
962.411	3970.35
962.714	3917.02
963.017	3971.25
963.32	3935.77
963.623	3883.12
963.926	3847.86
964.228	3877.24
964.531	3820.3
964.833	3794.76
965.136	3768.32
965.438	3834.98
965.741	3765.61
966.043	3752.27
966.345	3780.52
966.648	3748.88
966.95	3722.67
967.252	3664.14
967.554	3685.84
967.856	3639.28
968.158	3625.5
968.46	3648.77
968.761	3633.41
969.063	3632.73
969.365	3592.96
969.666	3561.54
969.968	3555.22
970.269	3537.82
970.571	3508.89
970.872	3500.98
971.174	3511.15
971.475	3466.18
971.776	3468.21
972.077	3430.02
972.378	3439.06
972.679	3433.64
972.98	3439.97
973.281	3399.52
973.582	3402.9
973.883	3358.16
974.183	3367.65
974.484	3354.54
974.785	3292.17
975.085	3277.94
975.386	3324.04
975.686	3281.55
975.986	3223.47
976.287	3246.3
976.587	3238.39
976.887	3225.96
977.187	3184.15
977.487	3213.31
977.787	3114.32
978.087	3141.67
978.387	3164.72
978.687	3171.05
978.987	3126.98
979.286	3080.65
979.586	3092.18
979.885	3078.85
980.185	3024.38
980.484	3048.34
980.784	3016.02
981.083	3024.84
981.382	2989.13
981.682	2998.85
981.981	2995.23
982.28	2936.93
982.579	2925.18
982.878	2934.44
983.177	2950.49
983.475	2900.77
983.774	2907.55
984.073	2877.27
984.372	2835.91
984.67	2858.51
984.969	2861.9
985.267	2840.21
985.566	2810.38
985.864	2814.22
986.162	2781.45
986.461	2791.4
986.759	2774.67
987.057	2763.6
987.355	2728.35
987.653	2736.93
987.951	2726.54
988.249	2674.56
988.547	2700.1
988.844	2716.37
989.142	2683.15
989.44	2633.66
989.737	2636.6
990.035	2640.21
990.332	2622.81
990.63	2587.33
990.927	2564.06
991.224	2563.6
991.521	2558.41
991.819	2554.11
992.116	2563.15
992.413	2550.5
992.71	2513.66
993.006	2525.87
993.303	2484.96
993.6	2465.08
993.897	2466.88
994.193	2480.9
994.49	2435.47
994.787	2441.8
995.083	2395.02
995.379	2423.04
995.676	2383.95
995.972	2403.38
996.268	2400.45
996.565	2370.84
996.861	2355.93
997.157	2319.32
997.453	2333.55
997.749	2333.33
998.044	2303.95
998.34	2295.82
998.636	2277.28
998.932	2256.27
999.227	2226.89
999.523	2246.33
999.818	2220.79
1000.114	2238.19
1000.409	2228.25
1000.704	2174.69
1001	2182.6
1001.295	2157.29
1001.59	2200.45
1001.885	2174.01
1002.18	2134.92
1002.475	2137.85
1002.77	2117.29
1003.065	2079.32
1003.359	2112.32
1003.654	2094.01
1003.949	2097.63
1004.243	2063.51
1004.538	2060.79
1004.832	2044.75
1005.127	2020.12
1005.421	1993.22
1005.715	1976.05
1006.009	2002.26
1006.304	1967.01
1006.598	1942.83
1006.892	1967.24
1007.186	1925.2
1007.48	1935.6
1007.773	1927.46
1008.067	1907.12
1008.361	1903.51
1008.655	1909.16
1008.948	1894.7
1009.242	1837.3
1009.535	1902.15
1009.829	1833.23
1010.122	1817.86
1010.415	1831.87
1010.708	1836.62
1011.001	1827.35
1011.295	1799.11
1011.588	1781.03
1011.881	1775.38
1012.173	1773.8
1012.466	1764.08
1012.759	1761.14
1013.052	1767.69
1013.344	1750.97
1013.637	1678.66
1013.93	1719.56
1014.222	1690.18
1014.514	1693.35
1014.807	1663.97
1015.099	1670.07
1015.391	1666
1015.683	1635.72
1015.976	1614.03
1016.268	1630.52
1016.56	1626
1016.851	1646.57
1017.143	1623.06
1017.435	1592.11
1017.727	1557.98
1018.018	1520.24
1018.31	1534.71
1018.602	1552.78
1018.893	1546.23
1019.185	1517.76
1019.476	1507.36
1019.767	1499.9
1020.058	1513.24
1020.35	1535.38
1020.641	1463.07
1020.932	1480.24
1021.223	1441.6
1021.514	1445.89
1021.804	1430.53
1022.095	1423.75
1022.386	1404.99
1022.677	1384.88
1022.967	1384.43
1023.258	1358.44
1023.548	1364.54
1023.839	1360.25
1024.129	1367.03
1024.419	1351.89
1024.709	1348.5
1025	1357.31
1025.29	1317.99
1025.58	1306.24
1025.87	1317.54
1026.16	1308.95
1026.449	1304.65
1026.739	1265.33
1027.029	1302.17
1027.319	1253.58
1027.608	1238.89
1027.898	1260.36
1028.187	1263.07
1028.477	1228.95
1028.766	1231.66
1029.055	1226.46
1029.344	1238.67
1029.634	1204.32
1029.923	1158.67
1030.212	1174.26
1030.501	1211.1
1030.79	1173.13
1031.078	1174.49
1031.367	1139.91
1031.656	1151.89
1031.945	1139.91
1032.233	1117.99
1032.522	1124.32
1032.81	1079.8
1033.099	1120.93
1033.387	1098.56
1033.675	1076.41
1033.963	1053.59
1034.251	1098.33
1034.54	1070.54
1034.828	1068.73
1035.116	1077.54
1035.403	1046.13
1035.691	1047.71
1035.979	1047.71
1036.267	1042.51
1036.554	1032.8
1036.842	1010.88
1037.129	1019.46
1037.417	981.27
1037.704	1009.3
1037.992	1006.81
1038.279	987.6
1038.566	972.69
1038.853	972.69
1039.14	972.69
