Data from plate_porcelain_FLMS001491_054.txt Node
Date: Tue Feb 07 11:19:32 GMT 2017
User: dcchb
Spectrometer: FLMS00149
Trigger mode: 0
Integration Time (sec): 2.000000E-2
Scans to average: 10
Electric dark correction enabled: true
Nonlinearity correction enabled: false
Boxcar width: 0
XAxis mode: Wavelengths
Number of Pixels in Spectrum: 2048
>>>>>Begin Spectral Data<<<<<
341.393	-10.68
341.776	-10.68
342.16	-10.68
342.543	-43.67
342.927	-72.82
343.31	-69.66
343.693	-87.51
344.077	-60.39
344.46	-49.77
344.843	-54.74
345.226	-41.64
345.61	-36.67
345.993	1.53
346.376	-2.77
346.759	-12.03
347.142	15.99
347.525	50.79
347.908	76.33
348.291	69.55
348.674	77.68
349.057	123.33
349.44	123.78
349.823	141.63
350.206	168.53
350.588	226.38
350.971	240.16
351.354	261.63
351.737	267.06
352.119	297.56
352.502	298.24
352.884	317
353.267	319.48
353.65	337.56
354.032	343.66
354.414	361.06
354.797	363.1
355.179	355.64
355.562	349.09
355.944	371.01
356.326	369.2
356.709	384.57
357.091	380.5
357.473	401.06
357.855	392.48
358.238	403.55
358.62	404.23
359.002	409.2
359.384	394.28
359.766	409.2
360.148	393.38
360.53	390.67
360.912	385.7
361.294	386.37
361.676	415.75
362.057	416.43
362.439	412.81
362.821	390.22
363.203	385.92
363.584	399.03
363.966	384.11
364.348	389.99
364.729	407.84
365.111	400.84
365.493	394.28
365.874	385.47
366.256	405.36
366.637	400.61
367.019	397
367.4	383.89
367.781	377.79
368.163	427.73
368.544	387.05
368.925	403.77
369.306	407.84
369.688	409.42
370.069	412.14
370.45	397.9
370.831	393.61
371.212	423.89
371.593	426.15
371.974	393.15
372.355	442.42
372.736	443.1
373.117	448.75
373.498	422.76
373.879	435.64
374.26	417.11
374.641	400.16
375.021	437.67
375.402	434.73
375.783	455.98
376.163	474.06
376.544	462.53
376.925	467.05
377.305	460.5
377.686	465.24
378.066	458.24
378.447	465.47
378.827	474.28
379.208	482.42
379.588	492.36
379.968	476.77
380.349	492.81
380.729	482.42
381.109	478.57
381.489	505.47
381.87	510.66
382.25	517.9
382.63	495.52
383.01	522.64
383.39	538.23
383.77	520.38
384.15	533.26
384.53	552.25
384.91	539.14
385.29	545.47
385.67	579.14
386.049	544.79
386.429	578.01
386.809	556.09
387.189	602.64
387.568	574.39
387.948	582.53
388.328	597.44
388.707	618.46
389.087	606.71
389.466	638.8
389.846	650.1
390.225	645.8
390.605	632.92
390.984	662.75
391.363	638.12
391.743	643.32
392.122	652.81
392.501	679.25
392.881	681.73
393.26	711.79
393.639	706.59
394.018	692.81
394.397	687.38
394.776	710.21
395.155	758.57
395.534	745.01
395.913	743.2
396.292	747.95
396.671	763.77
397.05	760.6
397.429	777.32
397.808	795.85
398.186	771.22
398.565	784.56
398.944	822.29
399.323	849.41
399.701	815.97
400.08	828.17
400.458	855.29
400.837	836.76
401.215	857.55
401.594	875.85
401.972	844.22
402.351	889.86
402.729	881.05
403.107	892.8
403.486	928.28
403.864	916.08
404.242	927.6
404.62	936.42
404.999	956.75
405.377	973.48
405.755	965.12
406.133	996.3
406.511	1000.6
406.889	1003.98
407.267	1033.14
407.645	1012.12
408.023	1064.77
408.401	1072.23
408.779	1091.21
409.156	1102.97
409.534	1102.06
409.912	1146.13
410.29	1160.59
410.667	1171.89
411.045	1185.45
411.422	1187.71
411.8	1235.39
412.178	1223.41
412.555	1242.17
412.933	1269.29
413.31	1274.26
413.687	1296.18
414.065	1320.13
414.442	1354.48
414.819	1374.6
415.197	1320.36
415.574	1371.66
415.951	1407.36
416.328	1424.09
416.705	1421.83
417.082	1399.45
417.46	1420.92
417.837	1443.3
418.214	1455.27
418.591	1500.47
418.967	1507.25
419.344	1525.55
419.721	1544.54
420.098	1568.72
420.475	1573.91
420.852	1571.43
421.228	1623.63
421.605	1610.3
421.982	1639.22
422.358	1663.18
422.735	1667.24
423.111	1698.43
423.488	1723.74
423.864	1737.98
424.241	1770.29
424.617	1777.52
424.994	1798.54
425.37	1811.42
425.746	1846
426.123	1837.64
426.499	1880.12
426.875	1901.14
427.251	1929.38
427.627	1989.5
428.003	1972.77
428.379	2027.69
428.756	2042.15
429.132	2096.61
429.507	2131.41
429.883	2130.96
430.259	2186.33
430.635	2192.43
431.011	2205.31
431.387	2250.51
431.763	2288.92
432.138	2301.8
432.514	2362.59
432.89	2375.25
433.265	2426.77
433.641	2422.25
434.016	2459.54
434.392	2509.71
434.767	2544.28
435.143	2551.06
435.518	2588.58
435.894	2620.67
436.269	2617.73
436.644	2666.99
437.02	2707.67
437.395	2723.71
437.77	2770.94
438.145	2787.67
438.52	2851.39
438.895	2875.12
439.271	2859.53
439.646	2942.92
440.021	2954.44
440.395	3016.36
440.77	2981.33
441.145	3024.72
441.52	3099.97
441.895	3088.9
442.27	3092.29
442.645	3103.59
443.019	3179.29
443.394	3155.57
443.769	3231.04
444.143	3226.3
444.518	3307.43
444.892	3259.07
445.267	3287.09
445.641	3358.95
446.016	3379.06
446.39	3384.04
446.764	3380.65
447.139	3408.22
447.513	3466.75
447.887	3479.17
448.262	3465.62
448.636	3532.28
449.01	3527.76
449.384	3590.81
449.758	3637.59
450.132	3679.17
450.506	3717.81
450.88	3723.01
451.254	3762.78
451.628	3791.71
452.002	3877.58
452.376	3838.26
452.75	3889.33
453.123	3942.21
453.497	4027.41
453.871	4074.19
454.244	4115.54
454.618	4152.15
454.992	4255.88
455.365	4225.37
455.739	4378.36
456.112	4401.41
456.486	4422.65
456.859	4439.83
457.232	4516.43
457.606	4580.39
457.979	4619.71
458.352	4730.44
458.725	4765.24
459.099	4809.08
459.472	4927.95
459.845	4948.97
460.218	5029.19
460.591	5052.24
460.964	5077.55
461.337	5206.81
461.71	5295.62
462.083	5321.61
462.456	5363.42
462.829	5395.28
463.201	5511.89
463.574	5606.35
463.947	5661.72
464.32	5776.74
464.692	5766.12
465.065	5826.01
465.438	5971.76
465.81	6007.24
466.183	6093.12
466.555	6270.97
466.928	6258.08
467.3	6254.02
467.672	6373.34
468.045	6492.43
468.417	6548.25
468.789	6638.64
469.161	6749.6
469.534	6842.93
469.906	6952.08
470.278	7050.38
470.65	7124.73
471.022	7274.78
471.394	7400.2
471.766	7470.48
472.138	7507.54
472.51	7689.91
472.882	7898.49
473.253	7982.11
473.625	8060.75
473.997	8268.2
474.369	8234.98
474.74	8427.97
475.112	8531.92
475.484	8625.03
475.855	8841.29
476.227	8938.47
476.598	9193.15
476.97	9233.37
477.341	9505
477.713	9641.05
478.084	9681.95
478.455	9992
478.827	10081.03
479.198	10376.85
479.569	10356.51
479.94	10611.42
480.311	10735.25
480.682	10985.64
481.053	11190.84
481.424	11440.32
481.795	11614.1
482.166	11790.59
482.537	11857.26
482.908	12221.09
483.279	12275.78
483.65	12577.92
484.021	12751.25
484.391	12884.12
484.762	13013.16
485.133	13236.21
485.503	13376.31
485.874	13657.21
486.244	13834.16
486.615	14014.49
486.985	14193.02
487.356	14555.94
487.726	14645.43
488.097	14930.62
488.467	15051.53
488.837	15271.18
489.207	15498.07
489.578	15770.15
489.948	15885.18
490.318	16135.34
490.688	16140.99
491.058	16393.86
491.428	16589.79
491.798	16841.53
492.168	17173.96
492.538	17314.52
492.908	17533.72
493.278	17724.9
493.648	17704.56
494.017	18112.24
494.387	18198.11
494.757	18362.62
495.126	18621.37
495.496	18574.6
495.866	18812.78
496.235	19125.54
496.605	19137.07
496.974	19316.95
497.344	19570.95
497.713	19622.7
498.082	19778.41
498.452	20031.28
498.821	20169.36
499.19	20239.41
499.559	20431.95
499.928	20597.59
500.298	20698.38
500.667	20899.73
501.036	20887.08
501.405	21127.3
501.774	21261.08
502.143	21468.98
502.512	21589.66
502.88	21849.54
503.249	21857.45
503.618	21967.5
503.987	21963.43
504.356	22272.8
504.724	22348.28
505.093	22448.17
505.462	22551.21
505.83	22758.22
506.199	22980.81
506.567	23319.1
506.936	23263.51
507.304	23609.94
507.672	23708.25
508.041	23709.6
508.409	23994.34
508.777	24157.73
509.145	24423.71
509.514	24366.08
509.882	24654.66
510.25	24697.15
510.618	24830.25
510.986	24983.47
511.354	25347.98
511.722	25546.62
512.09	25683.11
512.458	25727.4
512.826	26119.93
513.193	26137.56
513.561	26327.16
513.929	26600.15
514.297	26863.42
514.664	27131.66
515.032	27189.96
515.4	27440.35
515.767	27481.93
516.135	27678.09
516.502	27458.2
516.869	28089.15
517.237	28167.56
517.604	28198.52
517.972	28636.03
518.339	28820.65
518.706	28892.07
519.073	28987.66
519.44	29348.1
519.808	29618.37
520.175	29623.35
520.542	29975.2
520.909	30224.69
521.276	30180.39
521.643	30585.13
522.009	30853.82
522.376	31113.93
522.743	31104.89
523.11	31471.88
523.477	31939.89
523.843	32080.68
524.21	32426.89
524.577	32557.73
524.943	32857.84
525.31	33075.01
525.676	33307.32
526.043	33517.03
526.409	33613.3
526.776	34144.13
527.142	34157.92
527.508	34539.83
527.874	34816.43
528.241	34868.63
528.607	35017.78
528.973	35323.76
529.339	35402.85
529.705	35675.39
530.071	35973.46
530.437	36188.82
530.803	36556.95
531.169	36582.48
531.535	36658.41
531.901	36742.25
532.267	36954.23
532.632	37220.43
532.998	37403.71
533.364	37768.22
533.73	37896.35
534.095	38059.96
534.461	38198.94
534.826	38316.22
535.192	38518.93
535.557	38929.32
535.923	38836.89
536.288	38976.09
536.653	39272.58
537.019	39172.7
537.384	39365.91
537.749	39511
538.114	39567.26
538.479	39738.33
538.845	39960.47
539.21	40210.86
539.575	40371.54
539.94	40462.83
540.305	40768.14
540.67	40585.09
541.034	40849.94
541.399	41002.48
541.764	41207.45
542.129	41204.96
542.494	41363.15
542.858	41490.15
543.223	41631.39
543.587	41776.7
543.952	41811.5
544.316	42018.27
544.681	42018.73
545.045	42322.22
545.41	42437.25
545.774	42454.42
546.138	42613.29
546.503	42754.75
546.867	42813.28
547.231	43146.61
547.595	43237.45
547.959	43436.99
548.324	43410.55
548.688	43597.89
549.052	43684.22
549.416	43739.36
549.779	44003.08
550.143	44205.33
550.507	44385.9
550.871	44468.38
551.235	44578.21
551.599	44875.37
551.962	44822.49
552.326	44925.09
552.689	45349.26
553.053	45275.36
553.417	45312.88
553.78	45844.39
554.143	45763.03
554.507	46035.34
554.87	46012.07
555.234	46532.73
555.597	46339.29
555.96	46597.36
556.323	46729.79
556.686	46743.57
557.05	47089.1
557.413	47068.08
557.776	47227.18
558.139	47576.32
558.502	47642.98
558.865	47628.07
559.228	47962.3
559.59	48096.08
559.953	48225.57
560.316	48610.19
560.679	48514.83
561.041	48752.33
561.404	48933.12
561.767	49226.22
562.129	49183.51
562.492	49626.66
562.854	49461.92
563.217	49578.07
563.579	49822.36
563.941	50043.15
564.304	50225.29
564.666	50432.06
565.028	50454.44
565.39	50630.93
565.753	50803.81
566.115	50885.16
566.477	51106.17
566.839	51164.02
567.201	51375.09
567.563	51396.56
567.925	51635.87
568.287	51660.05
568.648	51697.12
569.01	51890.1
569.372	51989.08
569.734	52025.02
570.095	52204.45
570.457	52377.32
570.819	52481.28
571.18	52422.29
571.542	52669.97
571.903	52660.93
572.265	52794.71
572.626	52859.34
572.987	53080.81
573.349	53104.54
573.71	53191.31
574.071	53302.27
574.432	53386.11
574.794	53623.17
575.155	53583.39
575.516	53503.62
575.877	53663.84
576.238	53666.78
576.599	53837.85
576.96	53822.71
577.32	53905.64
577.681	53987.68
578.042	54050.5
578.403	54095.02
578.763	54159.88
579.124	54197.61
579.485	54291.4
579.845	54314
580.206	54271.28
580.566	54292.08
580.927	54389.25
581.287	54465.4
581.648	54351.96
582.008	54499.98
582.368	54493.65
582.728	54574.33
583.089	54512.18
583.449	54526.65
583.809	54591.28
584.169	54688.22
584.529	54446.87
584.889	54775.45
585.249	54525.52
585.609	54488.91
585.969	54650.94
586.329	54560.54
586.688	54702.46
587.048	54612.29
587.408	54675.57
587.768	54661.33
588.127	54561.45
588.487	54496.14
588.846	54742.01
589.206	54633.08
589.565	54657.49
589.925	54728.67
590.284	54719.86
590.643	54756.24
591.003	54773.42
591.362	54799.63
591.721	54768.67
592.08	54764.61
592.44	54907.88
592.799	54879.86
593.158	54922.12
593.517	54838.95
593.876	54912.4
594.235	54837.37
594.593	54864.94
594.952	54939.52
595.311	54842.8
595.67	54960.08
596.029	55034.43
596.387	55054.09
596.746	55086.86
597.104	54917.37
597.463	54912.17
597.822	55087.76
598.18	55003.47
598.538	54949.46
598.897	55143.13
599.255	54937.71
599.613	55320.97
599.972	55180.41
600.33	55179.06
600.688	55156.23
601.046	55303.35
601.404	55434.42
601.762	55229
602.12	55477.81
602.478	55435.77
602.836	55434.64
603.194	55287.3
603.552	55358.94
603.91	55226.29
604.268	55449.78
604.625	55383.8
604.983	55487.98
605.341	55440.52
605.698	55560.29
606.056	55646.39
606.413	55483.68
606.771	55684.36
607.128	55692.49
607.485	55607.29
607.843	55574.08
608.2	55730.68
608.557	55870.11
608.914	55718.93
609.272	55897.91
609.629	55842.77
609.986	56026.72
610.343	55810.68
610.7	56005.93
611.057	55969.09
611.414	55998.7
611.771	56113.04
612.127	56134.96
612.484	56080.95
612.841	56217
613.198	56104.23
613.554	56178.35
613.911	56319.82
614.267	56243.89
614.624	56194.17
614.98	56342.64
615.337	56509.64
615.693	56423.09
616.05	56371.79
616.406	56477.55
616.762	56384.9
617.118	56397.33
617.475	56416.09
617.831	56527.95
618.187	56498.57
618.543	56502.64
618.899	56693.59
619.255	56615.18
619.611	56625.57
619.967	56664.89
620.323	56696.08
620.678	56563.2
621.034	56540.6
621.39	56635.29
621.746	56552.58
622.101	56788.73
622.457	56647.27
622.812	56712.12
623.168	56769.75
623.523	56669.64
623.879	56792.12
624.234	56673.48
624.589	56730.2
624.945	56747.38
625.3	56726.81
625.655	56684.55
626.01	56758.45
626.365	56741.5
626.72	56800.71
627.075	56646.36
627.43	56710.99
627.785	56600.94
628.14	56685.68
628.495	56672.13
628.85	56693.82
629.205	56471.23
629.559	56661.96
629.914	56473.26
630.269	56558.91
630.623	56538.8
630.978	56421.28
631.332	56518.68
631.687	56615.63
632.041	56395.97
632.396	56498.57
632.75	56348.07
633.104	56427.61
633.459	56273.04
633.813	56299.03
634.167	56360.95
634.521	56284.34
634.875	56320.95
635.229	56237.11
635.583	56131.12
635.937	56167.28
636.291	56101.75
636.645	56104.68
636.999	56068.98
637.352	56016.1
637.706	55880.28
638.06	56010.9
638.413	55921.18
638.767	55939.04
639.121	55911.02
639.474	55747.4
639.828	55718.48
640.181	55815.43
640.534	55745.14
640.888	55646.16
641.241	55553.06
641.594	55613.4
641.947	55692.04
642.301	55583.34
642.654	55529.33
643.007	55575.66
643.36	55474.87
643.713	55483
644.066	55521.2
644.419	55416.34
644.771	55232.84
645.124	54950.82
645.477	54767.77
645.83	54670.14
646.182	54506.31
646.535	54380.66
646.888	54500.88
647.24	54376.37
647.593	54470.6
647.945	54530.94
648.298	54330.04
648.65	54239.2
649.002	54104.74
649.355	54191.06
649.707	54216.82
650.059	54246.88
650.411	54637.83
650.763	54715.79
651.115	54935.22
651.467	54746.53
651.819	54771.38
652.171	54659.75
652.523	54632.18
652.875	54621.56
653.227	54459.75
653.578	54681.22
653.93	54541.33
654.282	54441.45
654.633	54266.54
654.985	54475.35
655.337	54441.22
655.688	54493.43
656.039	54542.24
656.391	54245.97
656.742	54316.93
657.094	54365.52
657.445	54503.82
657.796	54475.35
658.147	54284.62
658.498	54237.39
658.849	54289.36
659.2	54255.24
659.551	54164.17
659.902	54228.57
660.253	54189.93
660.604	54243.04
660.955	54013.89
661.306	54206.88
661.656	54081.23
662.007	54056.83
662.358	53983.16
662.708	54065.19
663.059	54002.59
663.409	53775.93
663.76	54098.18
664.11	53941.35
664.461	53970.05
664.811	54006.43
665.161	54021.57
665.511	53863.39
665.862	53925.08
666.212	53954.23
666.562	53948.81
666.912	53961.24
667.262	53851.86
667.612	53946.55
667.962	53996.26
668.312	53897.74
668.662	54018.64
669.011	53878.75
669.361	53766.44
669.711	53826.55
670.06	53732.09
670.41	53718.76
670.76	53647.12
671.109	53773.44
671.459	53743.39
671.808	53693.9
672.157	53749.49
672.507	53582.49
672.856	53652.77
673.205	53728.47
673.554	53676.95
673.904	53588.82
674.253	53633.56
674.602	53595.6
674.951	53205.32
675.3	52998.55
675.649	53565.09
675.998	53441.7
676.346	53396.51
676.695	53528.25
677.044	53301.59
677.393	53429.27
677.741	53462.49
678.09	53314.7
678.438	53224.53
678.787	53382.95
679.135	53324.19
679.484	53187.7
679.832	53263.4
680.181	53040.13
680.529	53164.87
680.877	52978.44
681.225	52916.29
681.573	53100.47
681.922	52976.4
682.27	52849.85
682.618	52798.1
682.966	52833.13
683.314	52861.83
683.661	52716.52
684.009	52444.21
684.357	52473.59
684.705	52522.18
685.053	52520.14
685.4	52473.14
685.748	52292.13
686.095	52249.64
686.443	52045.35
686.79	52023.66
687.138	52035.64
687.485	52107.5
687.832	51942.53
688.18	51968.75
688.527	51898.69
688.874	51808.07
689.221	51642.43
689.568	51485.14
689.915	51465.48
690.262	51536.89
690.609	51443.34
690.956	51210.8
691.303	51251.93
691.65	51006.96
691.997	51004.93
692.344	50901.43
692.69	50913.63
693.037	50950.69
693.383	50666.86
693.73	50738.5
694.077	50439.75
694.423	50515
694.769	50287.43
695.116	50303.71
695.462	50368.79
695.808	50056.25
696.155	50185.06
696.501	49941.68
696.847	49974.9
697.193	49710.95
697.539	49760.22
697.885	49586.44
698.231	49574.69
698.577	49505.99
698.923	49258.76
699.269	49083.85
699.614	48911.2
699.96	48809.06
700.306	48909.39
700.651	48862.61
700.997	48673.24
701.342	48704.2
701.688	48508.95
702.033	48311.22
702.379	48262.4
702.724	48212.24
703.069	48345.34
703.415	47882.07
703.76	48000.04
704.105	47847.95
704.45	47584.91
704.795	47441.63
705.14	47346.5
705.485	47421.52
705.83	47177.46
706.175	47341.52
706.52	47104.92
706.865	46959.84
707.209	46960.29
707.554	46912.38
707.899	46825.15
708.243	46614.76
708.588	46691.6
708.932	46379.06
709.277	46270.82
709.621	46404.83
709.966	46160.54
710.31	46231.5
710.654	45834.67
710.998	46007.77
711.342	46038.06
711.687	45768.68
712.031	45577.95
712.375	45523.27
712.719	45546.32
713.063	45400.78
713.407	45398.07
713.75	45090.51
714.094	45222.71
714.438	45135.93
714.782	45194.24
715.125	44898.42
715.469	44820.69
715.812	44779.78
716.156	44422.28
716.499	44545.44
716.843	44585.21
717.186	44189.97
717.53	44430.41
717.873	44497.98
718.216	44412.34
718.559	44397.19
718.902	44022.97
719.246	44206.01
719.589	44036.53
719.932	43872.46
720.275	43833.59
720.617	43760.83
720.96	43547.05
721.303	43687.83
721.646	43642.86
721.989	43260.05
722.331	43453.72
722.674	43456.88
723.016	43305.92
723.359	43089.21
723.701	43210.11
724.044	42858.25
724.386	42790.68
724.729	42952.26
725.071	42785.71
725.413	42810.8
725.755	42679.73
726.097	42476.57
726.439	42343.01
726.782	42294.42
727.124	42522.44
727.465	42365.61
727.807	42197.93
728.149	42012.62
728.491	41936.69
728.833	41948.22
729.175	42006.75
729.516	41950.25
729.858	41897.37
730.199	41786.42
730.541	41748.45
730.882	41578.06
731.224	41630.26
731.565	41396.82
731.906	41536.03
732.248	41606.08
732.589	41318.63
732.93	41195.7
733.271	41138.97
733.612	41171.97
733.953	41149.37
734.294	40998.64
734.635	40926.33
734.976	40992.09
735.317	40844.97
735.658	40865.08
735.999	40779.21
736.339	40583.74
736.68	40763.39
737.021	40565.43
737.361	40398.43
737.702	40626.22
738.042	40408.82
738.383	40209.51
738.723	40285.44
739.063	40103.97
739.404	40272.1
739.744	40171.54
740.084	40008.61
740.424	40086.8
740.764	39844.77
741.104	39981.27
741.444	39668.05
741.784	39637.32
742.124	39596.64
742.464	39572.01
742.804	39545.8
743.143	39404.11
743.483	39387.16
743.823	39195.07
744.162	39334.28
744.502	39137.67
744.841	39157.56
745.181	39323.66
745.52	39108.97
745.86	39145.81
746.199	38885.93
746.538	38829.21
746.877	38985.59
747.216	38701.98
747.556	38661.3
747.895	38654.97
748.234	38460.63
748.573	38365.04
748.911	38360.97
749.25	38306.96
749.589	38152.84
749.928	38183.8
750.267	38144.48
750.605	37929.57
750.944	37997.36
751.283	37773.19
751.621	37912.62
751.96	37627.2
752.298	37621.33
752.636	37781.1
752.975	37554.66
753.313	37298.17
753.651	37453.87
753.989	37258.85
754.327	37197.16
754.666	37105.63
755.004	37123.49
755.342	37272.18
755.679	36934.79
756.017	36884.4
756.355	36840.1
756.693	36627
757.031	36663.39
757.368	36370.74
757.706	36224.08
758.044	36345.88
758.381	36435.6
758.719	36230.86
759.056	36209.16
759.394	36015.95
759.731	35819.79
760.068	35759.68
760.405	35660.02
760.743	35624.54
761.08	35559.01
761.417	35382.06
761.754	35204.89
762.091	35182.3
762.428	35045.35
762.765	35013.03
763.102	34871.57
763.438	34849.87
763.775	34477
764.112	34531.24
764.449	34506.83
764.785	34269.32
765.122	34050.57
765.458	34083.57
765.795	33863.91
766.131	33970.8
766.467	33735.55
766.804	33632.96
767.14	33494.66
767.476	33316.58
767.812	33170.14
768.148	33409.01
768.485	33076.36
768.821	32911.85
769.157	32946.87
769.492	32831.62
769.828	32774.9
770.164	32522.03
770.5	32485.87
770.836	32305.53
771.171	32224.86
771.507	32037.29
771.842	31904.42
772.178	31995.94
772.513	31868.94
772.849	31774.93
773.184	31504.43
773.519	31675.95
773.855	31325.45
774.19	31242.74
774.525	31117.77
774.86	31172.23
775.195	31102.18
775.53	30823.54
775.865	30816.76
776.2	30359.37
776.535	30344.91
776.87	30485.47
777.205	30232.14
777.539	30057.68
777.874	30150.34
778.209	29940.85
778.543	29831.02
778.878	29735.21
779.212	29634.42
779.547	29338.83
779.881	29489.34
780.215	29133.19
780.55	29359.17
780.884	29169.57
781.218	29048.67
781.552	29009.58
781.886	28855
782.22	28601
782.554	28572.07
782.888	28404.85
783.222	28246.88
783.556	28192.2
783.889	28191.97
784.223	27895.48
784.557	27950.4
784.89	27930.06
785.224	27756.05
785.557	27526
785.891	27532.33
786.224	27409.84
786.558	27385.66
786.891	27034.94
787.224	27063.86
787.557	26979.35
787.891	26915.17
788.224	26964.66
788.557	26882.63
788.89	26750.43
789.223	26659.81
789.556	26525.8
789.888	26441.96
790.221	26322.64
790.554	26065.25
790.887	26133.95
791.219	26096.66
791.552	25999.71
791.884	25797.91
792.217	25879.04
792.549	25687.4
792.882	25499.61
793.214	25438.14
793.546	25326.06
793.879	25197.02
794.211	25161.77
794.543	25134.65
794.875	25007.87
795.207	25095.55
795.539	24947.54
795.871	24813.98
796.203	24842.23
796.535	24583.25
796.867	24516.81
797.198	24511.84
797.53	24296.48
797.862	24176.71
798.193	24281.34
798.525	24122.02
798.856	24074.11
799.188	23809.03
799.519	23787.34
799.85	23652.43
800.182	23738.75
800.513	23634.58
800.844	23530.62
801.175	23616.95
801.506	23603.39
801.837	23385.54
802.168	23332.21
802.499	23248.15
802.83	23158.88
803.161	23108.26
803.491	23129.73
803.822	22980.36
804.153	22909.62
804.483	22780.14
804.814	22723.41
805.145	22739.23
805.475	22677.99
805.805	22554.15
806.136	22526.13
806.466	22519.8
806.796	22432.35
807.126	22288.4
807.457	22294.05
807.787	22224.67
808.117	22113.71
808.447	22035.97
808.777	21977.44
809.107	21932.25
809.436	21829.2
809.766	21875.75
810.096	21851.57
810.426	21689.77
810.755	21675.98
811.085	21702.65
811.414	21613.84
811.744	21322.77
812.073	21428.08
812.403	21378.14
812.732	21075.77
813.061	21225.15
813.39	21202.1
813.719	21044.59
814.049	21130.69
814.378	21013.4
814.707	20925.95
815.036	20850.02
815.365	20876.23
815.693	20607.54
816.022	20657.25
816.351	20683.69
816.68	20510.59
817.008	20607.54
817.337	20429.24
817.665	20384.04
817.994	20408.22
818.322	20385.4
818.651	20260.43
818.979	20049.59
819.307	20313.08
819.636	20185.63
819.964	19973.66
820.292	20143.82
820.62	20002.58
820.948	19931.4
821.276	19965.29
821.604	19893.66
821.932	20058.63
822.259	20003.71
822.587	19898.63
822.915	19940.21
823.243	20045.52
823.57	19903.83
823.898	19905.86
824.225	19831.06
824.553	19803.94
824.88	19906.54
825.207	19808.46
825.535	19861.79
825.862	19950.15
826.189	19794.23
826.516	19835.58
826.843	19917.61
827.17	19913.32
827.497	19907.67
827.824	19888.46
828.151	19989.93
828.478	19859.53
828.805	19891.62
829.131	19742.25
829.458	19761.46
829.785	19649.82
830.111	19762.36
830.438	19813.21
830.764	19796.94
831.09	19834.68
831.417	19742.25
831.743	19839.2
832.069	19716.49
832.395	19689.6
832.722	19667.9
833.048	19607.56
833.374	19611.63
833.7	19619.54
834.026	19703.61
834.351	19619.77
834.677	19604.4
835.003	19560.56
835.329	19476.95
835.654	19465.65
835.98	19396.72
836.306	19424.74
836.631	19372.77
836.956	19451.41
837.282	19420.45
837.607	19416.83
837.932	19348.59
838.258	19367.34
838.583	19247.57
838.908	19207.57
839.233	19128.93
839.558	19104.98
839.883	19012.1
840.208	18962.83
840.533	19000.57
840.858	19003.06
841.182	18992.89
841.507	18894.14
841.832	18921.48
842.156	18831.09
842.481	18755.83
842.805	18727.81
843.13	18741.6
843.454	18523.75
843.778	18601.94
844.103	18595.39
844.427	18567.59
844.751	18520.59
845.075	18425.22
845.399	18361.95
845.723	18256.19
846.047	18346.81
846.371	18218.22
846.695	18102.07
847.019	18005.35
847.343	17897.33
847.666	17866.82
847.99	17666.6
848.313	17750.89
848.637	17655.52
848.96	17631.57
849.284	17600.16
849.607	17456.89
849.931	17428.64
850.254	17259.38
850.577	17178.25
850.9	17073.39
851.223	16998.82
851.546	16943
851.869	16807.86
852.192	17034.07
852.515	16778.49
852.838	16769.9
853.161	16670.69
853.483	16600.86
853.806	16516.8
854.129	16564.93
854.451	16459.4
854.774	16333.98
855.096	16292.4
855.419	16248.33
855.741	16230.03
856.063	16167.65
856.385	16147.77
856.708	16122.01
857.03	15992.52
857.352	15992.97
857.674	15840.88
857.996	15796.36
858.318	15757.72
858.64	15756.82
858.961	15708.46
859.283	15621.91
859.605	15618.29
859.926	15704.62
860.248	15515.24
860.57	15514.79
860.891	15494.45
861.212	15393.21
861.534	15365.19
861.855	15274.57
862.176	15329.94
862.498	15384.62
862.819	15319.09
863.14	15205.65
863.461	15212.2
863.782	15176.72
864.103	15167
864.424	15119.09
864.745	15141.47
865.065	15012.2
865.386	15016.05
865.707	15047.91
866.027	15060.79
866.348	15053.56
866.668	15005.2
866.989	14907.12
867.309	14828.71
867.63	14795.71
867.95	14770.4
868.27	14774.47
868.59	14753.23
868.91	14726.79
869.23	14773.57
869.55	14720.23
869.87	14704.64
870.19	14750.52
870.51	14640.91
870.83	14598.66
871.15	14582.16
871.469	14495.16
871.789	14473.91
872.109	14496.74
872.428	14388.04
872.748	14440.92
873.067	14340.36
873.386	14339.23
873.706	14339.91
874.025	14366.35
874.344	14245.9
874.663	14296.97
874.982	14271.21
875.301	14322.5
875.62	14188.72
875.939	14115.73
876.258	14077.54
876.577	14153.02
876.896	14082.96
877.214	14109.18
877.533	14155.96
877.852	14092.68
878.17	13964.32
878.489	13973.81
878.807	14003.42
879.125	13911.22
879.444	13900.82
879.762	13870.99
880.08	13955.96
880.398	13834.83
880.716	13941.27
881.034	13853.59
881.352	13777.21
881.67	13751.22
881.988	13826.47
882.306	13701.73
882.624	13687.72
882.941	13612.47
883.259	13579.02
883.577	13445.24
883.894	13456.31
884.212	13482.75
884.529	13414.73
884.846	13398.01
885.164	13348.75
885.481	13378.35
885.798	13369.99
886.115	13224.91
886.432	13196.88
886.75	13177.22
887.067	13197.56
887.383	13097.68
887.7	13198.24
888.017	13082.09
888.334	13158.92
888.651	13038.7
888.967	12974.29
889.284	13050.67
889.6	12923.9
889.917	12861.07
890.233	12844.35
890.55	12775.2
890.866	12799.15
891.182	12756.9
891.498	12662.21
891.815	12687.75
892.131	12530.24
892.447	12568.2
892.763	12530.01
893.079	12507.86
893.395	12507.19
893.71	12454.31
894.026	12355.78
894.342	12316.91
894.657	12318.26
894.973	12251.82
895.289	12217.93
895.604	12200.98
895.92	12052.96
896.235	11981.55
896.55	12006.18
896.865	12021.32
897.181	11974.32
897.496	11958.73
897.811	11932.96
898.126	11892.06
898.441	11894.09
898.756	11881.21
899.071	11735.68
899.386	11756.7
899.7	11590.83
900.015	11647.09
900.33	11515.8
900.644	11463.6
900.959	11509.25
901.273	11454.78
901.588	11379.76
901.902	11291.62
902.216	11340.89
902.531	11184.28
902.845	11185.41
903.159	11135.7
903.473	11050.73
903.787	11085.53
904.101	10978.86
904.415	11049.82
904.729	10935.7
905.042	10858.64
905.356	10892.99
905.67	10883.73
905.984	10846.89
906.297	10787.68
906.611	10684.86
906.924	10787.68
907.237	10644.41
907.551	10624.3
907.864	10600.12
908.177	10534.13
908.491	10521.25
908.804	10446.22
909.117	10434.7
909.43	10328.71
909.743	10306.79
910.056	10266.11
910.368	10164.65
910.681	10248.04
910.994	10162.16
911.307	10121.94
911.619	10064.76
911.932	10016.63
912.244	9962.85
912.557	9937.54
912.869	9851.66
913.181	9841.27
913.494	9885.11
913.806	9792
914.118	9700.71
914.43	9714.26
914.742	9678.56
915.054	9609.86
915.366	9578.22
915.678	9537.32
915.99	9568.28
916.302	9401.96
916.613	9374.61
916.925	9426.36
917.236	9393.82
917.548	9261.85
917.859	9315.18
918.171	9189.31
918.482	9215.52
918.794	9172.81
919.105	9113.15
919.416	9030.67
919.727	8987.05
920.038	8964.45
920.349	8954.96
920.66	8871.8
920.971	8884
921.282	8807.62
921.593	8785.93
921.903	8738.92
922.214	8662.09
922.525	8709.77
922.835	8626.38
923.146	8557.23
923.456	8574.41
923.767	8535.09
924.077	8562.2
924.387	8482.88
924.697	8415.32
925.008	8418.71
925.318	8363.11
925.628	8337.13
925.938	8281.31
926.248	8277.47
926.558	8155.89
926.867	8116.11
927.177	8097.81
927.487	8032.5
927.796	8026.17
928.106	8037.47
928.416	7971.94
928.725	7991.37
929.034	7896.01
929.344	7922.45
929.653	7876.12
929.962	7844.03
930.271	7730.81
930.581	7683.13
930.89	7676.35
931.199	7626.86
931.508	7618.05
931.817	7615.11
932.125	7581.89
932.434	7577.37
932.743	7518.16
933.051	7437.04
933.36	7440.88
933.669	7357.49
933.977	7338.06
934.286	7346.87
934.594	7283.14
934.902	7216.02
935.21	7192.3
935.519	7191.39
935.827	7157.95
936.135	7112.98
936.443	7045.41
936.751	7079.31
937.059	7075.69
937.367	7035.92
937.674	7045.86
937.982	6976.26
938.29	6872.31
938.597	6988.69
938.905	6821.91
939.213	6900.78
939.52	6816.94
939.827	6844.51
940.135	6812.19
940.442	6723.38
940.749	6681.58
941.056	6670.73
941.363	6610.84
941.67	6605.19
941.977	6555.03
942.284	6516.16
942.591	6506.44
942.898	6542.6
943.205	6484.07
943.511	6429.83
943.818	6440.9
944.125	6360.68
944.431	6336.27
944.738	6301.02
945.044	6269.84
945.35	6264.19
945.657	6175.15
945.963	6216.5
946.269	6169.95
946.575	6143.28
946.881	6175.37
947.187	6136.96
947.493	6065.77
947.799	6035.72
948.105	6023.06
948.41	6011.31
948.716	5928.15
949.022	5895.38
949.327	5896.29
949.633	5835.72
949.938	5855.83
950.244	5883.18
950.549	5755.5
950.854	5751.88
951.16	5755.95
951.465	5738.55
951.77	5699.91
952.075	5687.93
952.38	5619.23
952.685	5605.9
952.99	5517.54
953.294	5556.41
953.599	5544.43
953.904	5514.15
954.209	5439.8
954.513	5416.52
954.818	5448.16
955.122	5412.68
955.426	5434.6
955.731	5376.98
956.035	5328.62
956.339	5298.79
956.643	5271.22
956.948	5286.81
957.252	5258.56
957.556	5205.46
957.86	5203.87
958.163	5202.97
958.467	5179.69
958.771	5144.67
959.075	5128.62
959.378	5103.31
959.682	5100.15
959.985	5057.21
960.289	5054.95
960.592	4981.06
960.896	4973.15
961.199	4932.92
961.502	4919.36
961.805	4859.25
962.108	4846.6
962.411	4864.45
962.714	4895.86
963.017	4827.39
963.32	4822.19
963.623	4783.55
963.926	4762.53
964.228	4763.21
964.531	4748.29
964.833	4734.96
965.136	4728.63
965.438	4679.82
965.741	4652.93
966.043	4677.11
966.345	4619.03
966.648	4581.74
966.95	4599.37
967.252	4549.43
967.554	4520.73
967.856	4507.62
968.158	4458.58
968.46	4473.72
968.761	4493.61
969.063	4458.58
969.365	4401.86
969.666	4397.57
969.968	4322.09
970.269	4328.42
970.571	4321.64
970.872	4296.78
971.174	4292.94
971.475	4245.93
971.776	4247.97
972.077	4237.57
972.378	4210.91
972.679	4182.21
972.98	4187.86
973.281	4127.74
973.582	4130.68
973.883	4107.18
974.183	4103.11
974.484	4109.89
974.785	4062.44
975.085	4020.4
975.386	4047.52
975.686	4014.53
975.986	3977.47
976.287	3979.5
976.587	3966.17
976.887	3915.32
977.187	3895.66
977.487	3847.3
977.787	3884.14
978.087	3853.4
978.387	3818.37
978.687	3849.79
978.987	3842.55
979.286	3787.87
979.586	3744.7
979.885	3730.24
980.185	3727.53
980.484	3746.29
980.784	3718.26
981.083	3647.08
981.382	3704.48
981.682	3641.2
981.981	3655.67
982.28	3661.99
982.579	3582
982.878	3647.76
983.177	3586.06
983.475	3559.17
983.774	3519.85
984.073	3511.49
984.372	3510.13
984.67	3492.28
984.969	3497.93
985.267	3466.29
985.566	3450.93
985.864	3413.64
986.162	3416.8
986.461	3435.79
986.759	3391.94
987.057	3392.85
987.355	3340.42
987.653	3304.04
987.951	3313.3
988.249	3311.49
988.547	3329.8
988.844	3248.9
989.142	3265.17
989.44	3253.64
989.737	3196.47
990.035	3223.36
990.332	3182.01
990.63	3177.94
990.927	3167.77
991.224	3157.6
991.521	3152.63
991.819	3145.4
992.116	3105.85
992.413	3102.23
992.71	3054.33
993.006	3073.31
993.303	3062.69
993.6	3038.73
993.897	3033.31
994.193	3023.14
994.49	2938.85
994.787	2961.9
995.083	2975.46
995.379	2922.35
995.676	2896.14
995.972	2867.21
996.268	2884.16
996.565	2887.1
996.861	2857.27
997.157	2849.36
997.453	2835.35
997.749	2813.65
998.044	2791.96
998.34	2761.45
998.636	2751.51
998.932	2737.05
999.227	2767.78
999.523	2718.29
999.818	2714
1000.114	2685.07
1000.409	2658.86
1000.704	2662.92
1001	2636.94
1001.295	2634.22
1001.59	2625.86
1001.885	2634.9
1002.18	2601.46
1002.475	2601.91
1002.77	2568.46
1003.065	2555.13
1003.359	2531.18
1003.654	2523.94
1003.949	2542.7
1004.243	2502.93
1004.538	2461.12
1004.832	2479.43
1005.127	2431.97
1005.421	2434.23
1005.715	2391.97
1006.009	2398.98
1006.304	2414.12
1006.598	2392.42
1006.892	2376.83
1007.186	2358.98
1007.48	2361.92
1007.773	2323.05
1008.067	2316.04
1008.361	2282.37
1008.655	2282.37
1008.948	2278.53
1009.242	2282.6
1009.535	2252.99
1009.829	2233.11
1010.122	2235.82
1010.415	2215.03
1010.708	2204.18
1011.001	2200.34
1011.295	2162.82
1011.588	2170.06
1011.881	2128.7
1012.173	2138.64
1012.466	2116.27
1012.759	2114.69
1013.052	2118.08
1013.344	2080.11
1013.637	2048.93
1013.93	2061.36
1014.222	2043.05
1014.514	2024.98
1014.807	2043.51
1015.099	2020
1015.391	1991.98
1015.683	1970.97
1015.976	1970.29
1016.268	1966.9
1016.56	1944.3
1016.851	1924.19
1017.143	1947.24
1017.435	1886.45
1017.727	1903.62
1018.018	1871.53
1018.31	1898.2
1018.602	1863.85
1018.893	1824.3
1019.185	1831.08
1019.476	1862.95
1019.767	1794.02
1020.058	1767.58
1020.35	1780.69
1020.641	1745.21
1020.932	1776.39
1021.223	1730.07
1021.514	1701.37
1021.804	1727.13
1022.095	1739.11
1022.386	1685.1
1022.677	1668.15
1022.967	1656.17
1023.258	1644.87
1023.548	1648.71
1023.839	1662.5
1024.129	1646.45
1024.419	1633.35
1024.709	1589.73
1025	1604.65
1025.29	1574.59
1025.58	1564.2
1025.87	1552.67
1026.16	1558.55
1026.449	1551.09
1026.739	1532.33
1027.029	1526.01
1027.319	1509.96
1027.608	1492.56
1027.898	1471.77
1028.187	1493.01
1028.477	1465.89
1028.766	1475.84
1029.055	1489.17
1029.344	1445.78
1029.634	1441.94
1029.923	1428.38
1030.212	1423.41
1030.501	1398.78
1030.79	1400.36
1031.078	1384.54
1031.367	1414.14
1031.656	1356.52
1031.945	1372.56
1032.233	1365.11
1032.522	1350.87
1032.81	1320.36
1033.099	1312.68
1033.387	1295.05
1033.675	1297.31
1033.963	1305.45
1034.251	1267.48
1034.54	1247.82
1034.828	1259.35
1035.116	1274.26
1035.403	1239.68
1035.691	1259.57
1035.979	1238.56
1036.267	1226.13
1036.554	1223.87
1036.842	1184.55
1037.129	1188.39
1037.417	1164.88
1037.704	1180.7
1037.992	1191.55
1038.279	1149.29
1038.566	1140.7
1038.853	1140.7
1039.14	1140.7
