Data from plate_ceramic_FLMS001491_024.txt Node
Date: Tue Feb 07 11:16:31 GMT 2017
User: dcchb
Spectrometer: FLMS00149
Trigger mode: 0
Integration Time (sec): 2.000000E-2
Scans to average: 10
Electric dark correction enabled: true
Nonlinearity correction enabled: false
Boxcar width: 0
XAxis mode: Wavelengths
Number of Pixels in Spectrum: 2048
>>>>>Begin Spectral Data<<<<<
341.393	-20.55
341.776	-20.55
342.16	-20.55
342.543	-62.58
342.927	-81.11
343.31	-81.79
343.693	-68.23
344.077	-58.29
344.46	-62.81
344.843	-52.41
345.226	-40.89
345.61	-27.56
345.993	-31.85
346.376	-6.09
346.759	7.25
347.142	35.04
347.525	54.7
347.908	63.06
348.291	72.55
348.674	95.15
349.057	102.16
349.44	122.27
349.823	143.51
350.206	150.97
350.588	193.91
350.971	219.22
351.354	224.19
351.737	267.8
352.119	267.8
352.502	274.13
352.884	272.1
353.267	291.98
353.65	324.75
354.032	313.68
354.414	311.64
354.797	321.81
355.179	337.63
355.562	332.66
355.944	343.28
356.326	315.26
356.709	331.76
357.091	362.26
357.473	350.51
357.855	364.3
358.238	360.23
358.62	332.21
359.002	367.69
359.384	364.52
359.766	366.11
360.148	360
360.53	354.58
360.912	360.91
361.294	339.67
361.676	346.9
362.057	358.42
362.439	340.34
362.821	352.32
363.203	327.92
363.584	338.08
363.966	329.27
364.348	332.43
364.729	350.51
365.111	351.19
365.493	350.74
365.874	332.66
366.256	358.42
366.637	339.21
367.019	337.41
367.4	337.86
367.781	328.37
368.163	340.8
368.544	330.4
368.925	327.69
369.306	330.17
369.688	328.14
370.069	335.82
370.45	342.38
370.831	349.61
371.212	359.78
371.593	356.39
371.974	354.36
372.355	350.29
372.736	359.78
373.117	360.91
373.498	343.73
373.879	359.1
374.26	348.25
374.641	351.19
375.021	347.8
375.402	352.32
375.783	365.88
376.163	390.06
376.544	366.33
376.925	346.9
377.305	376.73
377.686	353.68
378.066	397.29
378.447	390.96
378.827	379.67
379.208	386.22
379.588	367.46
379.968	373.34
380.349	393
380.729	382.83
381.109	399.78
381.489	382.15
381.87	403.85
382.25	410.17
382.63	381.92
383.01	423.28
383.39	416.73
383.77	435.71
384.15	420.12
384.53	411.53
384.91	415.82
385.29	415.82
385.67	423.28
386.049	422.15
386.429	427.8
386.809	463.96
387.189	420.57
387.568	431.42
387.948	455.6
388.328	437.97
388.707	447.91
389.087	465.99
389.466	450.4
389.846	472.32
390.225	458.53
390.605	482.26
390.984	471.64
391.363	480.91
391.743	482.49
392.122	470.06
392.501	471.87
392.881	498.76
393.26	494.01
393.639	491.98
394.018	506.67
394.397	514.35
394.776	523.62
395.155	520.68
395.534	529.94
395.913	514.8
396.292	527.68
396.671	534.01
397.05	520.45
397.429	544.18
397.808	549.83
398.186	529.27
398.565	536.72
398.944	556.16
399.323	545.76
399.701	590.06
400.08	572.43
400.458	571.52
400.837	562.26
401.215	560
401.594	602.94
401.972	602.71
402.351	610.39
402.729	593.44
403.107	616.95
403.486	613.33
403.864	591.41
404.242	627.57
404.62	632.99
404.999	630.96
405.377	622.6
405.755	640.22
406.133	612.88
406.511	666.44
406.889	675.48
407.267	669.83
407.645	681.8
408.023	718.19
408.401	713.67
408.779	693.78
409.156	725.19
409.534	701.69
409.912	759.54
410.29	747.34
410.667	755.02
411.045	754.8
411.422	777.17
411.8	770.39
412.178	775.36
412.555	786.21
412.933	825.53
413.31	804.29
413.687	824.4
414.065	829.37
414.442	833.89
414.819	838.41
415.197	861.91
415.574	846.09
415.951	888.58
416.328	879.31
416.705	903.49
417.082	903.72
417.46	924.06
417.837	913.66
418.214	932.64
418.591	940.55
418.967	934.23
419.344	961.57
419.721	960.89
420.098	962.25
420.475	978.75
420.852	997.5
421.228	1005.19
421.605	988.91
421.982	1013.55
422.358	1017.61
422.735	1023.94
423.111	1045.86
423.488	1047.22
423.864	1049.03
424.241	1070.72
424.617	1094
424.994	1078.86
425.37	1102.58
425.746	1116.82
426.123	1130.15
426.499	1149.81
426.875	1142.36
427.251	1173.54
427.627	1199.98
428.003	1207.67
428.379	1197.72
428.756	1226.65
429.132	1223.48
429.507	1273.2
429.883	1268.46
430.259	1267.55
430.635	1284.27
431.011	1314.56
431.387	1333.54
431.763	1336.7
432.138	1366.08
432.514	1373.54
432.89	1395.46
433.265	1428.23
433.641	1437.94
434.016	1435.68
434.392	1449.24
434.767	1507.55
435.143	1494.44
435.518	1518.62
435.894	1496.47
436.269	1559.52
436.644	1541.44
437.02	1568.79
437.395	1576.02
437.77	1593.64
438.145	1633.19
438.52	1666.19
438.895	1651.72
439.271	1647.43
439.646	1695.79
440.021	1714.77
440.395	1724.71
440.77	1706.86
441.145	1734.21
441.52	1759.29
441.895	1773.3
442.27	1769.91
442.645	1774.2
443.019	1781.66
443.394	1801.1
443.769	1805.39
444.143	1806.29
444.518	1861.21
444.892	1840.19
445.267	1825.5
445.641	1882.68
446.016	1877.25
446.39	1906.63
446.764	1931.94
447.139	1895.33
447.513	1950.47
447.887	1942.34
448.262	1959.06
448.636	1971.04
449.01	1986.18
449.384	2014.88
449.758	1999.28
450.132	2046.51
450.506	2046.51
450.88	2098.04
451.254	2112.73
451.628	2141.43
452.002	2128.32
452.376	2139.84
452.75	2168.09
453.123	2187.08
453.497	2217.13
453.871	2276.34
454.244	2301.42
454.618	2280.86
454.992	2333.51
455.365	2328.09
455.739	2382.32
456.112	2394.53
456.486	2423.91
456.859	2453.96
457.232	2493.51
457.606	2524.92
457.979	2533.05
458.352	2594.52
458.725	2625.93
459.099	2633.39
459.472	2660.96
459.845	2718.59
460.218	2748.42
460.591	2754.29
460.964	2747.51
461.337	2842.43
461.71	2891.24
462.083	2940.28
462.456	2942.31
462.829	2975.3
463.201	2973.72
463.574	3053.04
463.947	3029.31
464.32	3124.9
464.692	3163.77
465.065	3160.38
465.438	3253.71
465.81	3278.35
466.183	3274.05
466.555	3406.7
466.928	3394.5
467.3	3402.86
467.672	3467.04
468.045	3534.84
468.417	3595.63
468.789	3562.63
469.161	3644.66
469.534	3693.93
469.906	3745.9
470.278	3737.99
470.65	3831.78
471.022	3894.15
471.394	3995.39
471.766	4027.48
472.138	4044.88
472.51	4143.86
472.882	4230.86
473.253	4274.25
473.625	4326.23
473.997	4415.94
474.369	4480.12
474.74	4528.93
475.112	4557.18
475.484	4646.67
475.855	4758.08
476.227	4803.28
476.598	4885.08
476.97	4945.65
477.341	5083.27
477.713	5112.42
478.084	5188.35
478.455	5308.12
478.827	5349.48
479.198	5462.02
479.569	5518.29
479.94	5683.03
480.311	5698.17
480.682	5899.75
481.053	5984.04
481.424	6057.03
481.795	6104.94
482.166	6195.78
482.537	6311.94
482.908	6394.2
483.279	6516.23
483.65	6617.02
484.021	6729.33
484.391	6855.2
484.762	6924.8
485.133	6958.02
485.503	7091.13
485.874	7266.72
486.244	7260.39
486.615	7401.63
486.985	7525.47
487.356	7685.46
487.726	7731.34
488.097	7855.17
488.467	7922.29
488.837	8058.11
489.207	8203.64
489.578	8252.45
489.948	8373.13
490.318	8526.57
490.688	8586.46
491.058	8632.1
491.428	8817.86
491.798	8842.27
492.168	9060.79
492.538	9076.39
492.908	9235.93
493.278	9327.23
493.648	9325.42
494.017	9474.34
494.387	9583.94
494.757	9631.4
495.126	9757.27
495.496	9742.36
495.866	9865.29
496.235	9984.16
496.605	10044.5
496.974	10110.03
497.344	10287.2
497.713	10309.57
498.082	10424.6
498.452	10476.35
498.821	10530.36
499.19	10617.14
499.559	10787.75
499.928	10796.11
500.298	10893.96
500.667	11051.93
501.036	10987.75
501.405	11096.9
501.774	11160.85
502.143	11298.93
502.512	11342.54
502.88	11413.5
503.249	11462.31
503.618	11582.31
503.987	11627.96
504.356	11704.11
504.724	11805.13
505.093	11828.63
505.462	11999.92
505.83	12029.75
506.199	12109.07
506.567	12282.4
506.936	12298.22
507.304	12500.48
507.672	12471.1
508.041	12467.48
508.409	12691.88
508.777	12784.99
509.145	12859.34
509.514	12924.87
509.882	13038.77
510.25	13083.74
510.618	13221.14
510.986	13265.65
511.354	13339.55
511.722	13560.56
512.09	13581.8
512.458	13635.36
512.826	13703.16
513.193	13814.34
513.561	13905.41
513.929	14146.53
514.297	14088.91
514.664	14273.99
515.032	14307.43
515.4	14502.68
515.767	14511.05
516.135	14626.3
516.502	14503.36
516.869	14900.19
517.237	14934.31
517.604	14920.98
517.972	15135.21
518.339	15311.93
518.706	15261.76
519.073	15283.23
519.44	15510.11
519.808	15715.76
520.175	15633.28
520.542	15883.66
520.909	15998.46
521.276	15951.46
521.643	16155.75
522.009	16325.46
522.376	16390.32
522.743	16554.83
523.11	16742.17
523.477	16872.56
523.843	16998.66
524.21	17156.4
524.577	17395.04
524.943	17432.32
525.31	17519.78
525.676	17672.32
526.043	17802.03
526.409	17870.5
526.776	18066.88
527.142	18058.52
527.508	18268.69
527.874	18495.57
528.241	18488.79
528.607	18574.22
528.973	18714.78
529.339	18694.66
529.705	18986.18
530.071	19157.7
530.437	19234.31
530.803	19418.71
531.169	19460.75
531.535	19539.39
531.901	19539.84
532.267	19698.71
532.632	19813.73
532.998	19884.01
533.364	20026.15
533.73	20146.15
534.095	20245.36
534.461	20288.29
534.826	20527.38
535.192	20556.54
535.557	20839.69
535.923	20768.51
536.288	20854.61
536.653	21046.69
537.019	21029.52
537.384	20994.94
537.749	21205.11
538.114	21117.2
538.479	21413.24
538.845	21401.94
539.21	21387.25
539.575	21563.29
539.94	21606.23
540.305	21759.67
540.67	21810.97
541.034	21869.5
541.399	22055.25
541.764	22105.87
542.129	22129.38
542.494	22231.29
542.858	22216.61
543.223	22336.38
543.587	22461.34
543.952	22435.36
544.316	22501.34
544.681	22654.33
545.045	22744.95
545.41	22808.68
545.774	22951.95
546.138	22965.74
546.503	23073.08
546.867	23051.39
547.231	23423.81
547.595	23277.59
547.959	23367.54
548.324	23439.4
548.688	23615.66
549.052	23630.35
549.416	23741.31
549.779	23717.13
550.143	23846.62
550.507	24120.74
550.871	24087.52
551.235	24065.82
551.599	24369.99
551.962	24327.96
552.326	24478.47
552.689	24577.9
553.053	24516.43
553.417	24734.73
553.78	24839.36
554.143	24923.88
554.507	24896.08
554.87	25228.28
555.234	25354.15
555.597	25322.51
555.96	25388.05
556.323	25479.8
556.686	25602.05
557.05	25710.3
557.413	25827.58
557.776	25880.24
558.139	26198.87
558.502	26145.09
558.865	26285.2
559.228	26414.23
559.59	26483.16
559.953	26573.78
560.316	27024.39
560.679	26940.77
561.041	27061.9
561.404	27267.09
561.767	27392.51
562.129	27334.21
562.492	27536.01
562.854	27569.23
563.217	27684.26
563.579	27789.79
563.941	28090.8
564.304	28165.15
564.666	28350.23
565.028	28373.05
565.39	28510.68
565.753	28648.53
566.115	28696.21
566.477	28848.75
566.839	28917.22
567.201	29161.06
567.563	29102.98
567.925	29420.48
568.287	29435.62
568.648	29491.89
569.01	29677.43
569.372	29940.47
569.734	29922.17
570.095	30086.68
570.457	30142.5
570.819	30205.77
571.18	30177.07
571.542	30601.02
571.903	30601.7
572.265	30675.37
572.626	30659.55
572.987	30796.72
573.349	30917.39
573.71	30980.44
574.071	30941.12
574.432	31130.95
574.794	31413.2
575.155	31286.2
575.516	31293.88
575.877	31343.6
576.238	31574.55
576.599	31633.31
576.96	31689.35
577.32	31717.6
577.681	31815.22
578.042	32021.55
578.403	31886.63
578.763	32003.92
579.124	32043.01
579.485	32212.73
579.845	32227.42
580.206	32134.54
580.566	32212.27
580.927	32231.26
581.287	32399.84
581.648	32310.58
582.008	32455.88
582.368	32267.41
582.728	32548.99
583.089	32417.92
583.449	32416.11
583.809	32558.25
584.169	32653.17
584.529	32484.13
584.889	32848.87
585.249	32552.6
585.609	32577.46
585.969	32806.84
586.329	32648.65
586.688	32667.4
587.048	32652.04
587.408	32737.01
587.768	32829.21
588.127	32723.45
588.487	32547.86
588.846	32688.65
589.206	32684.35
589.565	32637.12
589.925	32877.79
590.284	32725.48
590.643	32817
591.003	32842.99
591.362	32934.29
591.721	32802.54
592.08	32898.81
592.44	32974.74
592.799	32988.53
593.158	32864.01
593.517	33060.61
593.876	33030.56
594.235	32920.96
594.593	33081.18
594.952	33144.23
595.311	32919.6
595.67	33039.15
596.029	33173.38
596.387	33294.28
596.746	33202.76
597.104	33124.79
597.463	33210.21
597.822	33289.31
598.18	33195.07
598.538	33169.76
598.897	33320.72
599.255	33054.06
599.613	33638
599.972	33495.4
600.33	33612.46
600.688	33365.24
601.046	33513.71
601.404	33643.42
601.762	33677.32
602.12	33792.12
602.478	33746.7
602.836	33706.47
603.194	33585.12
603.552	33733.82
603.91	33612.01
604.268	33711.67
604.625	33748.28
604.983	33817.2
605.341	33572.46
605.698	33774.27
606.056	33917.54
606.413	33905.79
606.771	34139.46
607.128	34055.62
607.485	33951.66
607.843	34063.98
608.2	34163.41
608.557	34351.88
608.914	34238.89
609.272	34356.4
609.629	34374.03
609.986	34475.94
610.343	34355.04
610.7	34462.16
611.057	34562.72
611.414	34440.92
611.771	34408.15
612.127	34642.72
612.484	34558.2
612.841	34755.71
613.198	34635.49
613.554	34603.17
613.911	34813.11
614.267	34872.54
614.624	34791.42
614.98	34975.14
615.337	34990.96
615.693	34937.4
616.05	34993.22
616.406	35139.66
616.762	35071.18
617.118	35038.19
617.475	34995.25
617.831	35127.45
618.187	35230.27
618.543	35224.85
618.899	35385.3
619.255	35386.65
619.611	35412.19
619.967	35359.08
620.323	35511.17
620.678	35340.55
621.034	35207.68
621.39	35197.05
621.746	35259.2
622.101	35628.68
622.457	35313.66
622.812	35372.42
623.168	35438.18
623.523	35362.7
623.879	35655.57
624.234	35328.8
624.589	35431.4
624.945	35465.07
625.3	35450.61
625.655	35495.8
626.01	35516.82
626.365	35557.05
626.72	35409.93
627.075	35505.07
627.43	35412.19
627.785	35436.82
628.14	35372.87
628.495	35417.61
628.85	35454
629.205	35212.65
629.559	35486.99
629.914	35226.88
630.269	35306.2
630.623	35230.95
630.978	35067.79
631.332	35297.84
631.687	35353.43
632.041	35095.59
632.396	35036.38
632.75	34827.35
633.104	35024.4
633.459	34926.33
633.813	34856.27
634.167	34737.41
634.521	34758.42
634.875	34948.25
635.229	34779.44
635.583	34732.89
635.937	34692.21
636.291	34712.32
636.645	34691.98
636.999	34706.67
637.352	34717.52
637.706	34491.99
638.06	34513.46
638.413	34560.69
638.767	34294.25
639.121	34346
639.474	34345.78
639.828	34266.91
640.181	34254.71
640.534	34359.34
640.888	34232.11
641.241	34059.46
641.594	34021.27
641.947	34062.85
642.301	33966.35
642.654	34026.46
643.007	33914.15
643.36	34004.32
643.713	33899.91
644.066	34008.39
644.419	33636.42
644.771	33556.19
645.124	33125.24
645.477	33093.61
645.83	32820.17
646.182	32853.84
646.535	32769.55
646.888	32780.4
647.24	32722.54
647.593	32903.33
647.945	32686.61
648.298	32568.65
648.65	32573.62
649.002	32457.92
649.355	32585.82
649.707	32538.59
650.059	32583.11
650.411	32917.34
650.763	32875.53
651.115	33310.32
651.467	33164.79
651.819	33142.87
652.171	33017.9
652.523	33040.28
652.875	33038.24
653.227	32956.44
653.578	33247.73
653.93	32985.14
654.282	32864.23
654.633	32831.24
654.985	32866.72
655.337	32800.06
655.688	32716.67
656.039	32921.86
656.391	32601.42
656.742	32662.66
657.094	32675.31
657.445	32750.57
657.796	32643.68
658.147	32583.79
658.498	32626.27
658.849	32627.4
659.2	32586.05
659.551	32512.38
659.902	32584.02
660.253	32572.49
660.604	32551.25
660.955	32383.8
661.306	32538.37
661.656	32444.58
662.007	32473.28
662.358	32433.74
662.708	32383.34
663.059	32476
663.409	32206.4
663.76	32398.26
664.11	32361.42
664.461	32133.63
664.811	32349.22
665.161	32377.47
665.511	32188.09
665.862	32157.59
666.212	32371.59
666.562	32292.5
666.912	32137.02
667.262	32160.07
667.612	32079.17
667.962	32198.49
668.312	32083.24
668.662	32288.43
669.011	32111.94
669.361	32078.27
669.711	32064.26
670.06	32107.42
670.41	31959.17
670.76	31915.56
671.109	32048.89
671.459	32096.35
671.808	31925.73
672.157	32098.61
672.507	31753.53
672.856	31703.36
673.205	31824.04
673.554	31949.91
673.904	31837.37
674.253	31887.54
674.602	31794.66
674.951	31421.11
675.3	31250.27
675.649	31776.81
675.998	31683.25
676.346	31784.04
676.695	31800.99
677.044	31486.19
677.393	31542.24
677.741	31621.78
678.09	31595.79
678.438	31441
678.787	31457.04
679.135	31528.45
679.484	31292.52
679.832	31384.95
680.181	31265.41
680.529	31312.19
680.877	31223.83
681.225	31159.19
681.573	31241.45
681.922	31047.11
682.27	31014.11
682.618	31137.27
682.966	31099.31
683.314	31125.3
683.661	30887.79
684.009	30668.59
684.357	30687.34
684.705	30593.56
685.053	30767.11
685.4	30682.37
685.748	30406.67
686.095	30492.77
686.443	30363.74
686.79	30364.87
687.138	30387.69
687.485	30308.6
687.832	30224.76
688.18	30345.66
688.527	30047.81
688.874	30125.32
689.221	29869.29
689.568	29982.05
689.915	29761.04
690.262	29781.15
690.609	29809.63
690.956	29735.28
691.303	29734.37
691.65	29491.22
691.997	29469.07
692.344	29387.72
692.69	29411.67
693.037	29380.03
693.383	29116.76
693.73	29325.8
694.077	29232.24
694.423	29130.77
694.769	29109.98
695.116	28903.21
695.462	28880.61
695.808	28684.01
696.155	28813.27
696.501	28526.72
696.847	28462.54
697.193	28228.65
697.539	28532.6
697.885	28092.83
698.231	28094.87
698.577	28113.63
698.923	27996.34
699.269	27840.41
699.614	27762.45
699.96	27700.53
700.306	27836.57
700.651	27550.48
700.997	27613.07
701.342	27709.12
701.688	27442.46
702.033	27307.77
702.379	27361.78
702.724	27281.56
703.069	27371.27
703.415	26997.04
703.76	26988.23
704.105	27113.43
704.45	26774
704.795	26839.31
705.14	26694.45
705.485	26745.98
705.83	26588.24
706.175	26672.31
706.52	26571.74
706.865	26405.2
707.209	26458.98
707.554	26299.66
707.899	26462.82
708.243	26317.97
708.588	26171.76
708.932	26062.61
709.277	25947.81
709.621	26027.13
709.966	25844.08
710.31	25880.01
710.654	25674.14
710.998	25650.41
711.342	25702.39
711.687	25581.94
712.031	25570.64
712.375	25429.18
712.719	25538.78
713.063	25533.81
713.407	25493.81
713.75	25446.58
714.094	25330.2
714.438	25116.19
714.782	25255.4
715.125	25122.52
715.469	25126.36
715.812	24991.45
716.156	24859.93
716.499	24845.69
716.843	24943.09
717.186	24759.14
717.53	24927.49
717.873	24852.24
718.216	24736.09
718.559	24639.14
718.902	24493.38
719.246	24529.09
719.589	24508.97
719.932	24435.3
720.275	24272.14
720.617	24392.82
720.96	24304.46
721.303	24277.79
721.646	24288.87
721.989	24108.98
722.331	24237.57
722.674	24017.69
723.016	24057.91
723.359	23941.98
723.701	24010.23
724.044	23846.17
724.386	23826.28
724.729	23835.77
725.071	23827.64
725.413	23794.64
725.755	23765.72
726.097	23718.26
726.439	23551.03
726.782	23588.55
727.124	23676.23
727.465	23515.55
727.807	23489.34
728.149	23402.34
728.491	23431.04
728.833	23394.88
729.175	23311.04
729.516	23170.7
729.858	23227.88
730.199	23213.42
730.541	23174.09
730.882	23099.52
731.224	23178.39
731.565	23013.42
731.906	23003.25
732.248	23066.98
732.589	22841
732.93	22728
733.271	22793.09
733.612	22778.62
733.953	22813.43
734.294	22736.59
734.635	22655.69
734.976	22739.98
735.317	22566.43
735.658	22629.02
735.999	22572.08
736.339	22511.51
736.68	22607.78
737.021	22473.1
737.361	22376.6
737.702	22498.41
738.042	22286.66
738.383	22311.29
738.723	22427.22
739.063	22239.66
739.404	22398.07
739.744	22202.59
740.084	22194.46
740.424	22074.91
740.764	22071.3
741.104	22138.19
741.444	22050.51
741.784	21945.65
742.124	21977.74
742.464	21954.47
742.804	21910.17
743.143	21877.4
743.483	21784.07
743.823	21769.61
744.162	21744.08
744.502	21758.54
744.841	21529.62
745.181	21680.35
745.52	21620.01
745.86	21554.02
746.199	21589.73
746.538	21523.06
746.877	21587.24
747.216	21580.92
747.556	21514.48
747.895	21371.66
748.234	21390.86
748.573	21342.05
748.911	21248.72
749.25	21174.6
749.589	21090.08
749.928	21080.82
750.267	21183.86
750.605	21104.54
750.944	20987.94
751.283	20976.64
751.621	20984.32
751.96	20867.49
752.298	20861.84
752.636	20797.21
752.975	20702.52
753.313	20657.55
753.651	20825
753.989	20658.23
754.327	20550.21
754.666	20366.26
755.004	20464.56
755.342	20482.19
755.679	20467.05
756.017	20406.03
756.355	20244.45
756.693	20234.74
757.031	20236.09
757.368	20095.53
757.706	20199.03
758.044	20016.21
758.381	20055.76
758.719	19976.21
759.056	19910.9
759.394	19927.4
759.731	19713.39
760.068	19762.66
760.405	19597.69
760.743	19566.96
761.08	19630.91
761.417	19420.07
761.754	19489.9
762.091	19429.56
762.428	19247.19
762.765	19200.64
763.102	19266.85
763.438	19140.53
763.775	19015.56
764.112	19058.5
764.449	19030.93
764.785	18900.53
765.122	18837.94
765.458	18691.73
765.795	18765.62
766.131	18678.85
766.467	18586.19
766.804	18512.07
767.14	18453.09
767.476	18481.79
767.812	18345.07
768.148	18339.87
768.485	18244.28
768.821	18233.66
769.157	18136.26
769.492	18152.98
769.828	18107.79
770.164	17942.59
770.5	17894.68
770.836	17876.61
771.171	17790.05
771.507	17802.03
771.842	17602.04
772.178	17608.36
772.513	17596.39
772.849	17387.81
773.184	17428.48
773.519	17370.86
773.855	17334.02
774.19	17247.92
774.525	17189.84
774.86	17104.65
775.195	17037.53
775.53	16925.9
775.865	16823.75
776.2	16823.3
776.535	16668.73
776.87	16663.53
777.205	16628.96
777.539	16544.44
777.874	16530.43
778.209	16408.4
778.543	16356.42
778.878	16261.73
779.212	16296.76
779.547	16126.14
779.881	16215.18
780.215	16087.27
780.55	16056.09
780.884	16015.86
781.218	15927.28
781.552	15977.22
781.886	15824
782.22	15729.09
782.554	15664.01
782.888	15586.95
783.222	15442.55
783.556	15387.18
783.889	15392.15
784.223	15367.52
784.557	15279.61
784.89	15272.83
785.224	15281.19
785.557	15164.81
785.891	15157.58
786.224	15069.22
786.558	15066.74
786.891	14920.53
787.224	14857.48
787.557	14854.99
787.891	14799.62
788.224	14799.62
788.557	14668.1
788.89	14704.94
789.223	14638.95
789.556	14457.71
789.888	14399.64
790.221	14400.31
790.554	14348.56
790.887	14378.17
791.219	14248.23
791.552	14198.51
791.884	14181.34
792.217	14110.38
792.549	14073.77
792.882	13980.66
793.214	13849.59
793.546	13945.86
793.879	13789.93
794.211	13791.06
794.543	13745.87
794.875	13692.08
795.207	13730.05
795.539	13652.54
795.871	13622.93
796.203	13586.78
796.535	13401.47
796.867	13485.54
797.198	13384.29
797.53	13296.39
797.862	13240.57
798.193	13298.42
798.525	13172.32
798.856	13238.08
799.188	13120.8
799.519	13063.63
799.85	13008.49
800.182	12972.33
800.513	12972.33
800.844	12884.2
801.175	13006.68
801.506	12972.55
801.837	12851.88
802.168	12765.55
802.499	12756.74
802.83	12626.35
803.161	12672.22
803.491	12605.78
803.822	12627.7
804.153	12485.56
804.483	12492.34
804.814	12401.27
805.145	12380.25
805.475	12397.43
805.805	12330.76
806.136	12380.03
806.466	12241.95
806.796	12272.46
807.126	12146.14
807.457	12125.57
807.787	12114.95
808.117	12037.21
808.447	11997.44
808.777	12027.49
809.107	11951.56
809.436	11955.18
809.766	11921.73
810.096	11916.08
810.426	11896.42
810.755	11841.51
811.085	11819.82
811.414	11752.02
811.744	11670.22
812.073	11685.58
812.403	11662.53
812.732	11617.79
813.061	11559.94
813.39	11525.36
813.719	11473.16
814.049	11587.96
814.378	11383.44
814.707	11422.31
815.036	11436.32
815.365	11352.94
815.693	11297.12
816.022	11302.54
816.351	11183.22
816.68	11219.83
817.008	11220.96
817.337	11086.95
817.665	11131.47
817.994	11134.86
818.322	11134.18
818.651	11075.2
818.979	11014.41
819.307	11079.95
819.636	10960.63
819.964	10928.09
820.292	10955.21
820.62	10927.86
820.948	10870.69
821.276	10923.12
821.604	10867.52
821.932	10914.3
822.259	10832.95
822.587	10874.08
822.915	10822.78
823.243	10898.26
823.57	10851.03
823.898	10893.74
824.225	10779.17
824.553	10866.17
824.88	10853.74
825.207	10877.69
825.535	10799.05
825.862	10845.6
826.189	10744.36
826.516	10893.74
826.843	10888.54
827.17	10831.37
827.497	10849.9
827.824	10849.22
828.151	10873.4
828.478	10746.4
828.805	10803.57
829.131	10796.79
829.458	10716.34
829.785	10699.62
830.111	10756.57
830.438	10853.74
830.764	10782.1
831.09	10758.15
831.417	10710.47
831.743	10728.55
832.069	10723.12
832.395	10630.7
832.722	10752.5
833.048	10688.55
833.374	10668.21
833.7	10564.03
834.026	10651.49
834.351	10685.16
834.677	10585.95
835.003	10700.3
835.329	10709.79
835.654	10591.83
835.98	10557.93
836.306	10522.9
836.631	10524.26
836.956	10607.64
837.282	10613.97
837.607	10560.64
837.932	10530.58
838.258	10560.87
838.583	10500.53
838.908	10395.45
839.233	10375.56
839.558	10436.58
839.883	10417.82
840.208	10310.93
840.533	10310.7
840.858	10322.91
841.182	10358.16
841.507	10261.21
841.832	10211.05
842.156	10175.11
842.481	10233.19
842.805	10173.76
843.13	10158.84
843.454	10144.15
843.778	10100.31
844.103	10068.45
844.427	10031.16
844.751	10124.72
845.075	10046.98
845.399	10011.73
845.723	9984.84
846.047	9966.76
846.371	9841.11
846.695	9890.15
847.019	9734.22
847.343	9728.12
847.666	9701.68
847.99	9652.64
848.313	9690.83
848.637	9628.91
848.96	9599.54
849.284	9521.57
849.607	9461.46
849.931	9422.82
850.254	9372.42
850.577	9310.05
850.9	9264.63
851.223	9299.66
851.546	9204.74
851.869	9190.28
852.192	9176.95
852.515	9157.74
852.838	9083.84
853.161	9142.6
853.483	9051.3
853.806	8980.79
854.129	8983.96
854.451	8950.29
854.774	8860.8
855.096	8913.45
855.419	8866.9
855.741	8845.88
856.063	8794.59
856.385	8822.16
856.708	8754.36
857.03	8742.38
857.352	8705.32
857.674	8676.4
857.996	8648.37
858.318	8583.74
858.64	8634.36
858.961	8555.95
859.283	8564.08
859.605	8486.12
859.926	8469.17
860.248	8463.97
860.57	8478.21
860.891	8401.6
861.212	8409.74
861.534	8368.38
861.855	8298.78
862.176	8391.66
862.498	8356.63
862.819	8363.64
863.14	8287.25
863.461	8336.52
863.782	8271.66
864.103	8251.77
864.424	8310.53
864.745	8235.96
865.065	8157.54
865.386	8155.73
865.707	8160.7
866.027	8119.8
866.348	8188.05
866.668	8182.85
866.989	8083.87
867.309	8063.76
867.63	8085.45
867.95	8032.12
868.27	7933.36
868.59	7993.48
868.91	8016.75
869.23	7933.82
869.55	7972.23
869.87	8000.03
870.19	7949.64
870.51	7930.88
870.83	8000.93
871.15	7885.68
871.469	7885.68
871.789	7892.24
872.109	7863.08
872.428	7845.91
872.748	7896.98
873.067	7852.24
873.386	7854.04
873.706	7823.09
874.025	7696.76
874.344	7784.67
874.663	7774.05
874.982	7738.34
875.301	7721.17
875.62	7686.37
875.939	7685.24
876.258	7692.47
876.577	7621.96
876.896	7634.62
877.214	7579.02
877.533	7623.99
877.852	7607.05
878.17	7630.32
878.489	7653.15
878.807	7583.77
879.125	7583.09
879.444	7562.3
879.762	7560.72
880.08	7559.14
880.398	7523.88
880.716	7562.08
881.034	7502.64
881.352	7499.7
881.67	7459.48
881.988	7456.54
882.306	7384
882.624	7404.11
882.941	7346.49
883.259	7298.13
883.577	7329.31
883.894	7344.91
884.212	7320.5
884.529	7253.83
884.846	7312.36
885.164	7261.52
885.481	7202.76
885.798	7230.33
886.115	7176.1
886.432	7127.96
886.75	7142.88
887.067	7229.2
887.383	7148.75
887.7	7136.1
888.017	7134.29
888.334	7082.99
888.651	7060.17
888.967	7054.74
889.284	7009.1
889.6	6974.52
889.917	6936.55
890.233	6999.15
890.55	6950.11
890.866	6951.02
891.182	6926.61
891.498	6879.38
891.815	6914.63
892.131	6832.15
892.447	6781.3
892.763	6785.15
893.079	6763.68
893.395	6796.9
893.71	6734.07
894.026	6724.13
894.342	6708.54
894.657	6682.32
894.973	6657.47
895.289	6620.18
895.604	6566.17
895.92	6563.01
896.235	6548.32
896.55	6570.01
896.865	6519.84
897.181	6469.45
897.496	6478.04
897.811	6432.39
898.126	6405.95
898.441	6376.57
898.756	6361.2
899.071	6389.45
899.386	6405.72
899.7	6309.68
900.015	6281.66
900.33	6294.76
900.644	6255.67
900.959	6257.7
901.273	6250.92
901.588	6170.47
901.902	6146.07
902.216	6168.21
902.531	6153.98
902.845	6142.23
903.159	6102.45
903.473	6100.42
903.787	6052.51
904.101	6060.65
904.415	6010.48
904.729	6010.03
905.042	5920.99
905.356	5857.26
905.67	5906.53
905.984	5931.84
906.297	5880.31
906.611	5828.56
906.924	5862.68
907.237	5813.87
907.551	5790.82
907.864	5731.84
908.177	5748.11
908.491	5677.38
908.804	5706.08
909.117	5692.07
909.43	5638.51
909.743	5659.75
910.056	5640.32
910.368	5530.94
910.681	5521.9
910.994	5502.47
911.307	5501.34
911.619	5509.02
911.932	5438.06
912.244	5441.23
912.557	5419.98
912.869	5419.08
913.181	5341.34
913.494	5399.42
913.806	5336.82
914.118	5310.16
914.43	5231.29
914.742	5274.68
915.054	5217.73
915.366	5237.84
915.678	5170.5
915.99	5200.78
916.302	5143.38
916.613	5135.02
916.925	5108.81
917.236	5153.32
917.548	5024.06
917.859	5062.48
918.171	5010.73
918.482	4991.75
918.794	4959.21
919.105	5035.81
919.416	4926.44
919.727	4955.36
920.038	4913.33
920.349	4851.19
920.66	4844.18
920.971	4836.95
921.282	4851.41
921.593	4777.06
921.903	4837.63
922.214	4809.61
922.525	4738.65
922.835	4713.79
923.146	4676.5
923.456	4678.08
923.767	4656.39
924.077	4635.37
924.387	4608.48
924.697	4593.11
925.008	4553.79
925.318	4628.82
925.628	4537.52
925.938	4581.81
926.248	4486
926.558	4437.64
926.867	4460.46
927.177	4492.78
927.487	4458.65
927.796	4413.46
928.106	4415.94
928.416	4360.8
928.725	4342.27
929.034	4346.34
929.344	4331.65
929.653	4332.56
929.962	4280.81
930.271	4260.24
930.581	4257.98
930.89	4216.4
931.199	4226.8
931.508	4153.58
931.817	4184.54
932.125	4144.54
932.434	4145.44
932.743	4129.62
933.051	4099.79
933.36	4033.35
933.669	4068.38
933.977	4064.09
934.286	4024.09
934.594	4041.04
934.902	3990.87
935.21	4004.2
935.519	3992.9
935.827	3967.37
936.135	3912.45
936.443	3921.04
936.751	3904.09
937.059	3872.91
937.367	3878.33
937.674	3880.36
937.982	3818.67
938.29	3818.67
938.597	3836.52
938.905	3758.56
939.213	3764.43
939.52	3740.25
939.827	3777.54
940.135	3726.02
940.442	3668.84
940.749	3682.18
941.056	3704.55
941.363	3681.05
941.67	3666.36
941.977	3608.96
942.284	3593.82
942.591	3608.05
942.898	3605.34
943.205	3589.07
943.511	3549.75
943.818	3562.63
944.125	3558.11
944.431	3495.29
944.738	3476.98
945.044	3459.36
945.35	3463.43
945.657	3463.88
945.963	3413.26
946.269	3422.75
946.575	3398.34
946.881	3384.78
947.187	3369.42
947.493	3354.05
947.799	3371.9
948.105	3308.4
948.41	3302.53
948.716	3329.42
949.022	3274.5
949.327	3257.78
949.633	3209.87
949.938	3245.35
950.244	3265.92
950.549	3212.81
950.854	3174.39
951.16	3170.33
951.465	3151.34
951.77	3159.93
952.075	3164.9
952.38	3108.18
952.685	3100.05
952.99	3084.23
953.294	3095.98
953.599	3072.48
953.904	3068.86
954.209	3051.23
954.513	3043.78
954.818	3043.1
955.122	3015.98
955.426	2992.03
955.731	2998.81
956.035	3005.13
956.339	2929.88
956.643	2945.25
956.948	2936.89
957.252	2924.46
957.556	2911.58
957.86	2877.9
958.163	2884.46
958.467	2929.65
958.771	2893.95
959.075	2867.51
959.378	2880.62
959.682	2860.28
959.985	2805.36
960.289	2821.18
960.592	2790.9
960.896	2762.43
961.199	2745.03
961.502	2767.85
961.805	2775.08
962.108	2704.35
962.411	2680.17
962.714	2691.02
963.017	2692.15
963.32	2710.68
963.623	2643.56
963.926	2699.6
964.228	2687.63
964.531	2646.05
964.833	2670.9
965.136	2623.22
965.438	2625.71
965.741	2624.35
966.043	2588.65
966.345	2567.86
966.648	2592.71
966.95	2558.36
967.252	2566.05
967.554	2540.96
967.856	2517.69
968.158	2510.23
968.46	2500.74
968.761	2497.12
969.063	2495.32
969.365	2491.7
969.666	2446.5
969.968	2438.59
970.269	2489.89
970.571	2402.44
970.872	2404.92
971.174	2429.55
971.475	2423.68
971.776	2392.49
972.077	2401.76
972.378	2371.93
972.679	2375.32
972.98	2366.51
973.281	2345.26
973.582	2299.61
973.883	2342.55
974.183	2292.61
974.484	2297.35
974.785	2267.75
975.085	2258.94
975.386	2254.64
975.686	2268.88
975.986	2261.65
976.287	2283.34
976.587	2218.49
976.887	2230.46
977.187	2213.52
977.487	2221.2
977.787	2201.76
978.087	2193.4
978.387	2162.44
978.687	2193.63
978.987	2152.95
979.286	2121.09
979.586	2161.31
979.885	2156.34
980.185	2085.61
980.484	2100.3
980.784	2097.36
981.083	2092.61
981.382	2061.65
981.682	2112.27
981.981	2043.58
982.28	2087.87
982.579	2065.95
982.878	2051.26
983.177	2037.25
983.475	2004.93
983.774	2000.19
984.073	1990.92
984.372	1983.01
984.67	1995.22
984.969	1996.8
985.267	1955.67
985.566	1981.2
985.864	1970.81
986.162	1936.01
986.461	1917.93
986.759	1884.94
987.057	1934.88
987.355	1926.07
987.653	1917.48
987.951	1915.67
988.249	1872.06
988.547	1893.52
988.844	1861.66
989.142	1847.88
989.44	1843.13
989.737	1840.42
990.035	1833.64
990.332	1833.19
990.63	1837.93
990.927	1821.21
991.224	1791.15
991.521	1805.16
991.819	1812.62
992.116	1825.95
992.413	1761.1
992.71	1765.62
993.006	1773.98
993.303	1759.52
993.6	1729.01
993.897	1763.58
994.193	1737.37
994.49	1708.22
994.787	1728.56
995.083	1713.42
995.379	1696.01
995.676	1691.04
995.972	1682
996.268	1691.27
996.565	1674.77
996.861	1638.39
997.157	1649.01
997.453	1632.74
997.749	1654.21
998.044	1613.76
998.34	1628.45
998.636	1632.06
998.932	1628.67
999.227	1609.46
999.523	1602.68
999.818	1554.1
1000.114	1562.91
1000.409	1557.94
1000.704	1571.5
1001	1525.85
1001.295	1526.98
1001.59	1548
1001.885	1544.83
1002.18	1545.28
1002.475	1505.74
1002.77	1498.05
1003.065	1533.53
1003.359	1490.37
1003.654	1520.2
1003.949	1481.56
1004.243	1468.9
1004.538	1459.41
1004.832	1423.48
1005.127	1446.76
1005.421	1438.62
1005.715	1434.55
1006.009	1422.35
1006.304	1433.2
1006.598	1384.84
1006.892	1425.06
1007.186	1396.36
1007.48	1402.46
1007.773	1381.9
1008.067	1373.54
1008.361	1363.14
1008.655	1345.74
1008.948	1373.31
1009.242	1341.67
1009.535	1314.78
1009.829	1332.86
1010.122	1301.67
1010.415	1337.83
1010.708	1270.26
1011.001	1289.7
1011.295	1284.73
1011.588	1280.88
1011.881	1272.3
1012.173	1282.92
1012.466	1276.82
1012.759	1274.1
1013.052	1249.25
1013.344	1247.89
1013.637	1246.31
1013.93	1215.8
1014.222	1219.19
1014.514	1214.67
1014.807	1238.4
1015.099	1213.99
1015.391	1189.36
1015.683	1196.59
1015.976	1166.31
1016.268	1168.57
1016.56	1171.28
1016.851	1181.9
1017.143	1188.01
1017.435	1180.32
1017.727	1125.63
1018.018	1133.32
1018.31	1139.65
1018.602	1150.72
1018.893	1127.22
1019.185	1143.49
1019.476	1116.14
1019.767	1105.97
1020.058	1079.53
1020.35	1102.81
1020.641	1064.62
1020.932	1057.16
1021.223	1063.94
1021.514	1072.75
1021.804	1050.83
1022.095	1051.06
1022.386	1022.59
1022.677	1028.24
1022.967	1010.61
1023.258	1005.41
1023.548	1020.55
1023.839	1002.47
1024.129	995.92
1024.419	992.98
1024.709	983.49
1025	974.23
1025.29	990.5
1025.58	971.06
1025.87	969.25
1026.16	954.57
1026.449	959.76
1026.739	949.82
1027.029	966.09
1027.319	939.42
1027.608	945.53
1027.898	951.85
1028.187	936.03
1028.477	927.67
1028.766	930.16
1029.055	865.98
1029.344	923.61
1029.634	892.65
1029.923	903.49
1030.212	911.63
1030.501	881.8
1030.79	870.05
1031.078	861.91
1031.367	883.61
1031.656	865.3
1031.945	875.7
1032.233	863.72
1032.522	851.29
1032.81	828.92
1033.099	822.59
1033.387	858.07
1033.675	815.36
1033.963	824.63
1034.251	818.75
1034.54	805.64
1034.828	807
1035.116	815.36
1035.403	762.93
1035.691	794.12
1035.979	801.8
1036.267	775.59
1036.554	781.69
1036.842	776.04
1037.129	763.38
1037.417	775.59
1037.704	776.49
1037.992	763.61
1038.279	763.16
1038.566	742.14
1038.853	742.14
1039.14	742.14
