Data from plate_porcelain_FLMS001491_008.txt Node
Date: Tue Feb 07 11:18:39 GMT 2017
User: dcchb
Spectrometer: FLMS00149
Trigger mode: 0
Integration Time (sec): 2.000000E-2
Scans to average: 10
Electric dark correction enabled: true
Nonlinearity correction enabled: false
Boxcar width: 0
XAxis mode: Wavelengths
Number of Pixels in Spectrum: 2048
>>>>>Begin Spectral Data<<<<<
341.393	-20.01
341.776	-20.01
342.16	-20.01
342.543	-64.31
342.927	-63.4
343.31	-55.49
343.693	-77.87
344.077	-65.89
344.46	-59.56
344.843	-66.79
345.226	-45.78
345.61	-27.47
345.993	-18.21
346.376	-3.06
346.759	8.91
347.142	19.53
347.525	46.88
347.908	67.67
348.291	83.49
348.674	86.65
349.057	106.99
349.44	136.59
349.823	133.88
350.206	179.98
350.588	234.89
350.971	247.1
351.354	265.63
351.737	273.99
352.119	290.03
352.502	306.53
352.884	305.4
353.267	315.12
353.65	327.77
354.032	318.96
354.414	347.66
354.797	335.46
355.179	356.25
355.562	370.71
355.944	364.84
356.326	374.1
356.709	387.43
357.091	353.76
357.473	386.3
357.855	360.32
358.238	402.8
358.62	393.76
359.002	371.61
359.384	388.34
359.766	389.69
360.148	391.95
360.53	417.04
360.912	404.16
361.294	373.87
361.676	397.83
362.057	396.25
362.439	374.55
362.821	387.21
363.203	398.05
363.584	393.76
363.966	378.17
364.348	369.58
364.729	375.23
365.111	388.56
365.493	386.98
365.874	393.08
366.256	375
366.637	396.47
367.019	397.83
367.4	385.4
367.781	384.95
368.163	383.14
368.544	403.03
368.925	394.21
369.306	420.65
369.688	408
370.069	417.72
370.45	428.11
370.831	411.84
371.212	404.16
371.593	389.92
371.974	418.17
372.355	432.86
372.736	408.9
373.117	417.04
373.498	421.56
373.879	451.61
374.26	418.62
374.641	410.26
375.021	427.43
375.402	430.37
375.783	453.19
376.163	452.97
376.544	453.87
376.925	459.07
377.305	474.66
377.686	460.88
378.066	448.22
378.447	463.59
378.827	495.45
379.208	489.13
379.588	455.45
379.968	493.65
380.349	476.24
380.729	497.26
381.109	489.8
381.489	471.5
381.87	495.23
382.25	527.54
382.63	520.76
383.01	518.73
383.39	508.11
383.77	536.81
384.15	516.02
384.53	551.5
384.91	559.86
385.29	538.62
385.67	552.17
386.049	574.55
386.429	571.16
386.809	588.56
387.189	601.66
387.568	605.73
387.948	565.73
388.328	574.32
388.707	609.35
389.087	606.18
389.466	611.16
389.846	626.52
390.225	633.75
390.605	649.12
390.984	663.36
391.363	641.21
391.743	659.29
392.122	675.34
392.501	685.5
392.881	680.98
393.26	713.07
393.639	746.52
394.018	696.13
394.397	704.26
394.776	747.42
395.155	737.25
395.534	732.96
395.913	753.07
396.292	748.1
396.671	779.29
397.05	779.06
397.429	798.27
397.808	763.02
398.186	789.46
398.565	793.98
398.944	789
399.323	828.55
399.701	826.29
400.08	836.24
400.458	845.27
400.837	850.02
401.215	850.47
401.594	848.89
401.972	889.34
402.351	902.22
402.729	896.35
403.107	906.97
403.486	915.56
403.864	907.19
404.242	924.37
404.62	963.46
404.999	956.01
405.377	949.68
405.755	964.37
406.133	983.8
406.511	996.91
406.889	1005.72
407.267	1045.5
407.645	1042.33
408.023	1052.27
408.401	1067.19
408.779	1091.82
409.156	1116.91
409.534	1117.36
409.912	1142.44
410.29	1168.2
410.667	1166.62
411.045	1162.78
411.422	1199.39
411.8	1219.5
412.178	1234.19
412.555	1249.33
412.933	1272.16
413.31	1277.58
413.687	1305.15
414.065	1353.51
414.442	1332.49
414.819	1370.01
415.197	1337.01
415.574	1375.88
415.951	1399.84
416.328	1417.24
416.705	1422.21
417.082	1446.84
417.46	1455.65
417.837	1493.62
418.214	1479.61
418.591	1525.93
418.967	1506.73
419.344	1556.44
419.721	1557.8
420.098	1555.09
420.475	1581.3
420.852	1607.74
421.228	1616.33
421.605	1614.75
421.982	1657.46
422.358	1673.95
422.735	1688.19
423.111	1700.39
423.488	1734.29
423.864	1737.23
424.241	1772.03
424.617	1788.07
424.994	1800.28
425.37	1778.36
425.746	1872.37
426.123	1880.95
426.499	1877.11
426.875	1884.34
427.251	1959.14
427.627	1997.11
428.003	1984.23
428.379	2033.27
428.756	2071.68
429.132	2100.83
429.507	2097.22
429.883	2148.52
430.259	2179.7
430.635	2195.3
431.011	2221.06
431.387	2266.48
431.763	2268.97
432.138	2341.28
432.514	2333.6
432.89	2389.41
433.265	2409.98
433.641	2454.5
434.016	2474.16
434.392	2513.03
434.767	2578.11
435.143	2565.91
435.518	2580.6
435.894	2639.13
436.269	2653.81
436.644	2725.68
437.02	2737.43
437.395	2766.35
437.77	2781.49
438.145	2802.06
438.52	2896.75
438.895	2878.44
439.271	2956.41
439.646	2981.49
440.021	3018.1
440.395	3022.17
440.77	3010.19
441.145	3039.57
441.52	3086.8
441.895	3091.09
442.27	3118.21
442.645	3170.86
443.019	3172.9
443.394	3202.05
443.769	3261.48
444.143	3223.74
444.518	3278.66
444.892	3264.42
445.267	3282.72
445.641	3350.29
446.016	3373.57
446.39	3366.11
446.764	3387.58
447.139	3384.42
447.513	3462.15
447.887	3539.44
448.262	3514.36
448.636	3533.11
449.01	3586.45
449.384	3631.64
449.758	3674.35
450.132	3715.03
450.506	3755.71
450.88	3727.23
451.254	3743.5
451.628	3840.45
452.002	3876.61
452.376	3929.94
452.75	3969.26
453.123	4018.98
453.497	4076.38
453.871	4093.55
454.244	4167.67
454.618	4183.04
454.992	4242.7
455.365	4265.52
455.739	4371.96
456.112	4431.85
456.486	4482.24
456.859	4497.38
457.232	4617.6
457.606	4604.72
457.979	4674.33
458.352	4793.65
458.725	4856.02
459.099	4818.73
459.472	4947.99
459.845	4998.84
460.218	5053.98
460.591	5144.37
460.964	5143.69
461.337	5270.69
461.71	5364.25
462.083	5404.93
462.456	5406.74
462.829	5430.69
463.201	5544.59
463.574	5584.58
463.947	5646.28
464.32	5797.91
464.692	5851.24
465.065	5881.07
465.438	5951.35
465.81	6099.15
466.183	6120.16
466.555	6262.99
466.928	6279.48
467.3	6326.71
467.672	6422.08
468.045	6556.99
468.417	6607.38
468.789	6680.15
469.161	6743.42
469.534	6876.75
469.906	7031.33
470.278	7092.12
470.65	7201.94
471.022	7333.47
471.394	7452.78
471.766	7523.52
472.138	7630.41
472.51	7822.27
472.882	7913.79
473.253	7971.41
473.625	8130.05
473.997	8294.12
474.369	8444.4
474.74	8474
475.112	8608.46
475.484	8748.12
475.855	9005.29
476.227	8987.21
476.598	9236.24
476.97	9344.71
477.341	9518.49
477.713	9681.43
478.084	9767.3
478.455	10100.62
478.827	10169.32
479.198	10398.02
479.569	10481.41
479.94	10758.69
480.311	10844.33
480.682	11150.99
481.053	11368.39
481.424	11556.41
481.795	11703.52
482.166	11835.72
482.537	11964.53
482.908	12270.74
483.279	12450.84
483.65	12625.08
484.021	12825.98
484.391	13039.98
484.762	13066.65
485.133	13313.42
485.503	13479.97
485.874	13796.57
486.244	13895.55
486.615	14160.86
486.985	14402.43
487.356	14622.99
487.726	14718.36
488.097	15106.82
488.467	15096.65
488.837	15410.77
489.207	15608.95
489.578	15855.5
489.948	15929.17
490.318	16295.04
490.688	16310.4
491.058	16620.45
491.428	16798.53
491.798	17014.34
492.168	17438.74
492.538	17394.9
492.908	17620.65
493.278	17880.31
493.648	17968.44
494.017	18132.28
494.387	18301.31
494.757	18658.59
495.126	18654.07
495.496	18788.76
495.866	18871.02
496.235	19141.29
496.605	19330.44
496.974	19456.99
497.344	19642.75
497.713	19756.19
498.082	19973.58
498.452	20150.76
498.821	20307.81
499.19	20376.51
499.559	20570.18
499.928	20753.45
500.298	20839.32
500.667	21059.88
501.036	20872.77
501.405	21227.79
501.774	21302.36
502.143	21586.65
502.512	21677.72
502.88	21962.23
503.249	21952.06
503.618	22173.98
503.987	22293.52
504.356	22429.57
504.724	22482.67
505.093	22692.84
505.462	22799.95
505.83	23037.91
506.199	23218.25
506.567	23527.39
506.936	23536.2
507.304	23862.52
507.672	23868.62
508.041	24121.27
508.409	24222.06
508.777	24384.99
509.145	24584.99
509.514	24696.4
509.882	24923.29
510.25	24886.22
510.618	25163.28
510.986	25208.7
511.354	25557.39
511.722	25812.08
512.09	25949.47
512.458	26055.91
512.826	26300.2
513.193	26468.56
513.561	26488.89
513.929	26762.79
514.297	27092.72
514.664	27289.78
515.032	27375.65
515.4	27668.07
515.767	27686.83
516.135	27975.86
516.502	27819.48
516.869	28406.13
517.237	28504.43
517.604	28507.82
517.972	28833.47
518.339	28969.28
518.706	29247.47
519.073	29331.76
519.44	29586.44
519.808	29836.6
520.175	29876.15
520.542	30340.32
520.909	30538.28
521.276	30574.21
521.643	30880.42
522.009	31120.64
522.376	31336.45
522.743	31558.82
523.11	31970.11
523.477	32150.44
523.843	32360.38
524.21	32717.2
524.577	32874.49
524.943	33012.56
525.31	33230.86
525.676	33617.97
526.043	33722.6
526.409	33959.43
526.776	34354
527.142	34569.59
527.508	34771.61
527.874	35182
528.241	35085.73
528.607	35260.87
528.973	35691.36
529.339	35572.04
529.705	35973.62
530.071	36276.66
530.437	36612.47
530.803	36748.29
531.169	36951.44
531.535	36995.96
531.901	37111.89
532.267	37367.03
532.632	37578.55
532.998	37724.08
533.364	38162.26
533.73	38146.67
534.095	38557.5
534.461	38535.36
534.826	38898.96
535.192	39015.8
535.557	39198.39
535.923	39171.72
536.288	39311.38
536.653	39685.84
537.019	39591.6
537.384	39805.83
537.749	39936.45
538.114	40067.07
538.479	40124.92
538.845	40284.46
539.21	40362.2
539.575	40575.3
539.94	40713.6
540.305	41196.3
540.67	40966.48
541.034	41252.8
541.399	41343.19
541.764	41530.98
542.129	41557.65
542.494	41801.03
542.858	41887.36
543.223	41838.32
543.587	42213.45
543.952	42263.85
544.316	42476.95
544.681	42480.34
545.045	42618.41
545.41	42797.39
545.774	42977.05
546.138	43026.54
546.503	43162.13
546.867	43258.4
547.231	43511.5
547.595	43702
547.959	43706.97
548.324	43834.43
548.688	43878.72
549.052	44124.36
549.416	44174.08
549.779	44366.16
550.143	44647.06
550.507	44817.23
550.871	44850.9
551.235	44991.23
551.599	45291.11
551.962	45173.37
552.326	45416.08
552.689	45605.23
553.053	45563.19
553.417	45697.65
553.78	46147.81
554.143	46033.01
554.507	46332.21
554.87	46462.15
555.234	46976.26
555.597	46614.92
555.96	46778.53
556.323	47045.64
556.686	46972.2
557.05	47511.17
557.413	47563.14
557.776	47716.81
558.139	47918.39
558.502	48089.46
558.865	48060.76
559.228	48446.28
559.59	48463.01
559.953	48656.9
560.316	49076.55
560.679	48907.97
561.041	49239.48
561.404	49434.51
561.767	49571.68
562.129	49430.21
562.492	49940.71
562.854	49932.35
563.217	49953.36
563.579	50093.7
563.941	50354.26
564.304	50588.6
564.666	50768.03
565.028	50841.47
565.39	50991.53
565.753	51132.31
566.115	51250.5
566.477	51379.54
566.839	51455.7
567.201	51657.72
567.563	51770.04
567.925	51899.07
568.287	51950.37
568.648	52043.93
569.01	52317.59
569.372	52411.6
569.734	52392.39
570.095	52538.15
570.457	52699.05
570.819	52675.1
571.18	52721.88
571.542	53050.91
571.903	53017.46
572.265	53148.53
572.626	53169.55
572.987	53274.4
573.349	53422.42
573.71	53554.62
574.071	53605.24
574.432	53650.21
574.794	53960.26
575.155	53770.21
575.516	53779.7
575.877	53983.09
576.238	54026.7
576.599	54133.14
576.96	54087.49
577.32	54112.12
577.681	54295.85
578.042	54317.99
578.403	54387.14
578.763	54499
579.124	54462.85
579.485	54564.09
579.845	54606.12
580.206	54497.87
580.566	54588.95
580.927	54628.72
581.287	54750.98
581.648	54619
582.008	54780.81
582.368	54698.55
582.728	54712.78
583.089	54789.84
583.449	54745.33
583.809	54815.83
584.169	54845.66
584.529	54824.19
584.889	55009.5
585.249	54808.83
585.609	54802.05
585.969	54945.32
586.329	54781.48
586.688	54930.63
587.048	54813.57
587.408	54841.14
587.768	54922.27
588.127	54804.53
588.487	54872.55
588.846	54984.19
589.206	54931.31
589.565	54921.59
589.925	55035.49
590.284	54889.28
590.643	54949.16
591.003	55160.46
591.362	55107.8
591.721	55048.82
592.08	55062.61
592.44	55111.42
592.799	55111.42
593.158	55096.05
593.517	55098.99
593.876	55183.96
594.235	55113.23
594.593	55127.69
594.952	55188.25
595.311	55138.76
595.67	55124.53
596.029	55338.53
596.387	55196.84
596.746	55292.43
597.104	55291.3
597.463	55256.95
597.822	55365.87
598.18	55224.18
598.538	55247.69
598.897	55470.28
599.255	55279.1
599.613	55577.85
599.972	55421.92
600.33	55480.45
600.688	55412.43
601.046	55525.64
601.404	55541.24
601.762	55506.89
602.12	55683.83
602.478	55700.33
602.836	55685.87
603.194	55550.28
603.552	55609.71
603.91	55514.57
604.268	55673.21
604.625	55635.7
604.983	55808.8
605.341	55635.47
605.698	55816.94
606.056	55880.66
606.413	55751.85
606.771	55866.43
607.128	55998.63
607.485	55798.41
607.843	55852.87
608.2	56008.12
608.557	55999.76
608.914	55948.91
609.272	56100.32
609.629	56207.21
609.986	56171.5
610.343	56096.48
610.7	56256.47
611.057	56247.66
611.414	56234.55
611.771	56225.29
612.127	56394.32
612.484	56372.4
612.841	56396.58
613.198	56338.5
613.554	56341.44
613.911	56533.53
614.267	56459.18
614.624	56485.39
614.98	56547.99
615.337	56707.99
615.693	56681.32
616.05	56529.01
616.406	56718.61
616.762	56566.3
617.118	56653.75
617.475	56648.33
617.831	56714.09
618.187	56716.35
618.543	56758.61
618.899	56920.18
619.255	56910.69
619.611	56859.39
619.967	56933.74
620.323	56960.64
620.678	56823.69
621.034	56828.44
621.39	56934.2
621.746	56838.15
622.101	57093.51
622.457	56859.62
622.812	56910.01
623.168	56912.95
623.523	56952.27
623.879	57006.28
624.234	56913.4
624.589	57005.15
624.945	56924.48
625.3	56993.4
625.655	56938.94
626.01	56917.92
626.365	57002.22
626.72	56967.87
627.075	56971.03
627.43	56907.76
627.785	56861.65
628.14	56913.4
628.495	56869.79
628.85	56880.19
629.205	56763.8
629.559	56878.83
629.914	56805.84
630.269	56828.66
630.623	56759.96
630.978	56707.76
631.332	56765.39
631.687	56783.01
632.041	56674.09
632.396	56743.69
632.75	56562.45
633.104	56696.69
633.459	56603.81
633.813	56463.7
634.167	56566.3
634.521	56520.87
634.875	56562.68
635.229	56491.95
635.583	56309.8
635.937	56401.78
636.291	56362.23
636.645	56326.08
636.999	56171.05
637.352	56282.69
637.706	56173.99
638.06	56252.18
638.413	56112.3
638.767	56173.31
639.121	56133.54
639.474	55967.21
639.828	55973.32
640.181	55996.59
640.534	56039.53
640.888	55934.22
641.241	55799.31
641.594	55831.85
641.947	55859.87
642.301	55797.95
642.654	55724.06
643.007	55886.99
643.36	55746.66
643.713	55737.62
644.066	55724.06
644.419	55631.86
644.771	55434.57
645.124	55200.68
645.477	55074.36
645.83	54951.87
646.182	54808.83
646.535	54696.97
646.888	54689.73
647.24	54694.93
647.593	54767.92
647.945	54694.03
648.298	54529.96
648.65	54560.02
649.002	54353.47
649.355	54540.13
649.707	54481.38
650.059	54670.07
650.411	54914.36
650.763	54973.34
651.115	55168.37
651.467	54969.27
651.819	55101.47
652.171	54922.72
652.523	54928.37
652.875	54897.41
653.227	54657.19
653.578	54953
653.93	54858.54
654.282	54625.78
654.633	54671.88
654.985	54678.66
655.337	54683.18
655.688	54618.78
656.039	54807.02
656.391	54541.72
656.742	54629.17
657.094	54607.48
657.445	54741.03
657.796	54633.69
658.147	54646.12
658.498	54572.68
658.849	54622.39
659.2	54442.06
659.551	54482.28
659.902	54552.79
660.253	54482.28
660.604	54491.77
660.955	54371.55
661.306	54423.07
661.656	54372.68
662.007	54362.06
662.358	54296.3
662.708	54375.39
663.059	54286.81
663.409	54104.44
663.76	54336.52
664.11	54327.94
664.461	54289.52
664.811	54332.23
665.161	54285
665.511	54165.68
665.862	54296.52
666.212	54310.08
666.562	54254.72
666.912	54191.22
667.262	54224.89
667.612	54229.41
667.962	54198.22
668.312	54270.08
668.662	54333.36
669.011	54168.39
669.361	54200.26
669.711	54172.01
670.06	54121.16
670.41	53972.69
670.76	54028.51
671.109	54022.63
671.459	54037.77
671.808	54004.78
672.157	54066.02
672.507	53828.74
672.856	53851.11
673.205	54032.8
673.554	54000.26
673.904	53839.59
674.253	53980.83
674.602	53848.85
674.951	53397.56
675.3	53326.83
675.649	53851.79
675.998	53699.25
676.346	53738.12
676.695	53769.76
677.044	53642.53
677.393	53723.66
677.741	53784.9
678.09	53708.52
678.438	53569.76
678.787	53610.21
679.135	53610.67
679.484	53368.64
679.832	53455.64
680.181	53315.31
680.529	53453.38
680.877	53254.74
681.225	53257
681.573	53497.45
681.922	53180.4
682.27	53141.98
682.618	53156.44
682.966	53043.9
683.314	53096.1
683.661	52944.24
684.009	52854.53
684.357	52740.86
684.705	52810.01
685.053	52747.41
685.4	52707.41
685.748	52565.27
686.095	52517.59
686.443	52462.45
686.79	52318.72
687.138	52418.38
687.485	52397.14
687.832	52170.03
688.18	52358.04
688.527	52103.14
688.874	52110.59
689.221	51920.99
689.568	51770.49
689.915	51758.74
690.262	51828.79
690.609	51743.6
690.956	51534.56
691.303	51580.66
691.65	51415.47
691.997	51374.34
692.344	51188.58
692.69	51111.3
693.037	51253.21
693.383	50925.31
693.73	51036.05
694.077	50770.52
694.423	50765.77
694.769	50719.67
695.116	50608.94
695.462	50513.8
695.808	50365.33
696.155	50583.63
696.501	50283.97
696.847	50350.19
697.193	49963.3
697.539	50273.58
697.885	49891.89
698.231	49871.33
698.577	49805.57
698.923	49732.8
699.269	49525.8
699.614	49291.46
699.96	49307.28
700.306	49269.99
700.651	49125.36
700.997	49072.71
701.342	49073.16
701.688	48915.65
702.033	48672.49
702.379	48717.69
702.724	48533.96
703.069	48655.54
703.415	48138.72
703.76	48259.39
704.105	48135.33
704.45	48038.61
704.795	47749.35
705.14	47745.06
705.485	47693.08
705.83	47604.72
706.175	47703.25
706.52	47433.2
706.865	47399.53
707.209	47282.92
707.554	47235.02
707.899	47405.18
708.243	46991.86
708.588	46949.6
708.932	46742.37
709.277	46626.44
709.621	46743.28
709.966	46551.19
710.31	46614.01
710.654	46248.83
710.998	46273.91
711.342	46374.47
711.687	46219.67
712.031	46053.58
712.375	45864.66
712.719	45897.65
713.063	45910.76
713.407	45809.74
713.75	45672.12
714.094	45630.76
714.438	45379.02
714.782	45558
715.125	45300.6
715.469	45399.13
715.812	44976.77
716.156	44884.34
716.499	44972.93
716.843	44846.83
717.186	44690.9
717.53	44789.66
717.873	44892.03
718.216	44740.84
718.559	44593.73
718.902	44404.13
719.246	44453.17
719.589	44396.67
719.932	44058.83
720.275	43986.29
720.617	44030.81
720.96	44005.72
721.303	44012.27
721.646	43864.71
721.989	43721.66
722.331	43734.99
722.674	43668.56
723.016	43835.78
723.359	43624.49
723.701	43440.09
724.044	43346.98
724.386	43001.91
724.729	43449.58
725.071	43112.19
725.413	43068.57
725.755	43050.72
726.097	42921
726.439	42658.41
726.782	42747.45
727.124	42811.4
727.465	42552.88
727.807	42542.94
728.149	42321.7
728.491	42294.13
728.833	42533.22
729.175	42230.85
729.516	42229.5
729.858	42316.73
730.199	42191.76
730.541	41989.05
730.882	42016.62
731.224	42109.27
731.565	41853.01
731.906	42004.42
732.248	41817.08
732.589	41695.73
732.93	41491.44
733.271	41635.61
733.612	41538.67
733.953	41558.78
734.294	41344.32
734.635	41325.11
734.976	41394.72
735.317	41148.85
735.658	41213.93
735.999	41075.63
736.339	41013.26
736.68	41071.34
737.021	40844.45
737.361	40725.13
737.702	40939.14
738.042	40802.42
738.383	40580.95
738.723	40708.18
739.063	40511.8
739.404	40585.47
739.744	40366.5
740.084	40310.23
740.424	40361.3
740.764	40388.19
741.104	40352.94
741.444	40143.9
741.784	39965.15
742.124	40031.59
742.464	39912.95
742.804	39773.52
743.143	39719.51
743.483	39887.64
743.823	39505.73
744.162	39612.16
744.502	39599.96
744.841	39519.06
745.181	39572.84
745.52	39352.96
745.86	39474.54
746.199	39355.22
746.538	39234.55
746.877	39293.3
747.216	39195.23
747.556	39051.5
747.895	39044.72
748.234	38849.02
748.573	38800.89
748.911	38641.12
749.25	38572.87
749.589	38562.02
749.928	38598.18
750.267	38459.88
750.605	38332.2
750.944	38350.05
751.283	38281.58
751.621	38320
751.96	38022.6
752.298	38133.33
752.636	37997.07
752.975	37719.79
753.313	37671.42
753.651	37769.05
753.989	37546.91
754.327	37489.96
754.666	37386.01
755.004	37425.33
755.342	37452.9
755.679	37369.74
756.017	37151.66
756.355	37137.88
756.693	36907.38
757.031	37062.18
757.368	36806.14
757.706	36808.85
758.044	36703.77
758.381	36629.42
758.719	36571.34
759.056	36434.62
759.394	36473.72
759.731	36125.93
760.068	36100.84
760.405	35883.22
760.743	35741.31
761.08	35705.37
761.417	35689.1
761.754	35567.53
762.091	35511.03
762.428	35361.2
762.765	35213.41
763.102	35215.67
763.438	35128.67
763.775	34907.43
764.112	34726.64
764.449	34731.62
764.785	34546.31
765.122	34466.76
765.458	34328.46
765.795	34344.28
766.131	34318.74
766.467	34003.72
766.804	33808.48
767.14	33724.86
767.476	33715.37
767.812	33638.08
768.148	33611.64
768.485	33365.78
768.821	33300.92
769.157	33176.63
769.492	33128.04
769.828	33087.59
770.164	32744.1
770.5	32687.15
770.836	32696.19
771.171	32422.98
771.507	32401.73
771.842	32105.02
772.178	32372.81
772.513	32100.72
772.849	32147.28
773.184	32016.21
773.519	31862.31
773.855	31721.3
774.19	31579.38
774.525	31401.99
774.86	31525.82
775.195	31291.71
775.53	31232.27
775.865	31000.87
776.2	30813.98
776.535	30698.05
776.87	30679.74
777.205	30567.2
777.539	30429.81
777.874	30425.51
778.209	30197.5
778.543	29970.38
778.878	30010.61
779.212	29906.88
779.547	29730.62
779.881	29784.85
780.215	29474.58
780.55	29591.86
780.884	29361.13
781.218	29415.82
781.552	29304.19
781.886	29032.1
782.22	28943.97
782.554	28910.98
782.888	28696.29
783.222	28497.43
783.556	28469.18
783.889	28423.08
784.223	28210.88
784.557	28159.13
784.89	28250.66
785.224	28018.35
785.557	27794.4
785.891	27787.39
786.224	27551.24
786.558	27597.79
786.891	27388.31
787.224	27240.96
787.557	27277.57
787.891	27250.68
788.224	27222.43
788.557	27114.19
788.89	26946.73
789.223	26914.87
789.556	26843.01
789.888	26692.05
790.221	26588.55
790.554	26455.67
790.887	26376.35
791.219	26231.73
791.552	26312.85
791.884	26073.31
792.217	25945.63
792.549	25949.93
792.882	25808.01
793.214	25666.09
793.546	25584.51
793.879	25433.78
794.211	25357.85
794.543	25469.26
794.875	25278.08
795.207	25307.46
795.539	25070.85
795.871	25086.44
796.203	24947.24
796.535	24734.36
796.867	24771.2
797.198	24601.03
797.53	24679.9
797.862	24535.72
798.193	24557.65
798.525	24306.8
798.856	24415.5
799.188	24126.47
799.519	24000.15
799.85	23950.88
800.182	23980.71
800.513	23896.42
800.844	23739.14
801.175	23859.13
801.506	23780.49
801.837	23648.06
802.168	23674.5
802.499	23503.66
802.83	23428.64
803.161	23289.66
803.491	23295.08
803.822	23202.2
804.153	23043.11
804.483	22936.22
804.814	22858.25
805.145	22791.59
805.475	22834.53
805.805	22720.86
806.136	22774.42
806.466	22763.57
806.796	22686.51
807.126	22439.51
807.457	22415.33
807.787	22409
808.117	22342.11
808.447	22171.49
808.777	22324.94
809.107	22083.13
809.436	22037.03
809.766	22051.04
810.096	22027.99
810.426	21846.76
810.755	21952.52
811.085	21884.95
811.414	21750.04
811.744	21516.6
812.073	21630.94
812.403	21456.26
812.732	21400.89
813.061	21378.29
813.39	21304.62
813.719	21223.27
814.049	21346.2
814.378	21203.38
814.707	21040.9
815.036	21026.66
815.365	20932.43
815.693	20691.53
816.022	20853.11
816.351	20763.62
816.68	20698.76
817.008	20760.91
817.337	20538.09
817.665	20488.83
817.994	20512.33
818.322	20543.29
818.651	20434.14
818.979	20341.26
819.307	20459.45
819.636	20310.75
819.964	20143.52
820.292	20328.38
820.62	20188.49
820.948	20101.49
821.276	20173.81
821.604	20135.39
821.932	20195.73
822.259	20154.82
822.587	20075.96
822.915	20077.54
823.243	20039.57
823.57	20021.72
823.898	20063.07
824.225	20028.72
824.553	19895.39
824.88	20048.84
825.207	20061.27
825.535	20023.08
825.862	20028.72
826.189	20010.42
826.516	20141.04
826.843	20172
827.17	20044.77
827.497	20054.03
827.824	20079.12
828.151	20084.77
828.478	19960.03
828.805	20077.76
829.131	19964.77
829.458	19885.9
829.785	19872.57
830.111	19828.73
830.438	20052.23
830.764	19970.87
831.09	20045
831.417	19893.14
831.743	19955.73
832.069	19862.63
832.395	19773.82
832.722	19881.61
833.048	19801.16
833.374	19868.05
833.7	19790.09
834.026	19812.69
834.351	19808.17
834.677	19735.17
835.003	19840.03
835.329	19800.71
835.654	19694.27
835.98	19618.34
836.306	19609.07
836.631	19632.8
836.956	19568.62
837.282	19635.51
837.607	19460.6
837.932	19518.23
838.258	19502.41
838.583	19504.9
838.908	19230.78
839.233	19291.34
839.558	19299.7
839.883	19214.73
840.208	19174.06
840.533	19249.31
840.858	19202.31
841.182	19202.76
841.507	19201.85
841.832	19002.54
842.156	19026.94
842.481	19001.63
842.805	18899.94
843.13	18773.84
843.454	18804.8
843.778	18706.27
844.103	18821.98
844.427	18536.11
844.751	18596.9
845.075	18562.32
845.399	18573.17
845.723	18470.35
846.047	18477.58
846.371	18268.32
846.695	18327.07
847.019	18099.51
847.343	18108.1
847.666	17947.2
847.99	17851.83
848.313	17877.14
848.637	17672.63
848.96	17727.32
849.284	17688.45
849.607	17638.73
849.931	17494.1
850.254	17461.56
850.577	17325.29
850.9	17150.83
851.223	17306.31
851.546	17059.54
851.869	16944.96
852.192	17076.26
852.515	16931.86
852.838	16818.41
853.161	16904.97
853.483	16769.38
853.806	16675.14
854.129	16702.48
854.451	16580.45
854.774	16568.25
855.096	16512.43
855.419	16441.47
855.741	16362.61
856.063	16230.63
856.385	16290.74
856.708	16201.48
857.03	16177.07
857.352	16081.26
857.674	16063.86
857.996	15990.19
858.318	15882.62
858.64	15942.5
858.961	15841.49
859.283	15832.68
859.605	15714.49
859.926	15728.72
860.248	15628.84
860.57	15587.94
860.891	15582.29
861.212	15603.53
861.534	15471.56
861.855	15450.09
862.176	15441.95
862.498	15432.01
862.819	15423.65
863.14	15427.49
863.461	15388.62
863.782	15312.69
864.103	15241.28
864.424	15192.92
864.745	15239.02
865.065	15104.33
865.386	15128.74
865.707	15205.57
866.027	15151.11
866.348	15071.79
866.668	15116.09
866.989	15075.86
867.309	14956.32
867.63	14912.48
867.95	14942.76
868.27	14760.61
868.59	14947.05
868.91	14804.68
869.23	14876.09
869.55	14805.13
869.87	14782.54
870.19	14792.25
870.51	14804
870.83	14789.77
871.15	14656.21
871.469	14628.64
871.789	14570.34
872.109	14584.8
872.428	14507.97
872.748	14642.2
873.067	14549.77
873.386	14615.99
873.706	14490.79
874.025	14430.91
874.344	14367.18
874.663	14421.41
874.982	14367.63
875.301	14430.68
875.62	14244.24
875.939	14214.87
876.258	14185.49
876.577	14282.89
876.896	14260.29
877.214	14202.21
877.533	14190.46
877.852	14147.75
878.17	14203.34
878.489	14216
878.807	14093.74
879.125	14069.11
879.444	14019.84
879.762	14000.86
880.08	14013.74
880.398	13966.51
880.716	13973.74
881.034	13912.73
881.352	13958.15
881.67	13909.79
881.988	13833.63
882.306	13787.31
882.624	13770.36
882.941	13703.92
883.259	13715.44
883.577	13644.49
883.894	13665.28
884.212	13604.49
884.529	13534.21
884.846	13468.45
885.164	13333.08
885.481	13383.25
885.798	13491.72
886.115	13317.04
886.432	13383.93
886.75	13332.63
887.067	13370.14
887.383	13196.81
887.7	13269.58
888.017	13232.75
888.334	13175.35
888.651	13175.8
888.967	13106.87
889.284	13064.39
889.6	13061.45
889.917	12924.73
890.233	12961.79
890.55	12874.79
890.866	12972.87
891.182	12871.17
891.498	12754.34
891.815	12678.18
892.131	12599.99
892.447	12598.41
892.763	12580.11
893.079	12580.56
893.395	12645.64
893.71	12531.07
894.026	12554.8
894.342	12433.44
894.657	12364.97
894.973	12404.52
895.289	12365.88
895.604	12315.26
895.92	12215.37
896.235	12150.29
896.55	12185.32
896.865	12178.54
897.181	12116.62
897.496	12137.41
897.811	12095.15
898.126	12042.27
898.441	11946.45
898.756	11926.34
899.071	11822.39
899.386	11826.45
899.7	11716.17
900.015	11788.94
900.33	11610.64
900.644	11615.16
900.959	11675.05
901.273	11531.1
901.588	11447.48
901.902	11427.6
902.216	11421.72
902.531	11301.27
902.845	11321.38
903.159	11228.05
903.473	11214.27
903.787	11242.74
904.101	11070.09
904.415	11104.67
904.729	11067.38
905.042	10898.34
905.356	10905.57
905.67	10939.02
905.984	10882.98
906.297	10966.14
906.611	10824.45
906.924	10809.08
907.237	10704.45
907.551	10690.89
907.864	10628.29
908.177	10654.51
908.491	10584.45
908.804	10558.92
909.117	10430.79
909.43	10497
909.743	10349.43
910.056	10370
910.368	10247.97
910.681	10215.65
910.994	10176.55
911.307	10193.73
911.619	10087.74
911.932	10160.96
912.244	10017.46
912.557	9997.8
912.869	9973.4
913.181	9876.22
913.494	9872.83
913.806	9916.67
914.118	9760.97
914.43	9828.99
914.742	9753.74
915.054	9733.63
915.366	9613.41
915.678	9639.17
915.99	9650.24
916.302	9514.88
916.613	9457.03
916.925	9438.95
917.236	9384.03
917.548	9344.71
917.859	9374.54
918.171	9323.47
918.482	9214.55
918.794	9238.73
919.105	9119.18
919.416	9054.1
919.727	9096.58
920.038	9051.16
920.349	8955.34
920.66	8960.32
920.971	8940.65
921.282	8950.6
921.593	8785.4
921.903	8744.73
922.214	8796.48
922.525	8769.59
922.835	8685.07
923.146	8670.83
923.456	8599.87
923.767	8623.6
924.077	8580.21
924.387	8497.05
924.697	8458.63
925.008	8418.63
925.318	8411.4
925.628	8403.95
925.938	8321.46
926.248	8278.53
926.558	8273.78
926.867	8246.66
927.177	8169.38
927.487	8147.68
927.796	8039.66
928.106	8034.69
928.416	8015.03
928.725	8021.58
929.034	7998.31
929.344	7916.95
929.653	7879.44
929.962	7925.54
930.271	7852.55
930.581	7836.95
930.89	7757.18
931.199	7737.3
931.508	7667.92
931.817	7692.55
932.125	7661.37
932.434	7643.06
932.743	7612.33
933.051	7530.97
933.36	7511.99
933.669	7482.39
933.977	7422.28
934.286	7409.4
934.594	7357.87
934.902	7299.12
935.21	7279.46
935.519	7307.25
935.827	7216.63
936.135	7207.37
936.443	7153.81
936.751	7094.83
937.059	7090.08
937.367	7084.43
937.674	7097.31
937.982	7050.99
938.29	7006.69
938.597	6974.15
938.905	6899.58
939.213	6970.09
939.52	6882.18
939.827	6910.65
940.135	6837.21
940.442	6851.44
940.749	6732.13
941.056	6709.3
941.363	6715.4
941.67	6657.1
941.977	6570.77
942.284	6611.22
942.591	6545.92
942.898	6543.66
943.205	6515.63
943.511	6435.64
943.818	6413.94
944.125	6413.94
944.431	6347.05
944.738	6388.63
945.044	6355.86
945.35	6314.06
945.657	6289.88
945.963	6213.49
946.269	6235.42
946.575	6210.11
946.881	6180.05
947.187	6180.95
947.493	6108.19
947.799	6076.55
948.105	6048.53
948.41	6000.62
948.716	6022.09
949.022	6019.83
949.327	5955.42
949.633	5894.41
949.938	5867.97
950.244	5837.91
950.549	5851.92
950.854	5804.92
951.16	5807.18
951.465	5738.93
951.77	5721.98
952.075	5709.55
952.38	5687.18
952.685	5703.23
952.99	5608.31
953.294	5656.9
953.599	5584.81
953.904	5557.92
954.209	5474.76
954.513	5506.62
954.818	5478.6
955.122	5454.64
955.426	5440.41
955.731	5380.3
956.035	5352.5
956.339	5373.97
956.643	5334.87
956.948	5294.65
957.252	5287.42
957.556	5268.21
957.86	5219.17
958.163	5258.49
958.467	5149.79
958.771	5139.17
959.075	5194.54
959.378	5152.05
959.682	5122
959.985	5097.14
960.289	5045.62
960.592	5035.9
960.896	5010.36
961.199	4976.92
961.502	4982.57
961.805	4961.32
962.108	4926.07
962.411	4921.1
962.714	4855.34
963.017	4900.53
963.32	4873.64
963.623	4846.3
963.926	4888.56
964.228	4780.09
964.531	4779.41
964.833	4767.21
965.136	4734.66
965.438	4695.79
965.741	4682.01
966.043	4705.74
966.345	4668.68
966.648	4644.95
966.95	4625.06
967.252	4604.72
967.554	4554.78
967.856	4494.22
968.158	4520.43
968.46	4497.16
968.761	4476.82
969.063	4447.67
969.365	4435.69
969.666	4378.29
969.968	4359.53
970.269	4381.68
970.571	4363.37
970.872	4343.26
971.174	4315.24
971.475	4317.27
971.776	4242.25
972.077	4233.43
972.378	4258.52
972.679	4269.14
972.98	4214.9
973.281	4182.81
973.582	4173.1
973.883	4177.16
974.183	4101.23
974.484	4105.3
974.785	4090.84
975.085	4073.21
975.386	4079.54
975.686	4033.21
975.986	3995.25
976.287	3991.18
976.587	3970.84
976.887	3946.66
977.187	3950.05
977.487	3949.15
977.787	3906.66
978.087	3898.53
978.387	3877.51
978.687	3867.34
978.987	3864.18
979.286	3807
979.586	3797.74
979.885	3765.88
980.185	3752.77
980.484	3743.73
980.784	3694.47
981.083	3703.28
981.382	3748.02
981.682	3719.1
981.981	3655.37
982.28	3661.47
982.579	3624.41
982.878	3611.76
983.177	3608.37
983.475	3643.39
983.774	3568.59
984.073	3550.97
984.372	3486.56
984.67	3564.07
984.969	3488.82
985.267	3458.31
985.566	3498.09
985.864	3467.8
986.162	3462.38
986.461	3422.83
986.759	3426.68
987.057	3359.11
987.355	3382.83
987.653	3326.11
987.951	3385.77
988.249	3340.58
988.547	3330.41
988.844	3306.23
989.142	3288.15
989.44	3236.62
989.737	3253.8
990.035	3218.32
990.332	3211.31
990.63	3208.83
990.927	3162.73
991.224	3185.33
991.521	3131.77
991.819	3149.85
992.116	3125.21
992.413	3120.02
992.71	3103.52
993.006	3099.23
993.303	3111.66
993.6	3042.28
993.897	2988.04
994.193	3004.31
994.49	3011.77
994.787	2961.83
995.083	2994.82
995.379	2953.02
995.676	2923.19
995.972	2916.18
996.268	2898.33
996.565	2893.58
996.861	2873.02
997.157	2881.38
997.453	2814.26
997.749	2845.67
998.044	2852.45
998.34	2800.03
998.636	2807.48
998.932	2788.05
999.227	2753.02
999.523	2739.01
999.818	2697.88
1000.114	2690.2
1000.409	2724.77
1000.704	2684.77
1001	2646.81
1001.295	2624.89
1001.59	2642.06
1001.885	2637.09
1002.18	2604.78
1002.475	2620.82
1002.77	2603.65
1003.065	2586.7
1003.359	2551.9
1003.654	2562.74
1003.949	2503.54
1004.243	2560.03
1004.538	2510.09
1004.832	2479.13
1005.127	2480.94
1005.421	2417.21
1005.715	2432.8
1006.009	2452.92
1006.304	2435.74
1006.598	2398.91
1006.892	2411.33
1007.186	2375.86
1007.48	2360.94
1007.773	2338.34
1008.067	2321.39
1008.361	2314.16
1008.655	2295.63
1008.948	2287.27
1009.242	2294.05
1009.535	2259.25
1009.829	2225.13
1010.122	2254.95
1010.415	2225.35
1010.708	2179.25
1011.001	2207.05
1011.295	2165.69
1011.588	2193.71
1011.881	2167.73
1012.173	2151.91
1012.466	2116.43
1012.759	2141.74
1013.052	2119.59
1013.344	2087.05
1013.637	2099.93
1013.93	2088.86
1014.222	2069.2
1014.514	2053.83
1014.807	2045.24
1015.099	2021.29
1015.391	2004.57
1015.683	2012.25
1015.976	1995.53
1016.268	1970.67
1016.56	1950.78
1016.851	1942.42
1017.143	1952.59
1017.435	1923.44
1017.727	1912.14
1018.018	1904
1018.31	1890.9
1018.602	1864
1018.893	1839.37
1019.185	1854.97
1019.476	1822.88
1019.767	1826.72
1020.058	1818.81
1020.35	1810.45
1020.641	1768.19
1020.932	1789.2
1021.223	1756.89
1021.514	1708.3
1021.804	1709.66
1022.095	1704.23
1022.386	1688.42
1022.677	1689.77
1022.967	1659.49
1023.258	1666.95
1023.548	1662.2
1023.839	1638.47
1024.129	1673.05
1024.419	1626.72
1024.709	1616.1
1025	1606.38
1025.29	1622.88
1025.58	1562.09
1025.87	1540.17
1026.16	1574.52
1026.449	1558.7
1026.739	1517.8
1027.029	1544.47
1027.319	1520.51
1027.608	1544.92
1027.898	1501.98
1028.187	1490.46
1028.477	1472.6
1028.766	1494.07
1029.055	1467.86
1029.344	1443
1029.634	1396.22
1029.923	1437.12
1030.212	1430.12
1030.501	1408.42
1030.79	1409.78
1031.078	1401.64
1031.367	1371.36
1031.656	1348.31
1031.945	1350.57
1032.233	1329.78
1032.522	1339.95
1032.81	1316.67
1033.099	1332.49
1033.387	1332.95
1033.675	1315.32
1033.963	1310.57
1034.251	1278.48
1034.54	1280.07
1034.828	1271.7
1035.116	1272.83
1035.403	1271.7
1035.691	1229.9
1035.979	1228.09
1036.267	1234.19
1036.554	1231.7
1036.842	1198.49
1037.129	1219.95
1037.417	1176.34
1037.704	1186.73
1037.992	1179.05
1038.279	1148.32
1038.566	1132.5
1038.853	1132.5
1039.14	1132.5
