Data from plate_ceramic_FLMS001491_100.txt Node
Date: Tue Feb 07 11:17:36 GMT 2017
User: dcchb
Spectrometer: FLMS00149
Trigger mode: 0
Integration Time (sec): 2.000000E-2
Scans to average: 10
Electric dark correction enabled: true
Nonlinearity correction enabled: false
Boxcar width: 0
XAxis mode: Wavelengths
Number of Pixels in Spectrum: 2048
>>>>>Begin Spectral Data<<<<<
341.393	-8.62
341.776	-8.62
342.16	-8.62
342.543	-60.82
342.927	-81.16
343.31	-79.57
343.693	-83.19
344.077	-60.14
344.46	-69.63
344.843	-51.55
345.226	-30.99
345.61	-31.21
345.993	-19.91
346.376	1.78
346.759	10.14
347.142	18.95
347.525	43.59
347.908	62.79
348.291	72.29
348.674	88.11
349.057	128.56
349.44	134.21
349.823	131.72
350.206	150.02
350.588	194.99
350.971	237.48
351.354	232.28
351.737	252.17
352.119	255.11
352.502	285.39
352.884	281.55
353.267	302.34
353.65	310.25
354.032	325.39
354.414	340.75
354.797	353.63
355.179	337.36
355.562	337.14
355.944	347.31
356.326	378.04
356.709	344.37
357.091	364.93
357.473	377.14
357.855	362.45
358.238	361.32
358.62	356.8
359.002	366.74
359.384	362.9
359.766	388.66
360.148	365.39
360.53	380.98
360.912	366.29
361.294	362.45
361.676	349.12
362.057	362.45
362.439	347.99
362.821	365.61
363.203	344.37
363.584	376.69
363.966	341.21
364.348	352.96
364.729	356.57
365.111	338.49
365.493	340.75
365.874	362
366.256	347.99
366.637	359.74
367.019	362
367.4	345.5
367.781	356.8
368.163	364.48
368.544	365.61
368.925	361.54
369.306	374.88
369.688	348.21
370.069	373.97
370.45	371.71
370.831	347.08
371.212	381.66
371.593	368.32
371.974	385.72
372.355	362.9
372.736	375.56
373.117	369.45
373.498	383.24
373.879	379.62
374.26	397.7
374.641	390.47
375.021	380.98
375.402	385.5
375.783	417.36
376.163	411.49
376.544	402
376.925	402.45
377.305	408.77
377.686	397.7
378.066	409.23
378.447	401.09
378.827	407.19
379.208	399.74
379.588	396.8
379.968	430.02
380.349	427.31
380.729	439.96
381.109	427.08
381.489	436.57
381.87	441.09
382.25	441.09
382.63	443.12
383.01	436.12
383.39	438.83
383.77	448.77
384.15	455.78
384.53	440.41
384.91	451.26
385.29	458.72
385.67	453.75
386.049	456.68
386.429	461.88
386.809	456.46
387.189	495.33
387.568	479.96
387.948	474.31
388.328	494.65
388.707	488.09
389.087	507.3
389.466	493.29
389.846	504.14
390.225	511.82
390.605	524.25
390.984	512.27
391.363	517.47
391.743	516.57
392.122	551.14
392.501	535.32
392.881	545.27
393.26	545.72
393.639	551.6
394.018	567.41
394.397	567.19
394.776	615.1
395.155	573.97
395.534	586.85
395.913	586.17
396.292	612.61
396.671	599.96
397.05	595.21
397.429	603.35
397.808	606.06
398.186	619.84
398.565	620.07
398.944	617.13
399.323	633.63
399.701	679.95
400.08	672.5
400.458	657.13
400.837	673.17
401.215	658.26
401.594	667.98
401.972	673.4
402.351	693.74
402.729	698.94
403.107	665.04
403.486	742.78
403.864	724.25
404.242	702.33
404.62	734.64
404.999	747.07
405.377	736.22
405.755	756.79
406.133	760.86
406.511	768.99
406.889	770.12
407.267	811.93
407.645	793.85
408.023	794.75
408.401	797.92
408.779	853.28
409.156	855.09
409.534	839.05
409.912	846.96
410.29	858.48
410.667	894.19
411.045	890.12
411.422	922.66
411.8	897.35
412.178	932.38
412.555	933.51
412.933	933.73
413.31	977.35
413.687	981.19
414.065	1003.79
414.442	993.17
414.819	1003.56
415.197	1025.26
415.574	1030.45
415.951	1029.55
416.328	1038.81
416.705	1043.56
417.082	1047.4
417.46	1074.52
417.837	1074.75
418.214	1074.75
418.591	1133.28
418.967	1139.83
419.344	1121.52
419.721	1129.89
420.098	1151.13
420.475	1158.59
420.852	1183.22
421.228	1203.33
421.605	1197.91
421.982	1213.27
422.358	1210.79
422.735	1226.15
423.111	1235.42
423.488	1236.78
423.864	1272.93
424.241	1288.75
424.617	1293.5
424.994	1304.34
425.37	1305.47
425.746	1333.72
426.123	1361.29
426.499	1355.64
426.875	1382.08
427.251	1434.96
427.627	1435.64
428.003	1449.2
428.379	1449.43
428.756	1488.75
429.132	1507.73
429.507	1506.6
429.883	1529.42
430.259	1545.92
430.635	1564.45
431.011	1545.47
431.387	1618.91
431.763	1664.79
432.138	1650.78
432.514	1701.62
432.89	1681.96
433.265	1713.6
433.641	1712.02
434.016	1742.75
434.392	1762.19
434.767	1800.6
435.143	1816.87
435.518	1887.83
435.894	1865.23
436.269	1904.78
436.644	1915.85
437.02	1926.02
437.395	1924.21
437.77	1974.38
438.145	1985.46
438.52	2001.05
438.895	2014.38
439.271	2034.04
439.646	2087.83
440.021	2107.49
440.395	2096.64
440.77	2090.31
441.145	2141.84
441.52	2199.24
441.895	2169.86
442.27	2186.81
442.645	2178.67
443.019	2236.75
443.394	2215.51
443.769	2277.43
444.143	2238.56
444.518	2306.13
444.892	2292.79
445.267	2302.51
445.641	2321.72
446.016	2359.01
446.39	2391.55
446.764	2362.85
447.139	2356.29
447.513	2438.55
447.887	2419.34
448.262	2459.12
448.636	2445.33
449.01	2476.52
449.384	2515.61
449.758	2528.72
450.132	2566.68
450.506	2557.42
450.88	2572.79
451.254	2633.57
451.628	2629.28
452.002	2633.35
452.376	2681.48
452.75	2706.57
453.123	2774.59
453.497	2798.32
453.871	2824.08
454.244	2852.1
454.618	2902.95
454.992	2874.47
455.365	2946.33
455.739	3036.28
456.112	3065.2
456.486	3043.73
456.859	3058.42
457.232	3160.34
457.606	3140.23
457.979	3161.24
458.352	3259.77
458.725	3294.12
459.099	3337.96
459.472	3392.88
459.845	3409.6
460.218	3455.7
460.591	3476.94
460.964	3514
461.337	3563.49
461.71	3614.11
462.083	3717.84
462.456	3713.55
462.829	3709.93
463.201	3813.43
463.574	3798.06
463.947	3854.79
464.32	3984.05
464.692	3967.55
465.065	3992.18
465.438	4059.3
465.81	4142.91
466.183	4159.18
466.555	4290.03
466.928	4319.63
467.3	4335.68
467.672	4350.37
468.045	4447.09
468.417	4433.53
468.789	4493.86
469.161	4610.02
469.534	4663.13
469.906	4767.08
470.278	4782.67
470.65	4828.77
471.022	4957.58
471.394	5069.89
471.766	5118.93
472.138	5144.92
472.51	5270.12
472.882	5377.01
473.253	5393.73
473.625	5477.57
473.997	5583.1
474.369	5636.21
474.74	5659.26
475.112	5783.32
475.484	5902.42
475.855	5970.21
476.227	6065.35
476.598	6234.16
476.97	6231.45
477.341	6400.93
477.713	6535.85
478.084	6550.08
478.455	6760.47
478.827	6822.17
479.198	6959.56
479.569	6981.71
479.94	7182.61
480.311	7257.86
480.682	7400
481.053	7589.38
481.424	7747.34
481.795	7750.28
482.166	7890.84
482.537	8033.43
482.908	8191.85
483.279	8295.35
483.65	8494.21
484.021	8610.37
484.391	8758.16
484.762	8772.62
485.133	8873.41
485.503	9018.72
485.874	9227.98
486.244	9259.84
486.615	9518.59
486.985	9552.04
487.356	9765.14
487.726	9916.32
488.097	10087.62
488.467	10081.06
488.837	10307.72
489.207	10450.32
489.578	10668.17
489.948	10675.4
490.318	10900.48
490.688	10892.79
491.058	11108.83
491.428	11231.31
491.798	11311.54
492.168	11545.43
492.538	11632.21
492.908	11704.07
493.278	11874.91
493.648	11904.97
494.017	12108.81
494.387	12177.73
494.757	12373.88
495.126	12505.86
495.496	12463.82
495.866	12665.4
496.235	12769.35
496.605	12872.85
496.974	12889.58
497.344	13156.91
497.713	13184.71
498.082	13298.38
498.452	13395.33
498.821	13556.68
499.19	13574.76
499.559	13705.37
499.928	13801.42
500.298	13878.93
500.667	14028.98
501.036	14093.84
501.405	14199.82
501.774	14270.56
502.143	14474.85
502.512	14473.26
502.88	14607.27
503.249	14702.64
503.618	14755.29
503.987	14773.37
504.356	14949.64
504.724	14960.03
505.093	15214.94
505.462	15273.92
505.83	15411.09
506.199	15517.53
506.567	15736.28
506.936	15584.65
507.304	15822.15
507.672	15896.05
508.041	16013.79
508.409	16102.15
508.777	16286.55
509.145	16440.22
509.514	16409.94
509.882	16600.89
510.25	16589.37
510.618	16781
510.986	16857.38
511.354	17180.08
511.722	17221.67
512.09	17402.68
512.458	17330.36
512.826	17528.55
513.193	17649.68
513.561	17700.98
513.929	17911.37
514.297	18066.62
514.664	18163.56
515.032	18313.16
515.4	18538.69
515.767	18485.14
516.135	18657.33
516.502	18639.71
516.869	18876.76
517.237	18962.41
517.604	19020.04
517.972	19310.88
518.339	19425
518.706	19446.69
519.073	19613.24
519.44	19740.47
519.808	20024.3
520.175	20007.36
520.542	20235.15
520.909	20455.93
521.276	20500.9
521.643	20657.96
522.009	20817.05
522.376	20929.82
522.743	21097.04
523.11	21447.54
523.477	21539.52
523.843	21704.94
524.21	21890.7
524.577	22019.51
524.943	22112.61
525.31	22201.87
525.676	22579.04
526.043	22663.1
526.409	22699.26
526.776	23056.54
527.142	23106.26
527.508	23316.87
527.874	23477.77
528.241	23622.4
528.607	23662.85
528.973	23962.73
529.339	24029.17
529.705	24162.73
530.071	24319.78
530.437	24495.15
530.803	24675.26
531.169	24966.09
531.535	24830.96
531.901	25018.52
532.267	25138.52
532.632	25254.45
532.998	25371.96
533.364	25535.8
533.73	25750.71
534.095	25898.95
534.461	25972.4
534.826	26003.58
535.192	26141.43
535.557	26500.29
535.923	26438.15
536.288	26718.82
536.653	26701.42
537.019	26670
537.384	26740.96
537.749	26991.8
538.114	26994.06
538.479	27134.17
538.845	27313.6
539.21	27246.71
539.575	27365.58
539.94	27579.59
540.305	27782.07
540.67	27725.34
541.034	27839.69
541.399	27902.97
541.764	28055.28
542.129	28253.24
542.494	28334.14
542.858	28415.27
543.223	28475.83
543.587	28583.63
543.952	28594.7
544.316	28676.96
544.681	28803.28
545.045	28937.52
545.41	29137.74
545.774	29276.72
546.138	29214.57
546.503	29296.83
546.867	29409.37
547.231	29658.4
547.595	29770.94
547.959	29866.53
548.324	29977.71
548.688	29972.07
549.052	30039.18
549.416	30257.03
549.779	30381.55
550.143	30287.54
550.507	30612.5
550.871	30756.9
551.235	30742.89
551.599	30969.1
551.962	30988.08
552.326	31135.42
552.689	31410.22
553.053	31268.53
553.417	31405.47
553.78	31754.39
554.143	31701.74
554.507	31938.12
554.87	31939.24
555.234	32299.24
555.597	32195.28
555.96	32364.54
556.323	32620.36
556.686	32507.14
557.05	32862.84
557.413	32952.33
557.776	33028.71
558.139	33302.82
558.502	33367
558.865	33431.64
559.228	33682.48
559.59	33822.81
559.953	33900.32
560.316	34177.83
560.679	34135.57
561.041	34426.86
561.404	34584.15
561.767	34803.35
562.129	34789.79
562.492	35126.05
562.854	35131.25
563.217	35251.02
563.579	35523.56
563.941	35764.91
564.304	35898.46
564.666	36072.7
565.028	36198.57
565.39	36284.44
565.753	36419.35
566.115	36595.39
566.477	36623.42
566.839	36615.28
567.201	37019.56
567.563	37104.31
567.925	37275.38
568.287	37433.56
568.648	37412.77
569.01	37620.68
569.372	37787.9
569.734	37832.88
570.095	37950.16
570.457	38124.62
570.819	38301.56
571.18	38422.69
571.542	38604.83
571.903	38611.84
572.265	38897.71
572.626	38977.03
572.987	39010.7
573.349	39190.35
573.71	39285.72
574.071	39237.36
574.432	39520.29
574.794	39701.75
575.155	39676.44
575.516	39705.14
575.877	39859.94
576.238	39821.75
576.599	40187.16
576.96	40099.26
577.32	40163.89
577.681	40341.74
578.042	40587.38
578.403	40402.98
578.763	40447.27
579.124	40571.33
579.485	40824.44
579.845	40962.28
580.206	40793.02
580.566	40792.8
580.927	41026.92
581.287	40977.65
581.648	40717.09
582.008	41028.72
582.368	40998.22
582.728	41120.02
583.089	40989.85
583.449	40948.05
583.809	41130.64
584.169	41258.77
584.529	41024.66
584.889	41395.72
585.249	41084.09
585.609	41035.28
585.969	41417.19
586.329	41299.68
586.688	41326.12
587.048	41274.59
587.408	41256.51
587.768	41182.84
588.127	41209.51
588.487	41306.46
588.846	41531.08
589.206	41269.17
589.565	41378.54
589.925	41415.83
590.284	41383.97
590.643	41654.24
591.003	41590.29
591.362	41600.23
591.721	41588.71
592.08	41573.57
592.44	41703.96
592.799	41800.23
593.158	41598.65
593.517	41759.1
593.876	41725.65
594.235	41644.53
594.593	41764.52
594.952	41799.78
595.311	41624.87
595.67	41771.08
596.029	41924.75
596.387	41863.5
596.746	41985.08
597.104	41825.31
597.463	41855.82
597.822	42086.55
598.18	41877.29
598.538	41912.09
598.897	42122.71
599.255	41844.97
599.613	42516.82
599.972	42285.87
600.33	42336.26
600.688	42139.88
601.046	42363.38
601.404	42395.69
601.762	42426.88
602.12	42567.67
602.478	42519.53
602.836	42488.8
603.194	42348.91
603.552	42521.11
603.91	42249.48
604.268	42633.88
604.625	42500.78
604.983	42689.92
605.341	42483.37
605.698	42789.13
606.056	42821.9
606.413	42762.01
606.771	42870.26
607.128	42968.56
607.485	42744.16
607.843	42784.84
608.2	43020.31
608.557	43040.65
608.914	42945.06
609.272	43287.2
609.629	43223.24
609.986	43347.98
610.343	43311.38
610.7	43519.28
611.057	43456.46
611.414	43392.05
611.771	43500.52
612.127	43520.86
612.484	43640.86
612.841	43738.71
613.198	43633.17
613.554	43664.36
613.911	44021.41
614.267	43717.01
614.624	44036.55
614.98	44015.31
615.337	44192.48
615.693	44033.62
616.05	44018.02
616.406	44269.99
616.762	44115.2
617.118	43963.34
617.475	44102.77
617.831	44058.25
618.187	44229.54
618.543	44237.9
618.899	44369.88
619.255	44377.79
619.611	44335.76
619.967	44489.88
620.323	44517.9
620.678	44426.83
621.034	44347.51
621.39	44476.99
621.746	44422.53
622.101	44750.66
622.457	44507.95
622.812	44508.86
623.168	44611.23
623.523	44646.71
623.879	44659.59
624.234	44447.84
624.589	44584.79
624.945	44576.43
625.3	44534.85
625.655	44418.69
626.01	44544.79
626.365	44651
626.72	44598.35
627.075	44589.99
627.43	44498.46
627.785	44341.63
628.14	44451.23
628.495	44530.55
628.85	44497.33
629.205	44314.06
629.559	44570.78
629.914	44345.02
630.269	44400.84
630.623	44241.52
630.978	44154.52
631.332	44411.01
631.687	44377.79
632.041	44170.34
632.396	44236.1
632.75	44114.07
633.104	44033.39
633.459	43970.57
633.813	43856.9
634.167	43871.36
634.521	43862.1
634.875	43714.98
635.229	43905.03
635.583	43592.05
635.937	43607.86
636.291	43554.53
636.645	43608.54
636.999	43473.86
637.352	43628.2
637.706	43247.2
638.06	43500.75
638.413	43372.62
638.767	43338.72
639.121	43421.88
639.474	43150.25
639.828	43135.11
640.181	43139.63
640.534	43262.79
640.888	43089.91
641.241	42793.2
641.594	42838.62
641.947	43148.89
642.301	42998.62
642.654	42863.93
643.007	42890.37
643.36	42871.39
643.713	42764.95
644.066	42886.3
644.419	42520.21
644.771	42433.43
645.124	41891.75
645.477	41866.22
645.83	41650.18
646.182	41467.58
646.535	41293.58
646.888	41453.57
647.24	41303.74
647.593	41589.16
647.945	41446.34
648.298	41193.46
648.65	41109.4
649.002	41004.32
649.355	41170.19
649.707	41168.83
650.059	41350.07
650.411	41764.3
650.763	41663.96
651.115	41999.55
651.467	41903.5
651.819	41865.09
652.171	41697.41
652.523	41783.05
652.875	41647.46
653.227	41605.21
653.578	41785.99
653.93	41745.54
654.282	41422.16
654.633	41439.79
654.985	41499.67
655.337	41531.08
655.688	41529.73
656.039	41606.11
656.391	41228.04
656.742	41291.54
657.094	41306.68
657.445	41411.09
657.796	41278.89
658.147	41200.92
658.498	41146.69
658.849	41293.35
659.2	41197.98
659.551	41075.95
659.902	41244.31
660.253	41149.4
660.604	41127.7
660.955	40925.9
661.306	41119.12
661.656	40981.49
662.007	41025.79
662.358	40995.05
662.708	41016.75
663.059	40849.52
663.409	40589.64
663.76	41014.26
664.11	40831.21
664.461	40851.78
664.811	40807.26
665.161	40780.82
665.511	40810.65
665.862	40703.08
666.212	40874.83
666.562	40985.56
666.912	40889.97
667.262	40786.02
667.612	40761.16
667.962	40875.51
668.312	40788.28
668.662	40932.91
669.011	40873.93
669.361	40771.1
669.711	40718
670.06	40538.79
670.41	40547.61
670.76	40434.61
671.109	40615.4
671.459	40558.23
671.808	40444.33
672.157	40538.11
672.507	40326.14
672.856	40329.08
673.205	40242.53
673.554	40485.46
673.904	40180.16
674.253	40486.59
674.602	40303.77
674.951	39741.53
675.3	39715.76
675.649	40140.84
675.998	39887.74
676.346	40077.56
676.695	40120.72
677.044	39929.32
677.393	40023.55
677.741	40151.46
678.09	39977.45
678.438	39800.96
678.787	40000.95
679.135	40005.93
679.484	39765.03
679.832	39969.54
680.181	39650.23
680.529	39668.99
680.877	39554.64
681.225	39450.46
681.573	39749.21
681.922	39410.91
682.27	39400.07
682.618	39483.91
682.966	39280.97
683.314	39304.02
683.661	39117.81
684.009	38981.32
684.357	38785.62
684.705	39021.77
685.053	39001.21
685.4	38889.34
685.748	38942.45
686.095	38706.07
686.443	38494.78
686.79	38493.87
687.138	38546.53
687.485	38353.99
687.832	38280.1
688.18	38566.42
688.527	38188.35
688.874	38221.79
689.221	38061.57
689.568	37815.93
689.915	37787.23
690.262	37992.65
690.609	37981.57
690.956	37751.07
691.303	37584.97
691.65	37508.14
691.997	37490.51
692.344	37307.24
692.69	37269.95
693.037	37249.84
693.383	37057.3
693.73	37090.97
694.077	36902.96
694.423	36966.01
694.769	36924.2
695.116	36774.82
695.462	36734.37
695.808	36664.32
696.155	36728.72
696.501	36332.58
696.847	36201.51
697.193	36018.01
697.539	36201.28
697.885	35985.69
698.231	35876.32
698.577	35879.71
698.923	35726.94
699.269	35456.44
699.614	35277.01
699.96	35221.42
700.306	35306.61
700.651	35205.15
700.997	35074.76
701.342	35127.64
701.688	34960.63
702.033	34764.71
702.379	34879.51
702.724	34719.74
703.069	34820.98
703.415	34292.86
703.76	34348
704.105	34390.48
704.45	34272.97
704.795	34145.74
705.14	34002.92
705.485	33959.08
705.83	33867.33
706.175	33731.29
706.52	33800.44
706.865	33640.67
707.209	33771.51
707.554	33446.1
707.899	33444.29
708.243	33369.49
708.588	33257.18
708.932	33013.34
709.277	33092.43
709.621	33019.22
709.966	32867.36
710.31	32983.06
710.654	32727.47
710.998	32765.66
711.342	32774.93
711.687	32629.85
712.031	32648.15
712.375	32457.2
712.719	32574.26
713.063	32506.01
713.407	32463.75
713.75	32207.49
714.094	32304.21
714.438	32046.81
714.782	32284.32
715.125	32055.17
715.469	32129.52
715.812	32004.78
716.156	31749.19
716.499	31772.02
716.843	31806.59
717.186	31621.97
717.53	31595.98
717.873	31619.03
718.216	31570.44
718.559	31516.88
718.902	31211.13
719.246	31354.18
719.589	31257.45
719.932	31086.61
720.275	31107.85
720.617	30974.75
720.96	30984.69
721.303	30949.89
721.646	30919.16
721.989	30745.15
722.331	30960.06
722.674	30763.91
723.016	30725.04
723.359	30695.89
723.701	30709.67
724.044	30466.06
724.386	30226.3
724.729	30509.68
725.071	30403.01
725.413	30213.41
725.755	30306.52
726.097	30062.46
726.439	30040.54
726.782	30036.02
727.124	30131.61
727.465	29975.91
727.807	29928.22
728.149	29882.35
728.491	29785.63
728.833	29880.54
729.175	29648.46
729.516	29697.27
729.858	29598.06
730.199	29671.28
730.541	29572.75
730.882	29557.39
731.224	29630.83
731.565	29425.64
731.906	29409.82
732.248	29351.74
732.589	29211.18
732.93	29085.99
733.271	29120.34
733.612	29170.5
733.953	29156.95
734.294	29128.92
734.635	29122.37
734.976	29191.52
735.317	28904.75
735.658	28852.32
735.999	28919.89
736.339	28798.08
736.68	28870.4
737.021	28775.03
737.361	28492.78
737.702	28754.7
738.042	28617.3
738.383	28547.02
738.723	28597.86
739.063	28467.25
739.404	28530.52
739.744	28332.11
740.084	28337.08
740.424	28460.01
740.764	28330.07
741.104	28387.47
741.444	28242.39
741.784	28117.65
742.124	28128.72
742.464	27970.99
742.804	28005.11
743.143	28083.53
743.483	27952.68
743.823	27909.75
744.162	27769.19
744.502	27872.91
744.841	27697.55
745.181	27752.91
745.52	27597.44
745.86	27723.99
746.199	27510.66
746.538	27594.73
746.877	27520.38
747.216	27457.78
747.556	27354.73
747.895	27354.28
748.234	27185.02
748.573	27168.3
748.911	27100.5
749.25	27240.39
749.589	27057.11
749.928	27124
750.267	26931.24
750.605	26974.63
750.944	26893.95
751.283	26839.94
751.621	26835.2
751.96	26691.93
752.298	26760.17
752.636	26593.62
752.975	26341.65
753.313	26456.45
753.651	26526.73
753.989	26340.97
754.327	26305.95
754.666	26166.06
755.004	26239.73
755.342	26255.33
755.679	26080.42
756.017	25983.24
756.355	26010.81
756.693	25852.63
757.031	25976.24
757.368	25754.77
757.706	25820.76
758.044	25603.14
758.381	25672.07
758.719	25635.46
759.056	25565.18
759.394	25506.65
759.731	25283.15
760.068	25242.47
760.405	25216.48
760.743	25083.15
761.08	25101.68
761.417	25021.01
761.754	25042.48
762.091	25033.44
762.428	24868.47
762.765	24665.09
763.102	24653.11
763.438	24632.77
763.775	24377.64
764.112	24434.58
764.449	24337.18
764.785	24294.25
765.122	23994.6
765.458	23925.9
765.795	23909.4
766.131	23963.64
766.467	23889.51
766.804	23761.15
767.14	23591.44
767.476	23597.09
767.812	23573.59
768.148	23593.7
768.485	23337.89
768.821	23247.04
769.157	23170.89
769.492	23220.15
769.828	23213.6
770.164	22897
770.5	22918.01
770.836	22913.95
771.171	22751.92
771.507	22686.15
771.842	22516.44
772.178	22598.47
772.513	22526.61
772.849	22402.09
773.184	22264.47
773.519	22208.43
773.855	22165.49
774.19	22017.02
774.525	21958.49
774.86	21958.72
775.195	21936.57
775.53	21783.81
775.865	21672.85
776.2	21596.92
776.535	21528.67
776.87	21393.99
777.205	21288.45
777.539	21340.43
777.874	21356.92
778.209	21047.1
778.543	21039.42
778.878	20888.46
779.212	20899.08
779.547	20780.22
779.881	20839.2
780.215	20717.62
780.55	20688.69
780.884	20477.17
781.218	20489.15
781.552	20449.38
781.886	20327.12
782.22	20229.72
782.554	20192.89
782.888	20071.99
783.222	19942.72
783.556	19882.61
783.889	19763.75
784.223	19739.11
784.557	19680.13
784.89	19620.02
785.224	19539.8
785.557	19415.51
785.891	19409.18
786.224	19358.78
786.558	19409.4
786.891	19231.33
787.224	19090.54
787.557	19013.03
787.891	19046.02
788.224	18960.83
788.557	18987.72
788.89	18819.59
789.223	18890.32
789.556	18668.86
789.888	18601.74
790.221	18572.82
790.554	18438.36
790.887	18435.42
791.219	18442.42
791.552	18260.96
791.884	18199.72
792.217	18186.16
792.549	18070.91
792.882	17949.56
793.214	17864.59
793.546	17870.46
793.879	17801.76
794.211	17724.93
794.543	17691.48
794.875	17655.1
795.207	17731.93
795.539	17606.29
795.871	17607.64
796.203	17393.41
796.535	17286.3
796.867	17313.64
797.198	17238.84
797.53	17249.46
797.862	17067.09
798.193	17163.81
798.525	17052.4
798.856	17012.18
799.188	16842.69
799.519	16740.77
799.85	16761.34
800.182	16727.44
800.513	16815.57
800.844	16692.19
801.175	16669.36
801.506	16602.47
801.837	16467.79
802.168	16513.21
802.499	16403.83
802.83	16350.5
803.161	16243.16
803.491	16315.93
803.822	16334.01
804.153	16125.88
804.483	15996.84
804.814	15977.18
805.145	15940.12
805.475	15985.54
805.805	15918.65
806.136	16008.36
806.466	15943.28
806.796	15867.35
807.126	15822.38
807.457	15743.74
807.787	15645.89
808.117	15605.89
808.447	15529.28
808.777	15533.8
809.107	15480.92
809.436	15475.5
809.766	15390.98
810.096	15372.9
810.426	15216.52
810.755	15202.96
811.085	15156.86
811.414	15150.08
811.744	15049.52
812.073	14972.01
812.403	14966.36
812.732	14845.23
813.061	14902.4
813.39	14840.26
813.719	14854.04
814.049	14843.65
814.378	14875.29
814.707	14677.78
815.036	14631.9
815.365	14649.08
815.693	14624.45
816.022	14547.39
816.351	14432.36
816.68	14445.24
817.008	14575.86
817.337	14341.29
817.665	14395.53
817.994	14391.46
818.322	14358.46
818.651	14236.43
818.979	14276.88
819.307	14325.47
819.636	14187.4
819.964	14076.89
820.292	14117.57
820.62	14136.55
820.948	14075.31
821.276	14149.66
821.604	14019.72
821.932	14075.99
822.259	14035.99
822.587	14029.21
822.915	14051.13
823.243	14074.63
823.57	13997.57
823.898	14035.53
824.225	13985.59
824.553	13939.72
824.88	13939.94
825.207	13909.66
825.535	14007.74
825.862	14025.82
826.189	13964.12
826.516	14036.21
826.843	14056.33
827.17	14001.19
827.497	14113.5
827.824	13991.24
828.151	14036.44
828.478	13935.42
828.805	13969.1
829.131	13953.73
829.458	13933.39
829.785	13876.67
830.111	13884.35
830.438	13897.23
830.764	13928.65
831.09	13966.84
831.417	13844.58
831.743	13921.87
832.069	13946.05
832.395	13850.91
832.722	13916.67
833.048	13797.12
833.374	13777.91
833.7	13746.95
834.026	13791.47
834.351	13784.92
834.677	13835.54
835.003	13794.41
835.329	13783.11
835.654	13727.07
835.98	13666.96
836.306	13718.03
836.631	13562.78
836.956	13694.75
837.282	13676.67
837.607	13609.11
837.932	13547.64
838.258	13546.96
838.583	13620.63
838.908	13423.8
839.233	13516.9
839.558	13473.06
839.883	13389.22
840.208	13359.85
840.533	13359.85
840.858	13372.05
841.182	13367.53
841.507	13337.25
841.832	13337.47
842.156	13272.62
842.481	13233.52
842.805	13242.11
843.13	13219.06
843.454	13116.01
843.778	13054.32
844.103	13098.61
844.427	12999.18
844.751	13072.85
845.075	13144.71
845.399	13054.54
845.723	12910.59
846.047	12932.51
846.371	12780.43
846.695	12794.89
847.019	12637.61
847.343	12589.25
847.666	12531.39
847.99	12527.1
848.313	12528
848.637	12392.87
848.96	12352.42
849.284	12337.27
849.607	12304.51
849.931	12203.49
850.254	12134.12
850.577	12136.6
850.9	12005.31
851.223	11980.45
851.546	11942.48
851.869	11883.5
852.192	11944.52
852.515	11839.89
852.838	11771.41
853.161	11783.39
853.483	11749.04
853.806	11659.33
854.129	11599.44
854.451	11662.94
854.774	11573
855.096	11490.52
855.419	11532.1
855.741	11468.37
856.063	11399.22
856.385	11385.89
856.708	11354.93
857.03	11283.97
857.352	11210.75
857.674	11217.08
857.996	11253.24
858.318	11143.63
858.64	11122.17
858.961	11122.17
859.283	10981.15
859.605	10996.29
859.926	11035.61
860.248	10927.37
860.57	10836.75
860.891	10934.37
861.212	10907.26
861.534	10857.77
861.855	10890.53
862.176	10862.51
862.498	10867.26
862.819	10855.05
863.14	10772.12
863.461	10734.83
863.782	10702.52
864.103	10788.84
864.424	10693.25
864.745	10633.82
865.065	10649.64
865.386	10562.63
865.707	10516.31
866.027	10626.58
866.348	10532.8
866.668	10582.97
866.989	10445.12
867.309	10423.2
867.63	10517.21
867.95	10506.36
868.27	10406.25
868.59	10451
868.91	10397.89
869.23	10384.33
869.55	10392.92
869.87	10399.47
870.19	10325.58
870.51	10366.7
870.83	10372.35
871.15	10231.12
871.469	10215.3
871.789	10199.93
872.109	10288.51
872.428	10151.57
872.748	10162.42
873.067	10133.94
873.386	10149.31
873.706	10113.83
874.025	10055.98
874.344	10118.8
874.663	10159.93
874.982	10057.79
875.301	10053.27
875.62	10046.94
875.939	9949.99
876.258	10022.53
876.577	9926.72
876.896	9965.13
877.214	9898.92
877.533	9881.29
877.852	9860.96
878.17	9897.11
878.489	9874.51
878.807	9939.82
879.125	9874.51
879.444	9760.62
879.762	9784.12
880.08	9790.9
880.398	9741.64
880.716	9703.45
881.034	9710.22
881.352	9721.07
881.67	9735.76
881.988	9669.32
882.306	9676.1
882.624	9650.34
882.941	9561.98
883.259	9541.87
883.577	9529.21
883.894	9622.54
884.212	9582.77
884.529	9567.86
884.846	9498.71
885.164	9447.41
885.481	9398.59
885.798	9343.68
886.115	9454.19
886.432	9341.2
886.75	9344.58
887.067	9322.21
887.383	9338.03
887.7	9355.88
888.017	9300.29
888.334	9279.95
888.651	9205.38
888.967	9141.2
889.284	9180.07
889.6	9128.77
889.917	9037.25
890.233	9101.2
890.55	9026.18
890.866	9055.55
891.182	9025.5
891.498	8939.17
891.815	8878.38
892.131	8901.21
892.447	8841.1
892.763	8878.83
893.079	8906.4
893.395	8909.57
893.71	8775.79
894.026	8804.26
894.342	8747.76
894.657	8677.71
894.973	8671.61
895.289	8696.47
895.604	8679.52
895.92	8514.55
896.235	8511.84
896.55	8514.32
896.865	8502.35
897.181	8494.44
897.496	8463.93
897.811	8469.13
898.126	8450.6
898.441	8425.29
898.756	8347.32
899.071	8355.91
899.386	8314.78
899.7	8218.51
900.015	8211.96
900.33	8199.76
900.644	8182.81
900.959	8137.16
901.273	8130.38
901.588	8084.73
901.902	8010.83
902.216	7998.63
902.531	7958.18
902.845	7982.36
903.159	7908.24
903.473	7857.62
903.787	7804.06
904.101	7736.49
904.415	7737.85
904.729	7795.25
905.042	7677.51
905.356	7740.56
905.67	7675.02
905.984	7667.79
906.297	7681.8
906.611	7641.8
906.924	7633.9
907.237	7533.11
907.551	7503.5
907.864	7450.85
908.177	7481.13
908.491	7469.61
908.804	7385.31
909.117	7378.08
909.43	7374.24
909.743	7283.85
910.056	7267.58
910.368	7287.24
910.681	7269.61
910.994	7177.18
911.307	7181.7
911.619	7127.24
911.932	7044.08
912.244	7026.23
912.557	7044.31
912.869	6959.11
913.181	6954.82
913.494	6967.7
913.806	6896.06
914.118	6881.6
914.43	6847.25
914.742	6877.53
915.054	6801.6
915.366	6780.36
915.678	6676.41
915.99	6718.89
916.302	6717.54
916.613	6691.55
916.925	6733.58
917.236	6622.4
917.548	6600.7
917.859	6581.49
918.171	6524.77
918.482	6493.81
918.794	6472.8
919.105	6443.64
919.416	6416.3
919.727	6396.19
920.038	6373.59
920.349	6342.18
920.66	6315.06
920.971	6291.33
921.282	6315.51
921.593	6268.73
921.903	6242.97
922.214	6201.39
922.525	6137.66
922.835	6127.72
923.146	6138.57
923.456	6079.13
923.767	6107.61
924.077	5997.78
924.387	6028.29
924.697	5953.49
925.008	5931.57
925.318	5932.7
925.628	5893.38
925.938	5859.93
926.248	5855.86
926.558	5794.4
926.867	5791.01
927.177	5758.92
927.487	5747.84
927.796	5646.38
928.106	5741.74
928.416	5682.31
928.725	5653.61
929.034	5626.26
929.344	5590.79
929.653	5579.03
929.962	5544.68
930.271	5550.33
930.581	5535.87
930.89	5480.28
931.199	5474.4
931.508	5461.98
931.817	5420.17
932.125	5439.15
932.434	5375.2
932.743	5334.75
933.051	5346.72
933.36	5281.19
933.669	5281.87
933.977	5244.81
934.286	5257.69
934.594	5198.93
934.902	5177.24
935.21	5179.95
935.519	5139.72
935.827	5138.59
936.135	5120.97
936.443	5055.21
936.751	5039.61
937.059	5050.01
937.367	5017.01
937.674	5035.09
937.982	4950.35
938.29	4907.64
938.597	4935.89
938.905	4892.05
939.213	4881.2
939.52	4932.27
939.827	4881.43
940.135	4769.56
940.442	4806.17
940.749	4804.14
941.056	4762.78
941.363	4759.39
941.67	4716.46
941.977	4680.53
942.284	4660.64
942.591	4702.45
942.898	4646.4
943.205	4639.4
943.511	4604.6
943.818	4550.36
944.125	4468.78
944.431	4515.11
944.738	4569.57
945.044	4488.44
945.35	4475.11
945.657	4479.4
945.963	4419.97
946.269	4428.78
946.575	4425.84
946.881	4420.65
947.187	4387.2
947.493	4294.55
947.799	4334.77
948.105	4293.42
948.41	4284.15
948.716	4300.88
949.022	4231.5
949.327	4268.79
949.633	4207.54
949.938	4258.84
950.244	4209.8
950.549	4133.87
950.854	4167.77
951.16	4148.11
951.465	4127.55
951.77	4141.56
952.075	4082.8
952.38	4097.27
952.685	4046.19
952.99	4062.92
953.294	4048.9
953.599	4005.97
953.904	4024.27
954.209	3964.39
954.513	3924.39
954.818	3894.78
955.122	3876.03
955.426	3889.14
955.731	3868.34
956.035	3855.24
956.339	3828.35
956.643	3838.29
956.948	3767.33
957.252	3752.19
957.556	3810.72
957.86	3735.24
958.163	3753.55
958.467	3674.9
958.771	3750.16
959.075	3670.84
959.378	3687.56
959.682	3669.48
959.985	3650.05
960.289	3633.32
960.592	3638.52
960.896	3631.06
961.199	3614.11
961.502	3559.88
961.805	3546.77
962.108	3511.29
962.411	3494.34
962.714	3494.12
963.017	3457.73
963.32	3499.77
963.623	3478.07
963.926	3463.61
964.228	3431.29
964.531	3454.8
964.833	3408.7
965.136	3408.47
965.438	3363.95
965.741	3354.91
966.043	3330.51
966.345	3313.1
966.648	3322.82
966.95	3305.2
967.252	3263.39
967.554	3287.57
967.856	3247.12
968.158	3234.24
968.46	3216.38
968.761	3229.49
969.063	3206.67
969.365	3190.62
969.666	3184.75
969.968	3135.71
970.269	3150.4
970.571	3114.01
970.872	3106.1
971.174	3108.82
971.475	3093.45
971.776	3119.21
972.077	3078.76
972.378	3053.9
972.679	3021.14
972.98	3043.73
973.281	3031.76
973.582	3011.42
973.883	2962.15
974.183	2990.18
974.484	2985.88
974.785	2921.25
975.085	2950.63
975.386	2941.36
975.686	2936.84
975.986	2889.39
976.287	2885.32
976.587	2878.09
976.887	2880.35
977.187	2876.05
977.487	2856.17
977.787	2809.84
978.087	2785.66
978.387	2814.81
978.687	2761.26
978.987	2758.54
979.286	2745.21
979.586	2713.35
979.885	2725.78
980.185	2670.86
980.484	2737.3
980.784	2662.95
981.083	2660.47
981.382	2698.43
981.682	2678.09
981.981	2647.36
982.28	2644.2
982.579	2629.73
982.878	2615.04
983.177	2618.21
983.475	2604.2
983.774	2586.8
984.073	2566.01
984.372	2545.89
984.67	2562.62
984.969	2561.49
985.267	2548.38
985.566	2543.63
985.864	2493.47
986.162	2490.75
986.461	2494.14
986.759	2495.95
987.057	2434.71
987.355	2439.68
987.653	2442.85
987.951	2454.14
988.249	2430.87
988.547	2399
988.844	2392.23
989.142	2405.78
989.44	2345.45
989.737	2362.62
990.035	2358.55
990.332	2363.53
990.63	2321.94
990.927	2330.31
991.224	2303.41
991.521	2274.26
991.819	2294.37
992.116	2281.95
992.413	2242.85
992.71	2262.74
993.006	2259.12
993.303	2202.63
993.6	2216.41
993.897	2184.55
994.193	2203.08
994.49	2182.06
994.787	2198.56
995.083	2164.43
995.379	2153.14
995.676	2138.45
995.972	2155.17
996.268	2139.35
996.565	2093.25
996.861	2091.22
997.157	2104.32
997.453	2092.35
997.749	2074.04
998.044	2072.01
998.34	2078.34
998.636	2021.84
998.932	2038.11
999.227	1995.85
999.523	1981.16
999.818	2010.77
1000.114	1994.72
1000.409	1980.03
1000.704	1952.91
1001	1962.41
1001.295	1957.89
1001.59	1922.86
1001.885	1954.27
1002.18	1886.48
1002.475	1915.18
1002.77	1912.92
1003.065	1866.59
1003.359	1894.84
1003.654	1882.18
1003.949	1871.56
1004.243	1855.29
1004.538	1839.25
1004.832	1833.14
1005.127	1840.6
1005.421	1810.09
1005.715	1792.69
1006.009	1820.94
1006.304	1775.52
1006.598	1771.9
1006.892	1756.99
1007.186	1759.47
1007.48	1776.42
1007.773	1742.75
1008.067	1732.13
1008.361	1718.34
1008.655	1679.02
1008.948	1713.37
1009.242	1696.42
1009.535	1670.44
1009.829	1652.81
1010.122	1652.36
1010.415	1666.82
1010.708	1611.45
1011.001	1651.91
1011.295	1641.96
1011.588	1625.92
1011.881	1633.15
1012.173	1571.23
1012.466	1598.8
1012.759	1590.66
1013.052	1589.99
1013.344	1521.06
1013.637	1572.59
1013.93	1541.17
1014.222	1540.95
1014.514	1535.98
1014.807	1535.52
1015.099	1527.62
1015.391	1495.75
1015.683	1493.94
1015.976	1508.63
1016.268	1456.66
1016.56	1492.14
1016.851	1472.93
1017.143	1462.76
1017.435	1470.22
1017.727	1434.06
1018.018	1424.12
1018.31	1408.07
1018.602	1386.83
1018.893	1407.39
1019.185	1388.86
1019.476	1357.9
1019.767	1377.11
1020.058	1337.79
1020.35	1340.5
1020.641	1362.2
1020.932	1345.47
1021.223	1307.73
1021.514	1294.18
1021.804	1265.48
1022.095	1268.64
1022.386	1278.58
1022.677	1259.83
1022.967	1290.79
1023.258	1272.25
1023.548	1241.3
1023.839	1268.41
1024.129	1244.23
1024.419	1235.42
1024.709	1238.13
1025	1203.78
1025.29	1214.86
1025.58	1204.69
1025.87	1190
1026.16	1174.63
1026.449	1208.08
1026.739	1174.86
1027.029	1169.66
1027.319	1157.91
1027.608	1164.01
1027.898	1127.85
1028.187	1147.06
1028.477	1151.35
1028.766	1122.88
1029.055	1107.51
1029.344	1114.97
1029.634	1107.74
1029.923	1096.44
1030.212	1074.07
1030.501	1086.04
1030.79	1095.08
1031.078	1048.08
1031.367	1041.53
1031.656	1070.45
1031.945	1045.37
1032.233	1019.83
1032.522	1040.85
1032.81	1040.17
1033.099	1018.93
1033.387	1011.02
1033.675	1009.21
1033.963	995.2
1034.251	990.45
1034.54	995.65
1034.828	974.41
1035.116	969.89
1035.403	957.91
1035.691	978.25
1035.979	956.1
1036.267	964.69
1036.554	942.09
1036.842	942.32
1037.129	907.07
1037.417	926.28
1037.704	933.96
1037.992	902.77
1038.279	926.05
1038.566	897.12
1038.853	897.12
1039.14	897.12
