Data from plate_ceramic_FLMS001491_027.txt Node
Date: Tue Feb 07 11:16:32 GMT 2017
User: dcchb
Spectrometer: FLMS00149
Trigger mode: 0
Integration Time (sec): 2.000000E-2
Scans to average: 10
Electric dark correction enabled: true
Nonlinearity correction enabled: false
Boxcar width: 0
XAxis mode: Wavelengths
Number of Pixels in Spectrum: 2048
>>>>>Begin Spectral Data<<<<<
341.393	-18.38
341.776	-18.38
342.16	-18.38
342.543	-56.57
342.927	-45.04
343.31	-54.31
343.693	-68.77
344.077	-69.22
344.46	-54.98
344.843	-59.73
345.226	-39.62
345.61	-46.85
345.993	-21.99
346.376	-9.34
346.759	23.66
347.142	24.11
347.525	36.54
347.908	64.79
348.291	60.04
348.674	102.75
349.057	112.92
349.44	111.56
349.823	133.94
350.206	163.54
350.588	211.9
350.971	219.13
351.354	231.11
351.737	250.77
352.119	260.04
352.502	271.56
352.884	285.12
353.267	303.88
353.65	316.31
354.032	317.89
354.414	313.14
354.797	334.61
355.179	330.99
355.562	333.25
355.944	330.32
356.326	350.88
356.709	353.82
357.091	338.9
357.473	352.91
357.855	361.73
358.238	369.41
358.62	351.78
359.002	359.47
359.384	352.91
359.766	346.59
360.148	350.88
360.53	368.73
360.912	347.04
361.294	345.01
361.676	331.9
362.057	339.13
362.439	350.2
362.821	351.56
363.203	355.63
363.584	333.25
363.966	332.12
364.348	340.26
364.729	360.37
365.111	345.23
365.493	353.14
365.874	349.75
366.256	341.16
366.637	344.33
367.019	342.52
367.4	345.91
367.781	338.45
368.163	340.71
368.544	346.36
368.925	359.02
369.306	354.04
369.688	335.51
370.069	323.99
370.45	357.43
370.831	368.73
371.212	329.86
371.593	341.16
371.974	346.13
372.355	343.65
372.736	353.14
373.117	331.45
373.498	347.26
373.879	347.04
374.26	357.89
374.641	339.58
375.021	359.69
375.402	359.02
375.783	367.38
376.163	375.29
376.544	369.86
376.925	374.38
377.305	360.15
377.686	380.48
378.066	376.64
378.447	375.51
378.827	362.41
379.208	396.76
379.588	389.3
379.968	383.87
380.349	365.8
380.729	391.78
381.109	408.05
381.489	408.96
381.87	411.9
382.25	380.48
382.63	393.14
383.01	390.2
383.39	414.16
383.77	409.86
384.15	410.77
384.53	408.96
384.91	401.05
385.29	429.3
385.67	434.72
386.049	440.6
386.429	429.52
386.809	439.01
387.189	420.03
387.568	446.47
387.948	451.89
388.328	463.19
388.707	458.22
389.087	457.32
389.466	473.59
389.846	458.22
390.225	461.84
390.605	467.94
390.984	465.23
391.363	468.84
391.743	478.56
392.122	479.69
392.501	488.5
392.881	478.11
393.26	480.82
393.639	508.16
394.018	506.81
394.397	494.38
394.776	502.52
395.155	525.57
395.534	498.45
395.913	499.8
396.292	506.58
396.671	545
397.05	532.57
397.429	556.07
397.808	525.34
398.186	547.49
398.565	562.85
398.944	555.4
399.323	565.79
399.701	577.09
400.08	603.3
400.458	575.51
400.837	585.68
401.215	580.03
401.594	606.92
401.972	596.98
402.351	593.81
402.729	632.91
403.107	598.33
403.486	610.53
403.864	607.6
404.242	624.77
404.62	635.62
404.999	636.97
405.377	630.42
405.755	615.05
406.133	664.32
406.511	661.83
406.889	650.53
407.267	684.66
407.645	679.23
408.023	707.71
408.401	705.22
408.779	700.02
409.156	733.7
409.534	734.83
409.912	727.14
410.29	740.47
410.667	760.14
411.045	752.9
411.422	760.81
411.8	761.27
412.178	782.06
412.555	779.57
412.933	805.33
413.31	818.66
413.687	846.01
414.065	817.99
414.442	820.25
414.819	821.6
415.197	860.02
415.574	864.31
415.951	873.13
416.328	894.82
416.705	881.26
417.082	909.51
417.46	926.91
417.837	920.13
418.214	932.11
418.591	935.27
418.967	932.56
419.344	988.6
419.721	948.83
420.098	980.69
420.475	989.73
420.852	991.54
421.228	1022.28
421.605	998.55
421.982	1033.8
422.358	1038.77
422.735	1019.11
423.111	1034.7
423.488	1061.82
423.864	1058.88
424.241	1080.35
424.617	1074.93
424.994	1103.18
425.37	1082.39
425.746	1101.14
426.123	1151.76
426.499	1139.56
426.875	1140.24
427.251	1169.62
427.627	1163.06
428.003	1175.27
428.379	1205.77
428.756	1217.52
429.132	1248.26
429.507	1246.22
429.883	1266.34
430.259	1277.18
430.635	1299.33
431.011	1334.13
431.387	1346.56
431.763	1362.38
432.138	1343.85
432.514	1366.45
432.89	1384.07
433.265	1421.13
433.641	1439.89
434.016	1435.15
434.392	1437.18
434.767	1483.28
435.143	1487.35
435.518	1517.63
435.894	1550.85
436.269	1522.15
436.644	1579.77
437.02	1558.31
437.395	1561.92
437.77	1602.6
438.145	1640.79
438.52	1634.91
438.895	1681.69
439.271	1642.6
439.646	1690.28
440.021	1686.66
440.395	1708.81
440.77	1712.65
441.145	1717.62
441.52	1741.58
441.895	1753.1
442.27	1792.65
442.645	1785.19
443.019	1785.42
443.394	1784.74
443.769	1825.64
444.143	1808.7
444.518	1851.41
444.892	1834.01
445.267	1864.74
445.641	1880.78
446.016	1870.61
446.39	1888.69
446.764	1895.47
447.139	1915.13
447.513	1960.33
447.887	1978.18
448.262	1953.1
448.636	1980.89
449.01	2013.89
449.384	2061.8
449.758	2023.38
450.132	2047.33
450.506	2049.82
450.88	2078.97
451.254	2075.81
451.628	2081.23
452.002	2162.13
452.376	2159.42
452.75	2184.28
453.123	2175.24
453.497	2216.59
453.871	2224.73
454.244	2253.2
454.618	2295.24
454.992	2329.81
455.365	2337.04
455.739	2396.25
456.112	2429.02
456.486	2414.56
456.859	2464.5
457.232	2540.65
457.606	2474.44
457.979	2539.75
458.352	2586.75
458.725	2639.86
459.099	2655.45
459.472	2667.66
459.845	2680.99
460.218	2708.33
460.591	2773.42
460.964	2793.3
461.337	2846.18
461.71	2840.98
462.083	2952.17
462.456	2934.54
462.829	2972.28
463.201	2972.05
463.574	3011.38
463.947	3047.53
464.32	3127.08
464.692	3138.38
465.065	3174.31
465.438	3216.79
465.81	3281.65
466.183	3308.32
466.555	3370.46
466.928	3414.75
467.3	3390.35
467.672	3471.25
468.045	3525.49
468.417	3595.54
468.789	3598.25
469.161	3618.37
469.534	3713.05
469.906	3791.47
470.278	3777.01
470.65	3860.62
471.022	3910.79
471.394	4028.52
471.766	4025.81
472.138	4030.56
472.51	4149.2
472.882	4239.14
473.253	4268.74
473.625	4283.21
473.997	4403.2
474.369	4424.67
474.74	4482.3
475.112	4580.15
475.484	4657.43
475.855	4707.38
476.227	4788.28
476.598	4942.85
476.97	4932
477.341	5064.65
477.713	5176.97
478.084	5179.91
478.455	5275.95
478.827	5358.43
479.198	5525.43
479.569	5524.3
479.94	5658.09
480.311	5662.38
480.682	5847.23
481.053	5974.69
481.424	6000.45
481.795	6103.72
482.166	6215.59
482.537	6258.52
482.908	6444.51
483.279	6511.85
483.65	6585.74
484.021	6777.83
484.391	6833.2
484.762	6891.5
485.133	6990.71
485.503	7079.07
485.874	7177.82
486.244	7316.35
486.615	7416.23
486.985	7560.86
487.356	7628.2
487.726	7782.32
488.097	7936.22
488.467	7904.13
488.837	8062.09
489.207	8182.31
489.578	8308.19
489.948	8405.13
490.318	8501.63
490.688	8562.64
491.058	8714.05
491.428	8783.88
491.798	8825.23
492.168	9050.54
492.538	9134.38
492.908	9240.82
493.278	9317.42
493.648	9274.94
494.017	9472.67
494.387	9601.03
494.757	9686.68
495.126	9729.84
495.496	9775.27
495.866	9929.39
496.235	10021.81
496.605	10156.95
496.974	10101.58
497.344	10257.74
497.713	10323.95
498.082	10439.65
498.452	10519.88
498.821	10625.41
499.19	10677.61
499.559	10752.64
499.928	10802.58
500.298	10811.85
500.667	11016.59
501.036	10998.51
501.405	11127.32
501.774	11162.8
502.143	11237.37
502.512	11376.35
502.88	11442.57
503.249	11446.18
503.618	11572.51
503.987	11626.97
504.356	11713.29
504.724	11802.56
505.093	11877.81
505.462	11937.47
505.83	12020.86
506.199	12208.2
506.567	12290.91
506.936	12271.92
507.304	12439.83
507.672	12439.6
508.041	12632.14
508.409	12624.91
508.777	12765.92
509.145	12806.37
509.514	12903.32
509.882	13049.08
510.25	13084.78
510.618	13130.21
510.986	13251.33
511.354	13390.99
511.722	13520.7
512.09	13615.62
512.458	13669.4
512.826	13790.53
513.193	13835.27
513.561	13913.46
513.929	14057.64
514.297	14110.97
514.664	14283.62
515.032	14404.97
515.4	14432.54
515.767	14561.58
516.135	14548.02
516.502	14524.75
516.869	14867.11
517.237	14930.16
517.604	14890.61
517.972	15110.04
518.339	15211.51
518.706	15264.84
519.073	15423.7
519.44	15466.19
519.808	15662.12
520.175	15696.01
520.542	15955.44
520.909	15997.93
521.276	16016.46
521.643	16185.04
522.009	16343.68
522.376	16497.35
522.743	16519.95
523.11	16722.2
523.477	16860.05
523.843	17004.91
524.21	17221.62
524.577	17347.5
524.943	17426.14
525.31	17535.74
525.676	17671.78
526.043	17768.5
526.409	17897.31
526.776	18086.46
527.142	18176.4
527.508	18230.41
527.874	18411.87
528.241	18595.15
528.607	18594.24
528.973	18748.14
529.339	18784.75
529.705	18970.5
530.071	19141.35
530.437	19210.95
530.803	19363.71
531.169	19571.39
531.535	19528.46
531.901	19658.85
532.267	19653.88
532.632	19892.74
532.998	19968.44
533.364	19972.51
533.73	20177.03
534.095	20354.65
534.461	20339.06
534.826	20557.58
535.192	20580.18
535.557	20734.53
535.923	20794.18
536.288	20868.53
536.653	20948.31
537.019	20886.39
537.384	21021.75
537.749	21187.62
538.114	21207.28
538.479	21171.58
538.845	21486.14
539.21	21372.02
539.575	21547.84
539.94	21597.33
540.305	21689.75
540.67	21709.87
541.034	21907.38
541.399	21930.43
541.764	22055.62
542.129	22110.08
542.494	22216.52
542.858	22221.04
543.223	22339.45
543.587	22541.03
543.952	22424.2
544.316	22496.74
544.681	22522.05
545.045	22710.97
545.41	22996.61
545.774	22909.61
546.138	22924.75
546.503	23057.4
546.867	23028.48
547.231	23361.12
547.595	23372.87
547.959	23436.38
548.324	23427.79
548.688	23548.24
549.052	23694
549.416	23793.65
549.779	23783.03
550.143	23937.83
550.507	24089.47
550.871	24107.54
551.235	24196.36
551.599	24378.72
551.962	24357.26
552.326	24416.69
552.689	24569
553.053	24493.75
553.417	24624.59
553.78	24985.94
554.143	24826.17
554.507	25065.03
554.87	25154.3
555.234	25341.18
555.597	25180.06
555.96	25394.97
556.323	25559.48
556.686	25624.79
557.05	25788.4
557.413	25964.44
557.776	25856.88
558.139	26116.76
558.502	26087.83
558.865	26271.1
559.228	26507.93
559.59	26548.61
559.953	26596.29
560.316	26987.69
560.679	26917.41
561.041	27037.64
561.404	27136.62
561.767	27283.28
562.129	27262.94
562.492	27621.8
562.854	27677.85
563.217	27612.31
563.579	27886.2
563.941	28020.44
564.304	28202.8
564.666	28331.16
565.028	28330.48
565.39	28496.13
565.753	28608.44
566.115	28695.22
566.477	28799.85
566.839	28956
567.201	29229.9
567.563	29299.05
567.925	29359.16
568.287	29490.68
568.648	29412.72
569.01	29579.26
569.372	29930.89
569.734	29933.61
570.095	29981.97
570.457	30175.86
570.819	30178.34
571.18	30272.81
571.542	30360.94
571.903	30541.27
572.265	30736.3
572.626	30719.57
572.987	30694.04
573.349	30888.38
573.71	30969.06
574.071	31043.41
574.432	31152.78
574.794	31433.45
575.155	31364.3
575.516	31420.12
575.877	31522.94
576.238	31575.82
576.599	31642.04
576.96	31533.34
577.32	31697.4
577.681	31819.66
578.042	31875.48
578.403	31928.36
578.763	31895.59
579.124	32052.42
579.485	32267.1
579.845	32277.72
580.206	32198.86
580.566	32254.45
580.927	32212.64
581.287	32345.75
581.648	32344.16
582.008	32391.62
582.368	32423.71
582.728	32445.63
583.089	32342.36
583.449	32491.28
583.809	32546.19
584.169	32662.35
584.529	32565.17
584.889	32745.06
585.249	32539.86
585.609	32591.39
585.969	32848.11
586.329	32735.57
586.688	32872.06
587.048	32666.64
587.408	32712.74
587.768	32666.64
588.127	32664.16
588.487	32686.3
588.846	32877.03
589.206	32578.73
589.565	32723.59
589.925	32880.65
590.284	32606.08
590.643	32756.13
591.003	32933.53
591.362	32935.56
591.721	32822.57
592.08	32732.85
592.44	32976.24
592.799	33046.07
593.158	32999.97
593.517	33023.02
593.876	33074.09
594.235	33088.1
594.593	32971.04
594.952	33161.54
595.311	32936.92
595.67	33138.04
596.029	33325.61
596.387	33236.12
596.746	33326.96
597.104	33147.76
597.463	33144.37
597.822	33361.09
598.18	33152.5
598.538	33201.99
598.897	33422.1
599.255	33144.59
599.613	33636.33
599.972	33335.78
600.33	33476.34
600.688	33331.48
601.046	33615.54
601.404	33650.57
601.762	33491.25
602.12	33814.86
602.478	33893.5
602.836	33711.13
603.194	33418.71
603.552	33634.3
603.91	33552.27
604.268	33778.25
604.625	33592.49
604.983	33758.59
605.341	33636.33
605.698	33894.63
606.056	33883.78
606.413	33934.86
606.771	33983.44
607.128	34174.4
607.485	34070.67
607.843	34081.52
608.2	34134.4
608.557	34363.77
608.914	34190.44
609.272	34201.06
609.629	34432.47
609.986	34410.55
610.343	34389.08
610.7	34640.83
611.057	34567.61
611.414	34509.3
611.771	34562.18
612.127	34674.72
612.484	34650.32
612.841	34765.12
613.198	34724.67
613.554	34708.62
613.911	34846.24
614.267	34745.68
614.624	34700.03
614.98	35033.36
615.337	35061.61
615.693	34923.08
616.05	34912.91
616.406	35290.75
616.762	35172.56
617.118	35048.95
617.475	35002.17
617.831	35145.45
618.187	35292.33
618.543	35268.83
618.899	35379.79
619.255	35377.3
619.611	35255.27
619.967	35390.41
620.323	35366.46
620.678	35360.58
621.034	35308.38
621.39	35221.83
621.746	35224.31
622.101	35641.93
622.457	35208.72
622.812	35284.2
623.168	35352.9
623.523	35520.35
623.879	35580.91
624.234	35118.78
624.589	35527.81
624.945	35478.09
625.3	35587.69
625.655	35347.47
626.01	35528.49
626.365	35581.14
626.72	35341.82
627.075	35411.2
627.43	35396.74
627.785	35290.75
628.14	35489.39
628.495	35555.38
628.85	35502.27
629.205	35196.97
629.559	35305.67
629.914	35361.03
630.269	35157.65
630.623	35216.63
630.978	35207.14
631.332	35293.01
631.687	35235.16
632.041	35003.53
632.396	35262.73
632.75	35052.12
633.104	35074.71
633.459	34864.78
633.813	34811.22
634.167	34783.65
634.521	34879.01
634.875	34865.45
635.229	34806.47
635.583	34599.02
635.937	34766.7
636.291	34671.79
636.645	34717.43
636.999	34612.13
637.352	34697.32
637.706	34443.32
638.06	34540.72
638.413	34348.18
638.767	34360.61
639.121	34429.31
639.474	34204
639.828	34355.64
640.181	34333.26
640.534	34242.87
640.888	34241.29
641.241	33935.31
641.594	34033.16
641.947	34061.63
642.301	34039.26
642.654	34048.98
643.007	33985.93
643.36	33877
643.713	33855.31
644.066	33973.5
644.419	33738.93
644.771	33469.56
645.124	33184.14
645.477	33120.41
645.83	32915.45
646.182	32819.86
646.535	32728.33
646.888	32727.2
647.24	32566.53
647.593	32912.74
647.945	32864.6
648.298	32639.75
648.65	32428.23
649.002	32399.98
649.355	32614.89
649.707	32520.66
650.059	32644.27
650.411	32942.11
650.763	32955.45
651.115	33205.16
651.467	33232.5
651.819	33132.62
652.171	33168.32
652.523	32976.69
652.875	32930.14
653.227	32838.84
653.578	33185.72
653.93	33006.29
654.282	32833.87
654.633	32801.78
654.985	32886.3
655.337	32877.48
655.688	32961.1
656.039	32905.5
656.391	32689.47
656.742	32790.25
657.094	32809.69
657.445	32823.47
657.796	32706.87
658.147	32717.49
658.498	32566.53
658.849	32645.17
659.2	32537.38
659.551	32467.1
659.902	32675.23
660.253	32545.29
660.604	32529.02
660.955	32414.67
661.306	32452.41
661.656	32444.27
662.007	32338.74
662.358	32380.55
662.708	32369.25
663.059	32436.14
663.409	32109.82
663.76	32479.53
664.11	32389.36
664.461	32271.85
664.811	32364.5
665.161	32252.64
665.511	32206.09
665.862	32202.25
666.212	32256.71
666.562	32329.93
666.912	32256.26
667.262	32265.97
667.612	32135.13
667.962	32050.61
668.312	32082.48
668.662	32244.96
669.011	32198.86
669.361	32174.9
669.711	31970.84
670.06	32007
670.41	31959.09
670.76	32114.34
671.109	32060.78
671.459	32018.3
671.808	31948.47
672.157	32049.26
672.507	31800.22
672.856	31831.41
673.205	31808.81
673.554	31955.93
673.904	31858.75
674.253	31957.73
674.602	31920.45
674.951	31331.99
675.3	31273.91
675.649	31685.2
675.998	31681.58
676.346	31745.76
676.695	31837.96
677.044	31614.92
677.393	31554.81
677.741	31614.01
678.09	31447.24
678.438	31554.35
678.787	31539.67
679.135	31565.88
679.484	31334.92
679.832	31394.81
680.181	31195.04
680.529	31235.94
680.877	31146.91
681.225	31144.42
681.573	31263.29
681.922	31066.68
682.27	30976.74
682.618	31076.17
682.966	30981.49
683.314	30952.79
683.661	30861.94
684.009	30820.59
684.357	30663.76
684.705	30634.6
685.053	30695.62
685.4	30606.58
685.748	30434.16
686.095	30487.94
686.443	30470.99
686.79	30254.05
687.138	30310.09
687.485	30398.23
687.832	30370.66
688.18	30238.91
688.527	30085.01
688.874	30097.9
689.221	29912.82
689.568	29755.53
689.915	29950.55
690.262	29756.21
690.609	29669.66
690.956	29666.27
691.303	29584.91
691.65	29447.52
691.997	29515.54
692.344	29257.69
692.69	29335.2
693.037	29302.21
693.383	29193.29
693.73	29351.02
694.077	29110.35
694.423	29265.6
694.769	29071.26
695.116	28950.35
695.462	28838.72
695.808	28728.67
696.155	28761.88
696.501	28502.68
696.847	28479.63
697.193	28331.16
697.539	28332.52
697.885	28156.48
698.231	28101.56
698.577	27997.61
698.923	28004.84
699.269	27891.17
699.614	27742.48
699.96	27721.46
700.306	27822.47
700.651	27630.16
700.997	27568.92
701.342	27562.37
701.688	27416.61
702.033	27399.21
702.379	27386.1
702.724	27226.11
703.069	27328.48
703.415	26952.22
703.76	26974.36
704.105	27000.35
704.45	26963.06
704.795	26846.91
705.14	26721.49
705.485	26794.48
705.83	26601.04
706.175	26573.47
706.52	26553.81
706.865	26459.35
707.209	26414.15
707.554	26253.02
707.899	26403.53
708.243	26250.99
708.588	26143.87
708.932	25973.94
709.277	26020.49
709.621	26050.32
709.966	25905.46
710.31	25900.27
710.654	25657.11
710.998	25770.78
711.342	25752.25
711.687	25637.9
712.031	25544.79
712.375	25424.12
712.719	25514.06
713.063	25356.32
713.407	25519.94
713.75	25343.44
714.094	25277.91
714.438	25127.86
714.782	25283.33
715.125	25177.57
715.469	25097.57
715.812	25051.25
716.156	24877.47
716.499	24937.58
716.843	24950.01
717.186	24753.4
717.53	24806.06
717.873	24841.54
718.216	24746.62
718.559	24549.11
718.902	24511.83
719.246	24463.47
719.589	24455.11
719.932	24352.96
720.275	24366.97
720.617	24373.75
720.96	24187.99
721.303	24313.41
721.646	24179.18
721.989	24072.06
722.331	24221.89
722.674	23992.29
723.016	24029.35
723.359	23967.66
723.701	23930.83
724.044	23873.43
724.386	23743.71
724.729	23763.37
725.071	23822.35
725.413	23667.78
725.755	23725.18
726.097	23621.91
726.439	23526.09
726.782	23536.03
727.124	23705.29
727.465	23492.19
727.807	23457.84
728.149	23506.88
728.491	23308.47
728.833	23436.6
729.175	23244.97
729.516	23329.94
729.858	23126.55
730.199	23224.18
730.541	23183.95
730.882	23120.68
731.224	23050.4
731.565	23018.76
731.906	23102.6
732.248	22981.92
732.589	22871.42
732.93	22841.14
733.271	22871.19
733.612	22845.43
733.953	22897.86
734.294	22704.87
734.635	22662.84
734.976	22788.71
735.317	22578.09
735.658	22637.75
735.999	22567.02
736.339	22560.47
736.68	22492.9
737.021	22474.82
737.361	22320.47
737.702	22461.49
738.042	22446.57
738.383	22367.02
738.723	22354.14
739.063	22235.28
739.404	22251.32
739.744	22254.26
740.084	22195.28
740.424	22108.27
740.764	22057.88
741.104	22149.4
741.444	22036.86
741.784	21949.41
742.124	22009.97
742.464	21955.96
742.804	21828.51
743.143	21838.45
743.483	21899.01
743.823	21663.77
744.162	21668.96
744.502	21743.76
744.841	21662.86
745.181	21745.35
745.52	21448.4
745.86	21674.16
746.199	21457.44
746.538	21505.8
746.877	21641.17
747.216	21489.31
747.556	21348.97
747.895	21434.85
748.234	21326.37
748.573	21306.94
748.911	21235.76
749.25	21167.06
749.589	21167.28
749.928	21107.4
750.267	21103.1
750.605	21147.85
750.944	21050.9
751.283	20856.78
751.621	20959.6
751.96	20892.04
752.298	20852.94
752.636	20843
752.975	20680.97
753.313	20633.29
753.651	20802.77
753.989	20519.84
754.327	20430.35
754.666	20404.36
755.004	20425.38
755.342	20589.67
755.679	20320.3
756.017	20186.29
756.355	20334.76
756.693	20304.48
757.031	20144.71
757.368	20136.12
757.706	20034.66
758.044	20043.02
758.381	20002.79
758.719	20040.31
759.056	19932.06
759.394	19939.74
759.731	19700.2
760.068	19637.61
760.405	19603.26
760.743	19488
761.08	19592.41
761.417	19525.74
761.754	19420.66
762.091	19455.24
762.428	19356.48
762.765	19146.54
763.102	19283.26
763.438	19156.26
763.775	19077.62
764.112	19041.46
764.449	19032.88
764.785	18930.05
765.122	18876.5
765.458	18823.16
765.795	18713.34
766.131	18699.1
766.467	18598.76
766.804	18514.7
767.14	18567.12
767.476	18430.63
767.812	18392.21
768.148	18318.09
768.485	18184.08
768.821	18159.9
769.157	18078.78
769.492	18133.24
769.828	18056.4
770.164	17887.82
770.5	17907.26
770.836	17808.5
771.171	17788.84
771.507	17722.18
771.842	17648.05
772.178	17599.92
772.513	17502.97
772.849	17428.85
773.184	17359.47
773.519	17388.4
773.855	17251.91
774.19	17215.3
774.525	17196.99
774.86	17065.02
775.195	17076.32
775.53	16991.8
775.865	16832.48
776.2	16663.22
776.535	16727.17
776.87	16624.13
777.205	16658.7
777.539	16488.54
777.874	16528.08
778.209	16470
778.543	16465.71
778.878	16313.17
779.212	16262.78
779.547	16198.6
779.881	16166.96
780.215	16034.08
780.55	16032.28
780.884	15986.4
781.218	15976.46
781.552	15948.66
781.886	15767.2
782.22	15755.9
782.554	15660.08
782.888	15549.13
783.222	15460.77
783.556	15406.3
783.889	15439.07
784.223	15337.61
784.557	15276.14
784.89	15361.56
785.224	15196.82
785.557	15132.64
785.891	15114.56
786.224	15017.39
786.558	14993.43
786.891	14840.44
787.224	14887.22
787.557	14786.66
787.891	14818.3
788.224	14704.63
788.557	14807.22
788.89	14686.77
789.223	14605.42
789.556	14623.5
789.888	14551.41
790.221	14491.3
790.554	14320.23
790.887	14242.72
791.219	14229.16
791.552	14268.48
791.884	14184.19
792.217	14065.55
792.549	13992.33
792.882	13946.68
793.214	13910.52
793.546	13915.72
793.879	13763.86
794.211	13761.38
794.543	13747.14
794.875	13740.13
795.207	13797.76
795.539	13682.06
795.871	13680.93
796.203	13486.81
796.535	13468.5
796.867	13464.43
797.198	13403.87
797.53	13406.13
797.862	13260.82
798.193	13318.68
798.525	13218.34
798.856	13185.12
799.188	13081.62
799.519	13077.33
799.85	12962.07
800.182	13013.37
800.513	13001.4
800.844	12890.44
801.175	12879.59
801.506	12938.12
801.837	12805.69
802.168	12759.82
802.499	12828.07
802.83	12710.78
803.161	12673.27
803.491	12642.99
803.822	12618.35
804.153	12548.07
804.483	12389.66
804.814	12370.45
805.145	12413.61
805.475	12343.56
805.805	12286.16
806.136	12274.86
806.466	12329.55
806.796	12328.87
807.126	12200.74
807.457	12173.85
807.787	12085.26
808.117	12047.07
808.447	12017.92
808.777	12070.35
809.107	12019.05
809.436	11928.88
809.766	11877.13
810.096	11857.47
810.426	11908.77
810.755	11804.36
811.085	11799.85
811.414	11749.9
811.744	11638.49
812.073	11658.83
812.403	11619.51
812.732	11587.2
813.061	11542.68
813.39	11519.4
813.719	11534.77
814.049	11562.11
814.378	11462.9
814.707	11431.49
815.036	11367.54
815.365	11339.52
815.693	11296.13
816.022	11299.29
816.351	11266.75
816.68	11150.14
817.008	11231.72
817.337	11079.41
817.665	11086.64
817.994	11174.1
818.322	11155.34
818.651	11096.59
818.979	11052.07
819.307	11013.65
819.636	11017.04
819.964	10922.58
820.292	11030.37
820.62	10956.93
820.948	10906.08
821.276	10935.91
821.604	10887.55
821.932	10937.49
822.259	10916.25
822.587	10886.65
822.915	10833.09
823.243	10792.64
823.57	10867.67
823.898	10882.58
824.225	10778.86
824.553	10817.72
824.88	10819.53
825.207	10866.99
825.535	10738.4
825.862	10764.62
826.189	10751.96
826.516	10797.84
826.843	10852.3
827.17	10859.3
827.497	10895.24
827.824	10817.05
828.151	10843.94
828.478	10761
828.805	10836.25
829.131	10777.05
829.458	10771.62
829.785	10674.68
830.111	10816.14
830.438	10806.42
830.764	10709.03
831.09	10742.7
831.417	10666.32
831.743	10702.92
832.069	10790.15
832.395	10659.76
832.722	10732.75
833.048	10676.71
833.374	10717.39
833.7	10640.55
834.026	10661.57
834.351	10671.74
834.677	10629.71
835.003	10643.04
835.329	10620.44
835.654	10652.08
835.98	10591.29
836.306	10620.44
836.631	10614.79
836.956	10567.79
837.282	10608.01
837.607	10531.4
837.932	10522.82
838.258	10462.03
838.583	10479.88
838.908	10325.99
839.233	10408.47
839.558	10388.81
839.883	10337.51
840.208	10384.52
840.533	10341.8
840.858	10341.58
841.182	10375.7
841.507	10286.44
841.832	10255.25
842.156	10269.72
842.481	10274.01
842.805	10180.45
843.13	10151.98
843.454	10146.78
843.778	10109.95
844.103	10054.13
844.427	10105.43
844.751	10082.83
845.075	10066.56
845.399	10002.6
845.723	9943.85
846.047	9993.34
846.371	9886.22
846.695	9869.95
847.019	9785.43
847.343	9811.42
847.666	9726.91
847.99	9668.15
848.313	9621.82
848.637	9578.43
848.96	9542.96
849.284	9585.21
849.607	9522.84
849.931	9458.66
850.254	9375.5
850.577	9322.62
850.9	9278.56
851.223	9187.94
851.546	9233.13
851.869	9237.88
852.192	9222.29
852.515	9133.25
852.838	9122.85
853.161	9086.92
853.483	9022.97
853.806	9003.53
854.129	9011.9
854.451	8920.37
854.774	8923.99
855.096	8816.42
855.419	8831.34
855.741	8896.42
856.063	8787.72
856.385	8769.19
856.708	8719.02
857.03	8734.61
857.352	8721.73
857.674	8596.54
857.996	8619.82
858.318	8595.18
858.64	8609.19
858.961	8540.5
859.283	8514.73
859.605	8484.9
859.926	8530.33
860.248	8420.5
860.57	8443.32
860.891	8428.86
861.212	8405.81
861.534	8361.07
861.855	8378.69
862.176	8410.56
862.498	8383.21
862.819	8405.81
863.14	8332.37
863.461	8293.5
863.782	8227.51
864.103	8250.56
864.424	8249.43
864.745	8211.01
865.065	8190.67
865.386	8165.82
865.707	8136.89
866.027	8147.51
866.348	8142.31
866.668	8173.05
866.989	8143.9
867.309	8051.24
867.63	8113.84
867.95	8063.45
868.27	7944.13
868.59	8023.45
868.91	8013.5
869.23	7986.61
869.55	7955.65
869.87	7957.46
870.19	7915.43
870.51	7978.02
870.83	7925.6
871.15	7971.92
871.469	7955.88
871.789	7903.9
872.109	7878.14
872.428	7858.03
872.748	7842.21
873.067	7820.29
873.386	7870.68
873.706	7811.02
874.025	7781.19
874.344	7737.13
874.663	7731.93
874.982	7760.86
875.301	7752.27
875.62	7799.72
875.939	7687.41
876.258	7698.48
876.577	7654.64
876.896	7682.67
877.214	7594.31
877.533	7658.49
877.852	7649.45
878.17	7601.76
878.489	7586.85
878.807	7584.14
879.125	7588.43
879.444	7609.22
879.762	7579.39
880.08	7506.85
880.398	7529.45
880.716	7582.78
881.034	7412.16
881.352	7517.02
881.67	7438.6
881.988	7456.68
882.306	7400.41
882.624	7437.25
882.941	7395.89
883.259	7374.88
883.577	7372.16
883.894	7271.6
884.212	7331.26
884.529	7264.37
884.846	7247.2
885.164	7196.58
885.481	7172.62
885.798	7202.9
886.115	7214.2
886.432	7206.97
886.75	7152.74
887.067	7141.89
887.383	7180.76
887.7	7139.18
888.017	7113.41
888.334	7133.3
888.651	7073.42
888.967	7067.77
889.284	7004.72
889.6	6951.39
889.917	6925.85
890.233	6984.6
890.55	6943.7
890.866	6927.88
891.182	6891.05
891.498	6869.81
891.815	6857.38
892.131	6872.74
892.447	6772.41
892.763	6790.03
893.079	6756.59
893.395	6789.13
893.71	6768.34
894.026	6741.67
894.342	6723.14
894.657	6655.8
894.973	6631.85
895.289	6634.56
895.604	6646.53
895.92	6607.89
896.235	6527.22
896.55	6534.67
896.865	6514.33
897.181	6494.67
897.496	6517.95
897.811	6512.75
898.126	6455.13
898.441	6413.32
898.756	6442.02
899.071	6333.77
899.386	6392.53
899.7	6339.88
900.015	6313.21
900.33	6230.5
900.644	6263.95
900.959	6234.12
901.273	6247.67
901.588	6168.13
901.902	6141.91
902.216	6123.84
902.531	6147.56
902.845	6121.58
903.159	6067.57
903.473	6061.69
903.787	6057.85
904.101	5988.7
904.415	6004.07
904.729	6001.58
905.042	5966.33
905.356	5944.63
905.67	5904.86
905.984	5898.08
906.297	5858.53
906.611	5827.8
906.924	5894.92
907.237	5837.52
907.551	5776.27
907.864	5717.52
908.177	5777.18
908.491	5713.9
908.804	5689.05
909.117	5671.42
909.43	5631.87
909.743	5625.77
910.056	5609.27
910.368	5603.17
910.681	5553.91
910.994	5539.67
911.307	5536.06
911.619	5484.53
911.932	5425.78
912.244	5442.5
912.557	5428.71
912.869	5402.5
913.181	5410.41
913.494	5386.91
913.806	5386.23
914.118	5314.59
914.43	5294.48
914.742	5292.45
915.054	5235.5
915.366	5201.37
915.678	5195.5
915.99	5122.73
916.302	5155.5
916.613	5106.46
916.925	5096.74
917.236	5109.4
917.548	5061.72
917.859	5091.09
918.171	5028.05
918.482	4999.57
918.794	4975.39
919.105	4959.12
919.416	4940.36
919.727	4943.98
920.038	4930.65
920.349	4851.78
920.66	4836.64
920.971	4836.19
921.282	4836.86
921.593	4809.75
921.903	4785.11
922.214	4804.55
922.525	4731.56
922.835	4709.41
923.146	4647.94
923.456	4671.22
923.767	4714.83
924.077	4620.6
924.387	4649.52
924.697	4621.73
925.008	4587.61
925.318	4531.79
925.628	4609.3
925.938	4556.19
926.248	4456.08
926.558	4454.95
926.867	4472.81
927.177	4471.45
927.487	4412.92
927.796	4434.84
928.106	4398.68
928.416	4357.33
928.725	4388.29
929.034	4337.89
929.344	4324.11
929.653	4325.24
929.962	4263.32
930.271	4284.11
930.581	4215.19
930.89	4271.91
931.199	4218.8
931.508	4203.89
931.817	4203.89
932.125	4191.91
932.434	4147.62
932.743	4099.26
933.051	4114.17
933.36	4062.2
933.669	4075.3
933.977	4062.42
934.286	4069.65
934.594	4010.45
934.902	3957.11
935.21	3970.22
935.519	3998.69
935.827	4034.17
936.135	3958.24
936.443	3910.34
936.751	3894.29
937.059	3901.3
937.367	3836.66
937.674	3868.53
937.982	3850.68
938.29	3811.13
938.597	3807.29
938.905	3759.83
939.213	3743.11
939.52	3744.46
939.827	3760.51
940.135	3746.5
940.442	3674.64
940.749	3676.22
941.056	3707.4
941.363	3633.73
941.67	3619.04
941.977	3644.35
942.284	3629.89
942.591	3618.37
942.898	3589.44
943.205	3541.08
943.511	3559.61
943.818	3539.05
944.125	3566.62
944.431	3492.94
944.738	3497.92
945.044	3470.57
945.35	3491.36
945.657	3436.9
945.963	3436.22
946.269	3414.3
946.575	3439.84
946.881	3363
947.187	3409.56
947.493	3382.89
947.799	3334.08
948.105	3336.79
948.41	3316
948.716	3292.05
949.022	3306.96
949.327	3290.69
949.633	3235.55
949.938	3269
950.244	3216.79
950.549	3258.6
950.854	3203.01
951.16	3220.18
951.465	3149.45
951.77	3196.23
952.075	3128.89
952.38	3122.79
952.685	3097.48
952.99	3097.7
953.294	3113.97
953.599	3064.48
953.904	3087.31
954.209	3075.33
954.513	3062.67
954.818	3048.66
955.122	3026.06
955.426	3001.66
955.731	2993.52
956.035	2982.68
956.339	2998.04
956.643	2923.47
956.948	2936.8
957.252	2934.32
957.556	2936.58
957.86	2894.77
958.163	2902
958.467	2840.31
958.771	2880.08
959.075	2832.17
959.378	2837.37
959.682	2826.3
959.985	2803.92
960.289	2794.66
960.592	2800.08
960.896	2786.3
961.199	2754.89
961.502	2737.94
961.805	2744.94
962.108	2744.94
962.411	2735
962.714	2722.8
963.017	2694.77
963.32	2669.01
963.623	2665.62
963.926	2710.59
964.228	2707.43
964.531	2636.47
964.833	2660.65
965.136	2650.48
965.438	2632.63
965.741	2618.62
966.043	2592.86
966.345	2604.83
966.648	2550.37
966.95	2584.27
967.252	2532.07
967.554	2526.19
967.856	2524.38
968.158	2500.65
968.46	2502.01
968.761	2508.56
969.063	2489.81
969.365	2466.08
969.666	2478.28
969.968	2428.57
970.269	2481.67
970.571	2421.33
970.872	2406.87
971.174	2376.82
971.475	2371.84
971.776	2388.34
972.077	2380.43
972.378	2381.11
972.679	2379.08
972.98	2360.55
973.281	2335.01
973.582	2343.6
973.883	2334.56
974.183	2324.39
974.484	2306.31
974.785	2276.03
975.085	2295.46
975.386	2289.81
975.686	2288.91
975.986	2273.77
976.287	2277.61
976.587	2240.32
976.887	2245.75
977.187	2208.91
977.487	2213.88
977.787	2194.45
978.087	2207.33
978.387	2166.43
978.687	2163.71
978.987	2141.79
979.286	2158.97
979.586	2139.31
979.885	2122.59
980.185	2123.26
980.484	2133.66
980.784	2088.01
981.083	2080.33
981.382	2090.72
981.682	2092.3
981.981	2066.32
982.28	2053.66
982.579	2046.66
982.878	2079.2
983.177	2050.95
983.475	2038.52
983.774	1973.89
984.073	1972.76
984.372	2013.44
984.67	1995.81
984.969	2001.46
985.267	1990.61
985.566	1963.49
985.864	1961.91
986.162	1963.95
986.461	1943.38
986.759	1944.51
987.057	1907.68
987.355	1908.58
987.653	1907.9
987.951	1891.63
988.249	1880.56
988.547	1870.39
988.844	1859.09
989.142	1868.58
989.44	1848.47
989.737	1842.82
990.035	1834.68
990.332	1853.21
990.63	1855.02
990.927	1827.23
991.224	1804.63
991.521	1826.32
991.819	1773.89
992.116	1799.66
992.413	1797.85
992.71	1767.79
993.006	1739.09
993.303	1750.84
993.6	1772.09
993.897	1713.56
994.193	1698.64
994.49	1750.84
994.787	1723.95
995.083	1699.09
995.379	1697.74
995.676	1684.4
995.972	1659.09
996.268	1669.72
996.565	1662.03
996.861	1677.63
997.157	1652.09
997.453	1636.5
997.749	1642.37
998.044	1632.88
998.34	1636.72
998.636	1622.71
998.932	1585.2
999.227	1580.45
999.523	1597.85
999.818	1571.19
1000.114	1554.24
1000.409	1547.46
1000.704	1534.8
1001	1525.09
1001.295	1554.01
1001.59	1537.74
1001.885	1524.41
1002.18	1545.65
1002.475	1515.37
1002.77	1519.21
1003.065	1500.45
1003.359	1511.98
1003.654	1511.08
1003.949	1480.57
1004.243	1482.6
1004.538	1455.26
1004.832	1453.9
1005.127	1401.93
1005.421	1462.94
1005.715	1401.93
1006.009	1401.25
1006.304	1430.17
1006.598	1409.84
1006.892	1401.93
1007.186	1378.42
1007.48	1400.57
1007.773	1367.58
1008.067	1339.56
1008.361	1364.87
1008.655	1362.15
1008.948	1358.09
1009.242	1359.89
1009.535	1361.48
1009.829	1331.42
1010.122	1328.48
1010.415	1330.74
1010.708	1303.17
1011.001	1303.4
1011.295	1307.24
1011.588	1266.34
1011.881	1270.63
1012.173	1277.41
1012.466	1251.87
1012.759	1228.37
1013.052	1270.86
1013.344	1238.77
1013.637	1246
1013.93	1219.33
1014.222	1245.77
1014.514	1222.72
1014.807	1233.57
1015.099	1184.31
1015.391	1230.41
1015.683	1168.94
1015.976	1200.8
1016.268	1187.92
1016.56	1174.59
1016.851	1133.23
1017.143	1129.84
1017.435	1178.2
1017.727	1164.87
1018.018	1144.76
1018.31	1135.27
1018.602	1139.11
1018.893	1129.62
1019.185	1097.3
1019.476	1113.12
1019.767	1098.43
1020.058	1097.08
1020.35	1078.55
1020.641	1120.8
1020.932	1090.97
1021.223	1045.33
1021.514	1047.36
1021.804	1058.21
1022.095	1053.69
1022.386	1042.16
1022.677	1046
1022.967	1029.51
1023.258	996.97
1023.548	1010.07
1023.839	1025.67
1024.129	1008.49
1024.419	997.19
1024.709	1005.33
1025	975.95
1025.29	954.93
1025.58	974.14
1025.87	964.88
1026.16	969.17
1026.449	954.03
1026.739	936.4
1027.029	939.57
1027.319	945.44
1027.608	937.76
1027.898	936.85
1028.187	931.43
1028.477	933.69
1028.766	958.1
1029.055	929.85
1029.344	909.74
1029.634	910.87
1029.923	894.82
1030.212	908.83
1030.501	907.48
1030.79	892.11
1031.078	872.45
1031.367	884.65
1031.656	866.8
1031.945	860.25
1032.233	852.34
1032.522	832.9
1032.81	864.09
1033.099	840.36
1033.387	827.93
1033.675	839.91
1033.963	848.04
1034.251	806.91
1034.54	805.11
1034.828	817.31
1035.116	804.65
1035.403	804.43
1035.691	813.24
1035.979	792.68
1036.267	804.43
1036.554	780.7
1036.842	778.21
1037.129	771.21
1037.417	781.83
1037.704	779.57
1037.992	754.03
1038.279	773.92
1038.566	769.17
1038.853	769.17
1039.14	769.17
