Data from plate_ceramic_FLMS001491_008.txt Node
Date: Tue Feb 07 11:16:14 GMT 2017
User: dcchb
Spectrometer: FLMS00149
Trigger mode: 0
Integration Time (sec): 2.000000E-2
Scans to average: 10
Electric dark correction enabled: true
Nonlinearity correction enabled: false
Boxcar width: 0
XAxis mode: Wavelengths
Number of Pixels in Spectrum: 2048
>>>>>Begin Spectral Data<<<<<
341.393	-5
341.776	-5
342.16	-5
342.543	-61.5
342.927	-69.18
343.31	-61.27
343.693	-74.83
344.077	-35.73
344.46	-75.05
344.843	-57.88
345.226	-33.93
345.61	-42.74
345.993	-6.81
346.376	-4.77
346.759	10.82
347.142	31.84
347.525	26.41
347.908	59.18
348.291	74.32
348.674	92.4
349.057	98.05
349.44	126.3
349.823	137.14
350.206	174.2
350.588	212.62
350.971	218.72
351.354	255.56
351.737	246.74
352.119	272.28
352.502	285.61
352.884	301.66
353.267	319.29
353.65	338.04
354.032	319.29
354.414	347.08
354.797	332.84
355.179	337.36
355.562	352.28
355.944	358.83
356.326	352.5
356.709	357.48
357.091	371.04
357.473	366.52
357.855	363.8
358.238	342.56
358.62	371.71
359.002	371.04
359.384	373.07
359.766	380.07
360.148	368.55
360.53	370.81
360.912	342.34
361.294	366.29
361.676	368.32
362.057	372.39
362.439	355.22
362.821	368.55
363.203	375.78
363.584	376.91
363.966	358.61
364.348	375.33
364.729	350.02
365.111	364.03
365.493	333.97
365.874	360.19
366.256	369.23
366.637	380.07
367.019	361.77
367.4	361.09
367.781	354.99
368.163	355.89
368.544	354.09
368.925	363.35
369.306	349.12
369.688	352.05
370.069	369
370.45	362.67
370.831	375.78
371.212	382.11
371.593	373.07
371.974	368.78
372.355	374.2
372.736	382.33
373.117	397.93
373.498	370.58
373.879	379.85
374.26	388.89
374.641	370.81
375.021	380.07
375.402	374.88
375.783	384.14
376.163	416.46
376.544	406.29
376.925	406.97
377.305	400.19
377.686	407.19
378.066	439.06
378.447	414.65
378.827	427.98
379.208	425.05
379.588	412.16
379.968	426.63
380.349	415.55
380.729	433.18
381.109	426.4
381.489	453.07
381.87	430.69
382.25	453.52
382.63	438.83
383.01	439.96
383.39	448.55
383.77	449.68
384.15	458.49
384.53	447.19
384.91	468.89
385.29	455.78
385.67	478.6
386.049	475.44
386.429	474.54
386.809	472.73
387.189	478.6
387.568	484.48
387.948	487.42
388.328	513.86
388.707	499.39
389.087	505.95
389.466	513.18
389.846	526.06
390.225	506.85
390.605	518.83
390.984	513.63
391.363	544.36
391.743	547.75
392.122	542.33
392.501	534.65
392.881	558.15
393.26	574.65
393.639	560.41
394.018	560.18
394.397	552.05
394.776	576.91
395.155	588.43
395.534	596.11
395.913	577.58
396.292	591.37
396.671	596.11
397.05	596.57
397.429	584.36
397.808	605.83
398.186	640.86
398.565	647.19
398.944	662.78
399.323	655.1
399.701	641.76
400.08	661.2
400.458	673.17
400.837	660.97
401.215	700.52
401.594	670.46
401.972	691.03
402.351	690.35
402.729	677.02
403.107	689.45
403.486	720.18
403.864	736.9
404.242	727.86
404.62	717.02
404.999	725.38
405.377	753.85
405.755	772.15
406.133	788.43
406.511	784.13
406.889	795.43
407.267	786.84
407.645	819.16
408.023	799.5
408.401	815.54
408.779	859.61
409.156	855.77
409.534	845.15
409.912	860.97
410.29	878.82
410.667	891.02
411.045	899.16
411.422	915.88
411.8	903
412.178	920.4
412.555	926.95
412.933	939.61
413.31	977.35
413.687	973.28
414.065	977.57
414.442	1002.21
414.819	1001.53
415.197	1003.11
415.574	1063.67
415.951	1041.53
416.328	1059.83
416.705	1071.81
417.082	1058.7
417.46	1079.04
417.837	1130.56
418.214	1105.03
418.591	1118.59
418.967	1100.28
419.344	1156.33
419.721	1132.15
420.098	1151.81
420.475	1179.6
420.852	1205.14
421.228	1225.25
421.605	1217.11
421.982	1211.01
422.358	1236.1
422.735	1255.98
423.111	1290.56
423.488	1290.56
423.864	1306.6
424.241	1310.45
424.617	1328.52
424.994	1348.18
425.37	1341.86
425.746	1328.98
426.123	1374.4
426.499	1409.43
426.875	1397.22
427.251	1459.82
427.627	1459.14
428.003	1465.24
428.379	1512.25
428.756	1502.98
429.132	1532.81
429.507	1530.1
429.883	1581.85
430.259	1589.99
430.635	1601.74
431.011	1612.58
431.387	1684
431.763	1689.19
432.138	1689.87
432.514	1730.55
432.89	1737.33
433.265	1773.03
433.641	1808.06
434.016	1811.45
434.392	1831.34
434.767	1876.31
435.143	1881.96
435.518	1894.61
435.894	1907.27
436.269	1928.73
436.644	1978.22
437.02	1969.19
437.395	1980.71
437.77	2048.05
438.145	2054.38
438.52	2052.12
438.895	2104.55
439.271	2116.98
439.646	2151.78
440.021	2133.47
440.395	2194.72
440.77	2187.03
441.145	2221.61
441.52	2258.9
441.895	2227.03
442.27	2284.21
442.645	2253.02
443.019	2285.56
443.394	2272.91
443.769	2359.68
444.143	2304.32
444.518	2345.9
444.892	2351.1
445.267	2359.68
445.641	2408.5
446.016	2442.17
446.39	2462.51
446.764	2478.1
447.139	2455.5
447.513	2467.48
447.887	2536.18
448.262	2536.85
448.636	2554.93
449.01	2599.68
449.384	2575.72
449.758	2607.36
450.132	2655.95
450.506	2641.48
450.88	2659.34
451.254	2692.56
451.628	2756.51
452.002	2775.04
452.376	2756.28
452.75	2826.34
453.123	2847.81
453.497	2885.09
453.871	2918.99
454.244	2951.53
454.618	2970.06
454.992	3042.15
455.365	3079.44
455.739	3134.8
456.112	3141.36
456.486	3190.4
456.859	3213.67
457.232	3270.62
457.606	3252.77
457.979	3330.05
458.352	3345.65
458.725	3468.13
459.099	3450.73
459.472	3535.25
459.845	3554
460.218	3553.78
460.591	3633.77
460.964	3669.25
461.337	3754
461.71	3779.76
462.083	3856.59
462.456	3819.31
462.829	3866.08
463.201	3922.81
463.574	3975.91
463.947	4029.47
464.32	4074.67
464.692	4145.17
465.065	4164.16
465.438	4188.34
465.81	4274.21
466.183	4336.81
466.555	4496.12
466.928	4506.29
467.3	4483.02
467.672	4563.24
468.045	4665.16
468.417	4733.41
468.789	4719.85
469.161	4794.42
469.534	4859.05
469.906	4979.28
470.278	4988.09
470.65	5045.04
471.022	5166.39
471.394	5251.59
471.766	5255.65
472.138	5382.2
472.51	5466.04
472.882	5543.1
473.253	5609.77
473.625	5716.21
473.997	5840.95
474.369	5940.61
474.74	5980.83
475.112	6044.78
475.484	6175.85
475.855	6268.96
476.227	6318.22
476.598	6532.23
476.97	6573.58
477.341	6791.21
477.713	6861.71
478.084	6870.3
478.455	7085.66
478.827	7138.09
479.198	7347.12
479.569	7370.17
479.94	7595.7
480.311	7630.73
480.682	7839.99
481.053	8019.2
481.424	8105.75
481.795	8212.86
482.166	8326.98
482.537	8464.38
482.908	8626.86
483.279	8668.22
483.65	8866.41
484.021	9028.21
484.391	9175.32
484.762	9259.62
485.133	9307.3
485.503	9527.63
485.874	9672.94
486.244	9762.2
486.615	9976.43
486.985	10121.97
487.356	10303.43
487.726	10373.26
488.097	10545.46
488.467	10616.87
488.837	10926.92
489.207	10901.83
489.578	11128.72
489.948	11271.09
490.318	11369.62
490.688	11483.74
491.058	11658.42
491.428	11789.49
491.798	11892.77
492.168	12172.31
492.538	12215.24
492.908	12400.1
493.278	12575.23
493.648	12549.47
494.017	12833.31
494.387	12951.27
494.757	13063.13
495.126	13176.8
495.496	13188.1
495.866	13344.25
496.235	13510.58
496.605	13582.21
496.974	13709.89
497.344	13810.91
497.713	13968.19
498.082	14014.29
498.452	14113.5
498.821	14251.57
499.19	14287.05
499.559	14458.8
499.928	14621.06
500.298	14668.51
500.667	14907.15
501.036	14772.24
501.405	15094.94
501.774	15009.97
502.143	15220.59
502.512	15299.46
502.88	15368.83
503.249	15489.28
503.618	15684.53
503.987	15677.75
504.356	15854.24
504.724	15922.72
505.093	16015.82
505.462	16047.69
505.83	16174.46
506.199	16328.81
506.567	16620.78
506.936	16518.41
507.304	16743.71
507.672	16879.08
508.041	16968.34
508.409	17090.6
508.777	17159.29
509.145	17392.28
509.514	17404.03
509.882	17522.9
510.25	17623.01
510.618	17715.44
510.986	17827.3
511.354	18053.51
511.722	18207.4
512.09	18362.65
512.458	18321.98
512.826	18507.96
513.193	18660.72
513.561	18774.62
513.929	18969.42
514.297	19166.7
514.664	19263.65
515.032	19387.03
515.4	19448.05
515.767	19625.44
516.135	19710.87
516.502	19587.93
516.869	20116.05
517.237	20180.68
517.604	20167.35
517.972	20481.47
518.339	20580
518.706	20577.96
519.073	20689.82
519.44	20819.09
519.808	21056.37
520.175	21185.63
520.542	21380.65
520.909	21515.34
521.276	21648.44
521.643	21913.75
522.009	22033.29
522.376	22118.03
522.743	22280.97
523.11	22465.82
523.477	22809.09
523.843	22955.07
524.21	23105.58
524.577	23305.8
524.943	23444.1
525.31	23591.44
525.676	23746.24
526.043	23935.39
526.409	24107.59
526.776	24370.63
527.142	24421.93
527.508	24636.61
527.874	24739.43
528.241	24944.85
528.607	24939.2
528.973	25259.19
529.339	25266.2
529.705	25606.76
530.071	25819.86
530.437	26059.85
530.803	26232.28
531.169	26427.75
531.535	26289.45
531.901	26408.54
532.267	26540.06
532.632	26694.41
532.998	26806.5
533.364	27068.64
533.73	27191.35
534.095	27469.53
534.461	27350.67
534.826	27494.62
535.192	27710.66
535.557	27912.68
535.923	27875.4
536.288	28047.14
536.653	28145.9
537.019	28083.3
537.384	28257.31
537.749	28531.2
538.114	28649.39
538.479	28656.39
538.845	28837.63
539.21	28821.36
539.575	29055.48
539.94	29149.04
540.305	29305.19
540.67	29256.6
541.034	29472.87
541.399	29434.45
541.764	29531.17
542.129	29763.26
542.494	29821.11
542.858	29877.6
543.223	29998.96
543.587	30202.34
543.952	30253.87
544.316	30297.25
544.681	30341.77
545.045	30447.53
545.41	30722.33
545.774	30690.01
546.138	30797.58
546.503	31012.04
546.867	30951.93
547.231	31237.79
547.595	31253.84
547.959	31434.17
548.324	31435.3
548.688	31579.71
549.052	31664
549.416	31785.35
549.779	31810.89
550.143	31830.32
550.507	32189.18
550.871	32301.72
551.235	32371.78
551.599	32508.27
551.962	32654.25
552.326	32718.21
552.689	32811.99
553.053	32963.85
553.417	32916.39
553.78	33448.81
554.143	33267.12
554.507	33518.19
554.87	33521.12
555.234	33877.5
555.597	33813.32
555.96	34093.99
556.323	34286.08
556.686	34097.61
557.05	34390.25
557.413	34520.42
557.776	34674.99
558.139	34829.79
558.502	34918.6
558.865	35076.11
559.228	35293.06
559.59	35448.53
559.953	35523.11
560.316	35881.74
560.679	35800.16
561.041	36105.24
561.404	36263.2
561.767	36433.82
562.129	36387.72
562.492	36869.74
562.854	36832
563.217	36814.6
563.579	37137.07
563.941	37436.95
564.304	37548.81
564.666	37759.43
565.028	37711.3
565.39	37935.47
565.753	38021.34
566.115	38250.04
566.477	38438.74
566.839	38537.49
567.201	38753.3
567.563	38851.61
567.925	38955.78
568.287	38914.43
568.648	39100.41
569.01	39309.67
569.372	39676.67
569.734	39590.8
570.095	39738.14
570.457	39904.46
570.819	40052.25
571.18	40187.62
571.542	40309.19
571.903	40456.99
572.265	40673.93
572.626	40715.74
572.987	40787.15
573.349	40917.09
573.71	41044.99
574.071	41109.4
574.432	41143.07
574.794	41426.68
575.155	41421.93
575.516	41363.18
575.877	41595.04
576.238	41788.93
576.599	41895.59
576.96	41853.33
577.32	41906.89
577.681	42125.42
578.042	42184.17
578.403	42250.61
578.763	42250.61
579.124	42334.9
579.485	42543.26
579.845	42707.78
580.206	42544.39
580.566	42606.08
580.927	42612.86
581.287	42846.75
581.648	42713.65
582.008	42883.36
582.368	42783.03
582.728	42818.51
583.089	42696.02
583.449	42718.4
583.809	42794.55
584.169	43010.37
584.529	42741.9
584.889	43103.25
585.249	42951.16
585.609	42866.42
585.969	43082.68
586.329	42856.02
586.688	43058.27
587.048	42945.96
587.408	42993.87
587.768	42976.69
588.127	42997.49
588.487	42988.22
588.846	43288.33
589.206	43037.48
589.565	42977.37
589.925	43245.16
590.284	43161.32
590.643	43369.23
591.003	43224.37
591.362	43239.51
591.721	43304.14
592.08	43288.55
592.44	43512.05
592.799	43528.77
593.158	43385.05
593.517	43472.05
593.876	43382.56
594.235	43429.11
594.593	43451.71
594.952	43511.82
595.311	43360.19
595.67	43417.36
596.029	43805.37
596.387	43777.13
596.746	43626.17
597.104	43623.46
597.463	43681.08
597.822	43880.63
598.18	43668.88
598.538	43553.18
598.897	43818.93
599.255	43655.77
599.613	44296.21
599.972	43893.05
600.33	43988.87
600.688	43842.43
601.046	43955.2
601.404	44165.36
601.762	44065.93
602.12	44299.15
602.478	44390.67
602.836	44265.47
603.194	43989.1
603.552	44198.58
603.91	44006.27
604.268	44407.17
604.625	44165.59
604.983	44497.56
605.341	44303.67
605.698	44624.79
606.056	44619.14
606.413	44538.91
606.771	44709.98
607.128	44673.6
607.485	44499.59
607.843	44573.26
608.2	44642.87
608.557	44861.62
608.914	44748.4
609.272	44863.2
609.629	45065.23
609.986	45150.42
610.343	44857.32
610.7	45147.94
611.057	45061.84
611.414	45065.45
611.771	45293.92
612.127	45400.81
612.484	45249.86
612.841	45432
613.198	45327.59
613.554	45333.47
613.911	45483.07
614.267	45458.89
614.624	45526.68
614.98	45762.61
615.337	45970.74
615.693	45862.95
616.05	45795.83
616.406	45932.78
616.762	45754.93
617.118	45787.47
617.475	45838.54
617.831	46007.12
618.187	45981.59
618.543	45993.34
618.899	46218.42
619.255	46069.95
619.611	46036.73
619.967	46248.7
620.323	46350.39
620.678	46146.33
621.034	46107.69
621.39	46119.44
621.746	46070.17
622.101	46497.96
622.457	46236.27
622.812	46265.65
623.168	46282.37
623.523	46271.75
623.879	46462.25
624.234	46245.08
624.589	46376.15
624.945	46361.01
625.3	46300.9
625.655	46306.1
626.01	46207.8
626.365	46441.01
626.72	46230.85
627.075	46380.9
627.43	46113.11
627.785	46136.61
628.14	46177.51
628.495	46309.04
628.85	46253.22
629.205	46025.43
629.559	46210.06
629.914	46060.91
630.269	46130.51
630.623	45953.79
630.978	45855.04
631.332	46002.6
631.687	46041.7
632.041	45871.53
632.396	45936.39
632.75	45822.04
633.104	45921.7
633.459	45659.34
633.813	45650.3
634.167	45695.95
634.521	45671.31
634.875	45594.71
635.229	45519.45
635.583	45229.29
635.937	45319.46
636.291	45217.09
636.645	45416.18
636.999	45325.56
637.352	45383.64
637.706	45250.08
638.06	45344.09
638.413	45077.2
638.767	45044.44
639.121	45013.93
639.474	44634.05
639.828	44932.8
640.181	45004.66
640.534	44884.67
640.888	44735.52
641.241	44549.76
641.594	44722.41
641.947	44682.86
642.301	44601.06
642.654	44727.84
643.007	44538.24
643.36	44593.6
643.713	44465.7
644.066	44583.66
644.419	44257.57
644.771	44072.71
645.124	43688.54
645.477	43665.04
645.83	43372.84
646.182	43206.07
646.535	43080.87
646.888	43100.53
647.24	42805.4
647.593	43301.43
647.945	42954.55
648.298	42837.94
648.65	42717.72
649.002	42637.27
649.355	42792.07
649.707	42783.25
650.059	42912.06
650.411	43396.34
650.763	43300.98
651.115	43701.2
651.467	43489.45
651.819	43548.43
652.171	43571.03
652.523	43434.08
652.875	43380.3
653.227	43173.53
653.578	43509.11
653.93	43346.4
654.282	43180.08
654.633	43069.8
654.985	43133.07
655.337	43304.6
655.688	43305.05
656.039	43267.53
656.391	42846.53
656.742	42972.4
657.094	42924.72
657.445	42993.64
657.796	42955.68
658.147	43011.72
658.498	42915.68
658.849	42921.33
659.2	42753.2
659.551	42877.71
659.902	42983.7
660.253	42794.55
660.604	42717.94
660.955	42505.75
661.306	42684.95
661.656	42630.72
662.007	42662.13
662.358	42510.49
662.708	42510.49
663.059	42510.27
663.409	42210.61
663.76	42538.74
664.11	42451.06
664.461	42428.69
664.811	42422.59
665.161	42451.51
665.511	42507.78
665.862	42470.04
666.212	42544.16
666.562	42448.57
666.912	42542.58
667.262	42440.44
667.612	42379.87
667.962	42529.7
668.312	42351.63
668.662	42465.97
669.011	42386.43
669.361	42398.86
669.711	42201.8
670.06	42180.56
670.41	42148.92
670.76	42099.66
671.109	42155.47
671.459	42137.39
671.808	42027.34
672.157	42209.71
672.507	41839.78
672.856	41994.35
673.205	41895.82
673.554	42042.26
673.904	41895.82
674.253	42134.01
674.602	41801.13
674.951	41390.3
675.3	41320.02
675.649	41835.48
675.998	41701.25
676.346	41715.26
676.695	41897.18
677.044	41534.47
677.393	41651.08
677.741	41689.05
678.09	41579.44
678.438	41561.36
678.787	41667.8
679.135	41625.77
679.484	41394.59
679.832	41557.75
680.181	41201.37
680.529	41389.62
680.877	41261.49
681.225	41123.41
681.573	41365.21
681.922	41162.73
682.27	41063.07
682.618	41091.09
682.966	40915.05
683.314	40856.75
683.661	40799.8
684.009	40486.36
684.357	40541.05
684.705	40589.19
685.053	40487.95
685.4	40522.52
685.748	40267.61
686.095	40150.55
686.443	39988.07
686.79	39846.38
687.138	40100.61
687.485	40044.34
687.832	39819.94
688.18	39984.91
688.527	39764.12
688.874	39675.99
689.221	39589.89
689.568	39501.98
689.915	39360.52
690.262	39429.22
690.609	39385.15
690.956	39315.77
691.303	39165.72
691.65	38890.47
691.997	38927.54
692.344	38723.02
692.69	38738.61
693.037	38799.86
693.383	38514.89
693.73	38626.07
694.077	38327.33
694.423	38286.42
694.769	38394.22
695.116	38180.44
695.462	38189.93
695.808	37947
696.155	37956.04
696.501	37755.59
696.847	37729.6
697.193	37365.77
697.539	37619.32
697.885	37328.48
698.231	37341.59
698.577	37302.49
698.923	37130.75
699.269	36821.38
699.614	36575.73
699.96	36767.14
700.306	36660.25
700.651	36668.61
700.997	36576.41
701.342	36500.25
701.688	36386.59
702.033	36230.66
702.379	36237.66
702.724	36138.68
703.069	36082.86
703.415	35760.61
703.76	35648.07
704.105	35654.63
704.45	35684.01
704.795	35326.95
705.14	35404.92
705.485	35465.48
705.83	35159.05
706.175	35286.73
706.52	35220.97
706.865	35009.22
707.209	34950.47
707.554	34811.94
707.899	35058.71
708.243	34702.56
708.588	34730.36
708.932	34387.32
709.277	34388.22
709.621	34442
709.966	34117.04
710.31	34360.88
710.654	34105.29
710.998	34157.04
711.342	34123.14
711.687	34037.72
712.031	33822.13
712.375	33750.72
712.719	33841.12
713.063	33772.87
713.407	33705.07
713.75	33546.89
714.094	33599.99
714.438	33442.93
714.782	33430.51
715.125	33188.7
715.469	33298.31
715.812	33150.06
716.156	33013.57
716.499	33072.77
716.843	32983.74
717.186	32750.75
717.53	32881.82
717.873	32868.49
718.216	32763.4
718.559	32863.06
718.902	32584.88
719.246	32564.77
719.589	32574.48
719.932	32329.07
720.275	32362.06
720.617	32328.16
720.96	32288.84
721.303	32179.92
721.646	32228.95
721.989	31965.23
722.331	32012.01
722.674	31969.3
723.016	31939.47
723.359	31859.7
723.701	31936.53
724.044	31638.01
724.386	31554.4
724.729	31657.22
725.071	31659.03
725.413	31513.27
725.755	31467.62
726.097	31220.17
726.439	31210.68
726.782	31176.78
727.124	31357.11
727.465	30949.67
727.807	31134.75
728.149	31048.65
728.491	31061.3
728.833	31057.23
729.175	30961.64
729.516	30853.4
729.858	30868.09
730.199	30869.44
730.541	30777.47
730.882	30719.16
731.224	30776.79
731.565	30557.81
731.906	30549.9
732.248	30635.1
732.589	30437.36
732.93	30328.67
733.271	30278.72
733.612	30356.69
733.953	30357.82
734.294	30105.62
734.635	30160.53
734.976	30136.81
735.317	29952.18
735.658	29967.77
735.999	30139.29
736.339	29983.59
736.68	29968.22
737.021	29758.29
737.361	29750.38
737.702	29935.46
738.042	29746.99
738.383	29695.69
738.723	29757.38
739.063	29613.66
739.404	29784.73
739.744	29480.1
740.084	29410.5
740.424	29535.69
740.764	29494.11
741.104	29503.15
741.444	29206.66
741.784	29185.19
742.124	29323.95
742.464	29121.92
742.804	29243.27
743.143	29014.12
743.483	29180.45
743.823	28839.67
744.162	28881.47
744.502	28914.47
744.841	28865.2
745.181	28801.25
745.52	28677.18
745.86	28750.4
746.199	28483.74
746.538	28658.65
746.877	28574.14
747.216	28407.13
747.556	28426.12
747.895	28556.51
748.234	28283.07
748.573	28184.54
748.911	28189.51
749.25	28338.89
749.589	28085.33
749.928	28151.32
750.267	28133.24
750.605	28008.95
750.944	28009.86
751.283	27810.77
751.621	27921.27
751.96	27762.63
752.298	27802.4
752.636	27611.22
752.975	27527.84
753.313	27555.41
753.651	27607.61
753.989	27515.18
754.327	27451.45
754.666	27282.19
755.004	27194.96
755.342	27248.07
755.679	27155.64
756.017	27044.01
756.355	26942.09
756.693	26943.22
757.031	27103.67
757.368	26785.93
757.706	26813.73
758.044	26695.77
758.381	26819.15
758.719	26760.62
759.056	26672.72
759.394	26479.73
759.731	26269.34
760.068	26254.2
760.405	26158.15
760.743	26144.14
761.08	26127.65
761.417	25924.71
761.754	25905.28
762.091	25790.93
762.428	25754.55
762.765	25557.27
763.102	25648.11
763.438	25432.98
763.775	25468.68
764.112	25303.26
764.449	25323.15
764.785	25191.85
765.122	25090.16
765.458	24950.5
765.795	24980.33
766.131	24878.19
766.467	24746.44
766.804	24669.15
767.14	24576.5
767.476	24656.95
767.812	24472.77
768.148	24463.06
768.485	24236.62
768.821	24169.05
769.157	24202.5
769.492	24110.52
769.828	24045.67
770.164	23808.61
770.5	23880.47
770.836	23721.16
771.171	23573.59
771.507	23524.32
771.842	23400.49
772.178	23451.33
772.513	23357.78
772.849	23178.35
773.184	23110.32
773.519	23108.06
773.855	22995.3
774.19	22966.37
774.525	22958.24
774.86	22810.67
775.195	22740.39
775.53	22628.08
775.865	22582.43
776.2	22464.47
776.535	22262.21
776.87	22280.06
777.205	22279.61
777.539	21989.22
777.874	22061.31
778.209	21827.19
778.543	21826.29
778.878	21816.35
779.212	21851.83
779.547	21628.56
779.881	21542.23
780.215	21456.81
780.55	21524.6
780.884	21424.27
781.218	21305.63
781.552	21258.85
781.886	21125.07
782.22	20986.31
782.554	21022.7
782.888	20711.52
783.222	20695.92
783.556	20598.53
783.889	20610.73
784.223	20517.4
784.557	20386.78
784.89	20474.46
785.224	20326.22
785.557	20265.65
785.891	20251.42
786.224	20044.19
786.558	20057.07
786.891	19864.53
787.224	19829.28
787.557	19761.26
787.891	19794.25
788.224	19707.48
788.557	19619.12
788.89	19617.99
789.223	19559.23
789.556	19462.28
789.888	19361.5
790.221	19349.97
790.554	19206.92
790.887	19148.17
791.219	19045.35
791.552	19002.86
791.884	18959.7
792.217	18844.45
792.549	18780.49
792.882	18626.83
793.214	18643.32
793.546	18614.62
793.879	18533.5
794.211	18340.73
794.543	18457.57
794.875	18373.5
795.207	18366.27
795.539	18249.66
795.871	18326.04
796.203	18071.36
796.535	18001.76
796.867	18025.71
797.198	17884.47
797.53	17821.88
797.862	17783.01
798.193	17796.11
798.525	17604.03
798.856	17737.13
799.188	17488.33
799.519	17408.55
799.85	17306.64
800.182	17371.49
800.513	17406.97
800.844	17259.63
801.175	17306.86
801.506	17192.51
801.837	17178.05
802.168	17163.36
802.499	17053.76
802.83	16900.32
803.161	16942.35
803.491	16856.25
803.822	16948.45
804.153	16799.76
804.483	16630.27
804.814	16511.18
805.145	16646.77
805.475	16603.6
805.805	16496.71
806.136	16532.19
806.466	16545.07
806.796	16472.08
807.126	16253.33
807.457	16269.6
807.787	16269.15
808.117	16117.97
808.447	16085.88
808.777	16007.01
809.107	16025.99
809.436	15990.29
809.766	15943.51
810.096	15912.1
810.426	15862.61
810.755	15907.8
811.085	15783.74
811.414	15702.84
811.744	15554.37
812.073	15572.67
812.403	15529.28
812.732	15421.04
813.061	15513.24
813.39	15367.48
813.719	15428.04
814.049	15362.96
814.378	15353.24
814.707	15239.12
815.036	15293.13
815.365	15189.4
815.693	15147.37
816.022	15115.96
816.351	15036.19
816.68	14997.77
817.008	15054.72
817.337	14850.2
817.665	14906.02
817.994	14895.4
818.322	14874.61
818.651	14789.41
818.979	14720.94
819.307	14811.79
819.636	14719.58
819.964	14653.15
820.292	14644.33
820.62	14667.16
820.948	14616.76
821.276	14626.71
821.604	14558.01
821.932	14639.13
822.259	14645.24
822.587	14522.75
822.915	14577.67
823.243	14625.12
823.57	14541.51
823.898	14602.07
824.225	14426.03
824.553	14475.75
824.88	14532.92
825.207	14552.58
825.535	14443.89
825.862	14584
826.189	14437.56
826.516	14569.98
826.843	14572.47
827.17	14588.06
827.497	14551.23
827.824	14494.96
828.151	14551.68
828.478	14457.9
828.805	14570.21
829.131	14471.23
829.458	14407.73
829.785	14399.14
830.111	14394.62
830.438	14477.11
830.764	14421.97
831.09	14472.36
831.417	14299.93
831.743	14444.56
832.069	14437.56
832.395	14297.9
832.722	14397.56
833.048	14372.93
833.374	14377.22
833.7	14279.37
834.026	14335.19
834.351	14274.85
834.677	14259.71
835.003	14285.92
835.329	14288.64
835.654	14313.04
835.98	14194.63
836.306	14225.59
836.631	14180.84
836.956	14249.77
837.282	14181.97
837.607	14173.38
837.932	14021.98
838.258	14101.3
838.583	14100.84
838.908	13938.14
839.233	14052.03
839.558	13913.96
839.883	13901.98
840.208	13850
840.533	13923.45
840.858	13848.42
841.182	13904.92
841.507	13864.24
841.832	13805.03
842.156	13725.71
842.481	13760.29
842.805	13699.95
843.13	13662.89
843.454	13537.47
843.778	13509.45
844.103	13538.6
844.427	13545.6
844.751	13494.98
845.075	13562.55
845.399	13440.3
845.723	13403.69
846.047	13432.16
846.371	13280.07
846.695	13218.83
847.019	13097.48
847.343	12977.71
847.666	12906.75
847.99	12883.47
848.313	12902.46
848.637	12857.49
848.96	12821.78
849.284	12808.45
849.607	12708.34
849.931	12603.71
850.254	12561.45
850.577	12594.44
850.9	12435.58
851.223	12415.46
851.546	12377.05
851.869	12335.01
852.192	12340.89
852.515	12294.79
852.838	12243.27
853.161	12218.63
853.483	12078.98
853.806	12017.73
854.129	12057.73
854.451	12045.76
854.774	11984.06
855.096	12007.57
855.419	11841.69
855.741	11860.9
856.063	11777.52
856.385	11750.17
856.708	11685.09
857.03	11669.5
857.352	11680.34
857.674	11565.32
857.996	11470.4
858.318	11486.22
858.64	11421.59
858.961	11434.47
859.283	11442.38
859.605	11340.24
859.926	11409.39
860.248	11395.15
860.57	11293.46
860.891	11325.78
861.212	11247.59
861.534	11284.42
861.855	11246.46
862.176	11251.65
862.498	11293.01
862.819	11236.51
863.14	11159.9
863.461	11126.68
863.782	11126.91
864.103	11097.08
864.424	11013.24
864.745	11005.78
865.065	10987.48
865.386	10971.66
865.707	10933.92
866.027	11081.49
866.348	10974.15
866.668	10994.94
866.989	10919.23
867.309	10851.89
867.63	10908.39
867.95	10843.53
868.27	10748.84
868.59	10736.86
868.91	10735.73
869.23	10753.59
869.55	10715.17
869.87	10790.65
870.19	10683.08
870.51	10712.01
870.83	10664.78
871.15	10585.46
871.469	10592.24
871.789	10657.77
872.109	10563.54
872.428	10470.2
872.748	10575.06
873.067	10477.89
873.386	10473.59
873.706	10535.74
874.025	10422.3
874.344	10416.2
874.663	10456.42
874.982	10446.48
875.301	10378.91
875.62	10378.23
875.939	10281.96
876.258	10375.52
876.577	10253.71
876.896	10282.87
877.214	10254.17
877.533	10232.92
877.852	10306.82
878.17	10268.18
878.489	10280.38
878.807	10250.78
879.125	10194.73
879.444	10194.05
879.762	10221.17
880.08	10175.3
880.398	10084.9
880.716	10119.03
881.034	10045.36
881.352	10072.48
881.67	10079.93
881.988	10075.87
882.306	10013.04
882.624	9934.17
882.941	9906.15
883.259	9825.48
883.577	9861.18
883.894	9907.06
884.212	9878.36
884.529	9826.15
884.846	9771.01
885.164	9808.53
885.481	9729.89
885.798	9772.37
886.115	9687.63
886.432	9662.09
886.75	9645.14
887.067	9602.43
887.383	9558.82
887.7	9636.78
888.017	9621.19
888.334	9641.07
888.651	9560.17
888.967	9557.91
889.284	9424.13
889.6	9459.38
889.917	9398.82
890.233	9437.01
890.55	9280.86
890.866	9376
891.182	9309.11
891.498	9325.6
891.815	9211.93
892.131	9145.27
892.447	9176.23
892.763	9203.35
893.079	9208.54
893.395	9145.49
893.71	9125.38
894.026	9085.61
894.342	9090.13
894.657	9060.3
894.973	8972.17
895.289	8958.38
895.604	8938.27
895.92	8878.83
896.235	8879.29
896.55	8769.01
896.865	8813.3
897.181	8744.83
897.496	8813.75
897.811	8738.05
898.126	8723.36
898.441	8659.18
898.756	8649.24
899.071	8592.97
899.386	8696.47
899.7	8494.21
900.015	8535.34
900.33	8495.12
900.644	8387.32
900.959	8473.87
901.273	8442.46
901.588	8313.88
901.902	8306.19
902.216	8288.34
902.531	8228.91
902.845	8219.19
903.159	8170.6
903.473	8053.77
903.787	8054
904.101	8025.3
904.415	8037.27
904.729	8006.31
905.042	7947.56
905.356	7978.07
905.67	7959.76
905.984	7947.56
906.297	7906.43
906.611	7874.11
906.924	7918.18
907.237	7781.69
907.551	7805.19
907.864	7761.58
908.177	7726.55
908.491	7707.11
908.804	7666.66
909.117	7592.99
909.43	7577.17
909.743	7515.93
910.056	7538.53
910.368	7485.65
910.681	7484.75
910.994	7452.21
911.307	7448.14
911.619	7351.42
911.932	7395.94
912.244	7277.52
912.557	7286.11
912.869	7245.88
913.181	7211.31
913.494	7231.65
913.806	7189.84
914.118	7131.99
914.43	7100.12
914.742	7085.66
915.054	7089.05
915.366	7029.39
915.678	6947.59
915.99	6938.77
916.302	6914.82
916.613	6887.25
916.925	6864.65
917.236	6877.31
917.548	6854.03
917.859	6811.54
918.171	6741.94
918.482	6745.56
918.794	6729.51
919.105	6694.26
919.416	6665.79
919.727	6663.3
920.038	6602.06
920.349	6565.9
920.66	6515.96
920.971	6524.32
921.282	6494.26
921.593	6472.8
921.903	6405.68
922.214	6383.76
922.525	6371.56
922.835	6308.28
923.146	6239.13
923.456	6273.93
923.767	6230.77
924.077	6241.16
924.387	6233.25
924.697	6182.18
925.008	6132.01
925.318	6110.55
925.628	6128.85
925.938	6081.85
926.248	5983.77
926.558	6023.99
926.867	6045.91
927.177	5993.94
927.487	5927.5
927.796	5930.66
928.106	5877.11
928.416	5845.02
928.725	5828.75
929.034	5778.58
929.344	5774.28
929.653	5798.46
929.962	5738.58
930.271	5770.67
930.581	5696.32
930.89	5667.85
931.199	5648.64
931.508	5637.56
931.817	5652.48
932.125	5572.48
932.434	5600.73
932.743	5478.7
933.051	5497
933.36	5436.21
933.669	5423.78
933.977	5454.52
934.286	5383.56
934.594	5364.8
934.902	5369.1
935.21	5337.46
935.519	5340.17
935.827	5283.45
936.135	5302.21
936.443	5190.8
936.751	5219.5
937.059	5222.89
937.367	5126.62
937.674	5178.82
937.982	5206.61
938.29	5162.32
938.597	5118.93
938.905	5103.34
939.213	5131.36
939.52	5065.83
939.827	5034.42
940.135	5034.42
940.442	4935.21
940.749	4922.78
941.056	4913.51
941.363	4866.06
941.67	4889.33
941.977	4856.34
942.284	4805.04
942.591	4842.1
942.898	4771.37
943.205	4773.86
943.511	4738.6
943.818	4699.74
944.125	4708.55
944.431	4657.48
944.738	4685.5
945.044	4654.76
945.35	4642.79
945.657	4547.87
945.963	4640.98
946.269	4578.61
946.575	4554.2
946.881	4564.15
947.187	4517.37
947.493	4480.76
947.799	4483.24
948.105	4456.35
948.41	4437.37
948.716	4390.59
949.022	4409.35
949.327	4379.74
949.633	4314.89
949.938	4337.03
950.244	4400.31
950.549	4312.4
950.854	4325.96
951.16	4263.59
951.465	4274.44
951.77	4190.14
952.075	4210.71
952.38	4217.04
952.685	4198.51
952.99	4162.12
953.294	4097.94
953.599	4116.93
953.904	4082.35
954.209	4061.11
954.513	4037.83
954.818	4084.38
955.122	4009.36
955.426	4008
955.731	4010.71
956.035	3954.44
956.339	3954.9
956.643	3899.98
956.948	3882.13
957.252	3869.47
957.556	3839.19
957.86	3882.13
958.163	3822.24
958.467	3875.8
958.771	3826.76
959.075	3834
959.378	3781.34
959.682	3820.21
959.985	3782.7
960.289	3737.05
960.592	3729.82
960.896	3705.86
961.199	3725.52
961.502	3711.74
961.805	3657.5
962.108	3694.79
962.411	3635.58
962.714	3590.61
963.017	3581.57
963.32	3591.29
963.623	3600.78
963.926	3600.33
964.228	3561.23
964.531	3542.03
964.833	3547.68
965.136	3502.25
965.438	3471.74
965.741	3464.74
966.043	3467
966.345	3477.17
966.648	3437.4
966.95	3411.41
967.252	3388.81
967.554	3389.71
967.856	3379.54
968.158	3329.6
968.46	3336.38
968.761	3288.02
969.063	3343.39
969.365	3248.25
969.666	3256.61
969.968	3260.45
970.269	3245.31
970.571	3261.13
970.872	3203.28
971.174	3231.07
971.475	3188.36
971.776	3172.09
972.077	3142.71
972.378	3130.51
972.679	3114.01
972.98	3156.05
973.281	3129.61
973.582	3065.2
973.883	3113.79
974.183	3082.6
974.484	3088.93
974.785	3046.67
975.085	3041.7
975.386	3031.98
975.686	3008.93
975.986	2977.52
976.287	3027.91
976.587	2951.08
976.887	2950.63
977.187	2930.52
977.487	2936.17
977.787	2932.1
978.087	2893.91
978.387	2884.42
978.687	2909.5
978.987	2876.28
979.286	2842.16
979.586	2836.73
979.885	2812.55
980.185	2793.57
980.484	2766.68
980.784	2801.71
981.083	2762.61
981.382	2770.75
981.682	2756.74
981.981	2726.68
982.28	2733.23
982.579	2701.82
982.878	2712.67
983.177	2651.65
983.475	2664.08
983.774	2661.37
984.073	2620.47
984.372	2674.7
984.67	2615.95
984.969	2630.19
985.267	2580.69
985.566	2601.03
985.864	2602.16
986.162	2609.62
986.461	2567.59
986.759	2546.57
987.057	2519.68
987.355	2536.85
987.653	2515.84
987.951	2483.97
988.249	2486.46
988.547	2530.3
988.844	2465.9
989.142	2465.22
989.44	2468.61
989.737	2435.84
990.035	2413.24
990.332	2422.73
990.63	2402.62
990.927	2383.86
991.224	2388.38
991.521	2364.43
991.819	2368.72
992.116	2333.92
992.413	2349.29
992.71	2295.96
993.006	2359.23
993.303	2278.78
993.6	2269.29
993.897	2304.54
994.193	2285.56
994.49	2262.06
994.787	2265.9
995.083	2240.82
995.379	2208.73
995.676	2224.09
995.972	2213.47
996.268	2181.84
996.565	2173.93
996.861	2173.25
997.157	2155.17
997.453	2196.07
997.749	2141.84
998.044	2138.45
998.34	2108.62
998.636	2082.4
998.932	2098.22
999.227	2045.12
999.523	2083.98
999.818	2056.41
1000.114	2050.99
1000.409	2021.61
1000.704	2056.87
1001	2022.07
1001.295	2025
1001.59	2022.97
1001.885	2002.18
1002.18	2021.39
1002.475	1967.6
1002.77	1982.97
1003.065	1942.07
1003.359	1921.28
1003.654	1964.67
1003.949	1942.07
1004.243	1872.24
1004.538	1902.75
1004.832	1886.7
1005.127	1889.87
1005.421	1888.28
1005.715	1903.88
1006.009	1849.64
1006.304	1862.75
1006.598	1832.69
1006.892	1824.1
1007.186	1837.66
1007.48	1815.97
1007.773	1804.9
1008.067	1810.55
1008.361	1763.54
1008.655	1759.47
1008.948	1767.38
1009.242	1740.26
1009.535	1717.21
1009.829	1707.27
1010.122	1736.65
1010.415	1698.46
1010.708	1683.77
1011.001	1685.8
1011.295	1691.45
1011.588	1669.98
1011.881	1674.5
1012.173	1635.18
1012.466	1613.04
1012.759	1635.41
1013.052	1623.21
1013.344	1599.25
1013.637	1621.85
1013.93	1597.22
1014.222	1596.54
1014.514	1554.28
1014.807	1556.54
1015.099	1538.69
1015.391	1535.98
1015.683	1540.95
1015.976	1530.55
1016.268	1533.04
1016.56	1516.32
1016.851	1530.55
1017.143	1515.86
1017.435	1499.37
1017.727	1452.36
1018.018	1440.16
1018.31	1445.81
1018.602	1453.72
1018.893	1423.66
1019.185	1462.76
1019.476	1419.37
1019.767	1398.58
1020.058	1397
1020.35	1361.07
1020.641	1386.15
1020.932	1361.52
1021.223	1347.73
1021.514	1353.61
1021.804	1340.28
1022.095	1309.99
1022.386	1324.68
1022.677	1292.82
1022.967	1286.04
1023.258	1307.51
1023.548	1298.92
1023.839	1262.54
1024.129	1269.99
1024.419	1270.22
1024.709	1268.86
1025	1262.76
1025.29	1253.05
1025.58	1218.7
1025.87	1252.82
1026.16	1212.82
1026.449	1234.06
1026.739	1202.2
1027.029	1206.95
1027.319	1199.71
1027.608	1140.96
1027.898	1161.98
1028.187	1174.63
1028.477	1135.54
1028.766	1152.03
1029.055	1124.91
1029.344	1151.13
1029.634	1138.02
1029.923	1124.69
1030.212	1103.22
1030.501	1117.23
1030.79	1121.07
1031.078	1101.86
1031.367	1065.71
1031.656	1105.03
1031.945	1078.36
1032.233	1081.07
1032.522	1041.75
1032.81	1077.91
1033.099	1036.78
1033.387	1061.64
1033.675	1048.53
1033.963	1015.31
1034.251	1023
1034.54	1025.26
1034.828	1003.79
1035.116	1015.54
1035.403	997.46
1035.691	977.8
1035.979	982.54
1036.267	956.56
1036.554	969.89
1036.842	980.28
1037.129	947.29
1037.417	961.75
1037.704	968.99
1037.992	956.56
1038.279	930.12
1038.566	927.4
1038.853	927.4
1039.14	927.4
