Data from plate_ceramic_FLMS001491_065.txt Node
Date: Tue Feb 07 11:17:08 GMT 2017
User: dcchb
Spectrometer: FLMS00149
Trigger mode: 0
Integration Time (sec): 2.000000E-2
Scans to average: 10
Electric dark correction enabled: true
Nonlinearity correction enabled: false
Boxcar width: 0
XAxis mode: Wavelengths
Number of Pixels in Spectrum: 2048
>>>>>Begin Spectral Data<<<<<
341.393	-17.77
341.776	-17.77
342.16	-17.77
342.543	-45.79
342.927	-53.93
343.31	-68.84
343.693	-81.27
344.077	-78.33
344.46	-51.67
344.843	-45.79
345.226	-50.99
345.61	-32.23
345.993	-31.33
346.376	-4.21
346.759	3.25
347.142	24.49
347.525	37.6
347.908	55.45
348.291	91.38
348.674	120.31
349.057	112.17
349.44	131.38
349.823	145.62
350.206	164.83
350.588	217.25
350.971	231.49
351.354	242.79
351.737	257.71
352.119	290.02
352.502	257.25
352.884	284.37
353.267	300.42
353.65	331.15
354.032	307.87
354.414	333.64
354.797	328.89
355.179	345.61
355.562	329.79
355.944	342.9
356.326	365.05
356.709	376.57
357.091	383.35
357.473	373.18
357.855	337.48
358.238	373.86
358.62	344.26
359.002	363.47
359.384	382
359.766	374.99
360.148	364.14
360.53	355.1
360.912	351.71
361.294	349
361.676	348.55
362.057	374.54
362.439	349
362.821	374.54
363.203	358.49
363.584	366.85
363.966	355.1
364.348	365.72
364.729	355.78
365.111	351.94
365.493	346.52
365.874	359.85
366.256	363.24
366.637	359.4
367.019	342.67
367.4	354.2
367.781	362.56
368.163	364.82
368.544	364.14
368.925	345.61
369.306	355.56
369.688	367.76
370.069	358.72
370.45	371.83
370.831	363.47
371.212	361.43
371.593	392.62
371.974	383.58
372.355	373.41
372.736	388.32
373.117	379.06
373.498	395.55
373.879	386.29
374.26	391.49
374.641	371.15
375.021	377.7
375.402	393.29
375.783	387.42
376.163	409.57
376.544	399.62
376.925	380.64
377.305	403.46
377.686	403.46
378.066	405.5
378.447	413.18
378.827	414.54
379.208	412.5
379.588	430.36
379.968	426.29
380.349	432.84
380.729	431.94
381.109	429.68
381.489	424.03
381.87	433.97
382.25	459.06
382.63	421.99
383.01	431.71
383.39	458.83
383.77	429
384.15	452.5
384.53	466.74
384.91	464.71
385.29	480.52
385.67	461.32
386.049	475.33
386.429	492.73
386.809	485.72
387.189	497.02
387.568	499.28
387.948	506.29
388.328	515.33
388.707	473.74
389.087	500.64
389.466	515.55
389.846	501.09
390.225	512.39
390.605	534.76
390.984	524.59
391.363	536.57
391.743	540.41
392.122	544.93
392.501	536.57
392.881	570.24
393.26	574.98
393.639	590.35
394.018	548.77
394.397	552.16
394.776	578.6
395.155	599.84
395.534	591.71
395.913	581.99
396.292	609.11
396.671	609.56
397.05	605.04
397.429	612.27
397.808	639.84
398.186	659.28
398.565	632.38
398.944	632.61
399.323	615.21
399.701	642.55
400.08	656.11
400.458	683.46
400.837	664.93
401.215	683.91
401.594	680.97
401.972	687.07
402.351	680.97
402.729	707.64
403.107	715.55
403.486	727.3
403.864	723
404.242	744.25
404.62	733.85
404.999	743.79
405.377	756.22
405.755	761.19
406.133	772.04
406.511	779.73
406.889	784.02
407.267	785.6
407.645	810.68
408.023	836.45
408.401	811.36
408.779	841.19
409.156	864.02
409.534	824.7
409.912	860.85
410.29	893.17
410.667	871.25
411.045	886.84
411.422	941.98
411.8	933.62
412.178	961.42
412.555	925.48
412.933	957.57
413.31	962.77
413.687	1005.03
414.065	982.88
414.442	1001.87
414.819	1024.69
415.197	1032.15
415.574	1041.41
415.951	1036.67
416.328	1046.84
416.705	1045.03
417.082	1071.92
417.46	1080.73
417.837	1102.2
418.214	1137
418.591	1116.21
418.967	1140.39
419.344	1127.51
419.721	1177.45
420.098	1158.02
420.475	1173.84
420.852	1183.1
421.228	1204.57
421.605	1220.84
421.982	1207.74
422.358	1249.32
422.735	1277.11
423.111	1249.54
423.488	1257
423.864	1279.37
424.241	1334.06
424.617	1317.34
424.994	1320.28
425.37	1369.09
425.746	1352.37
426.123	1377
426.499	1379.48
426.875	1379.26
427.251	1434.85
427.627	1425.58
428.003	1474.17
428.379	1485.7
428.756	1474.62
429.132	1531.12
429.507	1525.02
429.883	1556.2
430.259	1578.57
430.635	1586.03
431.011	1588.52
431.387	1645.01
431.763	1665.58
432.138	1698.12
432.514	1721.62
432.89	1725.46
433.265	1762.52
433.641	1790.55
434.016	1755.29
434.392	1806.82
434.767	1844.1
435.143	1848.85
435.518	1885.68
435.894	1899.7
436.269	1931.79
436.644	1942.41
437.02	1979.47
437.395	1967.04
437.77	2001.39
438.145	2017.43
438.52	2047.04
438.895	2071.89
439.271	2048.17
439.646	2109.86
440.021	2153.25
440.395	2118.67
440.77	2126.81
441.145	2172.01
441.52	2204.55
441.895	2206.81
442.27	2213.81
442.645	2218.78
443.019	2277.31
443.394	2253.58
443.769	2318.44
444.143	2272.12
444.518	2320.25
444.892	2321.15
445.267	2335.16
445.641	2365.22
446.016	2344.2
446.39	2399.12
446.764	2416.29
447.139	2416.29
447.513	2429.85
447.887	2477.31
448.262	2495.39
448.636	2456.52
449.01	2512.79
449.384	2557.53
449.758	2546.91
450.132	2626.91
450.506	2597.76
450.88	2629.85
451.254	2616.51
451.628	2672.1
452.002	2687.7
452.376	2709.39
452.75	2796.62
453.123	2784.19
453.497	2796.17
453.871	2840.01
454.244	2906.22
454.618	2927.24
454.992	2932.44
455.365	2971.08
455.739	3041.81
456.112	3068.48
456.486	3102.38
456.859	3120.91
457.232	3231.41
457.606	3190.74
457.979	3257.4
458.352	3327.23
458.725	3362.71
459.099	3381.46
459.472	3421.46
459.845	3487.22
460.218	3501.01
460.591	3547.79
460.964	3553.66
461.337	3644.06
461.71	3716.6
462.083	3726.99
462.456	3755.01
462.829	3770.83
463.201	3835.69
463.574	3887.21
463.947	3949.13
464.32	3960.21
464.692	4052.18
465.065	4084.5
465.438	4133.54
465.81	4219.86
466.183	4220.09
466.555	4296.92
466.928	4392.06
467.3	4379.4
467.672	4450.82
468.045	4570.59
468.417	4571.49
468.789	4577.82
469.161	4645.39
469.534	4751.37
469.906	4782.56
470.278	4858.94
470.65	4926.73
471.022	5032.72
471.394	5088.54
471.766	5187.07
472.138	5187.07
472.51	5344.35
472.882	5432.71
473.253	5493.05
473.625	5566.27
473.997	5708.41
474.369	5746.37
474.74	5794.96
475.112	5893.26
475.484	6041.73
475.855	6095.97
476.227	6181.62
476.598	6298.22
476.97	6342.97
477.341	6603.53
477.713	6642.17
478.084	6630.87
478.455	6820.02
478.827	6872.22
479.198	7075.38
479.569	7122.61
479.94	7278.09
480.311	7345.65
480.682	7653.67
481.053	7802.14
481.424	7916.26
481.795	7978.63
482.166	8057.27
482.537	8160.1
482.908	8376.81
483.279	8418.39
483.65	8604.83
484.021	8759.18
484.391	8900.64
484.762	8910.81
485.133	9018.83
485.503	9186.06
485.874	9390.12
486.244	9500.4
486.615	9617.46
486.985	9738.59
487.356	9933.61
487.726	9973.83
488.097	10186.03
488.467	10284.56
488.837	10540.82
489.207	10617.88
489.578	10742.63
489.948	10831.89
490.318	11087.02
490.688	11033.69
491.058	11254.48
491.428	11391.42
491.798	11531.98
492.168	11762.94
492.538	11796.38
492.908	11905.31
493.278	12104.4
493.648	12108.92
494.017	12277.95
494.387	12439.31
494.757	12544.16
495.126	12668.23
495.496	12761.11
495.866	12862.8
496.235	13014.43
496.605	13084.71
496.974	13284.48
497.344	13357.25
497.713	13450.35
498.082	13529.67
498.452	13657.58
498.821	13766.05
499.19	13758.37
499.559	13923.11
499.928	14012.6
500.298	14188.19
500.667	14288.07
501.036	14313.38
501.405	14470.89
501.774	14438.35
502.143	14711.79
502.512	14716.08
502.88	14845.8
503.249	14883.08
503.618	15065
503.987	15014.38
504.356	15230.42
504.724	15353.81
505.093	15425.22
505.462	15456.63
505.83	15617.3
506.199	15797.41
506.567	15982.72
506.936	15917.63
507.304	16151.52
507.672	16162.15
508.041	16293.22
508.409	16394.23
508.777	16605.07
509.145	16786.31
509.514	16711.74
509.882	16919.64
510.25	16952.63
510.618	17057.04
510.986	17201.21
511.354	17438.72
511.722	17520.98
512.09	17554.43
512.458	17661.32
512.826	17825.15
513.193	17894.3
513.561	18026.5
513.929	18306.04
514.297	18423.78
514.664	18495.87
515.032	18562.08
515.4	18740.61
515.767	18860.15
516.135	18997.1
516.502	18856.99
516.869	19284.1
517.237	19416.52
517.604	19273.48
517.972	19609.96
518.339	19758.66
518.706	19799.79
519.073	19865.33
519.44	20116.84
519.808	20311.64
520.175	20411.53
520.542	20685.87
520.909	20798.63
521.276	20823.49
521.643	21044.05
522.009	21248.79
522.376	21344.38
522.743	21409.01
523.11	21671.15
523.477	21928.55
523.843	22098.94
524.21	22331.47
524.577	22465.26
524.943	22503
525.31	22669.32
525.676	22971.01
526.043	22955.41
526.409	23224.78
526.776	23541.84
527.142	23521.73
527.508	23718.56
527.874	23841.49
528.241	24090.52
528.607	24085.78
528.973	24404.19
529.339	24360.8
529.705	24583.17
530.071	24901.58
530.437	24936.15
530.803	25178.41
531.169	25328.46
531.535	25186.99
531.901	25409.36
532.267	25438.51
532.632	25564.38
532.998	25843.02
533.364	25983.81
533.73	26161.2
534.095	26406.62
534.461	26485.26
534.826	26657.01
535.192	26728.87
535.557	26979.49
535.923	26940.85
536.288	27082.99
536.653	27209.54
537.019	27127.51
537.384	27378.8
537.749	27501.51
538.114	27432.36
538.479	27546.93
538.845	27824.44
539.21	27791.22
539.575	28012.46
539.94	28013.36
540.305	28268.04
540.67	28118.67
541.034	28368.38
541.399	28484.08
541.764	28651.31
542.129	28778.99
542.494	28800.01
542.858	28862.15
543.223	28920.91
543.587	29160.67
543.952	29237.73
544.316	29315.25
544.681	29385.53
545.045	29561.34
545.41	29602.7
545.774	29681.11
546.138	29701.68
546.503	29913.87
546.867	29912.29
547.231	30197.26
547.595	30247.43
547.959	30343.24
548.324	30416.01
548.688	30476.12
549.052	30642.67
549.416	30785.26
549.779	30945.94
550.143	30837.01
550.507	31185.25
550.871	31219.38
551.235	31261.64
551.599	31633.6
551.962	31618.69
552.326	31505.47
552.689	31833.15
553.053	31785.46
553.417	31910.66
553.78	32427.71
554.143	32251.21
554.507	32429.74
554.87	32520.59
555.234	32842.39
555.597	32806
555.96	32993.34
556.323	33155.82
556.686	33207.8
557.05	33391.52
557.413	33453.22
557.776	33669.93
558.139	33791.29
558.502	33854.11
558.865	34019.53
559.228	34290.03
559.59	34363.93
559.953	34440.54
560.316	34750.13
560.679	34935.44
561.041	35038.26
561.404	35293.85
561.767	35408.65
562.129	35466.04
562.492	35863.32
562.854	35947.84
563.217	35941.29
563.579	36145.8
563.941	36314.61
564.304	36436.87
564.666	36740.81
565.028	36692.45
565.39	36837.53
565.753	37003.63
566.115	37320.46
566.477	37356.39
566.839	37288.82
567.201	37720.45
567.563	37692.65
567.925	38040.44
568.287	38097.61
568.648	38125.41
569.01	38308.46
569.372	38578.51
569.734	38442.01
570.095	38805.17
570.457	38904.37
570.819	39057.14
571.18	39059.62
571.542	39308.88
571.903	39249.45
572.265	39674.3
572.626	39647.18
572.987	39669.1
573.349	39801.75
573.71	39945.02
574.071	40046.26
574.432	40198.35
574.794	40508.85
575.155	40442.86
575.516	40365.13
575.877	40713.14
576.238	40601.28
576.599	40833.14
576.96	40982.96
577.32	40828.84
577.681	40984.54
578.042	41188.61
578.403	41139.34
578.763	41346.79
579.124	41467.02
579.485	41556.05
579.845	41663.85
580.206	41556.96
580.566	41412.56
580.927	41526.9
581.287	41706.56
581.648	41576.39
582.008	41785.88
582.368	41819.32
582.728	41817.52
583.089	41788.59
583.449	41812.32
583.809	41893.67
584.169	41914.24
584.529	41907.46
584.889	42142.71
585.249	41847.8
585.609	41898.19
585.969	41963.73
586.329	41932.99
586.688	42081.92
587.048	41914.01
587.408	42056.83
587.768	41985.2
588.127	42039.21
588.487	41943.16
588.846	42360.1
589.206	42029.26
589.565	42029.04
589.925	42286.43
590.284	42023.61
590.643	42257.73
591.003	42356.49
591.362	42391.51
591.721	42394.22
592.08	42343.38
592.44	42342.7
592.799	42511.96
593.158	42258.41
593.517	42305.19
593.876	42448.69
594.235	42364.39
594.593	42462.92
594.952	42511.51
595.311	42405.75
595.67	42535.46
596.029	42626.31
596.387	42766.19
596.746	42725.52
597.104	42595.12
597.463	42549.47
597.822	42918.73
598.18	42752.18
598.538	42632.18
598.897	42897.04
599.255	42567.55
599.613	43292.96
599.972	42965.28
600.33	43017.26
600.688	42814.1
601.046	43128.44
601.404	43167.31
601.762	43104.94
602.12	43225.39
602.478	43334.54
602.836	43314.2
603.194	43145.84
603.552	43212.73
603.91	43148.78
604.268	43345.16
604.625	43323.01
604.983	43339.51
605.341	43213.19
605.698	43524.59
606.056	43661.99
606.413	43547.41
606.771	43598.49
607.128	43671.93
607.485	43544.25
607.843	43609.79
608.2	43698.37
608.557	44038.47
608.914	43784.7
609.272	44004.8
609.629	44109.43
609.986	44096.33
610.343	43982.21
610.7	44252.03
611.057	44132.26
611.414	44132.03
611.771	44310.78
612.127	44540.83
612.484	44461.29
612.841	44553.94
613.198	44236.21
613.554	44459.03
613.911	44696.99
614.267	44686.14
614.624	44706.93
614.98	44795.29
615.337	44895.18
615.693	44820.15
616.05	44758.91
616.406	44943.76
616.762	44710.32
617.118	44836.87
617.475	44900.6
617.831	44910.32
618.187	44987.83
618.543	45044.1
618.899	45262.85
619.255	45164.77
619.611	45208.84
619.967	45228.27
620.323	45457.19
620.678	45177.65
621.034	45114.83
621.39	45172.23
621.746	45128.16
622.101	45602.28
622.457	45234.83
622.812	45297.2
623.168	45299.91
623.523	45381.72
623.879	45527.7
624.234	45128.16
624.589	45347.14
624.945	45482.96
625.3	45414.26
625.655	45176.52
626.01	45435.73
626.365	45395.28
626.72	45412.22
627.075	45325.67
627.43	45319.35
627.785	45249.74
628.14	45282.96
628.495	45415.39
628.85	45298.78
629.205	45271.89
629.559	45423.75
629.914	45277.76
630.269	45145.34
630.623	45051.56
630.978	44942.18
631.332	45033.93
631.687	45256.3
632.041	44959.81
632.396	45031.44
632.75	44903.31
633.104	44964.33
633.459	44787.83
633.813	44725.91
634.167	44722.52
634.521	44811.34
634.875	44777.44
635.229	44773.14
635.583	44505.81
635.937	44440.72
636.291	44452.02
636.645	44494.96
636.999	44270.33
637.352	44484.56
637.706	44179.94
638.06	44390.78
638.413	44320.5
638.767	44158.7
639.121	44131.13
639.474	43852.04
639.828	43979.49
640.181	44014.52
640.534	44076.21
640.888	43874.19
641.241	43654.08
641.594	43755.54
641.947	43875.99
642.301	43762.55
642.654	43727.75
643.007	43791.02
643.36	43645.49
643.713	43567.3
644.066	43798.03
644.419	43363.01
644.771	43076.92
645.124	42790.82
645.477	42661.11
645.83	42397.84
646.182	42174.8
646.535	42074.46
646.888	42286.66
647.24	42060.67
647.593	42354
647.945	42304.06
648.298	42004.86
648.65	41970.96
649.002	41808.03
649.355	42058.41
649.707	41839.89
650.059	42137.28
650.411	42371.17
650.763	42480.32
651.115	42828.79
651.467	42622.69
651.819	42807.77
652.171	42517.84
652.523	42582.92
652.875	42476.93
653.227	42312.64
653.578	42460.66
653.93	42480.32
654.282	42437.84
654.633	42258.86
654.985	42267.67
655.337	42289.82
655.688	42358.52
656.039	42465.63
656.391	42024.52
656.742	42136.15
657.094	42167.79
657.445	42246.21
657.796	42062.03
658.147	42086.66
658.498	41899.55
658.849	41965.53
659.2	41893.45
659.551	41808.03
659.902	42063.61
660.253	41923.05
660.604	41906.78
660.955	41674.02
661.306	41945.87
661.656	41758.76
662.007	41841.7
662.358	41833.34
662.708	41775.48
663.059	41776.84
663.409	41574.36
663.76	41678.08
664.11	41776.61
664.461	41668.14
664.811	41725.09
665.161	41705.43
665.511	41485.1
665.862	41615.49
666.212	41731.42
666.562	41803.05
666.912	41670.63
667.262	41564.42
667.612	41487.36
667.962	41580.69
668.312	41617.75
668.662	41568.71
669.011	41561.25
669.361	41540.01
669.711	41524.87
670.06	41258.21
670.41	41205.78
670.76	41205.55
671.109	41263.63
671.459	41318.09
671.808	41211.43
672.157	41227.7
672.507	41022.73
672.856	41101.15
673.205	41031.77
673.554	41257.08
673.904	41060.47
674.253	41284.65
674.602	41002.4
674.951	40501.39
675.3	40434.5
675.649	41095.05
675.998	40865.9
676.346	40861.84
676.695	41109.51
677.044	40752.46
677.393	40779.13
677.741	40917.2
678.09	40722.86
678.438	40619.81
678.787	40794.04
679.135	40730.09
679.484	40671.11
679.832	40792.91
680.181	40452.58
680.529	40550.88
680.877	40354.5
681.225	40355.41
681.573	40454.61
681.922	40159.25
682.27	40047.62
682.618	40243.55
682.966	40012.59
683.314	40181.18
683.661	40005.13
684.009	39790
684.357	39699.38
684.705	39762.2
685.053	39674.97
685.4	39682.43
685.748	39626.84
686.095	39563.11
686.443	39380.07
686.79	39175.55
687.138	39300.52
687.485	39217.36
687.832	39252.39
688.18	39273.18
688.527	39103.24
688.874	38870.02
689.221	38725.85
689.568	38583.03
689.915	38617.83
690.262	38562.23
690.609	38609.01
690.956	38463.93
691.303	38410.15
691.65	38177.84
691.997	38281.56
692.344	37970.39
692.69	38160.21
693.037	37940.56
693.383	37851.97
693.73	37886.32
694.077	37705.76
694.423	37557.74
694.769	37640.22
695.116	37462.15
695.462	37294.02
695.808	37277.07
696.155	37205.21
696.501	37008.38
696.847	36943.29
697.193	36740.81
697.539	36923.41
697.885	36652.23
698.231	36566.13
698.577	36672.79
698.923	36553.02
699.269	36400.03
699.614	36047.27
699.96	35963.43
700.306	36061.96
700.651	35965.47
700.997	35821.52
701.342	35787.17
701.688	35735.87
702.033	35575.19
702.379	35446.16
702.724	35435.09
703.069	35545.14
703.415	35143.79
703.76	35171.36
704.105	35062.21
704.45	35049.33
704.795	34821.09
705.14	34635.56
705.485	34601.21
705.83	34455.9
706.175	34654.31
706.52	34504.71
706.865	34285.06
707.209	34175.01
707.554	34325.74
707.899	34339.52
708.243	34113.09
708.588	34179.07
708.932	33785.86
709.277	33767.78
709.621	33760.55
709.966	33603.04
710.31	33710.61
710.654	33481.46
710.998	33457.74
711.342	33620.22
711.687	33457.06
712.031	33173
712.375	33179.33
712.719	33235.82
713.063	33151.08
713.407	33226.33
713.75	32994.25
714.094	33031.76
714.438	32802.84
714.782	32899.78
715.125	32719.68
715.469	32943.63
715.812	32635.16
716.156	32495.73
716.499	32476.07
716.843	32414.6
717.186	32271.78
717.53	32376.86
717.873	32304.09
718.216	32180.71
718.559	32118.34
718.902	31779.59
719.246	32047.6
719.589	31933.26
719.932	31787.95
720.275	31651
720.617	31724.22
720.96	31596.54
721.303	31703.43
721.646	31573.94
721.989	31436.55
722.331	31502.08
722.674	31244.23
723.016	31428.18
723.359	31255.99
723.701	31350.45
724.044	30989.33
724.386	30937.58
724.729	31154.75
725.071	30963.11
725.413	30960.85
725.755	30998.82
726.097	30816.45
726.439	30661.65
726.782	30595.66
727.124	30789.11
727.465	30594.76
727.807	30720.41
728.149	30430.25
728.491	30413.07
728.833	30521.32
729.175	30357.93
729.516	30251.49
729.858	30271.61
730.199	30282
730.541	30132.85
730.882	30158.16
731.224	30322.9
731.565	30103.7
731.906	30066.86
732.248	29968.11
732.589	29758.85
732.93	29747.33
733.271	29856.93
733.612	29848.57
733.953	29859.64
734.294	29723.15
734.635	29695.35
734.976	29790.94
735.317	29477.73
735.658	29540.55
735.999	29456.49
736.339	29439.54
736.68	29630.04
737.021	29408.8
737.361	29228.92
737.702	29340.33
738.042	29323.83
738.383	29113.9
738.723	29285.42
739.063	29100.56
739.404	29127.91
739.744	29098.98
740.084	28826.9
740.424	28905.54
740.764	28848.14
741.104	29072.99
741.444	28776.96
741.784	28858.08
742.124	28668.71
742.464	28715.71
742.804	28741.02
743.143	28569.5
743.483	28648.82
743.823	28441.14
744.162	28408.38
744.502	28368.83
744.841	28317.53
745.181	28433.69
745.52	28281.83
745.86	28184.88
746.199	28197.08
746.538	28203.64
746.877	28016.52
747.216	27957.54
747.556	27978.33
747.895	27999.35
748.234	27840.71
748.573	27864.89
748.911	27770.43
749.25	27888.17
749.589	27697.66
749.928	27636.65
750.267	27625.57
750.605	27587.83
750.944	27511.68
751.283	27362.3
751.621	27482.07
751.96	27274.17
752.298	27261.06
752.636	27231.46
752.975	27101.52
753.313	26928.87
753.651	27082.54
753.989	27023.55
754.327	26866.05
754.666	26856.78
755.004	26885.93
755.342	26769.1
755.679	26695.65
756.017	26632.6
756.355	26646.39
756.693	26440.97
757.031	26624.92
757.368	26403.91
757.706	26419.28
758.044	26346.96
758.381	26301.09
758.719	26130.25
759.056	26175.22
759.394	26135.22
759.731	25943.81
760.068	25900.19
760.405	25884.6
760.743	25744.94
761.08	25874.88
761.417	25610.94
761.754	25584.5
762.091	25446.87
762.428	25377.27
762.765	25274.67
763.102	25348.34
763.438	25273.32
763.775	25113.32
764.112	25122.36
764.449	25074.23
764.785	24883.72
765.122	24738.42
765.458	24657.52
765.795	24599.44
766.131	24503.17
766.467	24418.88
766.804	24291.88
767.14	24189.96
767.476	24183.18
767.812	24075.61
768.148	24195.61
768.485	24039.68
768.821	23839.68
769.157	23814.15
769.492	23732.79
769.828	23718.78
770.164	23466.36
770.5	23466.13
770.836	23394.72
771.171	23280.83
771.507	23223.88
771.842	23117.89
772.178	23211.23
772.513	23008.52
772.849	22935.98
773.184	22900.73
773.519	22816.43
773.855	22664.35
774.19	22537.12
774.525	22462.77
774.86	22415.54
775.195	22377.12
775.53	22290.35
775.865	22230.23
776.2	22001.31
776.535	21954.31
776.87	21985.04
777.205	21831.6
777.539	21748.89
777.874	21712.96
778.209	21607.2
778.543	21541.44
778.878	21362.23
779.212	21428
779.547	21280.88
779.881	21311.39
780.215	21149.13
780.55	21120.43
780.884	20988.91
781.218	20994.79
781.552	20985.97
781.886	20871.63
782.22	20743.27
782.554	20581.69
782.888	20511.41
783.222	20450.17
783.556	20431.86
783.889	20334.69
784.223	20081.59
784.557	20053.57
784.89	20114.13
785.224	19960.24
785.557	19829.39
785.891	19875.27
786.224	19826.91
786.558	19805.44
786.891	19669.85
787.224	19677.99
787.557	19620.81
787.891	19662.39
788.224	19465.11
788.557	19365.23
788.89	19336.3
789.223	19325.9
789.556	19169.07
789.888	19160.03
790.221	19049.98
790.554	18891.57
790.887	18939.02
791.219	18847.95
791.552	18849.53
791.884	18766.14
792.217	18621.52
792.549	18577
792.882	18533.83
793.214	18358.25
793.546	18364.8
793.879	18197.57
794.211	18171.58
794.543	18254.75
794.875	18154.86
795.207	18168.87
795.539	17945.38
795.871	18014.75
796.203	17882.78
796.535	17706.29
796.867	17764.59
797.198	17694.53
797.53	17676.68
797.862	17603.24
798.193	17596.91
798.525	17465.39
798.856	17504.71
799.188	17285.73
799.519	17327.99
799.85	17200.54
800.182	17228.56
800.513	17179.07
800.844	16958.96
801.175	17097.04
801.506	17071.27
801.837	16923.71
802.168	16916.48
802.499	16919.41
802.83	16832.41
803.161	16715.58
803.491	16654.11
803.822	16728.68
804.153	16606.43
804.483	16444.62
804.814	16392.2
805.145	16371.18
805.475	16344.97
805.805	16318.07
806.136	16382.03
806.466	16324.85
806.796	16262.71
807.126	16079.21
807.457	16113.33
807.787	16073.11
808.117	15960.57
808.447	15898.88
808.777	15972.32
809.107	15941.81
809.436	15774.36
809.766	15766
810.096	15687.36
810.426	15645.1
810.755	15590.64
811.085	15608.94
811.414	15544.31
811.744	15424.09
812.073	15345.9
812.403	15352.68
812.732	15232.45
813.061	15266.12
813.39	15159.01
813.719	15225.67
814.049	15272.23
814.378	15210.08
814.707	15075.85
815.036	15092.34
815.365	14964.44
815.693	14892.12
816.022	14945.23
816.351	14927.83
816.68	14804.44
817.008	14850.09
817.337	14793.82
817.665	14637.89
817.994	14693.03
818.322	14662.52
818.651	14597.22
818.979	14614.16
819.307	14629.76
819.636	14519.93
819.964	14381.18
820.292	14436.99
820.62	14472.7
820.948	14322.87
821.276	14391.34
821.604	14424.56
821.932	14428.41
822.259	14445.81
822.587	14381.4
822.915	14274.74
823.243	14523.77
823.57	14446.71
823.898	14328.3
824.225	14253.5
824.553	14327.17
824.88	14295.98
825.207	14405.81
825.535	14287.39
825.862	14290.78
826.189	14263.44
826.516	14411.68
826.843	14500.95
827.17	14424.34
827.497	14469.99
827.824	14283.33
828.151	14388.41
828.478	14286.26
828.805	14423.43
829.131	14290.56
829.458	14281.97
829.785	14255.76
830.111	14252.82
830.438	14380.05
830.764	14342.53
831.09	14300.95
831.417	14205.36
831.743	14286.94
832.069	14291.91
832.395	14208.52
832.722	14296.21
833.048	14131.46
833.374	14113.16
833.7	14083.78
834.026	14107.74
834.351	14151.58
834.677	14113.61
835.003	14074.06
835.329	14134.18
835.654	14113.39
835.98	14055.76
836.306	14038.81
836.631	13879.72
836.956	14072.03
837.282	14032.48
837.607	13939.61
837.932	13964.46
838.258	13856.67
838.583	13779.84
838.908	13815.31
839.233	13784.13
839.558	13768.76
839.883	13712.94
840.208	13758.82
840.533	13771.47
840.858	13716.79
841.182	13740.51
841.507	13702.78
841.832	13643.57
842.156	13621.2
842.481	13645.6
842.805	13591.37
843.13	13470.69
843.454	13544.14
843.778	13425.27
844.103	13411.71
844.427	13321.32
844.751	13391.15
845.075	13401.77
845.399	13336.68
845.723	13254.65
846.047	13285.16
846.371	13062.11
846.695	13067.09
847.019	13003.81
847.343	12849.46
847.666	12869.8
847.99	12760.2
848.313	12794.55
848.637	12675.46
848.96	12677.27
849.284	12699.41
849.607	12668.45
849.931	12574.9
850.254	12477.95
850.577	12431.62
850.9	12359.76
851.223	12385.52
851.546	12290.38
851.869	12208.8
852.192	12275.92
852.515	12102.82
852.838	11974.01
853.161	12014.23
853.483	12039.32
853.806	11953.22
854.129	11956.61
854.451	11989.15
854.774	11858.08
855.096	11778.31
855.419	11767.68
855.741	11733.56
856.063	11683.17
856.385	11744.18
856.708	11650.17
857.03	11586.9
857.352	11527.47
857.674	11491.76
857.996	11541.48
858.318	11435.04
858.64	11393.01
858.961	11339.45
859.283	11287.7
859.605	11345.78
859.926	11301.26
860.248	11326.34
860.57	11238.43
860.891	11180.36
861.212	11120.47
861.534	11119.34
861.855	11107.36
862.176	11147.14
862.498	11106.23
862.819	11066.23
863.14	11037.76
863.461	11048.83
863.782	10984.88
864.103	10886.58
864.424	10889.97
864.745	10934.71
865.065	10864.21
865.386	10853.36
865.707	10847.03
866.027	10868.95
866.348	10879.35
866.668	10893.58
866.989	10809.52
867.309	10716.41
867.63	10669.86
867.95	10691.1
868.27	10576.3
868.59	10667.6
868.91	10624.66
869.23	10681.84
869.55	10689.52
869.87	10671.89
870.19	10598.68
870.51	10586.02
870.83	10591.9
871.15	10535.17
871.469	10541.5
871.789	10554.84
872.109	10453.82
872.428	10443.65
872.748	10391.22
873.067	10393.26
873.386	10475.52
873.706	10427.83
874.025	10362.98
874.344	10381.96
874.663	10361.85
874.982	10289.98
875.301	10328.4
875.62	10279.14
875.939	10220.83
876.258	10234.62
876.577	10188.97
876.896	10169.53
877.214	10136.77
877.533	10151.68
877.852	10131.8
878.17	10136.54
878.489	10143.32
878.807	10102.42
879.125	10127.28
879.444	10078.24
879.762	10123.21
880.08	10038.69
880.398	10028.07
880.716	10019.71
881.034	9983.1
881.352	10035.08
881.67	9932.93
881.988	9967.05
882.306	9882.99
882.624	9891.8
882.941	9891.8
883.259	9808.87
883.577	9820.17
883.894	9752.82
884.212	9775.87
884.529	9736.55
884.846	9718.93
885.164	9733.84
885.481	9672.37
885.798	9632.37
886.115	9584.24
886.432	9628.76
886.75	9508.08
887.067	9562.77
887.383	9540.62
887.7	9547.4
888.017	9511.25
888.334	9489.33
888.651	9427.63
888.967	9406.17
889.284	9399.39
889.6	9388.76
889.917	9316.68
890.233	9258.6
890.55	9244.81
890.866	9302.67
891.182	9217.47
891.498	9213.85
891.815	9204.36
892.131	9099.51
892.447	9085.95
892.763	9048.66
893.079	9072.84
893.395	8988.1
893.71	9000.53
894.026	8999.4
894.342	8982.9
894.657	8937.7
894.973	8886.63
895.289	8948.78
895.604	8892.96
895.92	8754.43
896.235	8782.68
896.55	8726.18
896.865	8676.01
897.181	8649.12
897.496	8594.44
897.811	8627.65
898.126	8539.07
898.441	8551.95
898.756	8579.97
899.071	8509.69
899.386	8535
899.7	8481.9
900.015	8405.29
900.33	8393.76
900.644	8411.39
900.959	8376.59
901.273	8316.93
901.588	8291.84
901.902	8236.48
902.216	8228.34
902.531	8164.84
902.845	8188.57
903.159	8117.16
903.473	8047.78
903.787	8001.91
904.101	7903.83
904.415	7981.57
904.729	7979.54
905.042	7885.3
905.356	7954.68
905.67	7897.05
905.984	7880.1
906.297	7830.16
906.611	7765.3
906.924	7779.77
907.237	7732.54
907.551	7716.94
907.864	7646.21
908.177	7736.38
908.491	7650.28
908.804	7673.1
909.117	7507.68
909.43	7545.2
909.743	7497.74
910.056	7519.89
910.368	7458.42
910.681	7400.12
910.994	7385.65
911.307	7319.89
911.619	7314.02
911.932	7347.24
912.244	7238.99
912.557	7247.58
912.869	7169.39
913.181	7178.88
913.494	7168.94
913.806	7100.91
914.118	7104.53
914.43	7056.17
914.742	6984.99
915.054	6967.36
915.366	6918.55
915.678	6903.63
915.99	6880.36
916.302	6831.32
916.613	6838.32
916.925	6833.35
917.236	6827.02
917.548	6772.79
917.859	6797.65
918.171	6652.79
918.482	6654.15
918.794	6621.83
919.105	6648.5
919.416	6629.97
919.727	6560.59
920.038	6517.43
920.349	6504.32
920.66	6482.4
920.971	6469.29
921.282	6430.42
921.593	6393.36
921.903	6332.35
922.214	6335.51
922.525	6344.32
922.835	6325.12
923.146	6254.38
923.456	6252.35
923.767	6221.84
924.077	6226.14
924.387	6194.72
924.697	6102.52
925.008	6121.28
925.318	6037.67
925.628	6045.12
925.938	6020.04
926.248	5942.3
926.558	5929.65
926.867	5942.08
927.177	5919.03
927.487	5912.25
927.796	5842.42
928.106	5831.12
928.416	5776.2
928.725	5805.58
929.034	5764
929.344	5747.05
929.653	5729.65
929.962	5616.89
930.271	5661.63
930.581	5612.37
930.89	5593.38
931.199	5603.78
931.508	5582.31
931.817	5555.64
932.125	5562.65
932.434	5563.78
932.743	5483.78
933.051	5463.9
933.36	5435.65
933.669	5424.35
933.977	5380.51
934.286	5384.12
934.594	5316.33
934.902	5339.38
935.21	5291.7
935.519	5252.15
935.827	5267.52
936.135	5212.83
936.443	5175.99
936.751	5204.24
937.059	5152.04
937.367	5141.42
937.674	5122.21
937.982	5138.48
938.29	5088.99
938.597	5096.67
938.905	5059.84
939.213	5031.82
939.52	4991.59
939.827	4979.16
940.135	4974.64
940.442	4910.01
940.749	4907.75
941.056	4910.24
941.363	4857.81
941.67	4818.04
941.977	4799.28
942.284	4832.05
942.591	4812.61
942.898	4747.3
943.205	4736.01
943.511	4726.74
943.818	4722.45
944.125	4663.69
944.431	4597.7
944.738	4627.31
945.044	4652.17
945.35	4640.19
945.657	4613.3
945.963	4537.59
946.269	4547.08
946.575	4573.3
946.881	4485.62
947.187	4464.37
947.493	4444.26
947.799	4471.15
948.105	4397.03
948.41	4394.32
948.716	4376.24
949.022	4369.69
949.327	4326.3
949.633	4333.98
949.938	4330.59
950.244	4336.69
950.549	4275.23
950.854	4279.75
951.16	4276.36
951.465	4267.77
951.77	4214.89
952.075	4183.03
952.38	4186.64
952.685	4155.23
952.99	4137.38
953.294	4098.73
953.599	4102.12
953.904	4072.75
954.209	4028.68
954.513	4032.52
954.818	3981
955.122	4006.53
955.426	3983.26
955.731	3960.88
956.035	3912.98
956.339	3922.02
956.643	3937.38
956.948	3933.54
957.252	3853.09
957.556	3886.76
957.86	3826.65
958.163	3797.27
958.467	3827.1
958.771	3739.87
959.075	3755.24
959.378	3750.04
959.682	3765.86
959.985	3745.75
960.289	3727.67
960.592	3665.07
960.896	3663.72
961.199	3695.35
961.502	3651.51
961.805	3630.27
962.108	3606.77
962.411	3597.05
962.714	3559.31
963.017	3575.81
963.32	3591.4
963.623	3486.77
963.926	3530.16
964.228	3517.28
964.531	3461.46
964.833	3519.31
965.136	3473.89
965.438	3464.4
965.741	3468.47
966.043	3417.17
966.345	3403.16
966.648	3413.33
966.95	3379.66
967.252	3397.51
967.554	3382.37
967.856	3343.5
968.158	3337.85
968.46	3312.99
968.761	3268.25
969.063	3273.9
969.365	3252.88
969.666	3238.64
969.968	3206.1
970.269	3238.19
970.571	3181.92
970.872	3223.5
971.174	3189.15
971.475	3162.94
971.776	3161.13
972.077	3155.93
972.378	3127.01
972.679	3126.1
972.98	3104.41
973.281	3081.13
973.582	3073
973.883	3031.19
974.183	3056.95
974.484	3044.07
974.785	3022.83
975.085	2997.75
975.386	3007.24
975.686	2975.6
975.986	2963.17
976.287	2968.82
976.587	2930.63
976.887	2912.78
977.187	2920.46
977.487	2891.53
977.787	2911.42
978.087	2853.34
978.387	2860.57
978.687	2842.27
978.987	2825.55
979.286	2762.27
979.586	2797.75
979.885	2796.62
980.185	2772.22
980.484	2808.15
980.784	2786.23
981.083	2751.2
981.382	2727.47
981.682	2742.61
981.981	2724.31
982.28	2703.52
982.579	2694.93
982.878	2668.49
983.177	2635.72
983.475	2657.87
983.774	2634.14
984.073	2655.61
984.372	2621.94
984.67	2598.21
984.969	2616.29
985.267	2579
985.566	2597.3
985.864	2568.38
986.162	2522.73
986.461	2508.95
986.759	2522.05
987.057	2515.27
987.355	2489.06
987.653	2514.14
987.951	2490.64
988.249	2509.17
988.547	2482.51
988.844	2464.2
989.142	2431.89
989.44	2436.86
989.737	2406.35
990.035	2439.79
990.332	2402.28
990.63	2402.28
990.927	2378.1
991.224	2376.29
991.521	2348.5
991.819	2333.58
992.116	2347.59
992.413	2296.97
992.71	2299.46
993.006	2309.4
993.303	2305.33
993.6	2294.94
993.897	2241.83
994.193	2265.56
994.49	2223.98
994.787	2187.37
995.083	2195.28
995.379	2229.86
995.676	2188.5
995.972	2196.19
996.268	2206.13
996.565	2174.26
996.861	2177.88
997.157	2160.03
997.453	2147.15
997.749	2127.26
998.044	2142.85
998.34	2106.02
998.636	2104.21
998.932	2081.84
999.227	2076.19
999.523	2077.09
999.818	2083.87
1000.114	2020.82
1000.409	2035.96
1000.704	2006.36
1001	1985.12
1001.295	2002.52
1001.59	2008.39
1001.885	1972.91
1002.18	1945.57
1002.475	1962.07
1002.77	1950.54
1003.065	1920.26
1003.359	1955.97
1003.654	1926.81
1003.949	1892.01
1004.243	1920.49
1004.538	1887.04
1004.832	1888.4
1005.127	1877.55
1005.421	1855.4
1005.715	1835.97
1006.009	1879.81
1006.304	1807.72
1006.598	1811.79
1006.892	1803.88
1007.186	1781.05
1007.48	1745.58
1007.773	1763.65
1008.067	1774.28
1008.361	1724.79
1008.655	1750.55
1008.948	1740.83
1009.242	1731.79
1009.535	1694.96
1009.829	1729.98
1010.122	1696.54
1010.415	1708.74
1010.708	1692.02
1011.001	1663.77
1011.295	1661.06
1011.588	1646.14
1011.881	1635.75
1012.173	1643.88
1012.466	1610.44
1012.759	1613.83
1013.052	1601.62
1013.344	1610.89
1013.637	1582.42
1013.93	1581.29
1014.222	1568.41
1014.514	1581.06
1014.807	1546.26
1015.099	1553.49
1015.391	1550.33
1015.683	1523.89
1015.976	1521.4
1016.268	1515.53
1016.56	1494.28
1016.851	1515.3
1017.143	1496.99
1017.435	1452.48
1017.727	1457
1018.018	1457
1018.31	1451.35
1018.602	1420.16
1018.893	1436.88
1019.185	1431.69
1019.476	1395.08
1019.767	1396.21
1020.058	1409.09
1020.35	1356.89
1020.641	1360.05
1020.932	1361.86
1021.223	1369.77
1021.514	1340.61
1021.804	1333.38
1022.095	1321.86
1022.386	1288.64
1022.677	1307.62
1022.967	1284.34
1023.258	1310.56
1023.548	1285.02
1023.839	1262.2
1024.129	1259.26
1024.419	1272.59
1024.709	1226.04
1025	1236.89
1025.29	1258.13
1025.58	1246.38
1025.87	1207.06
1026.16	1198.25
1026.449	1201.41
1026.739	1190.34
1027.029	1180.17
1027.319	1207.06
1027.608	1154.63
1027.898	1161.18
1028.187	1186.49
1028.477	1149.89
1028.766	1139.49
1029.055	1123.67
1029.344	1124.12
1029.634	1129.77
1029.923	1110.56
1030.212	1092.03
1030.501	1116.67
1030.79	1083.67
1031.078	1087.97
1031.367	1061.98
1031.656	1082.99
1031.945	1055.88
1032.233	1067.63
1032.522	1055.65
1032.81	1045.71
1033.099	1052.71
1033.387	1012.04
1033.675	1039.83
1033.963	1039.61
1034.251	1000.74
1034.54	1001.41
1034.828	1005.03
1035.116	968.65
1035.403	960.06
1035.691	983.56
1035.979	963.45
1036.267	984.01
1036.554	929.78
1036.842	987.18
1037.129	941.3
1037.417	918.93
1037.704	949.66
1037.992	931.81
1038.279	910.8
1038.566	932.72
1038.853	932.72
1039.14	932.72
