Data from plate_ceramic_FLMS001491_005.txt Node
Date: Tue Feb 07 11:16:14 GMT 2017
User: dcchb
Spectrometer: FLMS00149
Trigger mode: 0
Integration Time (sec): 2.000000E-2
Scans to average: 10
Electric dark correction enabled: true
Nonlinearity correction enabled: false
Boxcar width: 0
XAxis mode: Wavelengths
Number of Pixels in Spectrum: 2048
>>>>>Begin Spectral Data<<<<<
341.393	-32.73
341.776	-32.73
342.16	-32.73
342.543	-58.04
342.927	-72.27
343.31	-77.92
343.693	-70.69
344.077	-58.26
344.46	-63.91
344.843	-53.52
345.226	-32.05
345.61	-32.95
345.993	-27.3
346.376	-18.94
346.759	19.02
347.142	27.84
347.525	60.38
347.908	59.02
348.291	83.88
348.674	87.5
349.057	97.89
349.44	125.91
349.823	150.55
350.206	166.37
350.588	216.53
350.971	223.54
351.354	233.93
351.737	255.85
352.119	265.12
352.502	283.65
352.884	303.54
353.267	289.07
353.65	297.66
354.032	306.02
354.414	339.69
354.797	313.93
355.179	317.1
355.562	335.17
355.944	339.02
356.326	350.77
356.709	359.13
357.091	359.13
357.473	355.06
357.855	361.39
358.238	353.03
358.62	360.71
359.002	365.23
359.384	371.11
359.766	377.89
360.148	371.78
360.53	347.38
360.912	357.77
361.294	357.1
361.676	365.46
362.057	365
362.439	359.81
362.821	352.35
363.203	351.9
363.584	334.5
363.966	357.77
364.348	363.42
364.729	341.73
365.111	361.39
365.493	348.51
365.874	356.19
366.256	341.05
366.637	355.74
367.019	370.65
367.4	351.22
367.781	353.71
368.163	344.21
368.544	349.86
368.925	330.88
369.306	367.94
369.688	361.16
370.069	372.24
370.45	356.42
370.831	376.76
371.212	364.1
371.593	360.48
371.974	362.74
372.355	387.15
372.736	360.71
373.117	377.66
373.498	364.1
373.879	360.48
374.26	359.13
374.641	380.82
375.021	367.26
375.402	384.89
375.783	381.05
376.163	400.48
376.544	405
376.925	375.85
377.305	385.57
377.686	400.48
378.066	385.34
378.447	409.98
378.827	391.44
379.208	395.96
379.588	412.01
379.968	418.79
380.349	421.5
380.729	408.85
381.109	419.01
381.489	412.46
381.87	409.75
382.25	415.85
382.63	449.07
383.01	435.51
383.39	425.57
383.77	444.1
384.15	466.92
384.53	447.94
384.91	450.65
385.29	461.5
385.67	451.33
386.049	453.14
386.429	450.43
386.809	460.82
387.189	458.11
387.568	470.54
387.948	476.87
388.328	492.68
388.707	496.75
389.087	506.02
389.466	493.14
389.846	509.18
390.225	520.03
390.605	507.37
390.984	487.04
391.363	517.77
391.743	512.57
392.122	535.85
392.501	532.01
392.881	546.92
393.26	541.95
393.639	556.19
394.018	570.42
394.397	564.1
394.776	566.36
395.155	583.3
395.534	556.19
395.913	572.68
396.292	598.44
396.671	594.38
397.05	600.03
397.429	626.92
397.808	620.82
398.186	642.74
398.565	628.5
398.944	645.45
399.323	635.28
399.701	632.12
400.08	650.42
400.458	669.63
400.837	649.97
401.215	656.97
401.594	644.09
401.972	677.09
402.351	703.53
402.729	708.5
403.107	697.43
403.486	702.85
403.864	690.19
404.242	708.05
404.62	734.94
404.999	707.37
405.377	740.81
405.755	735.62
406.133	763.41
406.511	774.71
406.889	751.21
407.267	789.63
407.645	778.78
408.023	799.34
408.401	818.33
408.779	830.08
409.156	847.48
409.534	817.65
409.912	847.93
410.29	887.93
410.667	899.68
411.045	895.84
411.422	897.42
411.8	913.01
412.178	936.06
412.555	942.84
412.933	944.88
413.31	959.34
413.687	991.2
414.065	977.19
414.442	994.14
414.819	1011.77
415.197	1016.51
415.574	1049.73
415.951	1034.37
416.328	1053.57
416.705	1049.51
417.082	1083.4
417.46	1073.91
417.837	1103.74
418.214	1100.13
418.591	1128.15
418.967	1132.22
419.344	1155.94
419.721	1178.99
420.098	1155.72
420.475	1171.76
420.852	1179.67
421.228	1191.88
421.605	1218.09
421.982	1239.11
422.358	1257.86
422.735	1269.84
423.111	1231.2
423.488	1302.38
423.864	1292.89
424.241	1299.22
424.617	1320.46
424.994	1339.22
425.37	1327.47
425.746	1357.07
426.123	1368.82
426.499	1389.16
426.875	1433.9
427.251	1444.75
427.627	1463.05
428.003	1480.23
428.379	1501.25
428.756	1517.97
429.132	1531.3
429.507	1543.73
429.883	1543.05
430.259	1581.02
430.635	1597.51
431.011	1636.61
431.387	1660.11
431.763	1678.64
432.138	1673.9
432.514	1740.11
432.89	1708.25
433.265	1752.31
433.641	1757.74
434.016	1810.39
434.392	1868.92
434.767	1890.61
435.143	1844.29
435.518	1888.13
435.894	1898.75
436.269	1942.14
436.644	1964.06
437.02	1969.26
437.395	1985.3
437.77	2013.32
438.145	2059.65
438.52	2058.52
438.895	2068.01
439.271	2052.19
439.646	2157.05
440.021	2159.99
440.395	2149.59
440.77	2152.98
441.145	2185.3
441.52	2202.92
441.895	2244.28
442.27	2224.39
442.645	2279.98
443.019	2296.25
443.394	2306.65
443.769	2322.69
444.143	2326.08
444.518	2363.82
444.892	2355.91
445.267	2371.28
445.641	2405.85
446.016	2409.7
446.39	2433.2
446.764	2457.6
447.139	2453.09
447.513	2471.84
447.887	2520.88
448.262	2495.34
448.636	2512.97
449.01	2575.57
449.384	2619.86
449.758	2605.4
450.132	2613.53
450.506	2637.26
450.88	2663.02
451.254	2647.88
451.628	2717.03
452.002	2757.03
452.376	2786.64
452.75	2815.79
453.123	2876.35
453.497	2911.38
453.871	2879.29
454.244	2977.37
454.618	2968.33
454.992	3065.72
455.365	3014.88
455.739	3108.66
456.112	3112.05
456.486	3160.19
456.859	3196.57
457.232	3267.98
457.606	3281.76
457.979	3338.26
458.352	3368.77
458.725	3387.52
459.099	3420.52
459.472	3503.45
459.845	3553.4
460.218	3585.26
460.591	3596.11
460.964	3701.19
461.337	3725.37
461.71	3770.56
462.083	3856.66
462.456	3850.79
462.829	3859.15
463.201	3942.99
463.574	3926.49
463.947	3983.67
464.32	4111.57
464.692	4131.46
465.065	4168.97
465.438	4220.72
465.81	4252.81
466.183	4323.09
466.555	4421.85
466.928	4495.07
467.3	4456.2
467.672	4545.69
468.045	4632.01
468.417	4686.47
468.789	4688.51
469.161	4820.48
469.534	4876.98
469.906	4971.44
470.278	5041.94
470.65	5077.42
471.022	5188.83
471.394	5232.67
471.766	5308.83
472.138	5367.13
472.51	5475.83
472.882	5568.71
473.253	5668.37
473.625	5737.74
473.997	5837.63
474.369	5907.01
474.74	5977.51
475.112	6080.11
475.484	6149.49
475.855	6263.61
476.227	6303.38
476.598	6528.23
476.97	6601.22
477.341	6696.14
477.713	6808.9
478.084	6886.87
478.455	7026.07
478.827	7125.73
479.198	7396.23
479.569	7296.35
479.94	7547.19
480.311	7592.16
480.682	7800.29
481.053	7975.2
481.424	8144.91
481.795	8223.55
482.166	8318.24
482.537	8407.28
482.908	8636.2
483.279	8678.68
483.65	8905.12
484.021	9059.01
484.391	9175.17
484.762	9243.42
485.133	9261.04
485.503	9441.83
485.874	9668.26
486.244	9795.72
486.615	10028.93
486.985	10118.42
487.356	10321.8
487.726	10428.47
488.097	10587.79
488.467	10602.7
488.837	10868.68
489.207	11027.78
489.578	11153.87
489.948	11253.53
490.318	11383.47
490.688	11433.87
491.058	11665.95
491.428	11754.76
491.798	11987.52
492.168	12179.61
492.538	12221.19
492.908	12339.15
493.278	12521.52
493.648	12666.15
494.017	12720.84
494.387	12879.03
494.757	13011
495.126	13138.45
495.496	13163.76
495.866	13343.65
496.235	13486.69
496.605	13637.65
496.974	13607.59
497.344	13780.92
497.713	13854.59
498.082	14043.97
498.452	14109.28
498.821	14246
499.19	14263.17
499.559	14490.06
499.928	14586.55
500.298	14655.93
500.667	14797.17
501.036	14813.89
501.405	14929.37
501.774	15022.92
502.143	15176.59
502.512	15143.37
502.88	15411.84
503.249	15422.69
503.618	15618.84
503.987	15632.4
504.356	15769.57
504.724	15823.36
505.093	16017.47
505.462	16015.21
505.83	16201.88
506.199	16245.04
506.567	16575.88
506.936	16471.7
507.304	16792.14
507.672	16758.92
508.041	16856.55
508.409	16970.22
508.777	17171.12
509.145	17362.07
509.514	17343.54
509.882	17533.59
510.25	17522.29
510.618	17704.44
510.986	17756.86
511.354	18020.81
511.722	18084.76
512.09	18233.46
512.458	18285.66
512.826	18456.96
513.193	18621.25
513.561	18753
513.929	18941.47
514.297	19046.32
514.664	19188.69
515.032	19343.04
515.4	19540.32
515.767	19564.05
516.135	19715.23
516.502	19644.5
516.869	19979.4
517.237	20166.74
517.604	20116.8
517.972	20419.62
518.339	20465.49
518.706	20522.44
519.073	20734.64
519.44	20806.95
519.808	21058.92
520.175	21100.96
520.542	21439.7
520.909	21516.76
521.276	21521.96
521.643	21773.71
522.009	22023.19
522.376	22209.18
522.743	22295.73
523.11	22477.19
523.477	22790.63
523.843	22861.36
524.21	23158.76
524.577	23237.4
524.943	23354.68
525.31	23641.23
525.676	23787.67
526.043	23946.31
526.409	24047.09
526.776	24325.28
527.142	24408.67
527.508	24588.32
527.874	24847.52
528.241	24832.38
528.607	25038.25
528.973	25261.53
529.339	25194.86
529.705	25556.66
530.071	25896.76
530.437	25887.72
530.803	26172.69
531.169	26280.03
531.535	26219.47
531.901	26304.89
532.267	26511.66
532.632	26607.25
532.998	26779.9
533.364	26916.85
533.73	27148.71
534.095	27178.31
534.461	27442.71
534.826	27634.57
535.192	27635.25
535.557	27935.13
535.923	27901.23
536.288	28105.07
536.653	28185.52
537.019	28233.2
537.384	28369.24
537.749	28402.69
538.114	28494.21
538.479	28579.86
538.845	28733.52
539.21	28755.22
539.575	28988.43
539.94	28966.96
540.305	29270.69
540.67	29199.05
541.034	29310.68
541.399	29484.01
541.764	29595.87
542.129	29654.4
542.494	29700.05
542.858	29932.14
543.223	29973.27
543.587	30200.38
543.952	30182.07
544.316	30302.52
544.681	30275.18
545.045	30620.71
545.41	30703.87
545.774	30768.05
546.138	30822.73
546.503	30915.61
546.867	30894.82
547.231	31220.92
547.595	31327.81
547.959	31459.55
548.324	31496.16
548.688	31608.48
549.052	31668.81
549.416	31852.99
549.779	31828.13
550.143	31963.5
550.507	32248.01
550.871	32373.2
551.235	32207.56
551.599	32585.17
551.962	32509.24
552.326	32735
552.689	32854.32
553.053	32879.63
553.417	32922.79
553.78	33294.99
554.143	33205.72
554.507	33514.19
554.87	33561.65
555.234	33881.41
555.597	33686.61
555.96	33946.27
556.323	34102.42
556.686	34076.66
557.05	34604.56
557.413	34519.36
557.776	34565.24
558.139	34906.47
558.502	34978.78
558.865	35142.4
559.228	35320.92
559.59	35475.04
559.953	35561.37
560.316	35754.36
560.679	35901.02
561.041	36131.97
561.404	36176.27
561.767	36452.19
562.129	36334
562.492	36925.17
562.854	36852.63
563.217	37034.32
563.579	37184.6
563.941	37462.33
564.304	37466.85
564.666	37773.74
565.028	37769.9
565.39	37858.03
565.753	38172.82
566.115	38315.19
566.477	38412.14
566.839	38472.48
567.201	38746.82
567.563	38736.42
567.925	39074.95
568.287	39115.62
568.648	39187.71
569.01	39269.52
569.372	39584.54
569.734	39523.52
570.095	39854.14
570.457	39919.67
570.819	40092.32
571.18	40130.51
571.542	40425.87
571.903	40400.11
572.265	40571.86
572.626	40617.28
572.987	40807.1
573.349	40914.22
573.71	40981.79
574.071	41018.62
574.432	41119.64
574.794	41412.06
575.155	41488.89
575.516	41540.19
575.877	41604.6
576.238	41807.08
576.599	41900.86
576.96	41855.21
577.32	41981.31
577.681	42104.47
578.042	42265.6
578.403	42222.66
578.763	42141.76
579.124	42298.59
579.485	42419.94
579.845	42634.18
580.206	42499.72
580.566	42562.99
580.927	42562.54
581.287	42755.53
581.648	42572.93
582.008	42828.97
582.368	42761.86
582.728	42876.88
583.089	42647.51
583.449	42817.9
583.809	42900.84
584.169	42988.97
584.529	42778.35
584.889	43123.88
585.249	42793.04
585.609	42821.06
585.969	43113.26
586.329	42902.19
586.688	43052.92
587.048	43081.62
587.408	42992.81
587.768	42931.34
588.127	43043.66
588.487	42948.52
588.846	43334.04
589.206	43069.42
589.565	43073.94
589.925	43293.37
590.284	43165.69
590.643	43254.05
591.003	43352.12
591.362	43351.9
591.721	43221.28
592.08	43213.82
592.44	43415.85
592.799	43341.73
593.158	43492.23
593.517	43362.07
593.876	43449.3
594.235	43328.17
594.593	43361.84
594.952	43714.83
595.311	43349.86
595.67	43543.98
596.029	43641.61
596.387	43709.4
596.746	43658.78
597.104	43592.34
597.463	43715.96
597.822	43776.74
598.18	43730.64
598.538	43652.68
598.897	43808.38
599.255	43607.71
599.613	44157.07
599.972	43908.27
600.33	43843.41
600.688	43910.3
601.046	43863.97
601.404	44018.55
601.762	44053.8
602.12	44185.77
602.478	44205.89
602.836	44236.62
603.194	44016.74
603.552	44118.43
603.91	43987.36
604.268	44333.34
604.625	44284.3
604.983	44480
605.341	44370.4
605.698	44529.27
606.056	44410.4
606.413	44391.87
606.771	44588.02
607.128	44630.06
607.485	44506.67
607.843	44555.03
608.2	44854
608.557	44779.66
608.914	44812.2
609.272	44944.85
609.629	45180.78
609.986	45084.73
610.343	44892.42
610.7	45245.41
611.057	45073.43
611.414	45118.4
611.771	45201.57
612.127	45446.08
612.484	45275.46
612.841	45400.66
613.198	45271.85
613.554	45354.1
613.911	45576.47
614.267	45542.8
614.624	45547.09
614.98	45497.38
615.337	45777.14
615.693	45717.03
616.05	45681.55
616.406	45947.08
616.762	45758.16
617.118	45918.61
617.475	45776.01
617.831	45922.68
618.187	46046.97
618.543	45974.65
618.899	46210.58
619.255	46168.09
619.611	46088.1
619.967	46182.33
620.323	46253.29
620.678	46149.34
621.034	45989.79
621.39	46189.34
621.746	46075.89
622.101	46480.63
622.457	46107.98
622.812	46257.13
623.168	46390.69
623.523	46417.13
623.879	46452.61
624.234	46202.44
624.589	46290.12
624.945	46301.2
625.3	46318.37
625.655	46279.73
626.01	46196.12
626.365	46394.75
626.72	46309.11
627.075	46252.16
627.43	46217.81
627.785	46110.02
628.14	46181.43
628.495	46242.44
628.85	46178.49
629.205	45951.38
629.559	46232.5
629.914	46080.41
630.269	46056.01
630.623	45979.62
630.978	45869.34
631.332	45956.57
631.687	46180.07
632.041	45919.29
632.396	45892.85
632.75	45641.1
633.104	45833.87
633.459	45556.13
633.813	45566.75
634.167	45552.97
634.521	45411.96
634.875	45606.75
635.229	45491.73
635.583	45308.23
635.937	45276.14
636.291	45280.66
636.645	45379.64
636.999	45160.21
637.352	45287.21
637.706	45058.97
638.06	45349.36
638.413	45056.94
638.767	45079.31
639.121	45112.3
639.474	44711.18
639.828	44845.42
640.181	44820.33
640.534	44893.33
640.888	44763.84
641.241	44570.85
641.594	44604.52
641.947	44856.26
642.301	44608.81
642.654	44792.08
643.007	44558.42
643.36	44585.99
643.713	44500.12
644.066	44594.35
644.419	44340.8
644.771	44096.06
645.124	43679.8
645.477	43675.73
645.83	43313.25
646.182	43111.23
646.535	42992.13
646.888	43165.46
647.24	42994.84
647.593	43196.65
647.945	42996.2
648.298	42872.36
648.65	42741.07
649.002	42681.63
649.355	42798.24
649.707	42751.01
650.059	42938.8
650.411	43473.02
650.763	43406.13
651.115	43561.38
651.467	43561.16
651.819	43408.62
652.171	43396.42
652.523	43444.1
652.875	43372.91
653.227	43099.02
653.578	43515.96
653.93	43386.7
654.282	43252.24
654.633	43108.29
654.985	43181.73
655.337	43328.62
655.688	43131.56
656.039	43152.58
656.391	42781.97
656.742	42904.9
657.094	42934.73
657.445	42988.52
657.796	42902.19
658.147	42800.95
658.498	42805.24
658.849	42863.1
659.2	42810.89
659.551	42711.24
659.902	42907.61
660.253	42651.8
660.604	42836.66
660.955	42526.16
661.306	42707.85
661.656	42644.34
662.007	42576.78
662.358	42508.08
662.708	42502.88
663.059	42495.87
663.409	42340.17
663.76	42540.39
664.11	42449.1
664.461	42374.07
664.811	42410.45
665.161	42400.96
665.511	42469.66
665.862	42368.87
666.212	42577.45
666.562	42486.16
666.912	42476.44
667.262	42382.43
667.612	42352.83
667.962	42428.08
668.312	42192.38
668.662	42532.94
669.011	42273.06
669.361	42212.72
669.711	42265.82
670.06	42178.14
670.41	42175.88
670.76	41987.86
671.109	42184.24
671.459	42071.03
671.808	42049.11
672.157	42076
672.507	41876.46
672.856	41982.67
673.205	41952.84
673.554	42049.78
673.904	41830.81
674.253	42041.42
674.602	41887.98
674.951	41479.18
675.3	41110.6
675.649	41814.31
675.998	41632.39
676.346	41678.49
676.695	41901.54
677.044	41505.62
677.393	41657.93
677.741	41620.42
678.09	41495.9
678.438	41544.03
678.787	41481.44
679.135	41659.29
679.484	41316.92
679.832	41488.67
680.181	41347.2
680.529	41317.6
680.877	41084.61
681.225	41084.16
681.573	41270.14
681.922	41124.61
682.27	40965.52
682.618	40975.01
682.966	40943.15
683.314	40970.49
683.661	40899.98
684.009	40524.63
684.357	40482.37
684.705	40399.88
685.053	40600.1
685.4	40503.16
685.748	40232.66
686.095	40299.32
686.443	39927.58
686.79	40022.94
687.138	39923.06
687.485	40177.74
687.832	39900.91
688.18	40081.25
688.527	39697.3
688.874	39734.36
689.221	39527.36
689.568	39490.08
689.915	39499.12
690.262	39429.74
690.609	39307.03
690.956	39207.83
691.303	39005.8
691.65	38886.03
691.997	38802.41
692.344	38604.68
692.69	38864.78
693.037	38831.34
693.383	38505.92
693.73	38535.53
694.077	38302.76
694.423	38408.3
694.769	38446.49
695.116	38220.51
695.462	38246.04
695.808	38033.17
696.155	37986.61
696.501	37733.74
696.847	37605.38
697.193	37458.04
697.539	37619.39
697.885	37298.27
698.231	37228.22
698.577	37234.32
698.923	37071.84
699.269	36939.64
699.614	36610.38
699.96	36587.55
700.306	36736.03
700.651	36730.15
700.997	36476.82
701.342	36447.9
701.688	36476.37
702.033	36133.56
702.379	36144.85
702.724	36126.32
703.069	36107.79
703.415	35829.16
703.76	35796.16
704.105	35694.02
704.45	35572.44
704.795	35349.17
705.14	35198.89
705.485	35229.4
705.83	35209.06
706.175	35207.93
706.52	35117.54
706.865	35013.81
707.209	34972.23
707.554	34954.15
707.899	34919.35
708.243	34774.95
708.588	34719.36
708.932	34479.14
709.277	34516.65
709.621	34452.02
709.966	34198.92
710.31	34282.53
710.654	34054.97
710.998	34239.59
711.342	34065.14
711.687	33973.84
712.031	33850.68
712.375	33715.99
712.719	33817.91
713.063	33740.4
713.407	33744.01
713.75	33500.4
714.094	33542.66
714.438	33322.33
714.782	33483.46
715.125	33250.24
715.469	33327.75
715.812	33205.95
716.156	32884.6
716.499	33048.44
716.843	32957.82
717.186	32771.61
717.53	32773.64
717.873	32882.12
718.216	32853.42
718.559	32609.13
718.902	32524.16
719.246	32716.02
719.589	32434.44
719.932	32386.08
720.275	32514.22
720.617	32266.09
720.96	32187.44
721.303	32303.83
721.646	32109.03
721.989	31877.4
722.331	32061.57
722.674	31982.25
723.016	31914.91
723.359	31848.47
723.701	31839.43
724.044	31682.15
724.386	31525.32
724.729	31657.74
725.071	31402.38
725.413	31525.54
725.755	31433.11
726.097	31289.84
726.439	31251.88
726.782	31175.04
727.124	31314.02
727.465	31046.01
727.807	31045.55
728.149	30921.26
728.491	30981.83
728.833	31088.04
729.175	30931.21
729.516	30946.8
729.858	30854.15
730.199	30796.97
730.541	30791.78
730.882	30685.34
731.224	30674.72
731.565	30455.06
731.906	30560.82
732.248	30512.01
732.589	30342.07
732.93	30195.86
733.271	30265.69
733.612	30383.65
733.953	30378
734.294	29990.89
734.635	30002.42
734.976	30205.35
735.317	29992.02
735.658	29951.57
735.999	29938.01
736.339	29902.76
736.68	29957.9
737.021	29860.95
737.361	29722.65
737.702	29903.21
738.042	29750.9
738.383	29623.67
738.723	29660.73
739.063	29515.42
739.404	29629.55
739.744	29439.04
740.084	29364.92
740.424	29493.05
740.764	29395.65
741.104	29427.74
741.444	29227.52
741.784	29110.01
742.124	29149.56
742.464	29249.22
742.804	29076.34
743.143	28982.78
743.483	29045.61
743.823	28895.55
744.162	28829.79
744.502	28709.8
744.841	28596.8
745.181	28722.68
745.52	28677.71
745.86	28665.28
746.199	28557.03
746.538	28460.54
746.877	28562.68
747.216	28551.16
747.556	28280.65
747.895	28367.88
748.234	28141
748.573	28283.82
748.911	28205.4
749.25	28127.44
749.589	28022.81
749.928	28225.06
750.267	28158.4
750.605	27981
750.944	27955.47
751.283	27802.48
751.621	27897.16
751.96	27714.79
752.298	27757.73
752.636	27671.86
752.975	27613.55
753.313	27508.92
753.651	27619.2
753.989	27337.18
754.327	27309.38
754.666	27192.77
755.004	27231.19
755.342	27233.9
755.679	27050.63
756.017	26926.57
756.355	27056.05
756.693	26907.13
757.031	27031.65
757.368	26707.14
757.706	26806.57
758.044	26695.39
758.381	26743.29
758.719	26562.51
759.056	26578.78
759.394	26434.6
759.731	26351.67
760.068	26293.59
760.405	26105.8
760.743	26023.31
761.08	26082.07
761.417	25940.15
761.754	25990.32
762.091	25836.65
762.428	25694.73
762.765	25572.48
763.102	25731.34
763.438	25412.48
763.775	25424.91
764.112	25341.75
764.449	25217.91
764.785	25091.59
765.122	25021.76
765.458	24975.43
765.795	24948.31
766.131	24868.32
766.467	24808.66
766.804	24568.66
767.14	24534.09
767.476	24662.22
767.812	24411.15
768.148	24529.11
768.485	24271.72
768.821	24189.24
769.157	24160.54
769.492	24082.35
769.828	24082.8
770.164	23915.8
770.5	23847.78
770.836	23857.49
771.171	23528.46
771.507	23615.01
771.842	23401.46
772.178	23420.9
772.513	23304.51
772.849	23281.24
773.184	23145.42
773.519	23110.4
773.855	23039.21
774.19	22942.49
774.525	22805.32
774.86	22846.22
775.195	22757.41
775.53	22728.71
775.865	22488.26
776.2	22382.5
776.535	22241.72
776.87	22256.86
777.205	22206.46
777.539	22140.93
777.874	22096.41
778.209	21877.43
778.543	21885.34
778.878	21775.06
779.212	21778.23
779.547	21640.83
779.881	21669.76
780.215	21371.46
780.55	21436.77
780.884	21237.45
781.218	21249.65
781.552	21229.54
781.886	21079.04
782.22	21005.82
782.554	21027.29
782.888	20679.27
783.222	20658.26
783.556	20573.06
783.889	20606.51
784.223	20425.49
784.557	20403.12
784.89	20380.3
785.224	20230.7
785.557	20223.47
785.891	20129.68
786.224	20136.24
786.558	20026.18
786.891	19898.05
787.224	19856.92
787.557	19787.32
787.891	19653.76
788.224	19696.25
788.557	19639.3
788.89	19608.11
789.223	19528.12
789.556	19369.02
789.888	19366.31
790.221	19288.12
790.554	19155.92
790.887	19065.08
791.219	19061.46
791.552	18991.86
791.884	18910.51
792.217	18822.15
792.549	18811.53
792.882	18648.14
793.214	18635.48
793.546	18571.53
793.879	18492.66
794.211	18333.12
794.543	18480.69
794.875	18364.76
795.207	18373.8
795.539	18250.41
795.871	18259
796.203	18105.56
796.535	17959.57
796.867	17916.18
797.198	17816.75
797.53	17856.52
797.862	17775.85
798.193	17868.05
798.525	17615.85
798.856	17708.73
799.188	17497.66
799.519	17457.66
799.85	17376.08
800.182	17311.68
800.513	17433.03
800.844	17268.51
801.175	17351.22
801.506	17254.05
801.837	17178.12
802.168	17137.9
802.499	17059.25
802.83	16980.84
803.161	16865.36
803.491	16869.2
803.822	16902.65
804.153	16830.33
804.483	16665.14
804.814	16586.5
805.145	16578.59
805.475	16510.34
805.805	16504.47
806.136	16413.17
806.466	16520.29
806.796	16500.17
807.126	16325.26
807.457	16246.85
807.787	16196.68
808.117	16057.25
808.447	16044.37
808.777	16108.77
809.107	16055.44
809.436	15974.09
809.766	16019.28
810.096	15938.15
810.426	15874.2
810.755	15899.29
811.085	15720.08
811.414	15721.21
811.744	15691.83
812.073	15541.33
812.403	15539.29
812.732	15465.4
813.061	15365.97
813.39	15383.37
813.719	15427.66
814.049	15335.68
814.378	15296.36
814.707	15262.24
815.036	15306.31
815.365	15160.1
815.693	15135.24
816.022	15052.3
816.351	15037.61
816.68	14985.86
817.008	15085.52
817.337	14810.95
817.665	14836.94
817.994	14857.96
818.322	14829.03
818.651	14813.66
818.979	14685.53
819.307	14760.33
819.636	14704.29
819.964	14575.25
820.292	14567.12
820.62	14591.07
820.948	14618.87
821.276	14634.01
821.604	14647.34
821.932	14570.28
822.259	14563.05
822.587	14495.48
822.915	14556.27
823.243	14526.44
823.57	14506.1
823.898	14571.41
824.225	14499.1
824.553	14493.22
824.88	14517.17
825.207	14503.16
825.535	14455.48
825.862	14509.04
826.189	14473.33
826.516	14585.2
826.843	14541.35
827.17	14414.35
827.497	14603.95
827.824	14500.45
828.151	14465.65
828.478	14487.12
828.805	14518.53
829.131	14515.37
829.458	14425.65
829.785	14336.16
830.111	14416.16
830.438	14406.22
830.764	14351.3
831.09	14419.55
831.417	14361.7
831.743	14389.72
832.069	14351.53
832.395	14351.53
832.722	14348.59
833.048	14340.23
833.374	14423.84
833.7	14285.99
834.026	14332.77
834.351	14261.36
834.677	14227.01
835.003	14327.8
835.329	14240.57
835.654	14285.77
835.98	14149.95
836.306	14202.83
836.631	14100.69
836.956	14285.77
837.282	14107.24
837.607	14100.24
837.932	14090.07
838.258	14053.91
838.583	13977.98
838.908	13941.14
839.233	13965.78
839.558	13901.15
839.883	13840.36
840.208	13895.5
840.533	13834.03
840.858	13923.74
841.182	13928.26
841.507	13843.29
841.832	13702.28
842.156	13715.16
842.481	13669.06
842.805	13744.99
843.13	13629.97
843.454	13580.7
843.778	13554.49
844.103	13554.04
844.427	13483.08
844.751	13530.76
845.075	13457.54
845.399	13457.54
845.723	13376.87
846.047	13318.56
846.371	13239.69
846.695	13215.74
847.019	13105.46
847.343	13012.58
847.666	12968.74
847.99	12886.03
848.313	12829.54
848.637	12868.86
848.96	12805.36
849.284	12830.89
849.607	12669.09
849.931	12669.09
850.254	12609.88
850.577	12487.4
850.9	12435.42
851.223	12388.19
851.546	12375.54
851.869	12329.66
852.192	12347.74
852.515	12247.4
852.838	12192.26
853.161	12181.42
853.483	12192.49
853.806	12083.34
854.129	12081.98
854.451	11999.27
854.774	11930.58
855.096	11919.28
855.419	11844.02
855.741	11838.6
856.063	11771.48
856.385	11700.3
856.708	11642
857.03	11606.06
857.352	11689.45
857.674	11599.51
857.996	11575.56
858.318	11450.59
858.64	11567.2
858.961	11429.12
859.283	11400.42
859.605	11363.36
859.926	11422.79
860.248	11397.48
860.57	11293.76
860.891	11269.12
861.212	11277.26
861.534	11206.08
861.855	11199.97
862.176	11283.14
862.498	11194.32
862.819	11155
863.14	11137.15
863.461	11079.75
863.782	11096.47
864.103	11096.02
864.424	11039.07
864.745	11074.78
865.065	10979.64
865.386	10948.46
865.707	10921.79
866.027	10968.57
866.348	10994.33
866.668	10984.84
866.989	10898.06
867.309	10868.46
867.63	10847.89
867.95	10851.51
868.27	10741.23
868.59	10732.19
868.91	10722.25
869.23	10753.88
869.55	10743.94
869.87	10703.94
870.19	10716.37
870.51	10740.55
870.83	10646.54
871.15	10557.73
871.469	10546.88
871.789	10601.12
872.109	10625.3
872.428	10513.21
872.748	10548.01
873.067	10578.75
873.386	10536.71
873.706	10519.09
874.025	10374.23
874.344	10459.43
874.663	10428.47
874.982	10432.08
875.301	10360
875.62	10363.84
875.939	10347.57
876.258	10293.78
876.577	10278.87
876.896	10284.97
877.214	10204.75
877.533	10231.64
877.852	10182.15
878.17	10229.6
878.489	10179.21
878.807	10216.27
879.125	10142.15
879.444	10203.62
879.762	10154.35
880.08	10147.35
880.398	10103.51
880.716	10099.44
881.034	10093.79
881.352	10034.81
881.67	10088.36
881.988	10042.94
882.306	10080.46
882.624	9974.24
882.941	9900.12
883.259	9889.5
883.577	9841.82
883.894	9837.98
884.212	9845.89
884.529	9856.96
884.846	9818.54
885.164	9759.56
885.481	9701.71
885.798	9777.41
886.115	9681.6
886.432	9659.68
886.75	9598.21
887.067	9631.43
887.383	9625.55
887.7	9642.73
888.017	9616.51
888.334	9622.61
888.651	9522.05
888.967	9505.78
889.284	9439.57
889.6	9457.42
889.917	9409.74
890.233	9381.04
890.55	9423.3
890.866	9309.63
891.182	9236.41
891.498	9261.72
891.815	9223.98
892.131	9195.96
892.447	9138.33
892.763	9186.92
893.079	9133.81
893.395	9147.6
893.71	9111.67
894.026	9073.02
894.342	9022.18
894.657	8911.45
894.973	9017.43
895.289	8990.09
895.604	8934.72
895.92	8853.37
896.235	8864.22
896.55	8784.22
896.865	8860.37
897.181	8786.7
897.496	8796.65
897.811	8696.76
898.126	8646.37
898.441	8601.4
898.756	8638.46
899.071	8547.16
899.386	8537.9
899.7	8467.84
900.015	8415.64
900.33	8444.57
900.644	8410.67
900.959	8471.23
901.273	8386.71
901.588	8351.24
901.902	8260.39
902.216	8272.14
902.531	8265.14
902.845	8239.15
903.159	8165.25
903.473	8134.29
903.787	8067.17
904.101	8027.85
904.415	7969.1
904.729	8008.65
905.042	7969.1
905.356	7975.2
905.67	7948.08
905.984	7934.75
906.297	7941.98
906.611	7859.72
906.924	7873.51
907.237	7833.51
907.551	7771.14
907.864	7710.8
908.177	7709.44
908.491	7653.63
908.804	7637.36
909.117	7537.47
909.43	7497.7
909.743	7509.22
910.056	7478.26
910.368	7454.76
910.681	7456.12
910.994	7430.58
911.307	7365.72
911.619	7324.6
911.932	7335.67
912.244	7233.3
912.557	7253.86
912.869	7204.15
913.181	7182.68
913.494	7176.35
913.806	7137.03
914.118	7126.86
914.43	7038.73
914.742	7109.69
915.054	7010.48
915.366	7013.87
915.678	6978.84
915.99	6946.3
916.302	6921.22
916.613	6913.76
916.925	6878.28
917.236	6883.25
917.548	6833.76
917.859	6807.1
918.171	6766.19
918.482	6742.69
918.794	6690.71
919.105	6724.61
919.416	6645.74
919.727	6613.43
920.038	6600.32
920.349	6571.62
920.66	6535.01
920.971	6505.18
921.282	6505.63
921.593	6435.13
921.903	6406.2
922.214	6324.62
922.525	6426.99
922.835	6323.72
923.146	6267.67
923.456	6299.76
923.767	6233.1
924.077	6250.05
924.387	6245.98
924.697	6168.02
925.008	6111.75
925.318	6092.54
925.628	6129.15
925.938	6093.67
926.248	5994.91
926.558	6051.18
926.867	6028.58
927.177	5994.69
927.487	5915.37
927.796	5913.56
928.106	5857.29
928.416	5846.44
928.725	5890.28
929.034	5775.26
929.344	5794.47
929.653	5771.19
929.962	5740.68
930.271	5680.8
930.581	5707.46
930.89	5659.33
931.199	5654.81
931.508	5606.45
931.817	5608.71
932.125	5576.84
932.434	5584.3
932.743	5523.29
933.051	5484.42
933.36	5456.62
933.669	5408.94
933.977	5440.8
934.286	5387.47
934.594	5392.44
934.902	5396.28
935.21	5286.23
935.519	5322.39
935.827	5292.11
936.135	5283.75
936.443	5242.84
936.751	5209.85
937.059	5214.37
937.367	5169.85
937.674	5149.96
937.982	5160.13
938.29	5120.81
938.597	5085.78
938.905	5084.65
939.213	5067.71
939.52	4984.54
939.827	5039.91
940.135	4986.58
940.442	4959.69
940.749	4963.08
941.056	4891.89
941.363	4885.79
941.67	4881.72
941.977	4839.92
942.284	4814.15
942.591	4808.96
942.898	4803.98
943.205	4800.59
943.511	4733.25
943.818	4733.03
944.125	4667.49
944.431	4653.03
944.738	4640.15
945.044	4588.85
945.35	4608.51
945.657	4618.9
945.963	4600.6
946.269	4549.3
946.575	4541.62
946.881	4521.51
947.187	4503.2
947.493	4465.24
947.799	4488.51
948.105	4448.74
948.41	4413.26
948.716	4412.81
949.022	4394.96
949.327	4368.97
949.633	4338.01
949.938	4319.25
950.244	4366.93
950.549	4331.91
950.854	4276.99
951.16	4264.79
951.465	4273.38
951.77	4266.82
952.075	4210.1
952.38	4203.1
952.685	4180.05
952.99	4137.56
953.294	4147.96
953.599	4116.77
953.904	4075.64
954.209	4085.58
954.513	4115.41
954.818	4025.7
955.122	4036.77
955.426	4021.18
955.731	3958.58
956.035	4004.68
956.339	3961.97
956.643	3949.77
956.948	3896.44
957.252	3919.49
957.556	3952.48
957.86	3832.03
958.163	3843.56
958.467	3830.45
958.771	3811.69
959.075	3801.98
959.378	3792.26
959.682	3781.19
959.985	3782.77
960.289	3769.21
960.592	3721.3
960.896	3714.97
961.199	3691.47
961.502	3667.29
961.805	3670.23
962.108	3640.62
962.411	3652.83
962.714	3573.96
963.017	3620.51
963.32	3612.6
963.623	3551.14
963.926	3571.25
964.228	3578.93
964.531	3516.79
964.833	3533.28
965.136	3485.83
965.438	3489.89
965.741	3458.26
966.043	3445.38
966.345	3395.66
966.648	3415.55
966.95	3423.46
967.252	3392.5
967.554	3363.34
967.856	3347.98
968.158	3294.87
968.46	3351.59
968.761	3334.64
969.063	3315.89
969.365	3282.89
969.666	3292.16
969.968	3257.58
970.269	3260.97
970.571	3202.9
970.872	3211.26
971.174	3176.68
971.475	3194.76
971.776	3167.19
972.077	3147.08
972.378	3177.59
972.679	3119.51
972.98	3149.79
973.281	3121.32
973.582	3079.74
973.883	3096.68
974.183	3049.91
974.484	3086.29
974.785	3022.56
975.085	3032.51
975.386	3036.8
975.686	3023.69
975.986	2937.14
976.287	2968.78
976.587	2956.12
976.887	2937.82
977.187	2951.38
977.487	2929.23
977.787	2916.12
978.087	2877.48
978.387	2849.68
978.687	2890.81
978.987	2858.5
979.286	2803.13
979.586	2808.78
979.885	2809.91
980.185	2786.18
980.484	2782.34
980.784	2770.37
981.083	2743.02
981.382	2772.62
981.682	2759.29
981.981	2741.21
982.28	2736.24
982.579	2714.32
982.878	2707.32
983.177	2692.4
983.475	2679.75
983.774	2640.88
984.073	2635.91
984.372	2610.37
984.67	2625.06
984.969	2604.04
985.267	2596.81
985.566	2581.9
985.864	2543.03
986.162	2580.31
986.461	2546.87
986.759	2552.29
987.057	2523.82
987.355	2512.52
987.653	2534.66
987.951	2507.55
988.249	2513.87
988.547	2459.86
988.844	2470.49
989.142	2473.2
989.44	2457.15
989.737	2428.23
990.035	2392.3
990.332	2392.97
990.63	2426.87
990.927	2386.87
991.224	2361.79
991.521	2365.18
991.819	2374.44
992.116	2325.86
992.413	2337.38
992.71	2295.58
993.006	2314.56
993.303	2306.87
993.6	2308.46
993.897	2280.89
994.193	2290.38
994.49	2257.38
994.787	2260.1
995.083	2270.27
995.379	2249.25
995.676	2233.88
995.972	2201.79
996.268	2174
996.565	2199.08
996.861	2179.65
997.157	2157.95
997.453	2129.93
997.749	2136.26
998.044	2117.05
998.34	2106.2
998.636	2090.83
998.932	2094.45
999.227	2068.24
999.523	2054
999.818	2081.8
1000.114	2067.33
1000.409	2027.11
1000.704	2042.93
1001	2020.55
1001.295	1982.59
1001.59	2005.41
1001.885	2007.9
1002.18	1983.95
1002.475	1971.52
1002.77	1982.36
1003.065	1975.81
1003.359	1931.52
1003.654	1938.52
1003.949	1903.5
1004.243	1912.99
1004.538	1897.85
1004.832	1877.51
1005.127	1908.24
1005.421	1863.72
1005.715	1865.08
1006.009	1850.84
1006.304	1823.5
1006.598	1842.48
1006.892	1796.61
1007.186	1805.87
1007.48	1767.23
1007.773	1764.06
1008.067	1789.15
1008.361	1784.18
1008.655	1772.43
1008.948	1726.32
1009.242	1720.68
1009.535	1727.68
1009.829	1736.49
1010.122	1670.28
1010.415	1683.84
1010.708	1726.32
1011.001	1683.84
1011.295	1662.37
1011.588	1641.58
1011.881	1642.49
1012.173	1654.24
1012.466	1654.91
1012.759	1635.48
1013.052	1612.43
1013.344	1602.94
1013.637	1595.71
1013.93	1590.51
1014.222	1574.46
1014.514	1545.09
1014.807	1563.39
1015.099	1534.01
1015.391	1552.77
1015.683	1517.74
1015.976	1524.3
1016.268	1524.97
1016.56	1504.64
1016.851	1506.67
1017.143	1498.76
1017.435	1497.63
1017.727	1464.41
1018.018	1445.88
1018.31	1418.31
1018.602	1426.67
1018.893	1446.33
1019.185	1426.9
1019.476	1407.91
1019.767	1413.56
1020.058	1400.91
1020.35	1387.12
1020.641	1373.79
1020.932	1357.97
1021.223	1392.77
1021.514	1353.23
1021.804	1323.17
1022.095	1357.97
1022.386	1303.51
1022.677	1296.28
1022.967	1304.64
1023.258	1299.22
1023.548	1281.59
1023.839	1301.7
1024.129	1274.59
1024.419	1251.76
1024.709	1274.59
1025	1254.7
1025.29	1225.09
1025.58	1235.94
1025.87	1242.04
1026.16	1190.52
1026.449	1224.42
1026.739	1192.55
1027.029	1187.13
1027.319	1195.72
1027.608	1185.55
1027.898	1166.57
1028.187	1165.89
1028.477	1183.06
1028.766	1125.21
1029.055	1154.81
1029.344	1141.48
1029.634	1147.58
1029.923	1120.01
1030.212	1121.82
1030.501	1091.99
1030.79	1088.6
1031.078	1105.32
1031.367	1090.41
1031.656	1098.54
1031.945	1073.91
1032.233	1083.63
1032.522	1050.86
1032.81	1033.24
1033.099	1022.84
1033.387	1014.7
1033.675	1032.33
1033.963	1032.33
1034.251	1023.74
1034.54	1012.22
1034.828	996.63
1035.116	977.64
1035.403	972.67
1035.691	994.14
1035.979	982.62
1036.267	967.02
1036.554	961.82
1036.842	949.4
1037.129	951.88
1037.417	961.37
1037.704	939.23
1037.992	929.96
1038.279	924.31
1038.566	899.23
1038.853	899.23
1039.14	899.23
