Data from plate_porcelain_FLMS001491_020.txt Node
Date: Tue Feb 07 11:18:53 GMT 2017
User: dcchb
Spectrometer: FLMS00149
Trigger mode: 0
Integration Time (sec): 2.000000E-2
Scans to average: 10
Electric dark correction enabled: true
Nonlinearity correction enabled: false
Boxcar width: 0
XAxis mode: Wavelengths
Number of Pixels in Spectrum: 2048
>>>>>Begin Spectral Data<<<<<
341.393	-14.46
341.776	-14.46
342.16	-14.46
342.543	-52.65
342.927	-49.49
343.31	-66.89
343.693	-73.9
344.077	-80.9
344.46	-43.84
344.843	-59.21
345.226	-45.87
345.61	-47.68
345.993	-14.69
346.376	-1.13
346.759	16.27
347.142	31.19
347.525	35.48
347.908	36.16
348.291	85.65
348.674	109.6
349.057	119.77
349.44	125.42
349.823	134.01
350.206	168.36
350.588	234.34
350.971	234.34
351.354	252.65
351.737	277.73
352.119	296.04
352.502	297.17
352.884	293.78
353.267	328.8
353.65	320.67
354.032	341.46
354.414	327
354.797	377.39
355.179	351.4
355.562	364.06
355.944	334.91
356.326	380.55
356.709	377.62
357.091	379.65
357.473	379.2
357.855	394.57
358.238	395.02
358.62	399.76
359.002	370.16
359.384	380.1
359.766	407.45
360.148	380.55
360.53	402.93
360.912	373.55
361.294	374.45
361.676	385.3
362.057	385.98
362.439	383.49
362.821	387.79
363.203	376.26
363.584	383.72
363.966	398.18
364.348	386.88
364.729	401.57
365.111	408.12
365.493	383.27
365.874	391.85
366.256	368.58
366.637	381.46
367.019	389.37
367.4	390.95
367.781	384.17
368.163	386.88
368.544	396.83
368.925	392.08
369.306	378.75
369.688	388.46
370.069	402.7
370.45	397.96
370.831	411.74
371.212	385.3
371.593	401.12
371.974	406.09
372.355	421.68
372.736	408.35
373.117	420.55
373.498	424.85
373.879	427.56
374.26	414.23
374.641	429.14
375.021	414
375.402	427.79
375.783	435.47
376.163	435.69
376.544	442.25
376.925	444.28
377.305	429.59
377.686	425.75
378.066	453.1
378.447	463.49
378.827	466.2
379.208	458.07
379.588	453.1
379.968	465.98
380.349	482.93
380.729	468.91
381.109	467.33
381.489	507.56
381.87	509.82
382.25	496.94
382.63	482.7
383.01	490.61
383.39	477.28
383.77	508.01
384.15	503.94
384.53	492.64
384.91	500.33
385.29	545.3
385.67	529.03
386.049	545.75
386.429	539.42
386.809	562.7
387.189	545.3
387.568	548.23
387.948	578.06
388.328	581.45
388.707	597.95
389.087	566.76
389.466	578.06
389.846	598.63
390.225	587.33
390.605	601.79
390.984	622.36
391.363	643.37
391.743	623.49
392.122	636.37
392.501	624.84
392.881	640.44
393.26	654.9
393.639	651.96
394.018	673.65
394.397	664.62
394.776	677.5
395.155	675.01
395.534	677.5
395.913	689.02
396.292	704.16
396.671	704.16
397.05	709.13
397.429	732.18
397.808	734.67
398.186	709.36
398.565	756.36
398.944	739.64
399.323	755.01
399.701	755.69
400.08	767.44
400.458	762.47
400.837	791.84
401.215	794.78
401.594	793.2
401.972	810.37
402.351	824.16
402.729	830.94
403.107	830.94
403.486	852.41
403.864	862.12
404.242	851.73
404.62	860.77
404.999	878.62
405.377	872.97
405.755	901.67
406.133	919.98
406.511	905.06
406.889	934.89
407.267	947.77
407.645	951.39
408.023	966.98
408.401	998.62
408.779	987.32
409.156	983.02
409.534	990.93
409.912	1028.22
410.29	1039.52
410.667	1077.03
411.045	1090.82
411.422	1080.42
411.8	1098.95
412.178	1104.15
412.555	1119.52
412.933	1127.88
413.31	1187.09
413.687	1163.36
414.065	1146.86
414.442	1184.38
414.819	1221.21
415.197	1219.18
415.574	1235
415.951	1266.63
416.328	1251.49
416.705	1242.68
417.082	1270.25
417.46	1278.84
417.837	1336.91
418.214	1346.18
418.591	1348.21
418.967	1377.82
419.344	1371.94
419.721	1389.57
420.098	1382.79
420.475	1410.36
420.852	1413.52
421.228	1446.74
421.605	1466.85
421.982	1445.84
422.358	1452.17
422.735	1515.89
423.111	1476.57
423.488	1513.63
423.864	1537.13
424.241	1528.77
424.617	1559.51
424.994	1577.81
425.37	1603.12
425.746	1611.94
426.123	1625.49
426.499	1688.54
426.875	1682.44
427.251	1707.3
427.627	1726.51
428.003	1755.21
428.379	1798.37
428.756	1782.55
429.132	1826.39
429.507	1862.32
429.883	1867.97
430.259	1884.47
430.635	1948.42
431.011	1919.27
431.387	1964.69
431.763	2010.79
432.138	2027.97
432.514	2054.41
432.89	2054.86
433.265	2085.37
433.641	2115.88
434.016	2113.84
434.392	2208.53
434.767	2243.56
435.143	2191.58
435.518	2241.75
435.894	2280.17
436.269	2320.84
436.644	2325.14
437.02	2366.49
437.395	2392.03
437.77	2429.54
438.145	2452.82
438.52	2471.57
438.895	2485.58
439.271	2502.76
439.646	2558.35
440.021	2546.37
440.395	2584.11
440.77	2572.81
441.145	2611.68
441.52	2673.83
441.895	2664.34
442.27	2677.67
442.645	2721.06
443.019	2720.15
443.394	2738.46
443.769	2773.49
444.143	2729.42
444.518	2838.34
444.892	2788.4
445.267	2820.72
445.641	2894.61
446.016	2869.98
446.39	2907.95
446.764	2941.84
447.139	2937.32
447.513	2939.36
447.887	2961.73
448.262	3015.74
448.636	3038.11
449.01	3021.39
449.384	3116.53
449.758	3104.78
450.132	3137.77
450.506	3205.34
450.88	3185.23
451.254	3193.36
451.628	3267.03
452.002	3306.58
452.376	3329.4
452.75	3371.21
453.123	3350.87
453.497	3387.48
453.871	3462.73
454.244	3523.3
454.618	3575.5
454.992	3569.85
455.365	3603.97
455.739	3695.95
456.112	3745.44
456.486	3739.79
456.859	3787.7
457.232	3896.39
457.606	3877.41
457.979	3981.14
458.352	4021.82
458.725	4050.29
459.099	4073.57
459.472	4161.7
459.845	4209.38
460.218	4227.91
460.591	4284.63
460.964	4276.72
461.337	4452.76
461.71	4490.96
462.083	4494.12
462.456	4538.86
462.829	4546.32
463.201	4667
463.574	4696.6
463.947	4769.37
464.32	4852.08
464.692	4865.18
465.065	4908.8
465.438	5010.04
465.81	5050.04
466.183	5118.51
466.555	5257.94
466.928	5252.97
467.3	5272.86
467.672	5305.85
468.045	5478.73
468.417	5556.69
468.789	5561.44
469.161	5617.48
469.534	5745.16
469.906	5849.56
470.278	5880.98
470.65	5947.19
471.022	6067.41
471.394	6201.19
471.766	6265.6
472.138	6290.23
472.51	6449.32
472.882	6522.31
473.253	6612.03
473.625	6732.25
473.997	6870.33
474.369	6897.45
474.74	6967.73
475.112	7118.91
475.484	7282.29
475.855	7364.78
476.227	7496.07
476.598	7703.3
476.97	7703.53
477.341	7930.19
477.713	8046.34
478.084	8085.89
478.455	8270.97
478.827	8352.77
479.198	8600.9
479.569	8590.28
479.94	8883.16
480.311	8915.92
480.682	9108.46
481.053	9309.13
481.424	9501.67
481.795	9550.94
482.166	9722.23
482.537	9847.65
482.908	10113.63
483.279	10147.98
483.65	10296.45
484.021	10526.5
484.391	10723.11
484.762	10774.18
485.133	10893.05
485.503	11126.71
485.874	11329.42
486.244	11351.11
486.615	11603.31
486.985	11734.38
487.356	12009.85
487.726	12119.68
488.097	12307.25
488.467	12419.11
488.837	12623.62
489.207	12867.23
489.578	13026.1
489.948	13162.59
490.318	13369.14
490.688	13357.61
491.058	13585.18
491.428	13753.31
491.798	13853.65
492.168	14233.07
492.538	14300.87
492.908	14384.71
493.278	14628.77
493.648	14557.81
494.017	14840.06
494.387	14999.15
494.757	15026.27
495.126	15366.38
495.496	15396.88
495.866	15495.86
496.235	15710.55
496.605	15752.13
496.974	15861.28
497.344	16078.22
497.713	16086.36
498.082	16262.85
498.452	16419.68
498.821	16571.54
499.19	16629.17
499.559	16760.69
499.928	16967.01
500.298	17015.82
500.667	17260.34
501.036	17212.2
501.405	17421.24
501.774	17368.81
502.143	17660.78
502.512	17674.79
502.88	17855.58
503.249	17894.9
503.618	18020.77
503.987	18093.99
504.356	18181.89
504.724	18293.3
505.093	18425.5
505.462	18642
505.83	18823.23
506.199	18839.05
506.567	19128.31
506.936	19131.93
507.304	19441.97
507.672	19399.49
508.041	19519.49
508.409	19653.49
508.777	19838.8
509.145	19964.9
509.514	20088.06
509.882	20189.3
510.25	20324.21
510.618	20479.91
510.986	20553.58
511.354	20871.32
511.722	20864.31
512.09	21200.12
512.458	21087.36
512.826	21346.33
513.193	21488.47
513.561	21562.37
513.929	21831.06
514.297	22003.94
514.664	22190.6
515.032	22199.19
515.4	22436.92
515.767	22530.03
516.135	22652.74
516.502	22600.08
516.869	23078.26
517.237	23155.32
517.604	23181.09
517.972	23465.82
518.339	23701.07
518.706	23745.36
519.073	23896.32
519.44	24009.54
519.808	24271.68
520.175	24305.58
520.542	24722.97
520.909	24783.3
521.276	24919.57
521.643	25235.04
522.009	25313.91
522.376	25530.85
522.743	25613.79
523.11	25943.95
523.477	26046.32
523.843	26328.8
524.21	26615.57
524.577	26803.36
524.943	26907.32
525.31	27082.23
525.676	27423.23
526.043	27491.93
526.409	27657.35
526.776	27980.51
527.142	28057.79
527.508	28281.06
527.874	28444.22
528.241	28687.38
528.607	28679.25
528.973	29116.52
529.339	29053.47
529.705	29435.16
530.071	29568.04
530.437	29736.39
530.803	30024.07
531.169	30015.93
531.535	30135.93
531.901	30346.32
532.267	30415.92
532.632	30601.23
532.998	30744.95
533.364	30935.46
533.73	31057.04
534.095	31343.58
534.461	31485.5
534.826	31686.85
535.192	31625.38
535.557	31940.86
535.923	32012.72
536.288	32165.93
536.653	32196.67
537.019	32329.32
537.384	32414.51
537.749	32617.22
538.114	32662.19
538.479	32884.11
538.845	32884.56
539.21	32947.38
539.575	33234.38
539.94	33250.2
540.305	33393.47
540.67	33481.38
541.034	33565.22
541.399	33841.6
541.764	33883.63
542.129	33975.83
542.494	34136.96
542.858	34289.04
543.223	34451.3
543.587	34534.46
543.952	34541.46
544.316	34750.72
544.681	34716.83
545.045	34981.45
545.41	34984.84
545.774	35069.13
546.138	35290.15
546.503	35353.65
546.867	35330.82
547.231	35836.35
547.595	35668.67
547.959	35992.73
548.324	35986.85
548.688	35992.5
549.052	36366.05
549.416	36375.77
549.779	36421.64
550.143	36578.7
550.507	36790.67
550.871	36936.88
551.235	36985.69
551.599	37129.19
551.962	37298.68
552.326	37399.47
552.689	37637.65
553.053	37475.4
553.417	37620.71
553.78	38052.56
554.143	37904.54
554.507	38280.12
554.87	38404.87
555.234	38782.94
555.597	38601.02
555.96	38718.3
556.323	38912.88
556.686	39201
557.05	39323.26
557.413	39339.3
557.776	39477.15
558.139	39899.29
558.502	39885.5
558.865	40045.5
559.228	40292.5
559.59	40400.29
559.953	40417.24
560.316	40880.51
560.679	40808.87
561.041	41223.77
561.404	41495.18
561.767	41563.65
562.129	41452.24
562.492	42007.48
562.854	42074.6
563.217	41906.02
563.579	42256.06
563.941	42511.2
564.304	42643.62
564.666	42846.11
565.028	42936.95
565.39	43126.32
565.753	43270.73
566.115	43546.65
566.477	43538.97
566.839	43697.16
567.201	44064.38
567.563	44016.47
567.925	44439.74
568.287	44411.49
568.648	44519.06
569.01	44759.28
569.372	45012.15
569.734	44820.06
570.095	45100.96
570.457	45218.47
570.819	45474.74
571.18	45349.32
571.542	45587.95
571.903	45714.05
572.265	45912.47
572.626	46010.32
572.987	46108.62
573.349	46227.94
573.71	46312.68
574.071	46377.09
574.432	46631.54
574.794	46905.66
575.155	46895.26
575.516	46696.85
575.877	46888.26
576.238	47071.76
576.599	47191.08
576.96	47220.91
577.32	47249.38
577.681	47389.04
578.042	47511.97
578.403	47558.3
578.763	47542.93
579.124	47667.22
579.485	47708.35
579.845	47998.51
580.206	47752.87
580.566	47763.49
580.927	47879.42
581.287	47988.34
581.648	47810.72
582.008	47977.04
582.368	47949.93
582.728	48155.12
583.089	47993.09
583.449	47973.65
583.809	48247.09
584.169	48249.35
584.529	48127.32
584.889	48285.74
585.249	48104.95
585.609	48028.12
585.969	48369.35
586.329	48195.12
586.688	48309.92
587.048	48211.39
587.408	48121.67
587.768	48108.11
588.127	48218.17
588.487	48188.56
588.846	48392.63
589.206	48231.5
589.565	48254.32
589.925	48395.11
590.284	48282.12
590.643	48308.79
591.003	48585.62
591.362	48490.25
591.721	48566.18
592.08	48400.99
592.44	48618.38
592.799	48550.81
593.158	48577.93
593.517	48523.24
593.876	48497.26
594.235	48504.26
594.593	48567.08
594.952	48647.53
595.311	48463.13
595.67	48639.85
596.029	48938.83
596.387	48785.16
596.746	48804.82
597.104	48741.54
597.463	48818.38
597.822	48857.7
598.18	48691.6
598.538	48717.14
598.897	48944.93
599.255	48540.42
599.613	49188.09
599.972	48976.57
600.33	49154.19
600.688	48942.89
601.046	49034.87
601.404	49249.1
601.762	49105.83
602.12	49272.83
602.478	49266.05
602.836	49286.16
603.194	49055.43
603.552	49205.03
603.91	49112.61
604.268	49334.07
604.625	49275.09
604.983	49396.44
605.341	49226.95
605.698	49411.13
606.056	49607.51
606.413	49510.11
606.771	49670.11
607.128	49624.68
607.485	49565.25
607.843	49526.83
608.2	49645.7
608.557	49807.73
608.914	49691.35
609.272	49832.36
609.629	49829.88
609.986	49957.33
610.343	49894.96
610.7	50045.24
611.057	50083.2
611.414	49977.89
611.771	50091.79
612.127	50234.39
612.484	50205.69
612.841	50311.9
613.198	50235.06
613.554	50060.6
613.911	50409.52
614.267	50316.64
614.624	50252.24
614.98	50424.44
615.337	50475.06
615.693	50541.04
616.05	50514.6
616.406	50602.29
616.762	50469.18
617.118	50565
617.475	50491.33
617.831	50657.43
618.187	50647.03
618.543	50761.38
618.899	50907.81
619.255	50745.56
619.611	50752.56
619.967	50915.5
620.323	50896.29
620.678	50824.43
621.034	50713.47
621.39	50819.91
621.746	50678.89
622.101	51069.17
622.457	50686.58
622.812	50884.99
623.168	50909.62
623.523	50890.87
623.879	51058.32
624.234	50782.17
624.589	50896.29
624.945	50889.28
625.3	50940.36
625.655	50945.33
626.01	50945.78
626.365	51009.05
626.72	50958.66
627.075	50872.79
627.43	50857.19
627.785	50736.75
628.14	50826.91
628.495	50809.96
628.85	50861.94
629.205	50612.91
629.559	50917.53
629.914	50731.32
630.269	50685.67
630.623	50721.83
630.978	50592.12
631.332	50684.32
631.687	50686.35
632.041	50466.47
632.396	50657.2
632.75	50474.61
633.104	50533.81
633.459	50398.9
633.813	50315.06
634.167	50410.88
634.521	50291.78
634.875	50421.05
635.229	50229.64
635.583	50064.67
635.937	50157.55
636.291	50050.44
636.645	50125.69
636.999	50036.42
637.352	50075.97
637.706	49956.2
638.06	49906.48
638.413	49791.69
638.767	49726.6
639.121	49865.81
639.474	49576.32
639.828	49641.18
640.181	49692.7
640.534	49641.86
640.888	49607.28
641.241	49306.05
641.594	49489.77
641.947	49622.2
642.301	49449.55
642.654	49419.04
643.007	49518.25
643.36	49254.52
643.713	49212.72
644.066	49394.18
644.419	49075.77
644.771	48730.02
645.124	48240.31
645.477	48365.28
645.83	47961
646.182	47955.8
646.535	47766.88
646.888	48046.19
647.24	47937.95
647.593	47937.72
647.945	47896.59
648.298	47647.56
648.65	47639.43
649.002	47560.11
649.355	47554.23
649.707	47549.94
650.059	47716.03
650.411	48026.99
650.763	48156.02
651.115	48534.09
651.467	48287.77
651.819	48175.23
652.171	48134.1
652.523	48075.12
652.875	48085.06
653.227	47851.4
653.578	48054.1
653.93	47964.16
654.282	47757.84
654.633	47717.84
654.985	47673.55
655.337	47858.63
655.688	47752.42
656.039	47922.13
656.391	47712.19
656.742	47709.71
657.094	47788.8
657.445	47869.02
657.796	47743.83
658.147	47649.37
658.498	47494.8
658.849	47747.9
659.2	47565.3
659.551	47474.23
659.902	47618.18
660.253	47497.73
660.604	47531.18
660.955	47462.93
661.306	47498.64
661.656	47331.41
662.007	47484.85
662.358	47425.65
662.708	47304.52
663.059	47361.47
663.409	47105.43
663.76	47430.62
664.11	47212.32
664.461	47375.7
664.811	47405.76
665.161	47216.39
665.511	47235.59
665.862	47280.34
666.212	47281.92
666.562	47385.42
666.912	47163.51
667.262	47210.28
667.612	47225.42
667.962	47231.53
668.312	47144.98
668.662	47307
669.011	47153.11
669.361	47135.48
669.711	47075.6
670.06	46895.26
670.41	46883.06
670.76	46810.07
671.109	46986.11
671.459	46928.94
671.808	46914.02
672.157	46921.7
672.507	46611.66
672.856	46694.82
673.205	46729.17
673.554	46846.9
673.904	46664.54
674.253	46914.25
674.602	46709.96
674.951	46171.67
675.3	45996.08
675.649	46395.84
675.998	46442.39
676.346	46417.08
676.695	46686.91
677.044	46257.77
677.393	46437.65
677.741	46446.01
678.09	46307.26
678.438	46244.43
678.787	46269.97
679.135	46362.85
679.484	46071.11
679.832	46130.09
680.181	45914.72
680.529	46066.13
680.877	46015.06
681.225	45840.38
681.573	46177.32
681.922	45714.28
682.27	45698.69
682.618	45707.5
682.966	45611.23
683.314	45720.38
683.661	45476.77
684.009	45222.09
684.357	45309.09
684.705	45131.69
685.053	45278.58
685.4	45186.61
685.748	45033.62
686.095	44986.16
686.443	44790.46
686.79	44651.48
687.138	44662.55
687.485	44724.02
687.832	44597.02
688.18	44623.91
688.527	44312.28
688.874	44405.39
689.221	44261.89
689.568	44148.22
689.915	44050.14
690.262	44060.54
690.609	43868.68
690.956	43653.09
691.303	43702.13
691.65	43527.44
691.997	43498.97
692.344	43234.8
692.69	43308.69
693.037	43230.05
693.383	42862.6
693.73	42988.25
694.077	42797.74
694.423	42725.43
694.769	42633.91
695.116	42615.38
695.462	42557.3
695.808	42287.93
696.155	42489.28
696.501	42101.04
696.847	42256.52
697.193	41856.53
697.539	42033.7
697.885	41630.77
698.231	41632.58
698.577	41642.97
698.923	41565.91
699.269	41325.47
699.614	41199.82
699.96	41041.63
700.306	41124.34
700.651	40927.29
700.997	40932.03
701.342	40894.74
701.688	40654.98
702.033	40620.63
702.379	40526.39
702.724	40368.88
703.069	40503.79
703.415	39897.03
703.76	40072.62
704.105	40015.45
704.45	39883.47
704.795	39558.73
705.14	39557.38
705.485	39511.5
705.83	39440.09
706.175	39336.14
706.52	39339.76
706.865	39257.5
707.209	39163.49
707.554	38960.33
707.899	39114
708.243	38909.26
708.588	38777.96
708.932	38502.94
709.277	38533
709.621	38412.1
709.966	38382.27
710.31	38372.32
710.654	38059.34
710.998	37996.52
711.342	38169.17
711.687	37788.16
712.031	37823.64
712.375	37815.95
712.719	37786.8
713.063	37730.53
713.407	37783.19
713.75	37522.86
714.094	37515.85
714.438	37369.41
714.782	37410.54
715.125	37174.84
715.469	37191.11
715.812	37019.82
716.156	36971.46
716.499	36879.93
716.843	36893.27
717.186	36746.38
717.53	36782.31
717.873	36731.01
718.216	36642.43
718.559	36474.3
718.902	36356.78
719.246	36443.79
719.589	36378.48
719.932	36191.36
720.275	36104.81
720.617	35953.4
720.96	36033.63
721.303	36059.62
721.646	35969.68
721.989	35742.11
722.331	35717.7
722.674	35682.9
723.016	35726.74
723.359	35567.65
723.701	35618.95
724.044	35340.31
724.386	35237.49
724.729	35310.26
725.071	35255.12
725.413	35186.42
725.755	35284.5
726.097	35106.2
726.439	34810.84
726.782	34843.15
727.124	35062.58
727.465	34776.94
727.807	34731.74
728.149	34687.68
728.491	34601.58
728.833	34510.28
729.175	34527
729.516	34562.26
729.858	34407
730.199	34436.83
730.541	34362.94
730.882	34237.29
731.224	34431.86
731.565	34180.8
731.906	34162.94
732.248	34110.74
732.589	34048.14
732.93	33906.45
733.271	33915.94
733.612	33864.19
733.953	33922.27
734.294	33758.89
734.635	33669.85
734.976	33715.27
735.317	33599.34
735.658	33486.8
735.999	33556.63
736.339	33368.61
736.68	33480.48
737.021	33331.1
737.361	33255.85
737.702	33363.42
738.042	33231.67
738.383	33166.36
738.723	33138.56
739.063	33028.28
739.404	33083.2
739.744	33019.02
740.084	32827.39
740.424	32781.74
740.764	32789.65
741.104	32977.66
741.444	32721.85
741.784	32552.59
742.124	32569.54
742.464	32477.34
742.804	32495.42
743.143	32368.41
743.483	32428.07
743.823	32209.1
744.162	32249.1
744.502	32269.89
744.841	32074.41
745.181	32245.03
745.52	32005.49
745.86	32043.9
746.199	32002.55
746.538	31922.32
746.877	31966.17
747.216	31838.48
747.556	31792.84
747.895	31761.42
748.234	31540.64
748.573	31488.21
748.911	31532.96
749.25	31458.83
749.589	31439.63
749.928	31271.49
750.267	31332.74
750.605	31243.92
750.944	31234.43
751.283	30975.23
751.621	30970.49
751.96	30861.56
752.298	30915.8
752.636	30822.24
752.975	30680.78
753.313	30543.6
753.651	30863.6
753.989	30586.31
754.327	30477.39
754.666	30391.07
755.004	30335.25
755.342	30358.07
755.679	30329.6
756.017	30198.08
756.355	30197.4
756.693	30015.93
757.031	29924.41
757.368	29801.93
757.706	29885.32
758.044	29717.64
758.381	29606.45
758.719	29573.46
759.056	29518.32
759.394	29507.02
759.731	29196.75
760.068	29185.22
760.405	29165.79
760.743	29092.79
761.08	29090.99
761.417	29093.92
761.754	28791.33
762.091	28768.74
762.428	28794.05
762.765	28530.32
763.102	28547.05
763.438	28429.31
763.775	28304.57
764.112	28339.14
764.449	28280.16
764.785	28106.83
765.122	27976.21
765.458	28036.55
765.795	27846.73
766.131	27813.51
766.467	27714.98
766.804	27545.04
767.14	27485.6
767.476	27466.4
767.812	27211.94
768.148	27283.8
768.485	27177.36
768.821	26953.42
769.157	26859.41
769.492	26890.59
769.828	26831.16
770.164	26608.79
770.5	26521.11
770.836	26501
771.171	26402.7
771.507	26304.85
771.842	26192.31
772.178	26146.88
772.513	25941.92
772.849	25895.36
773.184	25795.71
773.519	25725.88
773.855	25658.31
774.19	25648.37
774.525	25428.26
774.86	25430.29
775.195	25287.92
775.53	25251.54
775.865	25112.79
776.2	24854.49
776.535	24728.84
776.87	24743.53
777.205	24657.66
777.539	24500.82
777.874	24676.64
778.209	24388.74
778.543	24334.28
778.878	24142.42
779.212	24146.71
779.547	23954.17
779.881	24066.26
780.215	23822.2
780.55	23955.53
780.884	23627.4
781.218	23644.35
781.552	23745.36
781.886	23540.4
782.22	23382.66
782.554	23256.11
782.888	23145.61
783.222	23115.55
783.556	22987.42
783.889	22927.98
784.223	22745.62
784.557	22754.43
784.89	22680.76
785.224	22621.33
785.557	22592.4
785.891	22488.22
786.224	22440.09
786.558	22381.56
786.891	22153.09
787.224	22037.61
787.557	21964.17
787.891	22065.86
788.224	21901.8
788.557	21919.65
788.89	21816.38
789.223	21737.96
789.556	21737.73
789.888	21521.92
790.221	21445.54
790.554	21199.89
790.887	21371.42
791.219	21197.41
791.552	21152.66
791.884	21009.39
792.217	21020.46
792.549	21018.2
792.882	20789.28
793.214	20734.37
793.546	20713.58
793.879	20512.23
794.211	20534.83
794.543	20493.25
794.875	20476.52
795.207	20424.77
795.539	20341.84
795.871	20335.51
796.203	20175.74
796.535	20086.93
796.867	20064.78
797.198	19983.43
797.53	19903.21
797.862	19736.43
798.193	19841.74
798.525	19688.52
798.856	19685.13
799.188	19578.69
799.519	19501.63
799.85	19329.89
800.182	19408.3
800.513	19372.15
800.844	19159.72
801.175	19339.15
801.506	19231.36
801.837	19088.54
802.168	19053.96
802.499	18998.6
802.83	18870.92
803.161	18861.88
803.491	18793.63
803.822	18887.64
804.153	18574.88
804.483	18528.55
804.814	18515.45
805.145	18443.13
805.475	18387.54
805.805	18386.86
806.136	18281.33
806.466	18390.93
806.796	18384.83
807.126	18114.78
807.457	18122.01
807.787	18076.13
808.117	17957.72
808.447	17887.89
808.777	18061.22
809.107	17923.37
809.436	17896.48
809.766	17879.76
810.096	17689.7
810.426	17626.2
810.755	17650.38
811.085	17565.19
811.414	17544.4
811.744	17444.74
812.073	17384.63
812.403	17416.27
812.732	17361.35
813.061	17277.06
813.39	17186.44
813.719	17190.28
814.049	17287.91
814.378	17138.76
814.707	17058.08
815.036	17066.22
815.365	16977.41
815.693	16855.6
816.022	16789.16
816.351	16717.3
816.68	16738.09
817.008	16794.81
817.337	16560.92
817.665	16570.86
817.994	16654.25
818.322	16563.86
818.651	16586.23
818.979	16386.01
819.307	16447.25
819.636	16459.45
819.964	16452.67
820.292	16400.02
820.62	16376.29
820.948	16333.36
821.276	16273.92
821.604	16312.57
821.932	16325.22
822.259	16354.15
822.587	16291.1
822.915	16222.85
823.243	16221.95
823.57	16176.07
823.898	16256.3
824.225	16123.19
824.553	16146.02
824.88	16127.49
825.207	16202.06
825.535	16153.47
825.862	16214.71
826.189	16043.19
826.516	16212.91
826.843	16253.36
827.17	16211.78
827.497	16200.03
827.824	16252.68
828.151	16119.8
828.478	16028.05
828.805	16136.98
829.131	16132.01
829.458	16081.16
829.785	15953.7
830.111	16056.3
830.438	16113.7
830.764	16092.01
831.09	16079.58
831.417	16031.44
831.743	16004.78
832.069	16155.51
832.395	15993.48
832.722	16016.08
833.048	16032.12
833.374	16044.1
833.7	15911.22
834.026	15958.22
834.351	15898.34
834.677	15949.19
835.003	15952.35
835.329	15979.92
835.654	15873.71
835.98	15779.02
836.306	15863.09
836.631	15750.77
836.956	15818.57
837.282	15812.24
837.607	15734.28
837.932	15779.02
838.258	15746.25
838.583	15569.31
838.908	15579.25
839.233	15623.54
839.558	15524.11
839.883	15576.99
840.208	15462.64
840.533	15450.89
840.858	15514.17
841.182	15428.97
841.507	15466.49
841.832	15317.11
842.156	15385.81
842.481	15303.33
842.805	15234.85
843.13	15197.57
843.454	15205.25
843.778	15203.22
844.103	15073.28
844.427	15108.08
844.751	15063.78
845.075	15005.03
845.399	14940.62
845.723	14913.51
846.047	14870.12
846.371	14733.4
846.695	14697.47
847.019	14675.77
847.343	14544.25
847.666	14493.63
847.99	14429.45
848.313	14356.91
848.637	14371.37
848.96	14319.17
849.284	14291.83
849.607	14141.1
849.931	14162.79
850.254	14120.98
850.577	13929.13
850.9	13938.16
851.223	13902.46
851.546	13821.56
851.869	13706.08
852.192	13840.54
852.515	13635.12
852.838	13594.44
853.161	13550.15
853.483	13536.14
853.806	13462.24
854.129	13516.93
854.451	13410.49
854.774	13329.82
855.096	13229.03
855.419	13254.11
855.741	13273.55
856.063	13108.81
856.385	13095.25
856.708	13191.74
857.03	13022.03
857.352	13038.3
857.674	12951.98
857.996	12964.18
858.318	12831.98
858.64	12834.01
858.961	12830.62
859.283	12814.13
859.605	12763.73
859.926	12697.97
860.248	12588.37
860.57	12552.44
860.891	12636.28
861.212	12587.01
861.534	12433.57
861.855	12510.41
862.176	12509.95
862.498	12508.6
862.819	12520.57
863.14	12425.89
863.461	12459.56
863.782	12394.7
864.103	12315.61
864.424	12181.83
864.745	12309.51
865.065	12189.51
865.386	12249.4
865.707	12157.87
866.027	12217.31
866.348	12222.28
866.668	12178.44
866.989	12149.51
867.309	12007.14
867.63	12033.36
867.95	12042.4
868.27	12030.42
868.59	11959.01
868.91	12005.79
869.23	11998.1
869.55	11978.44
869.87	11991.78
870.19	11970.76
870.51	11936.18
870.83	11956.07
871.15	11769.63
871.469	11842.63
871.789	11768.5
872.109	11805.79
872.428	11692.12
872.748	11801.5
873.067	11685.34
873.386	11722.18
873.706	11753.14
874.025	11668.85
874.344	11599.24
874.663	11634.04
874.982	11541.39
875.301	11585.46
875.62	11586.36
875.939	11523.31
876.258	11470.21
876.577	11522.41
876.896	11430.66
877.214	11402.86
877.533	11547.04
877.852	11360.15
878.17	11429.76
878.489	11385.01
878.807	11357.44
879.125	11327.16
879.444	11272.92
879.762	11292.36
880.08	11334.62
880.398	11171.01
880.716	11191.57
881.034	11143.44
881.352	11136.43
881.67	11131.23
881.988	11258.01
882.306	11144.79
882.624	11146.15
882.941	10981.86
883.259	10982.76
883.577	10979.37
883.894	10906.83
884.212	10981.86
884.529	10929.66
884.846	10881.97
885.164	10902.99
885.481	10815.76
885.798	10870.22
886.115	10729.21
886.432	10826.38
886.75	10760.4
887.067	10714.52
887.383	10700.51
887.7	10697.57
888.017	10628.42
888.334	10627.29
888.651	10556.78
888.967	10529.21
889.284	10534.64
889.6	10500.06
889.917	10410.12
890.233	10456
890.55	10381.65
890.866	10404.25
891.182	10332.84
891.498	10328.77
891.815	10251.03
892.131	10210.58
892.447	10314.76
892.763	10155.21
893.079	10158.6
893.395	10149.11
893.71	10130.36
894.026	10093.97
894.342	10016.23
894.657	10014.2
894.973	9988.21
895.289	9984.82
895.604	9989.57
895.92	9873.86
896.235	9795.45
896.55	9816.01
896.865	9815.11
897.181	9728.11
897.496	9677.03
897.811	9614.21
898.126	9702.57
898.441	9639.52
898.756	9631.39
899.071	9549.81
899.386	9584.38
899.7	9545.96
900.015	9442.01
900.33	9427.32
900.644	9407.66
900.959	9379.64
901.273	9348.45
901.588	9282.92
901.902	9261.23
902.216	9210.38
902.531	9162.02
902.845	9187.1
903.159	9068.69
903.473	8999.09
903.787	8969.71
904.101	8967.9
904.415	9011.51
904.729	8978.07
905.042	8887.22
905.356	8903.27
905.67	8890.61
905.984	8802.93
906.297	8811.52
906.611	8693.1
906.924	8703.73
907.237	8668.47
907.551	8636.61
907.864	8645.2
908.177	8636.38
908.491	8541.7
908.804	8485.65
909.117	8456.05
909.43	8405.43
909.743	8380.8
910.056	8382.38
910.368	8302.83
910.681	8310.29
910.994	8268.26
911.307	8243.17
911.619	8154.59
911.932	8207.92
912.244	8101.26
912.557	8123.85
912.869	8039.79
913.181	7964.99
913.494	8054.03
913.806	7948.94
914.118	7888.38
914.43	7917.53
914.742	7853.13
915.054	7850.19
915.366	7802.73
915.678	7728.16
915.99	7701.49
916.302	7708.5
916.613	7660.82
916.925	7600.25
917.236	7640.93
917.548	7587.6
917.859	7552.57
918.171	7462.4
918.482	7487.03
918.794	7390.77
919.105	7438.45
919.416	7329.98
919.727	7260.83
920.038	7353.7
920.349	7273.71
920.66	7273.93
920.971	7214.95
921.282	7207.49
921.593	7113.49
921.903	7113.26
922.214	7090.44
922.525	7049.98
922.835	7005.92
923.146	6964.11
923.456	6939.03
923.767	6930.89
924.077	6938.35
924.387	6854.96
924.697	6806.37
925.008	6795.3
925.318	6777.45
925.628	6776.32
925.938	6746.49
926.248	6639.6
926.558	6692.93
926.867	6628.3
927.177	6573.61
927.487	6617.68
927.796	6512.82
928.106	6521.18
928.416	6497.46
928.725	6466.72
929.034	6416.1
929.344	6391.92
929.653	6420.85
929.962	6377.46
930.271	6346.27
930.581	6259.72
930.89	6252.04
931.199	6222.21
931.508	6300.63
931.817	6216.56
932.125	6166.84
932.434	6178.14
932.743	6083.91
933.051	6071.25
933.36	5990.12
933.669	5991.93
933.977	6002.55
934.286	5958.04
934.594	5928.66
934.902	5923.46
935.21	5883.24
935.519	5897.25
935.827	5847.3
936.135	5792.62
936.443	5770.47
936.751	5770.02
937.059	5731.83
937.367	5682.34
937.674	5708.1
937.982	5680.98
938.29	5602.34
938.597	5612.73
938.905	5626.29
939.213	5558.72
939.52	5582.45
939.827	5553.98
940.135	5480.99
940.442	5449.12
940.749	5475.11
941.056	5456.13
941.363	5382.01
941.67	5365.73
941.977	5334.77
942.284	5271.05
942.591	5305.4
942.898	5259.75
943.205	5248.9
943.511	5176.81
943.818	5242.12
944.125	5202.58
944.431	5150.15
944.738	5136.36
945.044	5126.64
945.35	5173.65
945.657	5092.75
945.963	5036.03
946.269	5022.24
946.575	5050.26
946.881	5017.72
947.187	5003.71
947.493	4899.53
947.799	4929.59
948.105	4912.64
948.41	4827.44
948.716	4892.75
949.022	4849.36
949.327	4860.21
949.633	4794.9
949.938	4789.03
950.244	4778.86
950.549	4726.2
950.854	4688.01
951.16	4658.86
951.465	4689.14
951.77	4634.45
952.075	4604.17
952.38	4619.77
952.685	4649.14
952.99	4548.58
953.294	4521.01
953.599	4519.88
953.904	4500.67
954.209	4447.57
954.513	4485.31
954.818	4482.37
955.122	4393.78
955.426	4374.8
955.731	4365.99
956.035	4365.76
956.339	4336.38
956.643	4352.65
956.948	4340.22
957.252	4290.06
957.556	4295.71
957.86	4255.48
958.163	4229.95
958.467	4209.83
958.771	4201.92
959.075	4207.12
959.378	4156.05
959.682	4181.13
959.985	4153.79
960.289	4080.34
960.592	4042.83
960.896	4064.75
961.199	4024.07
961.502	4026.33
961.805	4004.87
962.108	3973.91
962.411	3940.91
962.714	3958.77
963.017	3951.53
963.32	3925.55
963.623	3876.73
963.926	3925.55
964.228	3861.59
964.531	3850.52
964.833	3876.51
965.136	3818.66
965.438	3784.53
965.741	3798.54
966.043	3756.74
966.345	3777.53
966.648	3764.87
966.95	3722.16
967.252	3687.13
967.554	3678.55
967.856	3695.5
968.158	3624.54
968.46	3632.67
968.761	3597.19
969.063	3619.34
969.365	3645.1
969.666	3565.78
969.968	3556.06
970.269	3549.06
970.571	3528.72
970.872	3493.02
971.174	3457.54
971.475	3479
971.776	3466.58
972.077	3505.9
972.378	3438.78
972.679	3428.61
972.98	3450.98
973.281	3382.74
973.582	3412.57
973.883	3420.93
974.183	3392.91
974.484	3355.84
974.785	3319.46
975.085	3287.37
975.386	3285.56
975.686	3297.77
975.986	3257.99
976.287	3268.39
976.587	3221.16
976.887	3233.59
977.187	3244.21
977.487	3210.54
977.787	3177.09
978.087	3172.8
978.387	3102.07
978.687	3136.19
978.987	3087.83
979.286	3088.28
979.586	3071.78
979.885	3096.87
980.185	3050.54
980.484	3049.19
980.784	3026.14
981.083	3019.81
981.382	3034.72
981.682	2998.57
981.981	2985.91
982.28	2960.37
982.579	2930.54
982.878	2990.66
983.177	2910.43
983.475	2913.82
983.774	2914.5
984.073	2839.02
984.372	2858.68
984.67	2849.19
984.969	2876.31
985.267	2871.11
985.566	2843.77
985.864	2803.32
986.162	2822.75
986.461	2791.79
986.759	2759.93
987.057	2724
987.355	2722.41
987.653	2731.23
987.951	2740.72
988.249	2697.33
988.547	2689.65
988.844	2677.22
989.142	2671.79
989.44	2651
989.737	2672.7
990.035	2643.55
990.332	2608.97
990.63	2565.36
990.927	2623.66
991.224	2631.57
991.521	2564.68
991.819	2537.56
992.116	2552.25
992.413	2519.48
992.71	2530.1
993.006	2521.97
993.303	2498.47
993.6	2492.36
993.897	2484.23
994.193	2491.46
994.49	2460.5
994.787	2446.26
995.083	2405.81
995.379	2449.88
995.676	2415.53
995.972	2371.24
996.268	2399.94
996.565	2360.39
996.861	2346.15
997.157	2345.02
997.453	2345.25
997.749	2333.5
998.044	2295.76
998.34	2297.57
998.636	2266.38
998.932	2270.67
999.227	2277.23
999.523	2273.39
999.818	2216.21
1000.114	2209.89
1000.409	2216.21
1000.704	2206.72
1001	2160.17
1001.295	2175.31
1001.59	2180.51
1001.885	2165.14
1002.18	2159.04
1002.475	2119.94
1002.77	2121.3
1003.065	2088.53
1003.359	2108.65
1003.654	2111.36
1003.949	2051.7
1004.243	2057.8
1004.538	2048.31
1004.832	2036.78
1005.127	2030.91
1005.421	2025.94
1005.715	2015.77
1006.009	1998.37
1006.304	1998.37
1006.598	1973.28
1006.892	1956.33
1007.186	1946.62
1007.48	1920.85
1007.773	1949.1
1008.067	1931.7
1008.361	1894.19
1008.655	1908.2
1008.948	1874.75
1009.242	1900.51
1009.535	1881.98
1009.829	1856.67
1010.122	1838.6
1010.415	1824.81
1010.708	1831.14
1011.001	1830.23
1011.295	1770.8
1011.588	1777.81
1011.881	1790.91
1012.173	1776.45
1012.466	1733.74
1012.759	1750.46
1013.052	1755.89
1013.344	1781.2
1013.637	1735.77
1013.93	1688.09
1014.222	1709.33
1014.514	1695.32
1014.807	1687.64
1015.099	1665.72
1015.391	1660.52
1015.683	1653.29
1015.976	1645.15
1016.268	1623.91
1016.56	1594.53
1016.851	1611.94
1017.143	1603.8
1017.435	1571.26
1017.727	1566.74
1018.018	1581.43
1018.31	1558.83
1018.602	1522.45
1018.893	1538.72
1019.185	1538.72
1019.476	1511.6
1019.767	1515.44
1020.058	1511.15
1020.35	1513.63
1020.641	1504.14
1020.932	1469.57
1021.223	1458.94
1021.514	1474.54
1021.804	1443.58
1022.095	1440.87
1022.386	1444.71
1022.677	1412.39
1022.967	1416.91
1023.258	1406.29
1023.548	1409.45
1023.839	1359.74
1024.129	1383.92
1024.419	1348.89
1024.709	1368.33
1025	1325.16
1025.29	1327.65
1025.58	1317.71
1025.87	1309.8
1026.16	1294.66
1026.449	1315.67
1026.739	1291.04
1027.029	1279.51
1027.319	1282.23
1027.608	1264.6
1027.898	1263.47
1028.187	1252.62
1028.477	1225.28
1028.766	1234.32
1029.055	1209.91
1029.344	1198.61
1029.634	1205.84
1029.923	1202.91
1030.212	1164.94
1030.501	1169.01
1030.79	1158.84
1031.078	1194.09
1031.367	1162.46
1031.656	1152.51
1031.945	1138.5
1032.233	1114.09
1032.522	1103.25
1032.81	1115.68
1033.099	1117.94
1033.387	1091.27
1033.675	1076.58
1033.963	1079.52
1034.251	1070.48
1034.54	1080.88
1034.828	1087.88
1035.116	1068.67
1035.403	1062.8
1035.691	1035.9
1035.979	1080.2
1036.267	1026.19
1036.554	1030.26
1036.842	1009.46
1037.129	1018.96
1037.417	1014.44
1037.704	999.97
1037.992	997.04
1038.279	992.52
1038.566	983.48
1038.853	983.48
1039.14	983.48
