Data from plate_ceramic_FLMS001491_089.txt Node
Date: Tue Feb 07 11:17:25 GMT 2017
User: dcchb
Spectrometer: FLMS00149
Trigger mode: 0
Integration Time (sec): 2.000000E-2
Scans to average: 10
Electric dark correction enabled: true
Nonlinearity correction enabled: false
Boxcar width: 0
XAxis mode: Wavelengths
Number of Pixels in Spectrum: 2048
>>>>>Begin Spectral Data<<<<<
341.393	-26.78
341.776	-26.78
342.16	-26.78
342.543	-75.59
342.927	-76.27
343.31	-61.81
343.693	-76.04
344.077	-74.24
344.46	-49.38
344.843	-59.32
345.226	-64.74
345.61	-30.17
345.993	-17.51
346.376	-12.54
346.759	8.47
347.142	39.89
347.525	26.1
347.908	64.07
348.291	94.12
348.674	96.16
349.057	116.95
349.44	114.69
349.823	147.68
350.206	151.75
350.588	186.1
350.971	216.38
351.354	217.73
351.737	247.11
352.119	268.81
352.502	294.34
352.884	298.86
353.267	290.95
353.65	310.39
354.032	326.43
354.414	324.17
354.797	309.26
355.179	303.83
355.562	342.93
355.944	329.6
356.326	343.83
356.709	356.49
357.091	365.08
357.473	370.5
357.855	351.29
358.238	364.17
358.62	371.4
359.002	366.88
359.384	368.24
359.766	376.83
360.148	356.49
360.53	367.33
360.912	358.52
361.294	349.93
361.676	352.87
362.057	366.21
362.439	362.36
362.821	330.05
363.203	340.89
363.584	350.16
363.966	355.36
364.348	351.97
364.729	354.91
365.111	356.49
365.493	345.41
365.874	347.45
366.256	336.38
366.637	366.88
367.019	353.78
367.4	362.14
367.781	345.19
368.163	345.19
368.544	340.22
368.925	356.04
369.306	363.95
369.688	356.71
370.069	357.39
370.45	348.35
370.831	346.32
371.212	361.23
371.593	358.75
371.974	353.32
372.355	356.49
372.736	358.07
373.117	360.78
373.498	362.59
373.879	370.72
374.26	361.69
374.641	348.13
375.021	372.08
375.402	364.17
375.783	374.57
376.163	379.99
376.544	389.48
376.925	381.12
377.305	384.51
377.686	371.63
378.066	401.91
378.447	397.62
378.827	398.75
379.208	371.85
379.588	411.4
379.968	422.02
380.349	413.66
380.729	414.57
381.109	407.79
381.489	413.66
381.87	413.21
382.25	408.01
382.63	398.52
383.01	424.73
383.39	420.21
383.77	427.67
384.15	440.78
384.53	430.38
384.91	437.39
385.29	449.37
385.67	428.35
386.049	450.27
386.429	453.66
386.809	439.65
387.189	455.02
387.568	456.6
387.948	447.56
388.328	475.13
388.707	468.8
389.087	475.35
389.466	470.16
389.846	484.39
390.225	488.91
390.605	481.91
390.984	505.86
391.363	502.7
391.743	511.96
392.122	501.34
392.501	518.07
392.881	533.88
393.26	532.98
393.639	537.73
394.018	533.88
394.397	534.79
394.776	530.72
395.155	545.41
395.534	549.7
395.913	562.81
396.292	545.18
396.671	550.61
397.05	565.75
397.429	579.53
397.808	565.75
398.186	591.28
398.565	579.76
398.944	607.78
399.323	592.64
399.701	591.28
400.08	596.26
400.458	619.53
400.837	617.72
401.215	631.51
401.594	622.24
401.972	634.22
402.351	648.46
402.729	646.2
403.107	653.66
403.486	650.04
403.864	654.33
404.242	672.86
404.62	660.89
404.999	664.28
405.377	708.79
405.755	702.69
406.133	715.57
406.511	713.77
406.889	715.12
407.267	754.22
407.645	758.74
408.023	705.63
408.401	734.56
408.779	773.88
409.156	761.22
409.534	755.12
409.912	779.98
410.29	806.42
410.667	841.22
411.045	818.4
411.422	806.19
411.8	835.35
412.178	849.13
412.555	854.33
412.933	874.89
413.31	880.32
413.687	881.9
414.065	899.98
414.442	895.91
414.819	930.03
415.197	916.25
415.574	953.31
415.951	959.64
416.328	935.91
416.705	966.87
417.082	953.76
417.46	963.03
417.837	987.21
418.214	1024.72
418.591	1008.67
418.967	1018.84
419.344	1024.94
419.721	1072.18
420.098	1062.46
420.475	1053.87
420.852	1069.92
421.228	1064.04
421.605	1089.12
421.982	1099.07
422.358	1111.5
422.735	1121.89
423.111	1125.96
423.488	1128.9
423.864	1161.89
424.241	1147.65
424.617	1192.4
424.994	1190.82
425.37	1175.9
425.746	1215.67
426.123	1220.65
426.499	1227.43
426.875	1262.68
427.251	1278.95
427.627	1302.23
428.003	1312.62
428.379	1309.91
428.756	1350.36
429.132	1331.38
429.507	1382.22
429.883	1370.25
430.259	1408.44
430.635	1418.61
431.011	1448.21
431.387	1449.11
431.763	1507.42
432.138	1473.07
432.514	1493.18
432.89	1544.93
433.265	1574.53
433.641	1577.92
434.016	1602.78
434.392	1591.71
434.767	1634.65
435.143	1608.43
435.518	1656.34
435.894	1657.02
436.269	1675.1
436.644	1711.71
437.02	1745.6
437.395	1757.81
437.77	1735.89
438.145	1784.25
438.52	1817.01
438.895	1838.71
439.271	1816.56
439.646	1861.08
440.021	1859.5
440.395	1868.76
440.77	1863.11
441.145	1874.19
441.52	1935.88
441.895	1936.79
442.27	1932.94
442.645	1940.63
443.019	1986.5
443.394	1964.81
443.769	2012.49
444.143	1966.61
444.518	2056.1
444.892	2031.25
445.267	2052.71
445.641	2072.15
446.016	2076.44
446.39	2121.19
446.764	2086.16
447.139	2086.84
447.513	2126.61
447.887	2149.66
448.262	2151.24
448.636	2178.13
449.01	2228.3
449.384	2232.37
449.758	2226.95
450.132	2249.77
450.506	2275.99
450.88	2338.13
451.254	2291.8
451.628	2337.23
452.002	2328.41
452.376	2402.99
452.75	2399.82
453.123	2419.48
453.497	2473.72
453.871	2483.66
454.244	2536.77
454.618	2552.36
454.992	2577.9
455.365	2607.73
455.739	2671.91
456.112	2680.27
456.486	2688.86
456.859	2723.88
457.232	2794.39
457.606	2789.64
457.979	2849.08
458.352	2868.74
458.725	2898.12
459.099	2954.84
459.472	2968.4
459.845	3022.41
460.218	3071.22
460.591	3038.45
460.964	3079.81
461.337	3143.08
461.71	3206.36
462.083	3249.29
462.456	3247.03
462.829	3240.03
463.201	3362.28
463.574	3328.16
463.947	3349.63
464.32	3437.31
464.692	3510.08
465.065	3529.29
465.438	3547.59
465.81	3662.16
466.183	3655.38
466.555	3763.63
466.928	3779.67
467.3	3736.29
467.672	3845.89
468.045	3987.58
468.417	3932.66
468.789	4013.34
469.161	4024.64
469.534	4044.07
469.906	4204.3
470.278	4159.33
470.65	4243.39
471.022	4340.79
471.394	4420.11
471.766	4475.48
472.138	4462.37
472.51	4623.49
472.882	4692.87
473.253	4689.71
473.625	4752.76
473.997	4875.92
474.369	4918.63
474.74	4949.81
475.112	5012.64
475.484	5167.21
475.855	5257.15
476.227	5322.23
476.598	5389.8
476.97	5439.52
477.341	5641.32
477.713	5638.38
478.084	5721.54
478.455	5900.75
478.827	5922.9
479.198	6099.61
479.569	6090.57
479.94	6295.09
480.311	6383
480.682	6420.96
481.053	6608.53
481.424	6754.96
481.795	6779.82
482.166	6901.85
482.537	6943.21
482.908	7145.91
483.279	7223.43
483.65	7397.21
484.021	7558.11
484.391	7566.69
484.762	7668.61
485.133	7769.4
485.503	7895.27
485.874	8004.65
486.244	8134.36
486.615	8250.07
486.985	8336.62
487.356	8486.22
487.726	8565.54
488.097	8750.17
488.467	8856.6
488.837	9010.27
489.207	9057.95
489.578	9257.5
489.948	9304.95
490.318	9424.72
490.688	9506.76
491.058	9636.7
491.428	9749.91
491.798	9870.59
492.168	10062.9
492.538	10127.3
492.908	10180.64
493.278	10365.04
493.648	10349.9
494.017	10561.64
494.387	10651.13
494.757	10729.55
495.126	10819.72
495.496	10822.88
495.866	10961.41
496.235	11079.37
496.605	11216.09
496.974	11213.6
497.344	11354.16
497.713	11386.25
498.082	11515.52
498.452	11671.22
498.821	11738.56
499.19	11719.8
499.559	11894.04
499.928	11941.72
500.298	12076.41
500.667	12159.57
501.036	12202.05
501.405	12313.91
501.774	12383.97
502.143	12460.12
502.512	12555.94
502.88	12569.05
503.249	12621.02
503.618	12841.13
503.987	12873.22
504.356	12921.36
504.724	13029.6
505.093	13108.24
505.462	13221.23
505.83	13218.75
506.199	13479.76
506.567	13549.59
506.936	13602.02
507.304	13799.3
507.672	13730.6
508.041	13838.39
508.409	14004.04
508.777	14116.35
509.145	14161.77
509.514	14247.87
509.882	14371.71
510.25	14445.61
510.618	14585.94
510.986	14555.21
511.354	14703.68
511.722	14831.14
512.09	14958.59
512.458	14967.4
512.826	15148.42
513.193	15230.67
513.561	15339.37
513.929	15473.6
514.297	15644.22
514.664	15667.5
515.032	15862.07
515.4	15867.94
515.767	16107.26
516.135	16144.1
516.502	16085.79
516.869	16392
517.237	16400.59
517.604	16484.65
517.972	16726.23
518.339	16833.34
518.706	16847.35
519.073	17011.87
519.44	17011.87
519.808	17302.71
520.175	17352.88
520.542	17570.27
520.909	17717.39
521.276	17720.55
521.643	17933.88
522.009	18031.28
522.376	18212.74
522.743	18234.44
523.11	18433.07
523.477	18595.56
523.843	18838.26
524.21	18963.91
524.577	19000.52
524.943	19237.8
525.31	19313.96
525.676	19435.08
526.043	19690.44
526.409	19728.41
526.776	19930.89
527.142	20026.03
527.508	20106.03
527.874	20384.66
528.241	20481.38
528.607	20474.15
528.973	20727.25
529.339	20765.22
529.705	20984.87
530.071	21043.63
530.437	21257.18
530.803	21362.04
531.169	21506.21
531.535	21440.23
531.901	21578.53
532.267	21703.05
532.632	21873.21
532.998	22035.92
533.364	22099.87
533.73	22211.96
534.095	22412.18
534.461	22485.17
534.826	22612.17
535.192	22767.88
535.557	22909.34
535.923	22915.89
536.288	22962.67
536.653	23039.96
537.019	23100.75
537.384	23159.05
537.749	23296
538.114	23413.51
538.479	23486.95
538.845	23530.34
539.21	23567.4
539.575	23744.35
539.94	23804.91
540.305	23985.92
540.67	23899.82
541.034	24032.7
541.399	24195.86
541.764	24260.72
542.129	24357.44
542.494	24498.9
542.858	24625.45
543.223	24641.05
543.587	24808.95
543.952	24839.01
544.316	24862.96
544.681	24914.94
545.045	25041.94
545.41	25176.85
545.774	25224.76
546.138	25229.96
546.503	25227.02
546.867	25483.28
547.231	25612.55
547.595	25725.99
547.959	25771.19
548.324	25789.94
548.688	25939.54
549.052	26072.87
549.416	26271.51
549.779	26241.23
550.143	26278.29
550.507	26501.11
550.871	26580.88
551.235	26566.19
551.599	26729.58
551.962	26775.45
552.326	26879.18
552.689	27068.78
553.053	27031.94
553.417	27108.1
553.78	27376.57
554.143	27336.12
554.507	27510.58
554.87	27729.33
555.234	27875.09
555.597	27877.57
555.96	27935.88
556.323	28126.83
556.686	28110.11
557.05	28402.08
557.413	28550.77
557.776	28544.45
558.139	28840.94
558.502	28875.06
558.865	28958
559.228	29162.96
559.59	29287.93
559.953	29324.54
560.316	29649.95
560.679	29629.16
561.041	29717.3
561.404	30053.11
561.767	30151.86
562.129	30181.69
562.492	30493.77
562.854	30444.06
563.217	30608.57
563.579	30746.65
563.941	30864.61
564.304	30938.28
564.666	31223.25
565.028	31231.83
565.39	31396.58
565.753	31475.22
566.115	31712.05
566.477	31822.1
566.839	31915.43
567.201	32123.11
567.563	32253.73
567.925	32439.71
568.287	32454.4
568.648	32607.84
569.01	32758.8
569.372	32931.45
569.734	32788.86
570.095	33075.4
570.457	33291.67
570.819	33288.28
571.18	33382.74
571.542	33538.21
571.903	33634.48
572.265	33766.91
572.626	33835.61
572.987	33872.22
573.349	34057.75
573.71	34297.06
574.071	34279.44
574.432	34328.7
574.794	34605.08
575.155	34575.02
575.516	34446.44
575.877	34727.56
576.238	34872.19
576.599	34867.9
576.96	34915.58
577.32	34930.72
577.681	35092.98
578.042	35375
578.403	35276.7
578.763	35241.45
579.124	35337.71
579.485	35539.07
579.845	35539.29
580.206	35529.35
580.566	35584.04
580.927	35492.74
581.287	35686.41
581.648	35567.77
582.008	35784.26
582.368	35633.53
582.728	35846.4
583.089	35709.68
583.449	35771.38
583.809	35743.58
584.169	36017.25
584.529	35860.86
584.889	36016.12
585.249	35900.64
585.609	35939.73
585.969	36184.02
586.329	35947.19
586.688	35895.21
587.048	36066.51
587.408	35897.02
587.768	35905.84
588.127	35941.09
588.487	35944.03
588.846	36311.7
589.206	35871.71
589.565	36068.54
589.925	36235.77
590.284	36067.64
590.643	36140.63
591.003	36130.01
591.362	36351.93
591.721	36212.49
592.08	36206.17
592.44	36444.13
592.799	36415.65
593.158	36254.75
593.517	36337.69
593.876	36499.04
594.235	36283.68
594.593	36470.11
594.952	36404.81
595.311	36326.16
595.67	36484.58
596.029	36624.23
596.387	36725.25
596.746	36729.32
597.104	36584.91
597.463	36564.58
597.822	36635.76
598.18	36534.29
598.538	36562.77
598.897	36882.08
599.255	36516.44
599.613	37158.23
599.972	36782.87
600.33	37042.53
600.688	36802.76
601.046	36940.61
601.404	37050.44
601.762	36889.99
602.12	37162.75
602.478	37164.11
602.836	37159.36
603.194	36886.6
603.552	37230.55
603.91	37010.21
604.268	37301.05
604.625	37065.35
604.983	37241.85
605.341	37059.03
605.698	37399.13
606.056	37370.66
606.413	37473.25
606.771	37432.12
607.128	37581.95
607.485	37398
607.843	37489.3
608.2	37680.7
608.557	37606.36
608.914	37612.91
609.272	37660.14
609.629	37818.1
609.986	37921.83
610.343	37836.86
610.7	38028.27
611.057	38150.3
611.414	38069.85
611.771	38078.43
612.127	38135.83
612.484	38152.78
612.841	38229.16
613.198	38080.47
613.554	38099
613.911	38491.08
614.267	38318.2
614.624	38517.29
614.98	38484.07
615.337	38603.84
615.693	38488.14
616.05	38439.33
616.406	38698.53
616.762	38554.58
617.118	38559.55
617.475	38670.28
617.831	38697.4
618.187	38701.69
618.543	38843.16
618.899	38961.8
619.255	38749.83
619.611	38738.3
619.967	38828.7
620.323	39055.81
620.678	38956.38
621.034	38823.5
621.39	38707.57
621.746	38829.83
622.101	39271.62
622.457	38918.41
622.812	39003.83
623.168	39105.3
623.523	39020.1
623.879	39063.27
624.234	38814.91
624.589	38950.73
624.945	39197.05
625.3	38989.37
625.655	39020.33
626.01	39056.26
626.365	38993.89
626.72	38982.36
627.075	39085.19
627.43	39050.16
627.785	38947.79
628.14	38951.63
628.495	39028.24
628.85	38971.74
629.205	38727.68
629.559	39051.06
629.914	38859.2
630.269	38863.27
630.623	38763.61
630.978	38681.81
631.332	38826.44
631.687	38812.2
632.041	38644.07
632.396	38711.86
632.75	38498.76
633.104	38584.64
633.459	38576.95
633.813	38391.42
634.167	38403.85
634.521	38505.54
634.875	38362.27
635.229	38356.17
635.583	38170.41
635.937	38176.74
636.291	38190.75
636.645	38158.43
636.999	38123.86
637.352	38258.54
637.706	37962.73
638.06	38217.64
638.413	37946.01
638.767	37885.22
639.121	37937.65
639.474	37768.16
639.828	37735.17
640.181	37662.4
640.534	37867.59
640.888	37633.47
641.241	37530.88
641.594	37666.02
641.947	37644.55
642.301	37555.96
642.654	37542.63
643.007	37433.25
643.36	37342.86
643.713	37413.82
644.066	37615.17
644.419	37230.32
644.771	36972.47
645.124	36539.04
645.477	36424.69
645.83	36292.94
646.182	36223.34
646.535	36087.75
646.888	36289.33
647.24	36061.09
647.593	36420.17
647.945	36218.6
648.298	36029.67
648.65	35842.56
649.002	35725.95
649.355	35963.24
649.707	35824.71
650.059	35937.7
650.411	36300.4
650.763	36381.53
651.115	36751.24
651.467	36583.78
651.819	36562.32
652.171	36533.16
652.523	36513.05
652.875	36414.75
653.227	36330.91
653.578	36637.34
653.93	36467.85
654.282	36223.34
654.633	36221.76
654.985	36337.46
655.337	36145.6
655.688	36225.15
656.039	36366.16
656.391	35996.23
656.742	36130.01
657.094	36061.31
657.445	36132.5
657.796	36011.82
658.147	35918.94
658.498	35852.5
658.849	36062.67
659.2	35928.89
659.551	35910.81
659.902	35920.98
660.253	35992.84
660.604	35929.56
660.955	35791.71
661.306	35891.37
661.656	35746.07
662.007	35715.56
662.358	35781.77
662.708	35755.11
663.059	35646.86
663.409	35450.03
663.76	35749.23
664.11	35784.03
664.461	35723.02
664.811	35739.29
665.161	35671.49
665.511	35685.5
665.862	35614.32
666.212	35630.36
666.562	35715.78
666.912	35687.54
667.262	35613.41
667.612	35643.92
667.962	35604.6
668.312	35471.72
668.662	35514.89
669.011	35440.99
669.361	35509.46
669.711	35437.83
670.06	35347.43
670.41	35203.03
670.76	35197.15
671.109	35447.99
671.459	35348.56
671.808	35216.36
672.157	35266.3
672.507	34968.91
672.856	34963.49
673.205	34993.32
673.554	35224.5
673.904	35068.34
674.253	35189.92
674.602	35215.23
674.951	34725.98
675.3	34558.98
675.649	35064.05
675.998	35036.93
676.346	35009.36
676.695	35118.96
677.044	34767.56
677.393	34918.52
677.741	35010.94
678.09	34784.96
678.438	34636.49
678.787	34866.54
679.135	34818.41
679.484	34644.17
679.832	34699.54
680.181	34531.86
680.529	34614.8
680.877	34436.5
681.225	34364.86
681.573	34636.72
681.922	34335.26
682.27	34200.8
682.618	34301.13
682.966	34176.16
683.314	34261.36
683.661	34051.87
684.009	34047.13
684.357	34041.25
684.705	33966
685.053	33969.62
685.4	33972.78
685.748	33728.94
686.095	33791.09
686.443	33627.7
686.79	33513.13
687.138	33527.14
687.485	33630.42
687.832	33322.85
688.18	33475.62
688.527	33318.33
688.874	33284.66
689.221	33125.12
689.568	32991.11
689.915	32992.47
690.262	33023.88
690.609	32878.12
690.956	32845.13
691.303	32770.32
691.65	32628.86
691.997	32561.29
692.344	32392.71
692.69	32494.17
693.037	32490.56
693.383	32207.18
693.73	32316.78
694.077	32052.6
694.423	32095.09
694.769	32090.34
695.116	31994.98
695.462	31872.95
695.808	31672.73
696.155	31808.54
696.501	31528.32
696.847	31564.48
697.193	31313.87
697.539	31426.63
697.885	31173.76
698.231	31107.32
698.577	31156.13
698.923	30931.05
699.269	30841.79
699.614	30752.07
699.96	30728.34
700.306	30749.81
700.651	30603.15
700.997	30548.01
701.342	30448.13
701.688	30451.06
702.033	30428.47
702.379	30332.2
702.724	30115.93
703.069	30200
703.415	29983.28
703.76	29842.49
704.105	29933.34
704.45	29789.16
704.795	29638.2
705.14	29575.15
705.485	29653.12
705.83	29314.82
706.175	29453.8
706.52	29437.31
706.865	29212.9
707.209	29217.65
707.554	29060.59
707.899	29197.09
708.243	29080.03
708.588	29054.04
708.932	28770.88
709.277	28643.88
709.621	28723.88
709.966	28710.32
710.31	28702.64
710.654	28396.65
710.998	28508.06
711.342	28600.72
711.687	28337.67
712.031	28261.52
712.375	28119.83
712.719	28215.87
713.063	28261.74
713.407	28193.72
713.75	28022.88
714.094	28011.13
714.438	27988.98
714.782	27983.11
715.125	27883.22
715.469	27789.44
715.812	27523.91
716.156	27495.89
716.499	27627.18
716.843	27588.31
717.186	27387.42
717.53	27483.46
717.873	27514.64
718.216	27418.38
718.559	27209.34
718.902	27229.68
719.246	27244.14
719.589	27069.68
719.932	26902.23
720.275	27046.18
720.617	27010.02
720.96	26948.56
721.303	26872.4
721.646	26864.94
721.989	26673.99
722.331	26835.79
722.674	26553.77
723.016	26609.58
723.359	26565.06
723.701	26628.79
724.044	26355.35
724.386	26282.81
724.729	26294.79
725.071	26344.96
725.413	26292.98
725.755	26234.9
726.097	26136.37
726.439	26109.26
726.782	26104.74
727.124	26149.71
727.465	25991.75
727.807	25881.24
728.149	25816.61
728.491	25814.12
728.833	25760.79
729.175	25717.18
729.516	25704.75
729.858	25705.88
730.199	25735.03
730.541	25583.62
730.882	25622.26
731.224	25655.71
731.565	25539.78
731.906	25526.22
732.248	25506.11
732.589	25394.47
732.93	25372.1
733.271	25317.41
733.612	25389.28
733.953	25419.56
734.294	25272.89
734.635	25152.9
734.976	25180.69
735.317	25087.36
735.658	25034.71
735.999	25049.62
736.339	24974.37
736.68	25127.81
737.021	24927.14
737.361	24897.54
737.702	24966.24
738.042	24871.55
738.383	24829.52
738.723	24772.34
739.063	24608.51
739.404	24852.34
739.744	24603.53
740.084	24626.81
740.424	24694.83
740.764	24425.23
741.104	24563.08
741.444	24504.1
741.784	24463.65
742.124	24532.12
742.464	24393.14
742.804	24375.97
743.143	24286.93
743.483	24129.42
743.823	24098.24
744.162	24105.02
744.502	24067.05
744.841	24102.3
745.181	24051.01
745.52	23982.08
745.86	24033.38
746.199	23910.22
746.538	23816.66
746.877	23876.55
747.216	23903.67
747.556	23728.3
747.895	23753.16
748.234	23703.44
748.573	23581.64
748.911	23577.12
749.25	23649.89
749.589	23572.37
749.928	23590.91
750.267	23453.28
750.605	23370.35
750.944	23250.58
751.283	23176.9
751.621	23321.99
751.96	23100.3
752.298	23028.43
752.636	23121.76
752.975	23009.45
753.313	22881.77
753.651	23042.22
753.989	22959.28
754.327	22844.94
754.666	22691.04
755.004	22757.93
755.342	22792.51
755.679	22760.87
756.017	22583.47
756.355	22647.65
756.693	22460.99
757.031	22531.05
757.368	22371.05
757.706	22352.29
758.044	22248.79
758.381	22289.47
758.719	22185.29
759.056	22273.65
759.394	22045.18
759.731	21948.01
760.068	21967.22
760.405	21793.21
760.743	21726.55
761.08	21953.21
761.417	21799.54
761.754	21656.49
762.091	21580.79
762.428	21501.02
762.765	21378.31
763.102	21540.79
763.438	21352.55
763.775	21277.29
764.112	21323.39
764.449	21301.93
764.785	21098.99
765.122	20917.53
765.458	20963.63
765.795	20919.34
766.131	20740.36
766.467	20720.25
766.804	20660.81
767.14	20535.39
767.476	20427.82
767.812	20384.21
768.148	20460.82
768.485	20342.85
768.821	20284.1
769.157	20176.53
769.492	20126.36
769.828	20136.53
770.164	19958.01
770.5	19923.2
770.836	19947.61
771.171	19744.68
771.507	19724.57
771.842	19607.06
772.178	19610.44
772.513	19542.42
772.849	19483.44
773.184	19296.78
773.519	19198.03
773.855	19169.78
774.19	19153.73
774.525	19111.47
774.86	19073.74
775.195	19052.49
775.53	18941.31
775.865	18886.17
776.2	18696.12
776.535	18583.81
776.87	18578.38
777.205	18552.85
777.539	18456.12
777.874	18443.92
778.209	18243.48
778.543	18289.58
778.878	18184.95
779.212	18206.19
779.547	17969.58
779.881	18074.44
780.215	17896.59
780.55	17936.59
780.884	17795.58
781.218	17758.06
781.552	17739.31
781.886	17680.55
782.22	17621.34
782.554	17535.25
782.888	17345.19
783.222	17272.2
783.556	17214.58
783.889	17210.28
784.223	17146.55
784.557	17002.83
784.89	17148.59
785.224	16955.6
785.557	16873.79
785.891	16901.36
786.224	16757.86
786.558	16759.45
786.891	16617.76
787.224	16596.74
787.557	16543.63
787.891	16545.89
788.224	16408.95
788.557	16494.59
788.89	16450.75
789.223	16448.04
789.556	16164.21
789.888	16139.35
790.221	16016.64
790.554	15989.3
790.887	15949.52
791.219	15879.47
791.552	15942.97
791.884	15919.24
792.217	15763.77
792.549	15704.11
792.882	15579.36
793.214	15558.8
793.546	15603.32
793.879	15392.02
794.211	15327.62
794.543	15351.57
794.875	15262.08
795.207	15439.48
795.539	15277.9
795.871	15190.22
796.203	15133.73
796.535	15075.42
796.867	15050.79
797.198	14911.59
797.53	14941.19
797.862	14844.24
798.193	14917.01
798.525	14813.28
798.856	14828.2
799.188	14707.75
799.519	14634.98
799.85	14539.39
800.182	14491.26
800.513	14558.83
800.844	14428.89
801.175	14472.05
801.506	14404.25
801.837	14258.04
802.168	14364.48
802.499	14309.79
802.83	14146.86
803.161	14173.07
803.491	14070.7
803.822	14132.4
804.153	14024.15
804.483	13914.78
804.814	13865.74
805.145	13840.88
805.475	13819.64
805.805	13821.9
806.136	13771.5
806.466	13799.3
806.796	13698.28
807.126	13638.4
807.457	13581.9
807.787	13571.28
808.117	13459.19
808.447	13421.68
808.777	13475.69
809.107	13387.11
809.436	13379.42
809.766	13396.14
810.096	13323.38
810.426	13188.01
810.755	13234.34
811.085	13105.53
811.414	13220.1
811.744	13111.86
812.073	13044.06
812.403	13045.65
812.732	12898.76
813.061	12930.17
813.39	12823.73
813.719	12850.17
814.049	12878.42
814.378	12797.06
814.707	12853.33
815.036	12763.85
815.365	12756.84
815.693	12542.16
816.022	12656.5
816.351	12615.83
816.68	12570.63
817.008	12590.74
817.337	12461.03
817.665	12403.85
817.994	12526.11
818.322	12437.98
818.651	12412.22
818.979	12398.21
819.307	12433.01
819.636	12384.19
819.964	12302.16
820.292	12339
820.62	12300.58
820.948	12266.91
821.276	12229.4
821.604	12149.17
821.932	12258.55
822.259	12212.22
822.587	12188.95
822.915	12234.37
823.243	12209.96
823.57	12168.61
823.898	12172.67
824.225	12077.08
824.553	12211.77
824.88	12107.59
825.207	12160.92
825.535	12145.56
825.862	12104.65
826.189	12129.74
826.516	12092.68
826.843	12131.09
827.17	12172
827.497	12198.44
827.824	12137.87
828.151	12099.91
828.478	12103.3
828.805	12139.68
829.131	12049.51
829.458	12069.63
829.785	11976.97
830.111	12099.23
830.438	12031.66
830.764	12088.61
831.09	12042.73
831.417	12028.95
831.743	12030.08
832.069	12101.26
832.395	11969.52
832.722	12002.51
833.048	12030.53
833.374	12009.06
833.7	11982.85
834.026	11953.25
834.351	11963.64
834.677	11911.89
835.003	12037.54
835.329	12000.7
835.654	11889.07
835.98	11814.27
836.306	11863.3
836.631	11857.43
836.956	11878.44
837.282	11893.81
837.607	11776.3
837.932	11730.2
838.258	11793.93
838.583	11764.55
838.908	11686.13
839.233	11771.55
839.558	11670.77
839.883	11680.03
840.208	11587.6
840.533	11610.66
840.858	11630.09
841.182	11699.47
841.507	11539.24
841.832	11489.3
842.156	11452.92
842.481	11424.22
842.805	11461.51
843.13	11372.7
843.454	11389.42
843.778	11349.65
844.103	11278.69
844.427	11316.88
844.751	11335.41
845.075	11247.5
845.399	11198.24
845.723	11231.68
846.047	11230.55
846.371	11085.47
846.695	11154.62
847.019	11003.67
847.343	10905.81
847.666	10952.37
847.99	10926.83
848.313	10868.08
848.637	10684.8
848.96	10779.04
849.284	10722.54
849.607	10600.51
849.931	10608.65
850.254	10592.83
850.577	10530.68
850.9	10465.83
851.223	10391.93
851.546	10375.43
851.869	10341.08
852.192	10370.69
852.515	10315.32
852.838	10294.08
853.161	10182.9
853.483	10214.53
853.806	10100.64
854.129	10117.59
854.451	10091.6
854.774	10136.8
855.096	9971.15
855.419	9997.14
855.741	9936.35
856.063	9933.64
856.385	9892.06
856.708	9809.57
857.03	9839.18
857.352	9776.35
857.674	9739.97
857.996	9691.84
858.318	9632.4
858.64	9666.3
858.961	9643.48
859.283	9572.97
859.605	9525.96
859.926	9537.26
860.248	9546.53
860.57	9456.81
860.891	9506.08
861.212	9421.79
861.534	9480.32
861.855	9394.89
862.176	9384.5
862.498	9351.96
862.819	9335.01
863.14	9347.89
863.461	9330.04
863.782	9318.74
864.103	9259.3
864.424	9224.5
864.745	9233.09
865.065	9246.65
865.386	9185.41
865.707	9214.56
866.027	9200.55
866.348	9183.15
866.668	9199.87
866.989	9095.24
867.309	9074.22
867.63	9065.86
867.95	9061.34
868.27	9008.46
868.59	9039.2
868.91	9141.34
869.23	9033.1
869.55	8921.69
869.87	9015.92
870.19	8977.73
870.51	8987
870.83	9013.44
871.15	8918.52
871.469	8902.03
871.789	8978.41
872.109	8858.86
872.428	8827.45
872.748	8910.84
873.067	8812.31
873.386	8856.15
873.706	8822.03
874.025	8780.22
874.344	8741.35
874.663	8754.23
874.982	8734.12
875.301	8738.41
875.62	8714.69
875.939	8756.27
876.258	8613.67
876.577	8605.31
876.896	8576.61
877.214	8601.92
877.533	8638.53
877.852	8633.11
878.17	8609.38
878.489	8592.66
878.807	8547.23
879.125	8561.47
879.444	8538.87
879.762	8468.14
880.08	8489.16
880.398	8416.61
880.716	8402.6
881.034	8382.49
881.352	8394.24
881.67	8412.77
881.988	8353.11
882.306	8403.06
882.624	8369.61
882.941	8365.32
883.259	8250.52
883.577	8331.42
883.894	8233.12
884.212	8335.49
884.529	8256.62
884.846	8220.24
885.164	8243.51
885.481	8201.93
885.798	8194.02
886.115	8130.75
886.432	8109.05
886.75	8081.93
887.067	8115.38
887.383	8089.84
887.7	8087.36
888.017	7991.54
888.334	8034.7
888.651	7982.28
888.967	7903.41
889.284	7849.85
889.6	7870.64
889.917	7844.2
890.233	7853.47
890.55	7852.11
890.866	7843.07
891.182	7812.56
891.498	7796.52
891.815	7758.55
892.131	7683.98
892.447	7730.76
892.763	7704.09
893.079	7635.17
893.395	7586.81
893.71	7643.98
894.026	7637.2
894.342	7579.12
894.657	7506.58
894.973	7570.76
895.289	7573.02
895.604	7566.47
895.92	7443.76
896.235	7434.27
896.55	7423.87
896.865	7357.43
897.181	7333.48
897.496	7303.2
897.811	7299.81
898.126	7198.12
898.441	7227.27
898.756	7209.64
899.071	7177.33
899.386	7199.47
899.7	7111.79
900.015	7103.43
900.33	7087.84
900.644	7087.16
900.959	7068.4
901.273	7027.5
901.588	7021.17
901.902	6919.03
902.216	6958.12
902.531	6937.78
902.845	6902.3
903.159	6881.06
903.473	6817.11
903.787	6806.49
904.101	6817.79
904.415	6759.48
904.729	6740.27
905.042	6739.37
905.356	6656.44
905.67	6662.99
905.984	6673.16
906.297	6606.04
906.611	6562.2
906.924	6538.7
907.237	6576.89
907.551	6497.12
907.864	6536.44
908.177	6507.06
908.491	6470.68
908.804	6429.77
909.117	6351.58
909.43	6396.78
909.743	6317.91
910.056	6359.72
910.368	6305.71
910.681	6292.15
910.994	6223
911.307	6155.43
911.619	6130.57
911.932	6178.48
912.244	6139.84
912.557	6105.49
912.869	6117.92
913.181	6060.97
913.494	6091.93
913.806	5969.67
914.118	5985.49
914.43	5964.93
914.742	5952.27
915.054	5952.95
915.366	5868.43
915.678	5863.69
915.99	5841.54
916.302	5818.72
916.613	5777.14
916.925	5733.07
917.236	5782.11
917.548	5757.93
917.859	5729.68
918.171	5685.84
918.482	5675.9
918.794	5613.98
919.105	5637.03
919.416	5551.61
919.727	5581.21
920.038	5597.71
920.349	5490.82
920.66	5457.82
920.971	5502.57
921.282	5491.72
921.593	5474.32
921.903	5373.76
922.214	5380.31
922.525	5393.19
922.835	5289.47
923.146	5313.65
923.456	5294.89
923.767	5279.75
924.077	5276.58
924.387	5210.37
924.697	5179.19
925.008	5146.87
925.318	5179.19
925.628	5167.66
925.938	5118.85
926.248	5078.62
926.558	5063.48
926.867	5054.22
927.177	5030.94
927.487	4992.75
927.796	5031.39
928.106	4924.96
928.416	4926.99
928.725	4930.83
929.034	4861.91
929.344	4881.34
929.653	4871.4
929.962	4830.27
930.271	4767.9
930.581	4771.06
930.89	4739.65
931.199	4708.46
931.508	4724.51
931.817	4677.73
932.125	4697.16
932.434	4678.86
932.743	4652.42
933.051	4637.73
933.36	4598.41
933.669	4564.29
933.977	4516.6
934.286	4542.82
934.594	4554.57
934.902	4501.69
935.21	4470.5
935.519	4477.74
935.827	4416.72
936.135	4435.48
936.443	4408.58
936.751	4362.71
937.059	4408.81
937.367	4352.77
937.674	4365.65
937.982	4288.81
938.29	4303.5
938.597	4310.28
938.905	4280.9
939.213	4264.63
939.52	4227.12
939.827	4255.37
940.135	4200.91
940.442	4181.02
940.749	4162.04
941.056	4140.34
941.363	4108.03
941.67	4082.94
941.977	4088.82
942.284	4066.22
942.591	4034.13
942.898	4031.19
943.205	4014.24
943.511	4000.46
943.818	3943.29
944.125	3950.74
944.431	3936.28
944.738	3916.85
945.044	3916.62
945.35	3903.29
945.657	3877.98
945.963	3849.73
946.269	3906.68
946.575	3836.85
946.881	3815.83
947.187	3785.55
947.493	3765.44
947.799	3801.82
948.105	3746.91
948.41	3744.87
948.716	3740.81
949.022	3697.64
949.327	3693.35
949.633	3684.08
949.938	3701.03
950.244	3667.81
950.549	3663.29
950.854	3646.57
951.16	3616.52
951.465	3591.43
951.77	3562.51
952.075	3575.39
952.38	3525.22
952.685	3507.14
952.99	3499.23
953.294	3467.82
953.599	3508.95
953.904	3495.84
954.209	3422.17
954.513	3467.82
954.818	3427.37
955.122	3430.53
955.426	3440.25
955.731	3394.6
956.035	3386.46
956.339	3369.97
956.643	3377.65
956.948	3328.84
957.252	3275.28
957.556	3322.51
957.86	3259.24
958.163	3283.87
958.467	3293.36
958.771	3232.34
959.075	3242.97
959.378	3181.5
959.682	3185.11
959.985	3186.7
960.289	3145.12
960.592	3114.16
960.896	3094.95
961.199	3074.61
961.502	3082.97
961.805	3084.33
962.108	3083.65
962.411	3072.57
962.714	3036.87
963.017	2993.48
963.32	3039.58
963.623	3007.94
963.926	2988.51
964.228	2985.57
964.531	2947.15
964.833	2961.17
965.136	2933.37
965.438	2934.73
965.741	2913.03
966.043	2885.91
966.345	2912.58
966.648	2914.84
966.95	2860.15
967.252	2822.41
967.554	2860.83
967.856	2835.97
968.158	2802.07
968.46	2820.38
968.761	2777.67
969.063	2751.91
969.365	2768.18
969.666	2769.31
969.968	2728.4
970.269	2715.3
970.571	2716.2
970.872	2713.71
971.174	2709.19
971.475	2673.94
971.776	2689.76
972.077	2650.44
972.378	2655.86
972.679	2645.69
972.98	2642.08
973.281	2643.43
973.582	2630.33
973.883	2590.33
974.183	2612.02
974.484	2605.69
974.785	2554.85
975.085	2594.85
975.386	2550.33
975.686	2551.68
975.986	2526.15
976.287	2554.17
976.587	2507.39
976.887	2472.59
977.187	2513.04
977.487	2470.1
977.787	2438.92
978.087	2454.74
978.387	2454.51
978.687	2432.37
978.987	2418.81
979.286	2422.65
979.586	2379.71
979.885	2396.43
980.185	2384.01
980.484	2380.16
980.784	2361.63
981.083	2364.8
981.382	2344.01
981.682	2331.58
981.981	2289.32
982.28	2303.56
982.579	2322.09
982.878	2288.87
983.177	2286.83
983.475	2278.92
983.774	2249.32
984.073	2254.52
984.372	2217.91
984.67	2229.88
984.969	2210.22
985.267	2213.84
985.566	2217.46
985.864	2182.65
986.162	2172.71
986.461	2181.3
986.759	2185.37
987.057	2129.1
987.355	2113.28
987.653	2107.63
987.951	2118.25
988.249	2113.5
988.547	2095.2
988.844	2101.3
989.142	2090.68
989.44	2080.74
989.737	2109.66
990.035	2064.69
990.332	2051.13
990.63	2044.8
990.927	2055.88
991.224	2024.69
991.521	2029.66
991.819	1980.85
992.116	2011.81
992.413	1959.61
992.71	1980.85
993.006	1960.97
993.303	1959.16
993.6	1975.65
993.897	1932.72
994.193	1937.46
994.49	1912.15
994.787	1908.31
995.083	1905.6
995.379	1886.62
995.676	1878.03
995.972	1881.87
996.268	1855.43
996.565	1854.98
996.861	1837.8
997.157	1851.82
997.453	1833.74
997.749	1828.31
998.044	1807.98
998.34	1817.24
998.636	1794.42
998.932	1774.76
999.227	1797.81
999.523	1766.39
999.818	1776.56
1000.114	1774.53
1000.409	1732.04
1000.704	1750.35
1001	1733.85
1001.295	1748.09
1001.59	1713.51
1001.885	1707.19
1002.18	1716.45
1002.475	1679.16
1002.77	1677.58
1003.065	1659.05
1003.359	1649.79
1003.654	1671.26
1003.949	1668.54
1004.243	1639.62
1004.538	1622.44
1004.832	1642.1
1005.127	1611.6
1005.421	1577.02
1005.715	1604.82
1006.009	1601.65
1006.304	1568.66
1006.598	1565.72
1006.892	1532.05
1007.186	1551.03
1007.48	1521.65
1007.773	1509.23
1008.067	1515.55
1008.361	1525.72
1008.655	1501.32
1008.948	1502.22
1009.242	1509.68
1009.535	1482.33
1009.829	1457.93
1010.122	1461.54
1010.415	1447.08
1010.708	1489.79
1011.001	1464.71
1011.295	1424.71
1011.588	1444.37
1011.881	1446.4
1012.173	1412.51
1012.466	1423.58
1012.759	1386.74
1013.052	1392.17
1013.344	1391.49
1013.637	1377.03
1013.93	1361.43
1014.222	1350.59
1014.514	1347.87
1014.807	1320.53
1015.099	1321.66
1015.391	1354.65
1015.683	1338.83
1015.976	1319.63
1016.268	1310.14
1016.56	1299.06
1016.851	1281.21
1017.143	1257.93
1017.435	1253.64
1017.727	1266.97
1018.018	1265.62
1018.31	1252.51
1018.602	1236.46
1018.893	1236.46
1019.185	1215.67
1019.476	1207.54
1019.767	1209.8
1020.058	1205.96
1020.35	1194.43
1020.641	1181.1
1020.932	1193.75
1021.223	1170.25
1021.514	1180.42
1021.804	1161.44
1022.095	1137.26
1022.386	1139.07
1022.677	1144.49
1022.967	1155.56
1023.258	1132.51
1023.548	1120.08
1023.839	1106.52
1024.129	1086.64
1024.419	1083.7
1024.709	1066.75
1025	1065.4
1025.29	1067.2
1025.58	1081.21
1025.87	1074.21
1026.16	1050.25
1026.449	1069.92
1026.739	1048.45
1027.029	1054.1
1027.319	1024.04
1027.608	1010.26
1027.898	1017.94
1028.187	1005.74
1028.477	1009.13
1028.766	1014.32
1029.055	993.08
1029.344	1000.76
1029.634	993.99
1029.923	982.91
1030.212	973.65
1030.501	997.15
1030.79	945.62
1031.078	933.65
1031.367	967.55
1031.656	924.83
1031.945	962.57
1032.233	923.03
1032.522	921.22
1032.81	906.98
1033.099	913.76
1033.387	911.28
1033.675	905.4
1033.963	904.95
1034.251	907.89
1034.54	859.75
1034.828	855.68
1035.116	853.65
1035.403	879.41
1035.691	857.04
1035.979	869.02
1036.267	835.35
1036.554	836.02
1036.842	841.45
1037.129	861.11
1037.417	859.75
1037.704	844.38
1037.992	837.38
1038.279	813.42
1038.566	815.91
1038.853	815.91
1039.14	815.91
