Data from plate_ceramic_FLMS001491_079.txt Node
Date: Tue Feb 07 11:17:17 GMT 2017
User: dcchb
Spectrometer: FLMS00149
Trigger mode: 0
Integration Time (sec): 2.000000E-2
Scans to average: 10
Electric dark correction enabled: true
Nonlinearity correction enabled: false
Boxcar width: 0
XAxis mode: Wavelengths
Number of Pixels in Spectrum: 2048
>>>>>Begin Spectral Data<<<<<
341.393	-24.15
341.776	-24.15
342.16	-24.15
342.543	-46.07
342.927	-67.54
343.31	-76.58
343.693	-66.18
344.077	-43.59
344.46	-57.6
344.843	-47.65
345.226	-49.69
345.61	-42
345.993	-13.76
346.376	-10.59
346.759	1.38
347.142	34.15
347.525	36.86
347.908	68.73
348.291	63.3
348.674	109.4
349.057	93.81
349.44	120.7
349.823	166.58
350.206	168.84
350.588	204.77
350.971	229.4
351.354	235.05
351.737	244.09
352.119	256.52
352.502	270.3
352.884	299.68
353.267	277.54
353.65	313.47
354.032	325.67
354.414	318.66
354.797	328.38
355.179	331.77
355.562	341.26
355.944	346.23
356.326	341.71
356.709	321.15
357.091	355.95
357.473	360.92
357.855	369.28
358.238	367.25
358.62	371.54
359.002	353.92
359.384	396.85
359.766	379
360.148	348.04
360.53	363.86
360.912	349.85
361.294	361.15
361.676	346.91
362.057	382.62
362.439	358.66
362.821	353.92
363.203	353.47
363.584	356.4
363.966	374.26
364.348	358.66
364.729	356.18
365.111	370.87
365.493	370.41
365.874	354.6
366.256	352.79
366.637	352.11
367.019	338.32
367.4	366.57
367.781	352.79
368.163	352.79
368.544	353.01
368.925	355.27
369.306	354.6
369.688	355.73
370.069	365.44
370.45	363.18
370.831	349.62
371.212	360.92
371.593	356.86
371.974	347.14
372.355	357.08
372.736	384.88
373.117	368.61
373.498	364.99
373.879	385.55
374.26	383.97
374.641	357.98
375.021	343.3
375.402	356.63
375.783	362.73
376.163	395.72
376.544	404.09
376.925	390.98
377.305	359.11
377.686	401.37
378.066	395.05
378.447	400.24
378.827	398.21
379.208	412.9
379.588	401.37
379.968	418.55
380.349	401.6
380.729	404.31
381.109	423.97
381.489	407.48
381.87	421.94
382.25	455.84
382.63	436.63
383.01	420.58
383.39	450.86
383.77	458.1
384.15	456.74
384.53	460.58
384.91	448.38
385.29	463.97
385.67	457.87
386.049	458.77
386.429	484.54
386.809	489.51
387.189	467.36
387.568	467.13
387.948	473.46
388.328	467.36
388.707	490.86
389.087	506.46
389.466	503.52
389.846	498.09
390.225	506.23
390.605	502.39
390.984	514.14
391.363	537.87
391.743	528.38
392.122	518.21
392.501	538.77
392.881	542.61
393.26	557.08
393.639	543.74
394.018	550.97
394.397	574.02
394.776	588.71
395.155	585.32
395.534	575.83
395.913	572.44
396.292	583.29
396.671	574.02
397.05	620.8
397.429	607.92
397.808	613.35
398.186	627.36
398.565	614.93
398.944	607.24
399.323	642.05
399.701	624.19
400.08	633.91
400.458	649.5
400.837	648.6
401.215	661.48
401.594	663.97
401.972	670.75
402.351	662.84
402.729	681.82
403.107	700.35
403.486	717.75
403.864	728.6
404.242	734.92
404.62	732.89
404.999	696.51
405.377	725.43
405.755	721.59
406.133	739.44
406.511	750.97
406.889	778.54
407.267	765.88
407.645	784.41
408.023	806.11
408.401	790.97
408.779	805.2
409.156	837.97
409.534	832.1
409.912	856.95
410.29	861.02
410.667	851.98
411.045	873
411.422	873
411.8	889.72
412.178	901.02
412.555	943.51
412.933	953
413.31	950.51
413.687	954.13
414.065	988.48
414.442	980.79
414.819	993.67
415.197	1003.84
415.574	1002.26
415.951	1028.25
416.328	1037.74
416.705	1051.53
417.082	1054.92
417.46	1077.74
417.837	1082.03
418.214	1054.69
418.591	1098.76
418.967	1084.75
419.344	1109.38
419.721	1134.69
420.098	1125.65
420.475	1179.66
420.852	1159.77
421.228	1162.94
421.605	1166.33
421.982	1187.12
422.358	1192.54
422.735	1215.36
423.111	1211.07
423.488	1239.77
423.864	1271.63
424.241	1245.42
424.617	1289.49
424.994	1279.54
425.37	1312.99
425.746	1321.8
426.123	1326.32
426.499	1332.65
426.875	1366.09
427.251	1397.96
427.627	1419.65
428.003	1413.55
428.379	1465.07
428.756	1456.04
429.132	1494.9
429.507	1495.81
429.883	1507.11
430.259	1550.5
430.635	1553.21
431.011	1592.98
431.387	1595.47
431.763	1658.97
432.138	1631.85
432.514	1668.23
432.89	1661.45
433.265	1696.48
433.641	1716.37
434.016	1715.46
434.392	1765.63
434.767	1806.76
435.143	1798.85
435.518	1827.55
435.894	1873.65
436.269	1847.66
436.644	1881.33
437.02	1942.35
437.395	1919.98
437.77	1953.42
438.145	1976.47
438.52	2011.27
438.895	2007.66
439.271	2036.58
439.646	2060.77
440.021	2084.49
440.395	2078.62
440.77	2089.46
441.145	2105.96
441.52	2166.75
441.895	2110.48
442.27	2150.25
442.645	2155.9
443.019	2168.56
443.394	2206.75
443.769	2225.51
444.143	2228.67
444.518	2260.76
444.892	2238.16
445.267	2292.4
445.641	2310.93
446.016	2300.76
446.39	2351.83
446.764	2361.1
447.139	2362.45
447.513	2383.69
447.887	2386.63
448.262	2426.18
448.636	2425.28
449.01	2488.78
449.384	2484.71
449.758	2483.13
450.132	2516.8
450.506	2550.92
450.88	2591.15
451.254	2578.27
451.628	2606.06
452.002	2662.11
452.376	2687.87
452.75	2693.97
453.123	2666.62
453.497	2748.43
453.871	2771.48
454.244	2797.02
454.618	2846.73
454.992	2898.03
455.365	2887.86
455.739	3010.8
456.112	3014.41
456.486	3033.62
456.859	3053.51
457.232	3123.11
457.606	3103
457.979	3170.57
458.352	3229.32
458.725	3238.59
459.099	3261.86
459.472	3333.73
459.845	3339.6
460.218	3387.51
460.591	3414.85
460.964	3460.5
461.337	3571.01
461.71	3584.11
462.083	3647.16
462.456	3633.61
462.829	3699.14
463.201	3724.22
463.574	3766.26
463.947	3816.88
464.32	3916.08
464.692	3956.31
465.065	3978.45
465.438	4064.78
465.81	4112.24
466.183	4160.37
466.555	4193.82
466.928	4222.29
467.3	4272.46
467.672	4384.55
468.045	4421.38
468.417	4466.35
468.789	4493.24
469.161	4586.35
469.534	4634.48
469.906	4698.44
470.278	4804.42
470.65	4835.38
471.022	4924.87
471.394	5029.73
471.766	5098.43
472.138	5105.2
472.51	5270.62
472.882	5294.13
473.253	5363.28
473.625	5426.33
473.997	5551.97
474.369	5579.32
474.74	5679.2
475.112	5771.4
475.484	5837.61
475.855	5942.02
476.227	5990.61
476.598	6214.55
476.97	6205.74
477.341	6389.46
477.713	6468.11
478.084	6468.11
478.455	6691.15
478.827	6712.39
479.198	6954.87
479.569	6980.86
479.94	7183.12
480.311	7207.07
480.682	7416.78
481.053	7518.47
481.424	7698.36
481.795	7708.53
482.166	7827.39
482.537	8000.27
482.908	8158.68
483.279	8245.01
483.65	8438.9
484.021	8552.8
484.391	8670.08
484.762	8717.99
485.133	8801.38
485.503	8946.01
485.874	9146.91
486.244	9287.24
486.615	9405.66
486.985	9484.3
487.356	9754.35
487.726	9773.33
488.097	9958.86
488.467	10041.8
488.837	10229.59
489.207	10355.46
489.578	10496.02
489.948	10653.08
490.318	10728.56
490.688	10850.82
491.058	11009
491.428	11134.2
491.798	11208.55
492.168	11435.21
492.538	11549.78
492.908	11597.69
493.278	11824.35
493.648	11897.79
494.017	12050.33
494.387	12071.12
494.757	12197.22
495.126	12301.4
495.496	12493.49
495.866	12531
496.235	12648.74
496.605	12810.54
496.974	12808.51
497.344	12976.64
497.713	13159.91
498.082	13185.22
498.452	13272.22
498.821	13440.13
499.19	13344.54
499.559	13636.05
499.928	13704.3
500.298	13760.12
500.667	13859.32
501.036	13926.89
501.405	14091.41
501.774	14161.92
502.143	14289.14
502.512	14433.55
502.88	14467.67
503.249	14505.18
503.618	14667.44
503.987	14823.37
504.356	14797.15
504.724	14872.63
505.093	15038.73
505.462	15131.16
505.83	15266.52
506.199	15314.65
506.567	15565.72
506.936	15509.22
507.304	15788.31
507.672	15798.03
508.041	15905.82
508.409	16010.68
508.777	16103.56
509.145	16263.33
509.514	16251.8
509.882	16397.11
510.25	16522.31
510.618	16601.17
510.986	16746.93
511.354	16854.27
511.722	16984.21
512.09	17225.79
512.458	17125
512.826	17369.97
513.193	17457.87
513.561	17574.26
513.929	17706
514.297	17837.07
514.664	18022.83
515.032	18043.85
515.4	18274.8
515.767	18265.76
516.135	18345.99
516.502	18228.25
516.869	18767.9
517.237	18818.06
517.604	18888.8
517.972	19120.2
518.339	19134.44
518.706	19334.66
519.073	19400.2
519.44	19546.41
519.808	19719.96
520.175	19775.55
520.542	20065.49
520.909	20158.82
521.276	20185.94
521.643	20454.63
522.009	20557
522.376	20682.42
522.743	20839.48
523.11	21042.41
523.477	21202.41
523.843	21378.68
524.21	21636.3
524.577	21721.94
524.943	21815.05
525.31	21965.33
525.676	22182.72
526.043	22330.97
526.409	22453.22
526.776	22757.17
527.142	22838.07
527.508	23054.11
527.874	23152.19
528.241	23178.4
528.607	23247.55
528.973	23557.83
529.339	23604.83
529.705	23764.38
530.071	23980.41
530.437	24136.12
530.803	24387.86
531.169	24374.53
531.535	24505.37
531.901	24614.07
532.267	24763.67
532.632	24885.48
532.998	24959.6
533.364	25189.87
533.73	25260.61
534.095	25568.4
534.461	25401.17
534.826	25679.35
535.192	25841.16
535.557	26026.24
535.923	25953.24
536.288	25949.18
536.653	26293.57
537.019	26296.51
537.384	26329.96
537.749	26694.24
538.114	26514.13
538.479	26528.82
538.845	26809.49
539.21	26841.81
539.575	26834.12
539.94	27009.26
540.305	27251.74
540.67	27153.21
541.034	27421.91
541.399	27498.06
541.764	27579.87
542.129	27636.36
542.494	27739.19
542.858	27952.06
543.223	27945.73
543.587	28091.94
543.952	28105.96
544.316	28268.21
544.681	28224.14
545.045	28415.78
545.41	28460.97
545.774	28722.66
546.138	28543.23
546.503	28788.88
546.867	28740.97
547.231	28981.41
547.595	29070.22
547.959	29213.27
548.324	29256.21
548.688	29427.5
549.052	29474.51
549.416	29640.38
549.779	29742.98
550.143	29823.2
550.507	30035.62
550.871	30087.15
551.235	30074.04
551.599	30213.25
551.962	30289.63
552.326	30366.01
552.689	30743.85
553.053	30576.17
553.417	30763.74
553.78	31096.61
554.143	30949.72
554.507	31216.16
554.87	31116.27
555.234	31601.68
555.597	31312.43
555.96	31586.99
556.323	31785.86
556.686	31754.9
557.05	32024.04
557.413	32202.12
557.776	32184.04
558.139	32469.91
558.502	32509.23
558.865	32691.82
559.228	32866.51
559.59	32960.97
559.953	33103.34
560.316	33434.63
560.679	33354.63
561.041	33591.91
561.404	33722.98
561.767	34012.92
562.129	33907.61
562.492	34384.66
562.854	34243.42
563.217	34394.83
563.579	34556.41
563.941	34722.05
564.304	34831.43
564.666	35224.41
565.028	35189.16
565.39	35310.74
565.753	35560.45
566.115	35665.31
566.477	35780.1
566.839	35881.34
567.201	36173.31
567.563	36276.36
567.925	36504.15
568.287	36557.71
568.648	36490.37
569.01	36792.28
569.372	36939.62
569.734	36872.51
570.095	37158.6
570.457	37379.38
570.819	37524.01
571.18	37444.92
571.542	37827.28
571.903	37738.7
572.265	37839.03
572.626	37955.64
572.987	37959.48
573.349	38159.25
573.71	38278.12
574.071	38500.48
574.432	38553.82
574.794	38743.42
575.155	38817.09
575.516	38856.41
575.877	38870.87
576.238	38939.34
576.599	39099.79
576.96	38950.19
577.32	39095.5
577.681	39488.48
578.042	39568.03
578.403	39564.19
578.763	39655.71
579.124	39600.12
579.485	39798.76
579.845	39883.73
580.206	39858.42
580.566	39759.89
580.927	39800.79
581.287	39936.38
581.648	39812.99
582.008	39875.14
582.368	39747.23
582.728	40043.04
583.089	40022.7
583.449	40085.53
583.809	40128.24
584.169	40158.75
584.529	40112.19
584.889	40436.25
585.249	40113.1
585.609	40131.4
585.969	40436.48
586.329	40227.67
586.688	40197.39
587.048	40278.74
587.408	40220.89
587.768	40183.6
588.127	40288.46
588.487	40235.35
588.846	40514.44
589.206	40269.93
589.565	40252.3
589.925	40383.83
590.284	40359.42
590.643	40524.16
591.003	40526.65
591.362	40617.94
591.721	40675.34
592.08	40592.86
592.44	40738.84
592.799	40804.61
593.158	40589.24
593.517	40629.69
593.876	40666.76
594.235	40529.36
594.593	40640.32
594.952	40848.67
595.311	40680.09
595.67	40587.66
596.029	40910.36
596.387	41132.05
596.746	41061.55
597.104	40763.7
597.463	40845.28
597.822	41061.1
598.18	40790.37
598.538	40768
598.897	41214.31
599.255	40932.74
599.613	41426.96
599.972	41094.31
600.33	41415.66
600.688	41104.03
601.046	41285.72
601.404	41490.69
601.762	41257.25
602.12	41383.57
602.478	41262.45
602.836	41352.39
603.194	41324.37
603.552	41573.85
603.91	41349.22
604.268	41471.48
604.625	41398.04
604.983	41515.55
605.341	41366.4
605.698	41745.82
606.056	41730.46
606.413	41761.64
606.771	41863.79
607.128	41899.94
607.485	41769.78
607.843	41803.9
608.2	41901.07
608.557	42116.66
608.914	41980.17
609.272	42093.84
609.629	42214.06
609.986	42306.49
610.343	42015.65
610.7	42480.95
611.057	42362.3
611.414	42415.64
611.771	42472.13
612.127	42486.82
612.484	42517.78
612.841	42645.23
613.198	42551.9
613.554	42640.04
613.911	42916.64
614.267	42742.18
614.624	42825.57
614.98	42706.7
615.337	43016.75
615.693	42903.08
616.05	42900.82
616.406	43126.8
616.762	43062.4
617.118	43053.13
617.475	43048.61
617.831	43070.99
618.187	43160.02
618.543	43241.15
618.899	43190.08
619.255	43251.77
619.611	43373.13
619.967	43285.44
620.323	43487.7
620.678	43377.42
621.034	43323.18
621.39	43214.49
621.746	43243.41
622.101	43716.39
622.457	43422.39
622.812	43292.22
623.168	43497.42
623.523	43460.81
623.879	43537.64
624.234	43367.7
624.589	43516.85
624.945	43532.44
625.3	43605.21
625.655	43476.85
626.01	43487.47
626.365	43492.22
626.72	43487.02
627.075	43461.94
627.43	43493.12
627.785	43385.55
628.14	43402.73
628.495	43428.26
628.85	43390.75
629.205	43225.33
629.559	43517.3
629.914	43327.25
630.269	43317.31
630.623	43239.12
630.978	43073.47
631.332	43301.49
631.687	43328.15
632.041	42976.53
632.396	43104.43
632.75	42922.97
633.104	43076.18
633.459	42832.57
633.813	42913.02
634.167	42767.72
634.521	42735.4
634.875	42819.92
635.229	42694.05
635.583	42652.69
635.937	42546.71
636.291	42682.52
636.645	42626.03
636.999	42494.96
637.352	42705.35
637.706	42336.77
638.06	42478.69
638.413	42309.65
638.767	42249.99
639.121	42319.82
639.474	42048.19
639.828	42138.36
640.181	42113.27
640.534	42213.83
640.888	42057
641.241	41883.9
641.594	41964.57
641.947	42036.21
642.301	41940.62
642.654	41896.33
643.007	41824.92
643.36	41864.69
643.713	41695.88
644.066	41754.18
644.419	41451.59
644.771	41252.05
645.124	40787.88
645.477	40790.37
645.83	40638.51
646.182	40454.78
646.535	40389.47
646.888	40487.33
647.24	40160.1
647.593	40445.52
647.945	40242.13
648.298	40194
648.65	40129.59
649.002	40003.72
649.355	40089.14
649.707	39989.94
650.059	40018.64
650.411	40567.55
650.763	40533.43
651.115	40919.18
651.467	40778.84
651.819	40726.87
652.171	40682.35
652.523	40626.76
652.875	40801.22
653.227	40521
653.578	40766.64
653.93	40670.15
654.282	40360.1
654.633	40280.78
654.985	40393.09
655.337	40535.01
655.688	40525.29
656.039	40543.59
656.391	39990.84
656.742	40190.84
657.094	40195.13
657.445	40368.23
657.796	40308.12
658.147	40138.86
658.498	40035.81
658.849	40185.41
659.2	40083.72
659.551	40013.89
659.902	40176.15
660.253	40001.91
660.604	40109.93
660.955	39888.24
661.306	39933.67
661.656	40074.91
662.007	39902.26
662.358	39922.14
662.708	39957.85
663.059	39929.37
663.409	39679.89
663.76	39930.73
664.11	39807.34
664.461	39843.05
664.811	39803.28
665.161	39778.42
665.511	39775.93
665.862	39820.22
666.212	39887.12
666.562	39819.32
666.912	39671.3
667.262	39565.77
667.612	39549.95
667.962	39628.36
668.312	39572.1
668.662	39801.02
669.011	39716.05
669.361	39562.15
669.711	39502.27
670.06	39488.93
670.41	39361.25
670.76	39227.92
671.109	39478.31
671.459	39336.4
671.808	39295.27
672.157	39449.84
672.507	39129.85
672.856	39164.65
673.205	39196.51
673.554	39185.21
673.904	39023.41
674.253	39410.97
674.602	39371.87
674.951	38548.62
675.3	38503.87
675.649	39114.93
675.998	39020.92
676.346	39036.06
676.695	39071.54
677.044	38902.96
677.393	38904.32
677.741	39025.22
678.09	38858.89
678.438	38784.09
678.787	38958.33
679.135	38848.27
679.484	38654.38
679.832	38922.85
680.181	38595.17
680.529	38707.26
680.877	38388.85
681.225	38579.13
681.573	38780.25
681.922	38403.31
682.27	38280.6
682.618	38363.54
682.966	38269.3
683.314	38300.72
683.661	38159.93
684.009	38037.67
684.357	37928.97
684.705	37740.05
685.053	37848.75
685.4	37747.96
685.748	37659.38
686.095	37684.91
686.443	37528.53
686.79	37391.81
687.138	37590.9
687.485	37407.18
687.832	37184.14
688.18	37331.93
688.527	37176.68
688.874	37057.36
689.221	37032.05
689.568	36850.58
689.915	36846.74
690.262	36941.88
690.609	36744.6
690.956	36693.07
691.303	36672.28
691.65	36359.98
691.997	36462.12
692.344	36291.5
692.69	36323.59
693.037	36412.4
693.383	35977.16
693.73	36127.67
694.077	35927.9
694.423	35876.15
694.769	35841.35
695.116	35705.53
695.462	35582.14
695.808	35448.59
696.155	35509.6
696.501	35305.09
696.847	35247.69
697.193	34908.71
697.539	35245.66
697.885	34843.18
698.231	34841.82
698.577	34787.36
698.923	34672.34
699.269	34539.69
699.614	34234.16
699.96	34242.52
700.306	34399.35
700.651	34284.32
700.997	34164.78
701.342	34080.26
701.688	34055.18
702.033	33994.39
702.379	33845.24
702.724	33708.07
703.069	33759.37
703.415	33380.39
703.76	33328.19
704.105	33378.59
704.45	33286.16
704.795	33090.46
705.14	33048.88
705.485	32999.39
705.83	32880.07
706.175	33048.65
706.52	32939.73
706.865	32671.03
707.209	32692.05
707.554	32512.17
707.899	32647.98
708.243	32475.11
708.588	32383.36
708.932	32192.18
709.277	32234.21
709.621	32228.79
709.966	32055.23
710.31	32053.87
710.654	31771.4
710.998	31713.32
711.342	31906.31
711.687	31705.64
712.031	31637.84
712.375	31570.72
712.719	31632.42
713.063	31484.62
713.407	31527.56
713.75	31329.6
714.094	31217.74
714.438	31136.16
714.782	31342.03
715.125	31013.45
715.469	31169.83
715.812	30931.64
716.156	30857.97
716.499	30754.25
716.843	30929.84
717.186	30674.02
717.53	30735.94
717.873	30707.47
718.216	30575.95
718.559	30479
718.902	30416.18
719.246	30479
719.589	30343.19
719.932	30093.93
720.275	30030.43
720.617	30233.36
720.96	30003.08
721.303	30100.48
721.646	30045.11
721.989	29828.4
722.331	29887.83
722.674	29772.8
723.016	29781.62
723.359	29692.81
723.701	29753.37
724.044	29547.95
724.386	29429.76
724.729	29556.31
725.071	29447.16
725.413	29421.63
725.755	29393.61
726.097	29213.5
726.439	29077.46
726.782	29196.77
727.124	29142.99
727.465	29000.4
727.807	29161.97
728.149	28976.44
728.491	28957.91
728.833	28974.63
729.175	28868.2
729.516	28857.8
729.858	28812.6
730.199	28855.09
730.541	28714.98
730.882	28579.84
731.224	28747.75
731.565	28426.4
731.906	28550.69
732.248	28521.31
732.589	28414.65
732.93	28417.36
733.271	28242.9
733.612	28348.21
733.953	28293.3
734.294	28117.03
734.635	28217.59
734.976	28273.41
735.317	28133.53
735.658	28065.5
735.999	27950.03
736.339	27891.5
736.68	28027.54
737.021	27962
737.361	27820.09
737.702	27853.76
738.042	27850.6
738.383	27549.59
738.723	27784.38
739.063	27644.27
739.404	27614.9
739.744	27603.82
740.084	27463.71
740.424	27423.04
740.764	27389.59
741.104	27507.1
741.444	27371.74
741.784	27320.21
742.124	27318.63
742.464	27205.19
742.804	27125.87
743.143	27016.49
743.483	27102.37
743.823	26912.54
744.162	26875.25
744.502	26883.16
744.841	26896.5
745.181	26983.5
745.52	26878.64
745.86	26814.92
746.199	26738.99
746.538	26669.84
746.877	26823.96
747.216	26710.96
747.556	26588.48
747.895	26555.04
748.234	26387.58
748.573	26320.24
748.911	26318.66
749.25	26423.06
749.589	26263.74
749.928	26226.01
750.267	26251.99
750.605	26188.49
750.944	25977.88
751.283	25926.13
751.621	25929.06
751.96	25834.83
752.298	25821.5
752.636	25868.05
752.975	25604.33
753.313	25592.8
753.651	25722.74
753.989	25458.79
754.327	25508.96
754.666	25388.29
755.004	25405.91
755.342	25425.35
755.679	25468.06
756.017	25215.86
756.355	25208.4
756.693	25020.16
757.031	25272.13
757.368	24985.59
757.706	24844.35
758.044	24863.78
758.381	24913.72
758.719	24830.56
759.056	24816.1
759.394	24754.41
759.731	24570.91
760.068	24446.39
760.405	24478.48
760.743	24487.07
761.08	24417.69
761.417	24169.79
761.754	24215.66
762.091	24120.52
762.428	23989
762.765	23898.16
763.102	23816.13
763.438	23760.53
763.775	23737.26
764.112	23731.38
764.449	23784.04
764.785	23597.6
765.122	23400.99
765.458	23331.17
765.795	23373.42
766.131	23345.18
766.467	23255.24
766.804	23127.33
767.14	23025.19
767.476	23006.43
767.812	22852.53
768.148	22902.25
768.485	22764.85
768.821	22597.85
769.157	22541.58
769.492	22496.39
769.828	22488.02
770.164	22294.36
770.5	22252.78
770.836	22224.3
771.171	22073.57
771.507	22000.58
771.842	21879.68
772.178	21909.06
772.513	21873.8
772.849	21789.74
773.184	21590.42
773.519	21603.75
773.855	21567.82
774.19	21326.7
774.525	21312.01
774.86	21328.51
775.195	21065.24
775.53	21088.29
775.865	21057.33
776.2	20829.54
776.535	20792.25
776.87	20678.81
777.205	20688.3
777.539	20608.3
777.874	20618.24
778.209	20501.86
778.543	20445.82
778.878	20189.33
779.212	20321.98
779.547	20079.5
779.881	20169.22
780.215	19993.17
780.55	20052.38
780.884	19886.74
781.218	19873.4
781.552	19784.14
781.886	19716.8
782.22	19633.18
782.554	19557.25
782.888	19438.16
783.222	19346.41
783.556	19216.02
783.889	19268.22
784.223	19037.49
784.557	19026.19
784.89	19068.45
785.224	18913.88
785.557	18844.05
785.891	18850.83
786.224	18734.45
786.558	18663.04
786.891	18600.9
787.224	18502.82
787.557	18477.96
787.891	18423.95
788.224	18366.1
788.557	18352.99
788.89	18258.76
789.223	18238.19
789.556	18115.03
789.888	18108.03
790.221	17984.87
790.554	17840.24
790.887	17876.17
791.219	17769.96
791.552	17706.91
791.884	17694.48
792.217	17663.74
792.549	17535.16
792.882	17303.98
793.214	17324.09
793.546	17417.42
793.879	17249.52
794.211	17165.23
794.543	17152.8
794.875	17181.27
795.207	17142.85
795.539	17019.02
795.871	17016.3
796.203	16849.53
796.535	16785.58
796.867	16740.15
797.198	16644.34
797.53	16758.68
797.862	16585.35
798.193	16559.14
798.525	16481.18
798.856	16506.26
799.188	16315.98
799.519	16318.24
799.85	16256.32
800.182	16182.2
800.513	16179.26
800.844	16106.05
801.175	16097.91
801.506	16176.55
801.837	16047.74
802.168	15964.81
802.499	15924.81
802.83	15806.17
803.161	15849.56
803.491	15740.63
803.822	15731.82
804.153	15646.17
804.483	15473.97
804.814	15373.86
805.145	15352.17
805.475	15423.13
805.805	15402.56
806.136	15379.96
806.466	15335.22
806.796	15287.99
807.126	15164.38
807.457	15111.5
807.787	15121.66
808.117	15034.44
808.447	15013.64
808.777	14968.22
809.107	14903.14
809.436	14892.97
809.766	14871.5
810.096	14876.25
810.426	14752.63
810.755	14728.45
811.085	14749.7
811.414	14654.56
811.744	14512.64
812.073	14511.29
812.403	14533.66
812.732	14453.66
813.061	14417.95
813.39	14409.82
813.719	14337.96
814.049	14406.2
814.378	14292.08
814.707	14209.82
815.036	14189.03
815.365	14251.63
815.693	14145.42
816.022	14125.53
816.351	14154.01
816.68	13991.07
817.008	14057.96
817.337	13903.62
817.665	13874.69
817.994	13869.27
818.322	13888.48
818.651	13817.07
818.979	13846.67
819.307	13834.92
819.636	13782.94
819.964	13631.08
820.292	13736.84
820.62	13681.02
820.948	13623.17
821.276	13692.78
821.604	13564.64
821.932	13588.6
822.259	13677.63
822.587	13671.76
822.915	13518.99
823.243	13633.34
823.57	13560.8
823.898	13537.98
824.225	13564.64
824.553	13518.32
824.88	13520.35
825.207	13530.29
825.535	13507.7
825.862	13564.64
826.189	13461.82
826.516	13544.76
826.843	13490.97
827.17	13481.71
827.497	13566.68
827.824	13519.45
828.151	13520.8
828.478	13472.44
828.805	13516.28
829.131	13421.37
829.458	13401.03
829.785	13337.08
830.111	13454.14
830.438	13450.52
830.764	13464.31
831.09	13449.62
831.417	13356.51
831.743	13457.75
832.069	13383.63
832.395	13381.82
832.722	13490.97
833.048	13393.57
833.374	13394.7
833.7	13359.68
834.026	13220.47
834.351	13426.57
834.677	13265.89
835.003	13380.92
835.329	13286.23
835.654	13328.72
835.98	13270.19
836.306	13311.32
836.631	13127.82
836.956	13197.65
837.282	13261.83
837.607	13138.89
837.932	13096.86
838.258	13099.8
838.583	13053.7
838.908	13016.86
839.233	13033.36
839.558	12951.55
839.883	12938.22
840.208	12891.44
840.533	12884.89
840.858	12924.66
841.182	12873.36
841.507	12840.59
841.832	12804.89
842.156	12782.52
842.481	12726.25
842.805	12768.05
843.13	12679.02
843.454	12658.9
843.778	12595.63
844.103	12600.15
844.427	12524.67
844.751	12604.67
845.075	12480.6
845.399	12544.11
845.723	12361.96
846.047	12428.63
846.371	12331.46
846.695	12321.96
847.019	12121.29
847.343	12156.09
847.666	11990
847.99	12116.32
848.313	12051.69
848.637	12024.57
848.96	11985.7
849.284	11957.23
849.607	11870.9
849.931	11884.24
850.254	11750.23
850.577	11648.08
850.9	11576.45
851.223	11609.89
851.546	11583.9
851.869	11470.46
852.192	11524.47
852.515	11400.86
852.838	11328.09
853.161	11326.28
853.483	11361.76
853.806	11324.25
854.129	11216.91
854.451	11167.19
854.774	11234.76
855.096	11106.18
855.419	11015.33
855.741	11033.64
856.063	11004.03
856.385	10994.99
856.708	10946.63
857.03	10873.64
857.352	10859.86
857.674	10838.61
857.996	10813.76
858.318	10664.38
858.64	10632.97
858.961	10671.16
859.283	10626.64
859.605	10562.46
859.926	10586.87
860.248	10553.65
860.57	10497.61
860.891	10558.62
861.212	10478.4
861.534	10449.7
861.855	10426.87
862.176	10476.14
862.498	10391.62
862.819	10498.28
863.14	10398.4
863.461	10329.25
863.782	10372.41
864.103	10323.6
864.424	10284.96
864.745	10254.67
865.065	10227.33
865.386	10138.74
865.707	10203.6
866.027	10174.9
866.348	10145.07
866.668	10258.29
866.989	10186.2
867.309	10058.75
867.63	10071.85
867.95	10001.35
868.27	9962.03
868.59	10088.8
868.91	9993.21
869.23	9945.98
869.55	9941.24
869.87	10052.65
870.19	9979.88
870.51	9978.97
870.83	9929.48
871.15	9865.31
871.469	9851.97
871.789	9886.1
872.109	9924.29
872.428	9810.17
872.748	9868.24
873.067	9824.85
873.386	9780.11
873.706	9733.11
874.025	9755.7
874.344	9696.95
874.663	9755.93
874.982	9738.98
875.301	9691.98
875.62	9632.09
875.939	9657.18
876.258	9601.81
876.577	9622.15
876.896	9581.92
877.214	9608.82
877.533	9452.21
877.852	9488.37
878.17	9545.31
878.489	9523.85
878.807	9528.82
879.125	9463.51
879.444	9443.17
879.762	9496.5
880.08	9406.33
880.398	9317.07
880.716	9331.76
881.034	9281.59
881.352	9364.3
881.67	9288.15
881.988	9336.73
882.306	9359.33
882.624	9280.24
882.941	9248.15
883.259	9157.08
883.577	9183.52
883.894	9143.97
884.212	9209.5
884.529	9129.73
884.846	9136.51
885.164	9116.85
885.481	9076.17
885.798	9102.39
886.115	9033.01
886.432	9066.68
886.75	8925.22
887.067	9035.04
887.383	8952.56
887.7	8966.35
888.017	8939.45
888.334	8945.56
888.651	8866.46
888.967	8892
889.284	8764.54
889.6	8790.08
889.917	8695.39
890.233	8755.28
890.55	8676.86
890.866	8688.84
891.182	8744.66
891.498	8648.84
891.815	8625.56
892.131	8587.37
892.447	8590.76
892.763	8517.09
893.079	8490.88
893.395	8529.97
893.71	8513.7
894.026	8476.87
894.342	8390.09
894.657	8359.13
894.973	8316.42
895.289	8339.92
895.604	8292.24
895.92	8267.38
896.235	8255.4
896.55	8217.21
896.865	8175.18
897.181	8143.77
897.496	8201.62
897.811	8050.66
898.126	8108.97
898.441	8007.5
898.756	8023.77
899.071	8002.98
899.386	7985.58
899.7	7910.78
900.015	7893.38
900.33	7790.78
900.644	7858.13
900.959	7855.19
901.273	7797.56
901.588	7790.56
901.902	7813.16
902.216	7745.36
902.531	7711.46
902.845	7664.23
903.159	7620.17
903.473	7536.1
903.787	7521.64
904.101	7428.08
904.415	7514.18
904.729	7477.57
905.042	7454.75
905.356	7401.19
905.67	7416.56
905.984	7432.83
906.297	7357.35
906.611	7278.93
906.924	7300.85
907.237	7285.71
907.551	7220.86
907.864	7201.87
908.177	7189.9
908.491	7118.26
908.804	7117.58
909.117	7062.67
909.43	6997.81
909.743	7003.46
910.056	6981.09
910.368	6931.82
910.681	6913.97
910.994	6920.07
911.307	6873.75
911.619	6852.96
911.932	6822.9
912.244	6790.36
912.557	6743.35
912.869	6749
913.181	6718.5
913.494	6727.31
913.806	6683.69
914.118	6680.76
914.43	6556.01
914.742	6592.4
915.054	6602.79
915.366	6479.86
915.678	6454.77
915.99	6459.29
916.302	6431.27
916.613	6393.76
916.925	6363.93
917.236	6365.06
917.548	6340.2
917.859	6320.31
918.171	6264.04
918.482	6261.56
918.794	6223.14
919.105	6217.49
919.416	6156.02
919.727	6139.3
920.038	6150.83
920.349	6051.17
920.66	6025.41
920.971	6067.89
921.282	6039.64
921.593	6039.64
921.903	6001.9
922.214	5987.89
922.525	5908.8
922.835	5889.82
923.146	5878.07
923.456	5881
923.767	5853.43
924.077	5790.84
924.387	5834.23
924.697	5724.85
925.008	5728.47
925.318	5687.11
925.628	5705.19
925.938	5679.88
926.248	5554.01
926.558	5562.59
926.867	5593.33
927.177	5542.48
927.487	5521.69
927.796	5490.28
928.106	5493.44
928.416	5481.24
928.725	5390.62
929.034	5374.12
929.344	5394.01
929.653	5383.39
929.962	5336.39
930.271	5334.8
930.581	5289.61
930.89	5313.79
931.199	5272.88
931.508	5269.72
931.817	5205.77
932.125	5177.97
932.434	5145.88
932.743	5105.66
933.051	5145.43
933.36	5093.91
933.669	5061.36
933.977	5022.95
934.286	5026.56
934.594	5002.38
934.902	5025.66
935.21	4972.33
935.519	4916.74
935.827	4911.54
936.135	4907.92
936.443	4889.39
936.751	4837.64
937.059	4833.8
937.367	4789.28
937.674	4826.12
937.982	4751.09
938.29	4793.57
938.597	4761.48
938.905	4698.21
939.213	4700.47
939.52	4688.04
939.827	4709.51
940.135	4592.9
940.442	4616.86
940.749	4560.36
941.056	4567.14
941.363	4536.18
941.67	4535.05
941.977	4469.06
942.284	4483.3
942.591	4483.75
942.898	4443.53
943.205	4454.83
943.511	4416.41
943.818	4361.95
944.125	4359.46
944.431	4334.15
944.738	4330.76
945.044	4306.13
945.35	4309.52
945.657	4286.47
945.963	4299.12
946.269	4255.06
946.575	4263.42
946.881	4230.43
947.187	4215.28
947.493	4180.71
947.799	4140.48
948.105	4152.91
948.41	4135.51
948.716	4127.38
949.022	4103.88
949.327	4054.84
949.633	4049.41
949.938	4050.09
950.244	4014.39
950.549	4037.21
950.854	4002.18
951.16	3941.62
951.465	3956.99
951.77	3925.35
952.075	3938.23
952.38	3874.28
952.685	3886.25
952.99	3886.71
953.294	3864.79
953.599	3872.02
953.904	3823.66
954.209	3779.36
954.513	3770.32
954.818	3752.7
955.122	3747.27
955.426	3754.51
955.731	3742.98
956.035	3692.36
956.339	3730.33
956.643	3669.54
956.948	3686.48
957.252	3625.24
957.556	3670.44
957.86	3577.34
958.163	3597.9
958.467	3585.92
958.771	3557.22
959.075	3579.14
959.378	3526.49
959.682	3542.99
959.985	3521.74
960.289	3514.29
960.592	3441.07
960.896	3410.11
961.199	3421.41
961.502	3443.1
961.805	3411.92
962.108	3397
962.411	3402.2
962.714	3368.3
963.017	3298.25
963.32	3309.55
963.623	3325.59
963.926	3287.4
964.228	3281.75
964.531	3289.66
964.833	3276.1
965.136	3254.63
965.438	3250.34
965.741	3237.23
966.043	3202.43
966.345	3185.26
966.648	3170.57
966.95	3203.11
967.252	3145.48
967.554	3138.93
967.856	3127.4
968.158	3081.3
968.46	3078.37
968.761	3067.52
969.063	3085.82
969.365	3041.08
969.666	3040.63
969.968	2967.18
970.269	3006.73
970.571	3016.45
970.872	2989.55
971.174	2964.7
971.475	2946.84
971.776	2948.2
972.077	2957.69
972.378	2953.62
972.679	2886.05
972.98	2856.9
973.281	2881.53
973.582	2869.78
973.883	2851.48
974.183	2875.43
974.484	2868.43
974.785	2844.25
975.085	2812.16
975.386	2841.76
975.686	2776.45
975.986	2758.6
976.287	2793.85
976.587	2767.19
976.887	2757.47
977.187	2737.36
977.487	2719.28
977.787	2704.59
978.087	2688.32
978.387	2655.55
978.687	2665.04
978.987	2679.28
979.286	2641.54
979.586	2644.03
979.885	2610.81
980.185	2595.67
980.484	2598.83
980.784	2591.37
981.083	2575.78
981.382	2596.12
981.682	2590.24
981.981	2540.98
982.28	2533.29
982.579	2517.7
982.878	2524.71
983.177	2525.39
983.475	2515.89
983.774	2487.65
984.073	2497.59
984.372	2461.43
984.67	2449.46
984.969	2436.57
985.267	2448.1
985.566	2423.02
985.864	2420.76
986.162	2401.1
986.461	2374.43
986.759	2374.88
987.057	2383.24
987.355	2337.14
987.653	2362
987.951	2307.31
988.249	2306.63
988.547	2286.97
988.844	2296.01
989.142	2292.17
989.44	2282.45
989.737	2274.54
990.035	2231.83
990.332	2291.49
990.63	2284.49
990.927	2220.76
991.224	2234.77
991.521	2189.35
991.819	2189.12
992.116	2197.26
992.413	2163.14
992.71	2202.91
993.006	2165.17
993.303	2147.09
993.6	2100.09
993.897	2120.42
994.193	2135.79
994.49	2110.71
994.787	2103.25
995.083	2082.69
995.379	2066.41
995.676	2040.65
995.972	2067.32
996.268	2064.83
996.565	2060.31
996.861	2041.1
997.157	2024.83
997.453	1994.33
997.749	1997.94
998.044	1973.54
998.34	1962.91
998.636	1966.98
998.932	1952.07
999.227	1940.54
999.523	1961.11
999.818	1950.49
1000.114	1908
1000.409	1927.66
1000.704	1914.55
1001	1899.41
1001.295	1858.06
1001.59	1867.32
1001.885	1858.51
1002.18	1823.94
1002.475	1846.76
1002.77	1800.88
1003.065	1833.43
1003.359	1792.07
1003.654	1790.04
1003.949	1803.37
1004.243	1788.68
1004.538	1752.07
1004.832	1760.21
1005.127	1765.63
1005.421	1764.28
1005.715	1748.46
1006.009	1728.8
1006.304	1712.3
1006.598	1717.95
1006.892	1698.51
1007.186	1713.66
1007.48	1662.36
1007.773	1659.19
1008.067	1668.91
1008.361	1661.68
1008.655	1636.37
1008.948	1619.65
1009.242	1604.73
1009.535	1607.22
1009.829	1615.35
1010.122	1597.73
1010.415	1580.78
1010.708	1594.79
1011.001	1593.66
1011.295	1561.34
1011.588	1552.53
1011.881	1540.78
1012.173	1539.87
1012.466	1547.33
1012.759	1529.93
1013.052	1519.76
1013.344	1504.17
1013.637	1519.99
1013.93	1495.13
1014.222	1501.01
1014.514	1484.28
1014.807	1479.99
1015.099	1464.17
1015.391	1468.92
1015.683	1429.14
1015.976	1447.9
1016.268	1414.45
1016.56	1418.07
1016.851	1407.67
1017.143	1383.27
1017.435	1361.35
1017.727	1366.77
1018.018	1348.92
1018.31	1350.5
1018.602	1354.34
1018.893	1352.08
1019.185	1349.6
1019.476	1344.4
1019.767	1312.76
1020.058	1302.59
1020.35	1321.8
1020.641	1289.49
1020.932	1299.88
1021.223	1283.38
1021.514	1257.62
1021.804	1257.85
1022.095	1231.86
1022.386	1270.05
1022.677	1229.6
1022.967	1243.61
1023.258	1206.32
1023.548	1232.99
1023.839	1207
1024.129	1211.52
1024.419	1177.85
1024.709	1185.53
1025	1160
1025.29	1191.41
1025.58	1173.33
1025.87	1145.31
1026.16	1148.47
1026.449	1145.76
1026.739	1145.76
1027.029	1134.69
1027.319	1110.51
1027.608	1107.34
1027.898	1111.64
1028.187	1123.61
1028.477	1094.69
1028.766	1114.35
1029.055	1093.56
1029.344	1087.91
1029.634	1069.38
1029.923	1035.71
1030.212	1066.67
1030.501	1025.31
1030.79	1050.85
1031.078	1043.39
1031.367	1020.11
1031.656	1012.43
1031.945	1004.75
1032.233	1011.3
1032.522	998.42
1032.81	987.12
1033.099	993.9
1033.387	970.62
1033.675	979.89
1033.963	969.04
1034.251	969.04
1034.54	961.81
1034.828	922.94
1035.116	937.4
1035.403	959.78
1035.691	913.9
1035.979	930.85
1036.267	936.5
1036.554	908.03
1036.842	903.73
1037.129	906.45
1037.417	894.69
1037.704	904.19
1037.992	882.26
1038.279	882.49
1038.566	871.19
1038.853	871.19
1039.14	871.19
