Data from plate_ceramic_FLMS001491_086.txt Node
Date: Tue Feb 07 11:17:25 GMT 2017
User: dcchb
Spectrometer: FLMS00149
Trigger mode: 0
Integration Time (sec): 2.000000E-2
Scans to average: 10
Electric dark correction enabled: true
Nonlinearity correction enabled: false
Boxcar width: 0
XAxis mode: Wavelengths
Number of Pixels in Spectrum: 2048
>>>>>Begin Spectral Data<<<<<
341.393	-25.2
341.776	-25.2
342.16	-25.2
342.543	-65.65
342.927	-61.35
343.31	-73.33
343.693	-78.53
344.077	-49.6
344.46	-44.86
344.843	-65.42
345.226	-59.77
345.61	-34.91
345.993	-8.7
346.376	-16.16
346.759	12.99
347.142	39.66
347.525	56.38
347.908	53.67
348.291	66.33
348.674	95.7
349.057	106.55
349.44	106.55
349.823	141.13
350.206	183.84
350.588	203.72
350.971	227.45
351.354	242.59
351.737	253.67
352.119	248.69
352.502	272.42
352.884	281.91
353.267	303.16
353.65	291.18
354.032	311.29
354.414	328.69
354.797	322.82
355.179	316.71
355.562	334.79
355.944	335.02
356.326	341.57
356.709	332.53
357.091	346.54
357.473	347.9
357.855	363.27
358.238	342.7
358.62	373.66
359.002	375.02
359.384	354.23
359.766	359.65
360.148	364.4
360.53	374.57
360.912	357.39
361.294	368.01
361.676	358.07
362.057	349.03
362.439	345.19
362.821	343.61
363.203	343.83
363.584	351.52
363.966	335.02
364.348	346.09
364.729	353.78
365.111	337.96
365.493	357.17
365.874	350.16
366.256	363.72
366.637	341.35
367.019	354.23
367.4	339.31
367.781	347.22
368.163	363.72
368.544	342.25
368.925	336.6
369.306	335.7
369.688	352.42
370.069	347.22
370.45	345.41
370.831	349.03
371.212	351.06
371.593	330.95
371.974	350.61
372.355	355.58
372.736	363.72
373.117	347.9
373.498	353.55
373.879	337.28
374.26	370.05
374.641	353.78
375.021	358.3
375.402	358.3
375.783	381.35
376.163	365.08
376.544	403.49
376.925	377.5
377.305	370.27
377.686	385.41
378.066	379.76
378.447	393.77
378.827	379.31
379.208	385.19
379.588	400.1
379.968	402.14
380.349	403.72
380.729	412.08
381.109	391.97
381.489	407.11
381.87	410.5
382.25	424.06
382.63	421.57
383.01	423.15
383.39	413.21
383.77	447.78
384.15	416.6
384.53	425.64
384.91	418.41
385.29	429.93
385.67	443.04
386.049	448.69
386.429	436.94
386.809	451.4
387.189	452.53
387.568	467.22
387.948	466.32
388.328	454.79
388.707	486.65
389.087	485.52
389.466	483.72
389.846	492.76
390.225	476.03
390.605	502.92
390.984	503.38
391.363	494.34
391.743	510.61
392.122	512.87
392.501	514.45
392.881	529.36
393.26	515.13
393.639	529.82
394.018	497.28
394.397	537.73
394.776	536.6
395.155	556.48
395.534	539.31
395.913	545.86
396.292	579.76
396.671	569.36
397.05	563.49
397.429	553.32
397.808	544.96
398.186	575.92
398.565	567.1
398.944	601.23
399.323	602.13
399.701	605.29
400.08	581.57
400.458	603.26
400.837	606.65
401.215	598.06
401.594	605.52
401.972	633.99
402.351	634.9
402.729	648.01
403.107	647.1
403.486	652.07
403.864	659.98
404.242	664.5
404.62	670.83
404.999	681.68
405.377	682.35
405.755	686.65
406.133	705.41
406.511	710.6
406.889	733.65
407.267	720.09
407.645	716.7
408.023	751.73
408.401	750.38
408.779	741.79
409.156	770.49
409.534	787.89
409.912	768.23
410.29	810.49
410.667	792.41
411.045	826.53
411.422	845.51
411.8	840.99
412.178	850.71
412.555	866.53
412.933	863.37
413.31	887.55
413.687	903.14
414.065	892.52
414.442	857.04
414.819	923.48
415.197	898.85
415.574	921.22
415.951	937.94
416.328	945.4
416.705	970.26
417.082	960.09
417.46	989.01
417.837	977.49
418.214	1008
418.591	1026.07
418.967	1030.82
419.344	1021.78
419.721	1031.05
420.098	1055
420.475	1059.97
420.852	1080.31
421.228	1091.16
421.605	1071.27
421.982	1074.66
422.358	1097.94
422.735	1098.84
423.111	1123.93
423.488	1140.2
423.864	1134.77
424.241	1150.14
424.617	1163.25
424.994	1198.73
425.37	1184.04
425.746	1200.08
426.123	1254.54
426.499	1244.6
426.875	1263.58
427.251	1265.39
427.627	1281.44
428.003	1302.9
428.379	1320.3
428.756	1306.75
429.132	1354.88
429.507	1375.67
429.883	1386.07
430.259	1403.47
430.635	1410.02
431.011	1432.17
431.387	1455.67
431.763	1492.05
432.138	1481.66
432.514	1508.55
432.89	1499.96
433.265	1544.48
433.641	1556
434.016	1577.47
434.392	1623.12
434.767	1621.09
435.143	1620.86
435.518	1664.48
435.894	1645.27
436.269	1682.55
436.644	1711.71
437.02	1739.5
437.395	1746.73
437.77	1730.69
438.145	1771.82
438.52	1814.3
438.895	1807.3
439.271	1818.6
439.646	1855.88
440.021	1901.53
440.395	1867.63
440.77	1893.62
441.145	1887.07
441.52	1928.42
441.895	1956.45
442.27	1925.49
442.645	1961.87
443.019	1959.61
443.394	2000.74
443.769	2046.16
444.143	1992.38
444.518	2052.49
444.892	2033.96
445.267	2042.09
445.641	2058.59
446.016	2081.64
446.39	2103.56
446.764	2104.92
447.139	2103.56
447.513	2156.44
447.887	2127.29
448.262	2176.78
448.636	2165.48
449.01	2215.65
449.384	2239.38
449.758	2233.73
450.132	2272.82
450.506	2293.61
450.88	2289.09
451.254	2309.88
451.628	2347.62
452.002	2397.79
452.376	2381.97
452.75	2406.83
453.123	2410.67
453.497	2443.66
453.871	2489.54
454.244	2491.8
454.618	2559.37
454.992	2593.94
455.365	2556.43
455.739	2652.02
456.112	2678.01
456.486	2683.66
456.859	2721.17
457.232	2771.57
457.606	2783.77
457.979	2793.94
458.352	2863.77
458.725	2922.75
459.099	2918.91
459.472	2934.05
459.845	2988.96
460.218	3034.16
460.591	3066.25
460.964	3085.46
461.337	3136.75
461.71	3205.45
462.083	3245.45
462.456	3276.41
462.829	3240.48
463.201	3342.17
463.574	3331.78
463.947	3384.2
464.32	3479.12
464.692	3483.41
465.065	3537.42
465.438	3579.45
465.81	3633.46
466.183	3646.34
466.555	3749.84
466.928	3764.99
467.3	3747.36
467.672	3868.49
468.045	3951.65
468.417	3947.35
468.789	3943.96
469.161	4054.24
469.534	4103.73
469.906	4170.62
470.278	4184.64
470.65	4233.45
471.022	4310.51
471.394	4450.39
471.766	4454.23
472.138	4516.38
472.51	4614.45
472.882	4666.2
473.253	4717.96
473.625	4812.87
473.997	4864.84
474.369	4896.93
474.74	4976.03
475.112	5048.34
475.484	5166.98
475.855	5248.34
476.227	5286.98
476.598	5441.33
476.97	5505.73
477.341	5558.16
477.713	5661.66
478.084	5675.44
478.455	5859.39
478.827	5888.55
479.198	6070.91
479.569	6125.38
479.94	6306.84
480.311	6357.46
480.682	6447.18
481.053	6619.37
481.424	6742.76
481.795	6831.35
482.166	6920.16
482.537	6989.08
482.908	7112.92
483.279	7281.5
483.65	7348.17
484.021	7466.13
484.391	7511.55
484.762	7629.06
485.133	7758.55
485.503	7871.32
485.874	8009.85
486.244	8139.56
486.615	8288.71
486.985	8406.45
487.356	8509.49
487.726	8558.08
488.097	8720.79
488.467	8761.24
488.837	8933.44
489.207	9020.44
489.578	9245.07
489.948	9309.92
490.318	9490.48
490.688	9509.24
491.058	9589.69
491.428	9734.09
491.798	9807.76
492.168	10035.56
492.538	10103.12
492.908	10193.74
493.278	10360.29
493.648	10380.63
494.017	10505.6
494.387	10601.64
494.757	10659.27
495.126	10854.06
495.496	10836.44
495.866	11009.32
496.235	11091.35
496.605	11221.29
496.974	11234.17
497.344	11358.23
497.713	11395.52
498.082	11548.51
498.452	11660.15
498.821	11794.61
499.19	11750.09
499.559	11862.63
499.928	12010.64
500.298	12049.97
500.667	12158.89
501.036	12228.72
501.405	12351.43
501.774	12301.48
502.143	12405.44
502.512	12549.16
502.88	12684.53
503.249	12734.02
503.618	12762.26
503.987	12844.97
504.356	12975.37
504.724	13070.96
505.093	13081.8
505.462	13164.96
505.83	13279.31
506.199	13406.31
506.567	13531.28
506.936	13634.78
507.304	13778.06
507.672	13781.22
508.041	13906.87
508.409	13973.98
508.777	14112.74
509.145	14247.87
509.514	14218.72
509.882	14300.3
510.25	14462.78
510.618	14602.21
510.986	14599.05
511.354	14768.31
511.722	14870.23
512.09	15017.35
512.458	15021.86
512.826	15109.55
513.193	15255.08
513.561	15295.08
513.929	15381.63
514.297	15624.79
514.664	15763.31
515.032	15748.4
515.4	15904.78
515.767	16049.63
516.135	16059.58
516.502	16063.42
516.869	16433.58
517.237	16535.27
517.604	16444.88
517.972	16660.69
518.339	16802.38
518.706	16896.39
519.073	16946.79
519.44	17064.75
519.808	17229.26
520.175	17349.26
520.542	17717.39
520.909	17640.33
521.276	17659.08
521.643	17956.7
522.009	18052.75
522.376	18148.56
522.743	18212.74
523.11	18410.02
523.477	18583.58
523.843	18761.2
524.21	18902.21
524.577	19123.45
524.943	19246.61
525.31	19323.9
525.676	19441.64
526.043	19608.64
526.409	19704.68
526.776	19956.88
527.142	19986.71
527.508	20092.24
527.874	20271.22
528.241	20455.17
528.607	20508.73
528.973	20732.68
529.339	20661.26
529.705	20867.36
530.071	21026.9
530.437	21156.84
530.803	21447.68
531.169	21414.69
531.535	21481.58
531.901	21599.09
532.267	21733.55
532.632	21847.22
532.998	21924.28
533.364	22115.92
533.73	22188.23
534.095	22406.08
534.461	22407.21
534.826	22571.04
535.192	22730.36
535.557	22852.39
535.923	22893.07
536.288	22851.94
536.653	23065.72
537.019	23097.58
537.384	23204.25
537.749	23301.2
538.114	23325.83
538.479	23447.63
538.845	23545.93
539.21	23510.68
539.575	23759.04
539.94	23819.83
540.305	23949.77
540.67	23897.11
541.034	24119.7
541.399	24218.46
541.764	24298.23
542.129	24381.62
542.494	24439.7
542.858	24574.16
543.223	24525.12
543.587	24674.04
543.952	24819.35
544.316	24826.8
544.681	24869.29
545.045	25085.56
545.41	25177.76
545.774	25178.43
546.138	25186.57
546.503	25262.27
546.867	25350.86
547.231	25670.17
547.595	25552.21
547.959	25955.81
548.324	25869.26
548.688	25884.63
549.052	26064.51
549.416	26102.03
549.779	26206.88
550.143	26434.22
550.507	26541.34
550.871	26594.22
551.235	26594.22
551.599	26778.62
551.962	26798.5
552.326	26802.57
552.689	27131.83
553.053	27028.78
553.417	27114.88
553.78	27475.77
554.143	27378.38
554.507	27529.11
554.87	27593.51
555.234	27965.71
555.597	27807.74
555.96	27897.68
556.323	28088.41
556.686	28153.5
557.05	28387.62
557.413	28462.87
557.776	28665.35
558.139	28753.93
558.502	28906.7
558.865	28999.35
559.228	29002.51
559.59	29239.34
559.953	29224.43
560.316	29553.46
560.679	29645.44
561.041	29743.51
561.404	29902.38
561.767	30275.7
562.129	30072.09
562.492	30534.9
562.854	30517.28
563.217	30496.94
563.579	30703.03
563.941	30925.63
564.304	31026.64
564.666	31109.13
565.028	31128.56
565.39	31420.3
565.753	31625.04
566.115	31667.98
566.477	31764.02
566.839	31825.04
567.201	32131.02
567.563	32209.21
567.925	32533.27
568.287	32401.29
568.648	32630.67
569.01	32755.41
569.372	32923.32
569.734	32839.48
570.095	33027.72
570.457	33219.13
570.819	33168.96
571.18	33281.27
571.542	33481.94
571.903	33643.97
572.265	33694.82
572.626	33812.56
572.987	33918.54
573.349	34152.21
573.71	34184.98
574.071	34195.37
574.432	34307.91
574.794	34666.77
575.155	34553.33
575.516	34531.41
575.877	34596.49
576.238	34937.73
576.599	35003.94
576.96	34950.61
577.32	35087.78
577.681	35217.04
578.042	35300.43
578.403	35154.89
578.763	35298.39
579.124	35441.22
579.485	35434.21
579.845	35611.15
580.206	35665.39
580.566	35533.19
580.927	35589.23
581.287	35666.75
581.648	35650.48
582.008	35703.58
582.368	35747.42
582.728	35579.52
583.089	35631.04
583.449	35879.85
583.809	35711.72
584.169	35925.5
584.529	35883.01
584.889	36158.71
585.249	36012.95
585.609	35820.64
585.969	36197.81
586.329	35860.86
586.688	36033.74
587.048	36084.59
587.408	35946.51
587.768	35982.67
588.127	35914.87
588.487	35911.26
588.846	36202.1
589.206	35968.66
589.565	35923.24
589.925	36162.55
590.284	35962.11
590.643	36260.63
591.003	36177.24
591.362	36396.22
591.721	36150.57
592.08	36319.61
592.44	36487.97
592.799	36321.19
593.158	36306.05
593.517	36383.56
593.876	36407.29
594.235	36228.76
594.593	36452.94
594.952	36466.5
595.311	36298.37
595.67	36427.86
596.029	36673.95
596.387	36710.79
596.746	36644.57
597.104	36619.49
597.463	36640.05
597.822	36600.73
598.18	36532.03
598.538	36710.11
598.897	36822.65
599.255	36508.53
599.613	37098.8
599.972	36817
600.33	36901.52
600.688	36743.55
601.046	36882.53
601.404	37128.85
601.762	36947.84
602.12	37105.8
602.478	37024.68
602.836	37139.7
603.194	36957.11
603.552	37184.67
603.91	37022.19
604.268	37281.39
604.625	37068.52
604.983	37280.04
605.341	37164.33
605.698	37415.85
606.056	37484.33
606.413	37420.37
606.771	37560.03
607.128	37550.99
607.485	37353.93
607.843	37577.88
608.2	37602.74
608.557	37740.82
608.914	37487.71
609.272	37852
609.629	37812.68
609.986	37981.71
610.343	37796.18
610.7	38040.69
611.057	38037.3
611.414	38013.8
611.771	37950.08
612.127	38119.79
612.484	38196.4
612.841	38200.69
613.198	38180.58
613.554	38234.14
613.911	38440.01
614.267	38385.54
614.624	38426.45
614.98	38449.72
615.337	38665.54
615.693	38574.01
616.05	38530.17
616.406	38778.08
616.762	38611.53
617.118	38611.53
617.475	38473.9
617.831	38647.46
618.187	38760.68
618.543	38760.68
618.899	38861.24
619.255	38742.15
619.611	38757.06
619.967	38988.92
620.323	38991.4
620.678	38881.35
621.034	38741.69
621.39	38752.99
621.746	38679.77
622.101	39185.07
622.457	38937.39
622.812	39080.67
623.168	39032.31
623.523	39018.75
623.879	39048.8
624.234	38885.64
624.589	38941.69
624.945	39004.51
625.3	39045.19
625.655	38963.61
626.01	38986.43
626.365	39082.48
626.72	39061.46
627.075	39051.97
627.43	39061.46
627.785	38891.75
628.14	39027.79
628.495	38914.57
628.85	38981.91
629.205	38859.2
629.559	38926.77
629.914	38908.24
630.269	38944.4
630.623	38766.33
630.978	38649.72
631.332	38741.02
631.687	38853.78
632.041	38579.44
632.396	38677.97
632.75	38616.72
633.104	38782.6
633.459	38495.37
633.813	38483.85
634.167	38358.88
634.521	38480.01
634.875	38454.47
635.229	38587.12
635.583	38010.41
635.937	38195.72
636.291	38262.38
636.645	38238.66
636.999	38134.93
637.352	38269.62
637.706	37973.13
638.06	38058.32
638.413	37977.65
638.767	37875.05
639.121	37897.65
639.474	37696.3
639.828	37660.59
640.181	37759.12
640.534	37791.21
640.888	37733.36
641.241	37542.4
641.594	37658.11
641.947	37672.34
642.301	37534.27
642.654	37527.49
643.007	37612.91
643.36	37399.58
643.713	37461.73
644.066	37490.2
644.419	37135.63
644.771	36806.38
645.124	36505.59
645.477	36428.99
645.83	36299.72
646.182	36137.24
646.535	36048.66
646.888	36301.98
647.24	36064.25
647.593	36285.26
647.945	36172.72
648.298	36040.97
648.65	35846.18
649.002	35761.43
649.355	35889.79
649.707	35918.49
650.059	36069
650.411	36306.28
650.763	36339.5
651.115	36664.69
651.467	36516.67
651.819	36584.46
652.171	36481.64
652.523	36436.9
652.875	36466.95
653.227	36381.53
653.578	36515.54
653.93	36400.74
654.282	36370.68
654.633	36229.44
654.985	36323.23
655.337	36243.68
655.688	36307.63
656.039	36263.11
656.391	35847.76
656.742	36067.19
657.094	35963.01
657.445	36110.58
657.796	36076.9
658.147	35917.81
658.498	35933.63
658.849	35936.12
659.2	35897.93
659.551	35847.08
659.902	35989.9
660.253	35937.25
660.604	35966.85
660.955	35754.2
661.306	35880.98
661.656	35690.93
662.007	35795.56
662.358	35831.71
662.708	35759.17
663.059	35635.11
663.409	35629.68
663.76	35819.51
664.11	35778.83
664.461	35796.91
664.811	35744.48
665.161	35698.16
665.511	35615.9
665.862	35562.34
666.212	35631.72
666.562	35694.99
666.912	35669.91
667.262	35516.92
667.612	35600.31
667.962	35419.52
668.312	35489.58
668.662	35511.95
669.011	35502.46
669.361	35359.64
669.711	35444.6
670.06	35379.3
670.41	35247.32
670.76	35073.32
671.109	35360.77
671.459	35273.76
671.808	35208.9
672.157	35187.66
672.507	35075.12
672.856	35075.8
673.205	35044.16
673.554	35181.33
673.904	35040.77
674.253	35289.35
674.602	35178.17
674.951	34681.91
675.3	34474.69
675.649	35029.93
675.998	35015.24
676.346	34944.73
676.695	35101.11
677.044	34847.56
677.393	34954.9
677.741	35038.74
678.09	34779.76
678.438	34748.58
678.787	34803.04
679.135	34733.66
679.484	34595.59
679.832	34773.66
680.181	34525.31
680.529	34651.41
680.877	34508.13
681.225	34525.98
681.573	34579.99
681.922	34407.8
682.27	34192.43
682.618	34350.62
682.966	34234.69
683.314	34332.54
683.661	34272.66
684.009	34017.98
684.357	33944.53
684.705	33904.98
685.053	33871.31
685.4	33857.98
685.748	33629.74
686.095	33778.66
686.443	33612.79
686.79	33691.2
687.138	33427.03
687.485	33469.74
687.832	33476.52
688.18	33523.3
688.527	33292.8
688.874	33221.84
689.221	33131.22
689.568	33091.45
689.915	32954.95
690.262	32940.72
690.609	32840.15
690.956	32769.65
691.303	32866.59
691.65	32749.08
691.997	32666.37
692.344	32376.21
692.69	32493.72
693.037	32473.84
693.383	32349.77
693.73	32371.92
694.077	31980.29
694.423	32220.96
694.769	31994.53
695.116	31940.52
695.462	31918.14
695.808	31706.62
696.155	31805.83
696.501	31490.36
696.847	31517.48
697.193	31324.49
697.539	31446.52
697.885	31173.53
698.231	31185.51
698.577	31127.2
698.923	31050.82
699.269	30806.08
699.614	30801.56
699.96	30668.91
700.306	30709.14
700.651	30625.97
700.997	30546.2
701.342	30463.94
701.688	30497.62
702.033	30274.35
702.379	30285.64
702.724	30180.34
703.069	30281.12
703.415	29908.25
703.76	29802.04
704.105	30027.8
704.45	29816.28
704.795	29620.8
705.14	29567.47
705.485	29460.81
705.83	29361.6
706.175	29515.27
706.52	29462.39
706.865	29323.18
707.209	29277.54
707.554	28978.56
707.899	29203.86
708.243	29026.69
708.588	28964.78
708.932	28862.63
709.277	28769.3
709.621	28776.31
709.966	28566.59
710.31	28744.44
710.654	28441.17
710.998	28438.01
711.342	28581.73
711.687	28293.15
712.031	28245.7
712.375	28179.94
712.719	28227.17
713.063	28197.34
713.407	28167.06
713.75	27956.89
714.094	27971.35
714.438	27780.4
714.782	28026.72
715.125	27851.13
715.469	27852.26
715.812	27568.88
716.156	27482.33
716.499	27544.02
716.843	27612.04
717.186	27386.29
717.53	27531.37
717.873	27409.34
718.216	27404.59
718.559	27238.27
718.902	27175.22
719.246	27228.32
719.589	27043.02
719.932	26964.6
720.275	26903.59
720.617	26855.23
720.96	26849.12
721.303	26812.74
721.646	26860.65
721.989	26672.86
722.331	26725.74
722.674	26685.29
723.016	26602.13
723.359	26511.28
723.701	26567.78
724.044	26372.07
724.386	26270.61
724.729	26405.75
725.071	26374.79
725.413	26327.1
725.755	26234
726.097	26162.59
726.439	26123.04
726.782	26039.88
727.124	26156.04
727.465	26025.42
727.807	25910.84
728.149	25960.11
728.491	25838.53
728.833	25820.68
729.175	25823.39
729.516	25786.33
729.858	25776.61
730.199	25714.47
730.541	25575.49
730.882	25520.8
731.224	25733.9
731.565	25540.01
731.906	25549.27
732.248	25412.33
732.589	25254.36
732.93	25288.71
733.271	25267.47
733.612	25286.68
733.953	25297.53
734.294	25169.17
734.635	25152.9
734.976	25182.5
735.317	25116.74
735.658	25137.53
735.999	25112.67
736.339	24966.24
736.68	25063.86
737.021	25022.28
737.361	24873.13
737.702	24956.52
738.042	24800.36
738.383	24784.32
738.723	24872.45
739.063	24727.6
739.404	24768.05
739.744	24742.97
740.084	24557.89
740.424	24516.08
740.764	24467.72
741.104	24577.09
741.444	24450.54
741.784	24418.91
742.124	24421.39
742.464	24352.92
742.804	24240.61
743.143	24293.03
743.483	24165.35
743.823	24000.61
744.162	24076.09
744.502	24215.75
744.841	23962.65
745.181	24089.88
745.52	23951.8
745.86	23964.23
746.199	23858.24
746.538	23915.64
746.877	23834.29
747.216	23826.38
747.556	23705.7
747.895	23766.27
748.234	23549.1
748.573	23585.93
748.911	23745.25
749.25	23581.19
749.589	23460.29
749.928	23479.5
750.267	23408.76
750.605	23368.76
750.944	23255.32
751.283	23163.12
751.621	23315.43
751.96	23121.76
752.298	23060.07
752.636	23078.83
752.975	22917.25
753.313	22937.36
753.651	22996.12
753.989	22882.45
754.327	22843.81
754.666	22713.64
755.004	22651.27
755.342	22827.54
755.679	22666.64
756.017	22516.81
756.355	22679.74
756.693	22502.35
757.031	22565.62
757.368	22299.41
757.706	22246.31
758.044	22218.74
758.381	22231.17
758.719	22163.15
759.056	22154.78
759.394	22198.85
759.731	21952.3
760.068	21908.24
760.405	21902.81
760.743	21897.84
761.08	21849.71
761.417	21740.33
761.754	21612.88
762.091	21594.35
762.428	21524.52
762.765	21460.57
763.102	21518.42
763.438	21271.87
763.775	21311.87
764.112	21200.46
764.449	21314.13
764.785	21104.19
765.122	20922.95
765.458	20877.3
765.795	20900.58
766.131	20893.8
766.467	20747.59
766.804	20669.85
767.14	20485.45
767.476	20555.05
767.812	20406.58
768.148	20479.57
768.485	20258.56
768.821	20325
769.157	20125.69
769.492	20063.99
769.828	20157.32
770.164	19966.82
770.5	19941.06
770.836	19956.88
771.171	19715.98
771.507	19757.79
771.842	19525.48
772.178	19542.2
772.513	19437.57
772.849	19474.4
773.184	19390.79
773.519	19332.03
773.855	19246.84
774.19	19131.36
774.525	19073.06
774.86	19011.36
775.195	18974.53
775.53	18892.05
775.865	18870.35
776.2	18683.46
776.535	18543.58
776.87	18529.8
777.205	18560.3
777.539	18454.32
777.874	18469.46
778.209	18269.46
778.543	18202.8
778.878	18255
779.212	18024.5
779.547	18015.46
779.881	18066.98
780.215	17945.18
780.55	17933.88
780.884	17852.3
781.218	17738.4
781.552	17768.91
781.886	17754
782.22	17572.76
782.554	17475.13
782.888	17250.73
783.222	17307.45
783.556	17214.8
783.889	17156.5
784.223	16975.03
784.557	17074.92
784.89	17042.38
785.224	16956.96
785.557	16866.56
785.891	16797.41
786.224	16763.06
786.558	16772.78
786.891	16598.09
787.224	16594.25
787.557	16598.55
787.891	16584.99
788.224	16457.31
788.557	16459.79
788.89	16454.6
789.223	16322.85
789.556	16184.09
789.888	16120.59
790.221	16134.38
790.554	15940.71
790.887	15994.04
791.219	15900.26
791.552	15839.24
791.884	15817.1
792.217	15686.03
792.549	15754.05
792.882	15596.77
793.214	15492.36
793.546	15543.43
793.879	15403.1
794.211	15339.14
794.543	15381.86
794.875	15304.57
795.207	15266.83
795.539	15268.64
795.871	15206.27
796.203	15088.53
796.535	15055.99
796.867	15159.26
797.198	14896.67
797.53	14938.25
797.862	14876.11
798.193	14839.27
798.525	14730.8
798.856	14839.04
799.188	14646.51
799.519	14594.76
799.85	14583.68
800.182	14593.63
800.513	14567.41
800.844	14437.93
801.175	14484.25
801.506	14440.64
801.837	14307.99
802.168	14295.1
802.499	14269.34
802.83	14212.62
803.161	14139.85
803.491	14151.15
803.822	14185.95
804.153	14080.87
804.483	13965.85
804.814	13912.97
805.145	13771.95
805.475	13811.5
805.805	13815.12
806.136	13771.73
806.466	13807.21
806.796	13736.93
807.126	13604.5
807.457	13533.54
807.787	13583.94
808.117	13562.24
808.447	13504.16
808.777	13521.11
809.107	13444.73
809.436	13336.71
809.766	13370.38
810.096	13314.79
810.426	13254
810.755	13250.84
811.085	13187.79
811.414	13225.08
811.744	13025.53
812.073	13069.83
812.403	13012.2
812.732	12975.14
813.061	12961.58
813.39	12831.41
813.719	12836.39
814.049	12896.27
814.378	12858.31
814.707	12797.06
815.036	12843.17
815.365	12783.05
815.693	12614.24
816.022	12620.57
816.351	12513
816.68	12510.52
817.008	12571.08
817.337	12419.67
817.665	12473.23
817.994	12458.99
818.322	12449.28
818.651	12447.92
818.979	12383.52
819.307	12396.85
819.636	12336.29
819.964	12290.86
820.292	12342.39
820.62	12261.26
820.948	12254.48
821.276	12221.26
821.604	12254.25
821.932	12211.54
822.259	12228.94
822.587	12204.54
822.915	12163.86
823.243	12218.1
823.57	12157.53
823.898	12139
824.225	12065.33
824.553	12106.46
824.88	12117.31
825.207	12162.73
825.535	12112.34
825.862	12177.65
826.189	12061.94
826.516	12174.93
826.843	12190.3
827.17	12104.43
827.497	12209.51
827.824	12141.49
828.151	12185.1
828.478	12048.38
828.805	12159.79
829.131	12051.55
829.458	12052.45
829.785	12043.86
830.111	12102.85
830.438	12127.03
830.764	12048.84
831.09	12075.05
831.417	11989.18
831.743	12027.59
832.069	12041.15
832.395	11993.92
832.722	12126.12
833.048	12045.9
833.374	12043.86
833.7	11970.87
834.026	11994.15
834.351	11978.33
834.677	11925.68
835.003	12005.45
835.329	11911.66
835.654	11955.96
835.98	11854.72
836.306	11908.05
836.631	11880.25
836.956	11883.64
837.282	11936.07
837.607	11775.85
837.932	11721.61
838.258	11804.55
838.583	11720.71
838.908	11678.22
839.233	11682.29
839.558	11657.21
839.883	11615.85
840.208	11628.73
840.533	11571.33
840.858	11629.19
841.182	11608.85
841.507	11561.16
841.832	11456.76
842.156	11522.3
842.481	11449.3
842.805	11452.24
843.13	11433.03
843.454	11377.67
843.778	11317.33
844.103	11308.52
844.427	11279.59
844.751	11317.1
845.075	11307.39
845.399	11240.27
845.723	11078.01
846.047	11141.29
846.371	11123.89
846.695	11085.92
847.019	11039.6
847.343	10983.33
847.666	10863.78
847.99	10845.03
848.313	10883.67
848.637	10794.41
848.96	10756.89
849.284	10720.28
849.607	10704.01
849.931	10679.38
850.254	10559.38
850.577	10538.14
850.9	10452.27
851.223	10442.32
851.546	10381.53
851.869	10390.8
852.192	10342.89
852.515	10235.55
852.838	10156.91
853.161	10191.48
853.483	10198.26
853.806	10141.77
854.129	10096.8
854.451	10039.4
854.774	9921.21
855.096	9976.8
855.419	9969.12
855.741	9960.53
856.063	9864.94
856.385	9903.13
856.708	9874.88
857.03	9803.7
857.352	9680.08
857.674	9710.82
857.996	9708.33
858.318	9669.24
858.64	9595.34
858.961	9650.71
859.283	9541.33
859.605	9495.68
859.926	9538.85
860.248	9553.08
860.57	9474.21
860.891	9444.84
861.212	9472.86
861.534	9448
861.855	9420.66
862.176	9426.76
862.498	9354.44
862.819	9396.7
863.14	9414.55
863.461	9308.57
863.782	9266.76
864.103	9268.12
864.424	9185.41
864.745	9256.14
865.065	9218.63
865.386	9175.69
865.707	9249.14
866.027	9234.67
866.348	9169.36
866.668	9199.87
866.989	9125.75
867.309	9059.99
867.63	9094.11
867.95	9038.75
868.27	9003.72
868.59	9028.35
868.91	9025.86
869.23	8956.49
869.55	8943.83
869.87	9071.29
870.19	8981.35
870.51	9018.18
870.83	8966.66
871.15	8940.67
871.469	8892.99
871.789	8945.87
872.109	8953.55
872.428	8855.93
872.748	8857.28
873.067	8816.6
873.386	8883.72
873.706	8806.44
874.025	8779.77
874.344	8685.76
874.663	8733.22
874.982	8751.97
875.301	8749.26
875.62	8724.86
875.939	8700.45
876.258	8691.41
876.577	8604.86
876.896	8629.04
877.214	8635.14
877.533	8652.99
877.852	8568.93
878.17	8593.11
878.489	8547.91
878.807	8528.02
879.125	8562.6
879.444	8533.9
879.762	8503.62
880.08	8506.33
880.398	8447.35
880.716	8405.32
881.034	8341.14
881.352	8438.08
881.67	8393.34
881.988	8396.28
882.306	8427.46
882.624	8385.43
882.941	8325.09
883.259	8302.49
883.577	8290.06
883.894	8281.7
884.212	8260.69
884.529	8238.99
884.846	8211.2
885.164	8219.78
885.481	8152.22
885.798	8197.41
886.115	8088.94
886.432	8120.35
886.75	8092.78
887.067	8090.3
887.383	8093.91
887.7	8116.06
888.017	8011.2
888.334	8028.38
888.651	7931.2
888.967	7925.55
889.284	7907.25
889.6	7920.36
889.917	7873.35
890.233	7886.46
890.55	7802.17
890.866	7799
891.182	7866.12
891.498	7834.71
891.815	7722.17
892.131	7653.7
892.447	7688.27
892.763	7697.54
893.079	7683.98
893.395	7613.92
893.71	7627.03
894.026	7599.69
894.342	7601.27
894.657	7543.87
894.973	7571.67
895.289	7519.69
895.604	7500.71
895.92	7412.35
896.235	7401.73
896.55	7413.48
896.865	7396.53
897.181	7334.84
897.496	7345
897.811	7235.63
898.126	7266.14
898.441	7224.1
898.756	7253.03
899.071	7131.9
899.386	7168.96
899.7	7109.53
900.015	7149.53
900.33	7075.18
900.644	7073.15
900.959	7100.94
901.273	7044.22
901.588	6993.6
901.902	6997.22
902.216	6887.16
902.531	6930.55
902.845	6856.43
903.159	6887.84
903.473	6809.2
903.787	6794.28
904.101	6741.86
904.415	6760.16
904.729	6751.8
905.042	6708.86
905.356	6685.59
905.67	6600.62
905.984	6647.85
906.297	6664.12
906.611	6550.45
906.924	6586.38
907.237	6524.69
907.551	6547.29
907.864	6465.93
908.177	6485.37
908.491	6396.1
908.804	6451.02
909.117	6442.88
909.43	6366.05
909.743	6286.95
910.056	6334.86
910.368	6284.69
910.681	6270.68
910.994	6228.88
911.307	6262.1
911.619	6191.36
911.932	6172.83
912.244	6162.89
912.557	6142.32
912.869	6067.52
913.181	6043.8
913.494	6044.93
913.806	6009.22
914.118	5988.66
914.43	5969
914.742	5953.4
915.054	5921.09
915.366	5891.03
915.678	5861.43
915.99	5851.94
916.302	5830.92
916.613	5803.12
916.925	5758.38
917.236	5751.6
917.548	5751.6
917.859	5717.02
918.171	5683.35
918.482	5619.85
918.794	5623.69
919.105	5627.99
919.416	5534.88
919.727	5547.76
920.038	5538.05
920.349	5475.68
920.66	5464.6
920.971	5494.88
921.282	5487.65
921.593	5430.48
921.903	5411.04
922.214	5402
922.525	5342.35
922.835	5290.14
923.146	5274.32
923.456	5291.05
923.767	5287.88
924.077	5265.06
924.387	5194.33
924.697	5225.74
925.008	5155.01
925.318	5119.53
925.628	5133.54
925.938	5151.62
926.248	5098.06
926.558	5085.4
926.867	5062.35
927.177	5076.36
927.487	5025.74
927.796	4931.96
928.106	4929.7
928.416	4972.19
928.725	4870.95
929.034	4840.21
929.344	4868.91
929.653	4875.01
929.962	4800.89
930.271	4814.9
930.581	4801.57
930.89	4795.02
931.199	4726.99
931.508	4718.18
931.817	4718.63
932.125	4729.48
932.434	4679.99
932.743	4676.6
933.051	4579.43
933.36	4615.58
933.669	4557.73
933.977	4575.59
934.286	4571.52
934.594	4542.82
934.902	4492.2
935.21	4504.4
935.519	4498.75
935.827	4415.59
936.135	4443.84
936.443	4398.87
936.751	4367.23
937.059	4379.21
937.367	4305.08
937.674	4315.25
937.982	4322.26
938.29	4313.67
938.597	4336.95
938.905	4253.11
939.213	4239.1
939.52	4250.17
939.827	4253.33
940.135	4199.78
940.442	4165.65
940.749	4164.98
941.056	4138.76
941.363	4053.57
941.67	4077.29
941.977	4082.27
942.284	4048.82
942.591	4055.15
942.898	4036.84
943.205	4030.06
943.511	3948.26
943.818	3959.56
944.125	3927.24
944.431	3947.81
944.738	3952.33
945.044	3903.06
945.35	3899.45
945.657	3876.85
945.963	3855.15
946.269	3834.36
946.575	3843.63
946.881	3819
947.187	3836.62
947.493	3779.45
947.799	3777.87
948.105	3742.16
948.41	3720.02
948.716	3772.9
949.022	3680.92
949.327	3705.55
949.633	3651.99
949.938	3673.69
950.244	3667.36
950.549	3613.8
950.854	3633.92
951.16	3615.61
951.465	3596.18
951.77	3579.23
952.075	3498.55
952.38	3515.73
952.685	3505.78
952.99	3467.37
953.294	3504.2
953.599	3497.65
953.904	3444.77
954.209	3432.57
954.513	3429.4
954.818	3433.47
955.122	3407.48
955.426	3404.54
955.731	3386.69
956.035	3378.33
956.339	3358.22
956.643	3383.3
956.948	3329.29
957.252	3291.78
957.556	3269.41
957.86	3235.73
958.163	3254.04
958.467	3241.84
958.771	3239.12
959.075	3259.91
959.378	3200.48
959.682	3238.22
959.985	3119.13
960.289	3146.47
960.592	3159.58
960.896	3109.18
961.199	3102.63
961.502	3087.72
961.805	3082.97
962.108	3041.61
962.411	3079.81
962.714	3026.02
963.017	3060.82
963.32	2993.48
963.623	2995.29
963.926	3001.39
964.228	2992.8
964.531	2994.16
964.833	2960.49
965.136	2972.01
965.438	2947.83
965.741	2900.15
966.043	2866.03
966.345	2902.86
966.648	2850.21
966.95	2865.57
967.252	2843.65
967.554	2829.19
967.856	2834.16
968.158	2802.98
968.46	2814.28
968.761	2783.09
969.063	2761.62
969.365	2809.76
969.666	2755.29
969.968	2735.63
970.269	2731.57
970.571	2746.71
970.872	2701.96
971.174	2726.37
971.475	2664.45
971.776	2688.18
972.077	2656.31
972.378	2637.78
972.679	2679.82
972.98	2621.06
973.281	2628.74
973.582	2610.89
973.883	2610.44
974.183	2598.91
974.484	2588.97
974.785	2601.4
975.085	2557.56
975.386	2539.93
975.686	2548.75
975.986	2528.18
976.287	2479.6
976.587	2507.17
976.887	2480.73
977.187	2512.82
977.487	2461.07
977.787	2427.17
978.087	2444.12
978.387	2456.09
978.687	2454.96
978.987	2423.33
979.286	2403.67
979.586	2410.67
979.885	2407.06
980.185	2379.71
980.484	2395.08
980.784	2374.51
981.083	2325.02
981.382	2332.93
981.682	2319.6
981.981	2293.84
982.28	2277.12
982.579	2297.68
982.878	2284.8
983.177	2261.97
983.475	2306.27
983.774	2237.79
984.073	2264.23
984.372	2266.27
984.67	2220.39
984.969	2223.11
985.267	2234.63
985.566	2209.09
985.864	2181.52
986.162	2170.23
986.461	2168.42
986.759	2144.46
987.057	2160.51
987.355	2155.76
987.653	2116.89
987.951	2118.48
988.249	2118.48
988.547	2092.94
988.844	2078.7
989.142	2096.78
989.44	2072.6
989.737	2077.8
990.035	2044.58
990.332	2088.42
990.63	2052.26
990.927	2061.53
991.224	2009.55
991.521	1999.38
991.819	1989.89
992.116	2020.62
992.413	1988.99
992.71	1995.99
993.006	1983.11
993.303	1969.1
993.6	1939.05
993.897	1962.77
994.193	1927.52
994.49	1946.05
994.787	1933.62
995.083	1892.72
995.379	1916.67
995.676	1883.68
995.972	1898.14
996.268	1857.47
996.565	1859.05
996.861	1862.89
997.157	1875.32
997.453	1807.52
997.749	1826.05
998.044	1800.97
998.34	1794.42
998.636	1786.28
998.932	1809.1
999.227	1770.46
999.523	1754.87
999.818	1755.77
1000.114	1760.74
1000.409	1740.41
1000.704	1730.46
1001	1735.66
1001.295	1760.07
1001.59	1730.46
1001.885	1716.45
1002.18	1690.92
1002.475	1687.98
1002.77	1670.8
1003.065	1648.43
1003.359	1646.4
1003.654	1661.54
1003.949	1632.39
1004.243	1605.04
1004.538	1628.09
1004.832	1620.64
1005.127	1609.79
1005.421	1583.57
1005.715	1586.29
1006.009	1577.92
1006.304	1569.11
1006.598	1579.73
1006.892	1563.69
1007.186	1534.76
1007.48	1538.15
1007.773	1531.37
1008.067	1529.34
1008.361	1539.06
1008.655	1511.26
1008.948	1480.53
1009.242	1512.16
1009.535	1463.35
1009.829	1482.79
1010.122	1454.54
1010.415	1464.03
1010.708	1471.71
1011.001	1421.32
1011.295	1442.56
1011.588	1413.86
1011.881	1407.08
1012.173	1416.35
1012.466	1402.11
1012.759	1381.55
1013.052	1392.17
1013.344	1377.7
1013.637	1363.47
1013.93	1353.52
1014.222	1352.39
1014.514	1338.16
1014.807	1339.06
1015.099	1339.74
1015.391	1305.16
1015.683	1318.95
1015.976	1315.11
1016.268	1285.73
1016.56	1271.94
1016.851	1270.14
1017.143	1280.53
1017.435	1273.75
1017.727	1291.83
1018.018	1251.38
1018.31	1244.37
1018.602	1228.33
1018.893	1210.25
1019.185	1205.05
1019.476	1219.97
1019.767	1189.91
1020.058	1206.18
1020.35	1210.93
1020.641	1178.61
1020.932	1159.63
1021.223	1177.26
1021.514	1177.71
1021.804	1146.07
1022.095	1164.38
1022.386	1149.46
1022.677	1124.38
1022.967	1127.54
1023.258	1140.42
1023.548	1106.07
1023.839	1112.63
1024.129	1060.2
1024.419	1107.43
1024.709	1090.48
1025	1065.4
1025.29	1093.19
1025.58	1069.24
1025.87	1098.39
1026.16	1040.76
1026.449	1041.89
1026.739	1063.36
1027.029	1026.75
1027.319	1030.37
1027.608	1020.65
1027.898	1013.65
1028.187	996.92
1028.477	1027.88
1028.766	1008.9
1029.055	978.39
1029.344	984.95
1029.634	971.16
1029.923	1001.22
1030.212	971.16
1030.501	968.68
1030.79	952.18
1031.078	966.64
1031.367	949.24
1031.656	933.42
1031.945	937.26
1032.233	926.87
1032.522	941.33
1032.81	892.74
1033.099	904.95
1033.387	920.99
1033.675	889.58
1033.963	895
1034.251	899.75
1034.54	886.19
1034.828	862.69
1035.116	869.69
1035.403	881.22
1035.691	875.34
1035.979	887.77
1036.267	852.07
1036.554	855.68
1036.842	837.15
1037.129	826.76
1037.417	828.34
1037.704	858.17
1037.992	812.3
1038.279	808.91
1038.566	804.61
1038.853	804.61
1039.14	804.61
