Data from plate_porcelain_FLMS001491_099.txt Node
Date: Tue Feb 07 11:20:14 GMT 2017
User: dcchb
Spectrometer: FLMS00149
Trigger mode: 0
Integration Time (sec): 2.000000E-2
Scans to average: 10
Electric dark correction enabled: true
Nonlinearity correction enabled: false
Boxcar width: 0
XAxis mode: Wavelengths
Number of Pixels in Spectrum: 2048
>>>>>Begin Spectral Data<<<<<
341.393	-25.62
341.776	-25.62
342.16	-25.62
342.543	-45.96
342.927	-79.4
343.31	-63.59
343.693	-53.87
344.077	-38.05
344.46	-70.59
344.843	-39.86
345.226	-55.22
345.61	-41.67
345.993	-24.94
346.376	-3.47
346.759	22.06
347.142	34.04
347.525	19.58
347.908	53.47
348.291	71.1
348.674	93.02
349.057	97.99
349.44	118.78
349.823	134.15
350.206	153.81
350.588	232
350.971	241.26
351.354	255.5
351.737	279.68
352.119	278.1
352.502	306.57
352.884	299.34
353.267	325.33
353.65	327.14
354.032	352.9
354.414	364.65
354.797	361.71
355.179	364.2
355.562	362.62
355.944	353.8
356.326	385.67
356.709	401.26
357.091	384.76
357.473	388.38
357.855	391.09
358.238	396.29
358.62	397.87
359.002	390.19
359.384	392.67
359.766	388.15
360.148	405.55
360.53	392
360.912	397.19
361.294	382.96
361.676	397.87
362.057	386.57
362.439	392.45
362.821	387.7
363.203	399.23
363.584	380.02
363.966	390.19
364.348	401.94
364.729	400.13
365.111	392
365.493	400.13
365.874	383.18
366.256	401.03
366.637	409.62
367.019	431.09
367.4	406.23
367.781	394.03
368.163	410.07
368.544	391.77
368.925	381.6
369.306	402.62
369.688	413.46
370.069	408.04
370.45	380.7
370.831	396.29
371.212	413.69
371.593	428.83
371.974	420.02
372.355	428.6
372.736	432.45
373.117	421.37
373.498	424.31
373.879	429.73
374.26	412.79
374.641	437.42
375.021	420.7
375.402	441.03
375.783	440.36
376.163	472.45
376.544	483.29
376.925	480.35
377.305	453.01
377.686	459.79
378.066	471.77
378.447	501.37
378.827	481.48
379.208	483.52
379.588	478.77
379.968	479.22
380.349	502.73
380.729	513.8
381.109	508.83
381.489	506.12
381.87	514.03
382.25	516.51
382.63	530.07
383.01	532.78
383.39	534.14
383.77	525.78
384.15	555.15
384.53	540.69
384.91	541.6
385.29	543.86
385.67	586.11
386.049	571.2
386.429	560.8
386.809	562.61
387.189	576.17
387.568	607.36
387.948	597.87
388.328	609.16
388.707	607.13
389.087	610.29
389.466	622.95
389.846	646
390.225	654.59
390.605	652.55
390.984	661.59
391.363	688.48
391.743	705.89
392.122	691.65
392.501	707.02
392.881	697.07
393.26	717.18
393.639	701.37
394.018	707.02
394.397	740.46
394.776	757.64
395.155	756.05
395.534	738.88
395.913	774.58
396.292	763.29
396.671	782.27
397.05	810.52
397.429	808.26
397.808	784.3
398.186	804.41
398.565	811.65
398.944	826.33
399.323	825.43
399.701	834.24
400.08	865.43
400.458	842.15
400.837	868.14
401.215	865.66
401.594	876.5
401.972	891.87
402.351	907.46
402.729	915.37
403.107	925.31
403.486	946.11
403.864	958.31
404.242	969.61
404.62	987.46
404.999	966.22
405.377	989.49
405.755	996.73
406.133	1002.6
406.511	1042.83
406.889	1032.88
407.267	1063.84
407.645	1064.97
408.023	1097.29
408.401	1113.33
408.779	1125.31
409.156	1139.32
409.534	1152.2
409.912	1160.56
410.29	1205.53
410.667	1195.59
411.045	1271.29
411.422	1251.41
411.8	1243.5
412.178	1268.13
412.555	1294.34
412.933	1334.34
413.31	1329.82
413.687	1360.33
414.065	1356.04
414.442	1358.3
414.819	1390.61
415.197	1405.53
415.574	1412.08
415.951	1443.04
416.328	1465.87
416.705	1486.66
417.082	1497.5
417.46	1503.6
417.837	1524.85
418.214	1504.96
418.591	1535.47
418.967	1581.34
419.344	1564.62
419.721	1622.25
420.098	1575.92
420.475	1630.61
420.852	1651.85
421.228	1692.98
421.605	1698.18
421.982	1727.78
422.358	1716.48
422.735	1740.89
423.111	1777.95
423.488	1823.82
423.864	1795.12
424.241	1850.26
424.617	1850.49
424.994	1840.77
425.37	1919.19
425.746	1875.8
426.123	1948.11
426.499	1986.08
426.875	1981.11
427.251	2044.16
427.627	2054.55
428.003	2054.1
428.379	2121.44
428.756	2138.62
429.132	2191.27
429.507	2176.58
429.883	2222.91
430.259	2276.01
430.635	2266.07
431.011	2298.39
431.387	2361.44
431.763	2403.24
432.138	2427.42
432.514	2417.03
432.89	2477.59
433.265	2530.47
433.641	2559.17
434.016	2566.63
434.392	2632.39
434.767	2688.21
435.143	2647.98
435.518	2748.09
435.894	2752.61
436.269	2825.83
436.644	2836.9
437.02	2872.16
437.395	2881.42
437.77	2906.96
438.145	2965.94
438.52	2985.37
438.895	3035.32
439.271	3010.91
439.646	3105.37
440.021	3096.11
440.395	3110.57
440.77	3092.26
441.145	3180.62
441.52	3228.3
441.895	3226.27
442.27	3274.41
442.645	3299.04
443.019	3321.18
443.394	3358.02
443.769	3376.55
444.143	3337.91
444.518	3417
444.892	3420.16
445.267	3481.18
445.641	3524.34
446.016	3534.74
446.39	3540.84
446.764	3569.54
447.139	3547.84
447.513	3614.51
447.887	3616.77
448.262	3686.37
448.636	3695.86
449.01	3733.6
449.384	3797.33
449.758	3818.8
450.132	3849.98
450.506	3878.01
450.88	3901.06
451.254	3941.51
451.628	4039.13
452.002	4099.92
452.376	4071.67
452.75	4107.6
453.123	4158.22
453.497	4281.38
453.871	4252.23
454.244	4365.68
454.618	4400.25
454.992	4395.28
455.365	4458.56
455.739	4582.85
456.112	4659.45
456.486	4671.2
456.859	4670.07
457.232	4835.27
457.606	4812.22
457.979	4901.03
458.352	5011.08
458.725	5048.14
459.099	5053.34
459.472	5190.06
459.845	5256.05
460.218	5312.32
460.591	5337.18
460.964	5378.53
461.337	5526.1
461.71	5600.22
462.083	5678.41
462.456	5644.51
462.829	5708.69
463.201	5792.53
463.574	5867.56
463.947	5976.26
464.32	6098.96
464.692	6126.99
465.065	6159.3
465.438	6279.07
465.81	6373.98
466.183	6491.95
466.555	6609.91
466.928	6655.56
467.3	6643.81
467.672	6749.12
468.045	6973.74
468.417	6986.4
468.789	7008.77
469.161	7156.34
469.534	7280.18
469.906	7413.96
470.278	7418.25
470.65	7594.29
471.022	7742.08
471.394	7855.75
471.766	7933.49
472.138	7970.78
472.51	8198.57
472.882	8339.13
473.253	8473.82
473.625	8579.35
473.997	8819.8
474.369	8771.21
474.74	8933.47
475.112	9057.76
475.484	9220.46
475.855	9417.97
476.227	9474.02
476.598	9711.75
476.97	9871.52
477.341	10035.81
477.713	10269.93
478.084	10271.96
478.455	10560.77
478.827	10646.41
479.198	10949.23
479.569	11006.63
479.94	11339.96
480.311	11426.51
480.682	11722.32
481.053	11920.28
481.424	12158.24
481.795	12314.39
482.166	12448.63
482.537	12696.53
482.908	12939.46
483.279	13062.85
483.65	13305.78
484.021	13565.66
484.391	13751.42
484.762	13882.49
485.133	13984.41
485.503	14256.26
485.874	14568.57
486.244	14696.48
486.615	15014.44
486.985	15103.7
487.356	15436.57
487.726	15611.48
488.097	15934.19
488.467	16068.19
488.837	16303.89
489.207	16627.27
489.578	16766.93
489.948	16948.17
490.318	17227.94
490.688	17265.9
491.058	17430.42
491.428	17751.76
491.798	18047.35
492.168	18350.39
492.538	18589.03
492.908	18606.43
493.278	18931.17
493.648	18867.67
494.017	19212.52
494.387	19407.09
494.757	19609.57
495.126	19763.92
495.496	19782.67
495.866	19938.37
496.235	20288.42
496.605	20443.45
496.974	20622.2
497.344	20720.5
497.713	20875.3
498.082	21094.73
498.452	21390.09
498.821	21430.76
499.19	21486.81
499.559	21829.4
499.928	21915.72
500.298	22110.75
500.667	22275.26
501.036	22283.17
501.405	22503.73
501.774	22611.07
502.143	22838.18
502.512	22931.74
502.88	23264.61
503.249	23114.34
503.618	23362.46
503.987	23534.89
504.356	23741.89
504.724	23825.73
505.093	24038.61
505.462	24139.39
505.83	24451.02
506.199	24565.37
506.567	24750.22
506.936	24817.79
507.304	25071.12
507.672	25319.02
508.041	25361.51
508.409	25519.47
508.777	25810.99
509.145	26103.64
509.514	26131.88
509.882	26268.6
510.25	26420.92
510.618	26574.13
510.986	26784.75
511.354	26989.94
511.722	27281.91
512.09	27441
512.458	27473.77
512.826	27755.57
513.193	27961.89
513.561	28034.66
513.929	28282.79
514.297	28545.83
514.664	28779.95
515.032	28872.6
515.4	29106.49
515.767	29353.95
516.135	29598.69
516.502	29476.2
516.869	30103.76
517.237	30145.11
517.604	30080.03
517.972	30529.96
518.339	30835.71
518.706	30816.51
519.073	30962.72
519.44	31220.79
519.808	31635.69
520.175	31588.69
520.542	32102.35
520.909	32252.17
521.276	32288.56
521.643	32648.55
522.009	32944.81
522.376	33193.62
522.743	33532.59
523.11	33716.54
523.477	34069.75
523.843	34141.39
524.21	34532.11
524.577	34701.83
524.943	34972.56
525.31	35174.13
525.676	35548.81
526.043	35824.96
526.409	35882.81
526.776	36307.44
527.142	36474.21
527.508	36819.74
527.874	36978.6
528.241	37231.93
528.607	37209.56
528.973	37627.85
529.339	37877.11
529.705	38089.99
530.071	38367.95
530.437	38559.58
530.803	38823.75
531.169	39104.2
531.535	39144.87
531.901	39224.65
532.267	39305.32
532.632	39636.16
532.998	39833.44
533.364	40128.35
533.73	40250.61
534.095	40494.22
534.461	40617.15
534.826	40933.3
535.192	41070.25
535.557	41404.93
535.923	41310.47
536.288	41475.66
536.653	41679.5
537.019	41721.98
537.384	41836.78
537.749	42064.35
538.114	42215.98
538.479	42354.51
538.845	42555.86
539.21	42590.43
539.575	42806.93
539.94	42950.2
540.305	43157.2
540.67	43215.5
541.034	43405.33
541.399	43499.79
541.764	43728.71
542.129	43889.83
542.494	43928.03
542.858	44030.62
543.223	44220.9
543.587	44525.3
543.952	44538.18
544.316	44692.98
544.681	44680.1
545.045	44852.3
545.41	45158.5
545.774	45231.04
546.138	45280.08
546.503	45344.49
546.867	45363.92
547.231	45916.22
547.595	45763.68
547.959	45955.09
548.324	46007.29
548.688	46198.93
549.052	46372.48
549.416	46491.35
549.779	46500.61
550.143	46739.93
550.507	47016.76
550.871	47004.78
551.235	47078.68
551.599	47389.63
551.962	47434.15
552.326	47580.36
552.689	47785.55
553.053	47684.99
553.417	47885.21
553.78	48309.61
554.143	48189.61
554.507	48419.21
554.87	48616.94
555.234	49099.42
555.597	48763.15
555.96	49031.39
556.323	49304.61
556.686	49244.72
557.05	49489.46
557.413	49701.66
557.776	49716.8
558.139	49844.48
558.502	50007.87
558.865	50143
559.228	50472.49
559.59	50531.02
559.953	50535.99
560.316	50988.41
560.679	50921.06
561.041	51079.25
561.404	51340.26
561.767	51516.07
562.129	51391.33
562.492	51775.95
562.854	51773.02
563.217	51851.66
563.579	51966.46
563.941	52209.16
564.304	52422.49
564.666	52558.76
565.028	52574.13
565.39	52730.96
565.753	52893.21
566.115	53064.06
566.477	53136.82
566.839	53202.58
567.201	53468.57
567.563	53344.73
567.925	53656.58
568.287	53697.26
568.648	53738.16
569.01	53997.59
569.372	54100.41
569.734	54059.74
570.095	54262.67
570.457	54366.85
570.819	54424.02
571.18	54458.82
571.542	54626.05
571.903	54624.02
572.265	54862.2
572.626	54853.84
572.987	54894.07
573.349	55041.41
573.71	55070.56
574.071	55170.44
574.432	55270.78
574.794	55479.81
575.155	55434.84
575.516	55346.26
575.877	55534.5
576.238	55582.63
576.599	55683.2
576.96	55629.86
577.32	55720.94
577.681	55843.19
578.042	55890.65
578.403	55962.06
578.763	55930.2
579.124	56014.71
579.485	56028.95
579.845	56135.16
580.206	56088.61
580.566	56079.34
580.927	56176.29
581.287	56350.3
581.648	56122.06
582.008	56336.29
582.368	56215.16
582.728	56317.76
583.089	56243.86
583.449	56233.92
583.809	56293.58
584.169	56413.35
584.529	56306.46
584.889	56488.37
585.249	56324.31
585.609	56214.48
585.969	56439.11
586.329	56280.24
586.688	56426.68
587.048	56376.96
587.408	56301.71
587.768	56384.2
588.127	56350.3
588.487	56347.59
588.846	56560.24
589.206	56341.03
589.565	56448.37
589.925	56482.05
590.284	56404.31
590.643	56513.23
591.003	56498.99
591.362	56575.83
591.721	56569.95
592.08	56529.5
592.44	56655.83
592.799	56662.38
593.158	56597.75
593.517	56618.31
593.876	56644.3
594.235	56523.85
594.593	56615.15
594.952	56675.26
595.311	56576.73
595.67	56649.27
596.029	56763.62
596.387	56775.15
596.746	56871.87
597.104	56678.42
597.463	56734.69
597.822	56890.62
598.18	56761.36
598.538	56773.79
598.897	56951.41
599.255	56734.92
599.613	57036.38
599.972	56846.1
600.33	57018.53
600.688	56886.78
601.046	57040.22
601.404	57065.53
601.762	57030.28
602.12	57071.63
602.478	57128.81
602.836	57165.64
603.194	57018.98
603.552	57058.53
603.91	56978.53
604.268	57116.15
604.625	57142.59
604.983	57219.43
605.341	57113.67
605.698	57295.36
606.056	57328.35
606.413	57253.78
606.771	57413.77
607.128	57418.29
607.485	57321.8
607.843	57338.07
608.2	57450.83
608.557	57517.5
608.914	57422.81
609.272	57582.13
609.629	57606.76
609.986	57614.45
610.343	57567.22
610.7	57750.49
611.057	57707.1
611.414	57715.23
611.771	57773.31
612.127	57815.34
612.484	57775.57
612.841	57889.01
613.198	57820.99
613.554	57910.71
613.911	57957.71
614.267	57931.05
614.624	57884.49
614.98	58000.2
615.337	58121.1
615.693	58121.55
616.05	58039.07
616.406	58205.84
616.762	58068.67
617.118	58057.37
617.475	58128.33
617.831	58190.93
618.187	58188.22
618.543	58198.61
618.899	58313.41
619.255	58348.89
619.611	58231.83
619.967	58396.8
620.323	58344.82
620.678	58285.39
621.034	58201.1
621.39	58252.85
621.746	58313.41
622.101	58509.34
622.457	58252.39
622.812	58329.23
623.168	58351.15
623.523	58387.31
623.879	58423.69
624.234	58325.39
624.589	58374.43
624.945	58441.99
625.3	58395.44
625.655	58349.34
626.01	58398.15
626.365	58415.78
626.72	58387.08
627.075	58391.83
627.43	58365.16
627.785	58318.16
628.14	58298.5
628.495	58338.95
628.85	58275.45
629.205	58171.72
629.559	58391.15
629.914	58199.97
630.269	58298.5
630.623	58204.49
630.978	58138.95
631.332	58225.05
631.687	58317.03
632.041	58133.53
632.396	58136.01
632.75	58034.32
633.104	58123.58
633.459	57988.67
633.813	58008.79
634.167	57994.77
634.521	57997.71
634.875	58011.5
635.229	57897.15
635.583	57773.99
635.937	57818.28
636.291	57729.02
636.645	57750.04
636.999	57740.54
637.352	57755.01
637.706	57585.29
638.06	57731.5
638.413	57705.06
638.767	57607.89
639.121	57599.53
639.474	57397.28
639.828	57485.86
640.181	57487.22
640.534	57399.31
640.888	57429.82
641.241	57269.37
641.594	57351.85
641.947	57434.79
642.301	57327.67
642.654	57360.21
643.007	57227.34
643.36	57260.78
643.713	57207.68
644.066	57317.28
644.419	57119.32
644.771	56930.4
645.124	56704.19
645.477	56583.06
645.83	56438.66
646.182	56368.38
646.535	56250.64
646.888	56316.63
647.24	56190.53
647.593	56297.19
647.945	56213.35
648.298	56131.09
648.65	55979.91
649.002	56014.26
649.355	56030.98
649.707	55971.78
650.059	56169.29
650.411	56442.05
650.763	56400.69
651.115	56761.36
651.467	56578.54
651.819	56525.89
652.171	56467.13
652.523	56395.95
652.875	56421.71
653.227	56330.41
653.578	56426.91
653.93	56424.65
654.282	56233.24
654.633	56174.71
654.985	56306.91
655.337	56333.8
655.688	56299.23
656.039	56298.77
656.391	56014.71
656.742	56083.19
657.094	56234.59
657.445	56224.88
657.796	56218.55
658.147	56126.58
658.498	56058.55
658.849	56107.37
659.2	56030.53
659.551	56062.62
659.902	56131.32
660.253	56051.77
660.604	56122.51
660.955	55934.49
661.306	56087.71
661.656	55999.12
662.007	55975.84
662.358	55912.57
662.708	56004.09
663.059	55883.42
663.409	55755.06
663.76	55881.38
664.11	55835.28
664.461	55813.14
664.811	55800.93
665.161	55864.21
665.511	55746.92
665.862	55812.69
666.212	55882.74
666.562	55816.3
666.912	55771.33
667.262	55786.47
667.612	55762.06
667.962	55730.43
668.312	55732.46
668.662	55808.84
669.011	55736.08
669.361	55750.77
669.711	55684.55
670.06	55632.12
670.41	55594.39
670.76	55562.52
671.109	55600.94
671.459	55581.96
671.808	55578.79
672.157	55664.67
672.507	55337.22
672.856	55528.4
673.205	55511
673.554	55528.85
673.904	55375.18
674.253	55539.47
674.602	55535.4
674.951	55070.11
675.3	55017.23
675.649	55440.49
675.998	55331.57
676.346	55353.71
676.695	55364.56
677.044	55205.92
677.393	55289.76
677.741	55312.81
678.09	55271.68
678.438	55149.2
678.787	55169.99
679.135	55205.02
679.484	55100.39
679.832	55141.97
680.181	54938.36
680.529	55038.69
680.877	54878.92
681.225	54906.95
681.573	55059.71
681.922	54909.21
682.27	54830.79
682.618	54743.33
682.966	54703.79
683.314	54678.25
683.661	54610.23
684.009	54547.41
684.357	54467.18
684.705	54414.76
685.053	54420.86
685.4	54375.66
685.748	54305.61
686.095	54264.25
686.443	54140.86
686.79	54046.63
687.138	54012.96
687.485	54064.03
687.832	54007.08
688.18	53993.3
688.527	53797.82
688.874	53768.22
689.221	53665.62
689.568	53626.53
689.915	53542.24
690.262	53625.17
690.609	53412.97
690.956	53375.01
691.303	53281.9
691.65	53150.16
691.997	53080.55
692.344	52965.53
692.69	52906.09
693.037	52986.32
693.383	52756.27
693.73	52846.66
694.077	52686.21
694.423	52681.02
694.769	52499.78
695.116	52476.28
695.462	52472.43
695.808	52433.56
696.155	52370.52
696.501	52135.27
696.847	52274.25
697.193	51899.57
697.539	52040.13
697.885	51800.36
698.231	51825.22
698.577	51836.29
698.923	51629.07
699.269	51451.9
699.614	51265.69
699.96	51243.31
700.306	51269.98
700.651	51124.22
700.997	50985.69
701.342	50929.42
701.688	50898.01
702.033	50742.31
702.379	50684.01
702.724	50552.48
703.069	50580.96
703.415	50291.7
703.76	50248.09
704.105	50158.14
704.45	50028.66
704.795	49962.9
705.14	49828.44
705.485	49810.36
705.83	49692.85
706.175	49698.5
706.52	49671.83
706.865	49585.5
707.209	49513.87
707.554	49425.28
707.899	49515.22
708.243	49225.29
708.588	49156.14
708.932	48730.16
709.277	48832.3
709.621	49051.51
709.966	48652.65
710.31	48763.6
710.654	48316.38
710.998	48438.87
711.342	48529.94
711.687	48336.05
712.031	48113
712.375	48070.97
712.719	48043.62
713.063	48052.89
713.407	48136.28
713.75	47762.5
714.094	47781.94
714.438	47634.14
714.782	47655.84
715.125	47453.36
715.469	47525.67
715.812	47235.96
716.156	46945.35
716.499	47040.03
716.843	47062.86
717.186	46843.2
717.53	47145.57
717.873	46963.65
718.216	46958.45
718.559	46828.06
718.902	46625.13
719.246	46675.52
719.589	46523.44
719.932	46514.17
720.275	46546.94
720.617	46299.26
720.96	46172.49
721.303	46142.43
721.646	46134.52
721.989	45927.75
722.331	46048.42
722.674	45963.45
723.016	46038.93
723.359	45900.18
723.701	45848.2
724.044	45582.67
724.386	45536.8
724.729	45582.9
725.071	45526.63
725.413	45384.71
725.755	45452.73
726.097	45148.33
726.439	44872.41
726.782	44931.62
727.124	45177.94
727.465	44741.11
727.807	44830.15
728.149	44763.03
728.491	44685.29
728.833	44761.22
729.175	44535.92
729.516	44584.73
729.858	44474.23
730.199	44451.85
730.541	44417.73
730.882	44322.82
731.224	44408.69
731.565	44122.82
731.906	44129.38
732.248	44188.13
732.589	43873.11
732.93	43871.53
733.271	43832.44
733.612	43911.53
733.953	43757.18
734.294	43706.79
734.635	43435.38
734.976	43808.71
735.317	43325.1
735.658	43352
735.999	43335.5
736.339	43155.16
736.68	43406.46
737.021	43150.19
737.361	42923.98
737.702	43199.23
738.042	42834.72
738.383	42851.22
738.723	42933.25
739.063	42760.6
739.404	42742.75
739.744	42727.38
740.084	42584.33
740.424	42550.43
740.764	42428.63
741.104	42607.61
741.444	42370.78
741.784	42109.99
742.124	42135.08
742.464	42086.04
742.804	42072.71
743.143	42022.99
743.483	41943.67
743.823	41644.02
744.162	41654.64
744.502	41904.35
744.841	41608.09
745.181	41768.99
745.52	41576.22
745.86	41629.1
746.199	41519.95
746.538	41376
746.877	41390.47
747.216	41478.37
747.556	41126.07
747.895	41061.66
748.234	40967.88
748.573	40888.56
748.911	40869.12
749.25	40801.55
749.589	40703.7
749.928	40671.39
750.267	40666.64
750.605	40453.99
750.944	40373.09
751.283	40340.32
751.621	40417.84
751.96	40163.38
752.298	40183.49
752.636	40269.59
752.975	39918.87
753.313	39772.65
753.651	39996.15
753.989	39574.92
754.327	39492.21
754.666	39502.15
755.004	39570.85
755.342	39424.19
755.679	39537.63
756.017	39132.22
756.355	39366.56
756.693	39138.77
757.031	39065.1
757.368	38857.42
757.706	38749.4
758.044	38642.74
758.381	38770.87
758.719	38603.19
759.056	38575.17
759.394	38385.35
759.731	38165.24
760.068	38199.14
760.405	37970.89
760.743	37737.23
761.08	37955.08
761.417	37631.02
761.754	37601.41
762.091	37580.4
762.428	37489.55
762.765	37241.65
763.102	37218.15
763.438	37024.7
763.775	36858.38
764.112	36925.27
764.449	36710.59
764.785	36619.74
765.122	36444.38
765.458	36297.94
765.795	36175.91
766.131	36252.3
766.467	36064.73
766.804	35892.3
767.14	35724.63
767.476	35722.82
767.812	35463.84
768.148	35524.4
768.485	35326.9
768.821	35160.57
769.157	35205.09
769.492	35139.33
769.828	34981.59
770.164	34641.26
770.5	34419.12
770.836	34582.73
771.171	34274.27
771.507	34332.12
771.842	33984.11
772.178	34134.16
772.513	34077.21
772.849	33863.88
773.184	33722.42
773.519	33750.89
773.855	33491.01
774.19	33442.43
774.525	33221.87
774.86	33054.64
775.195	33134.41
775.53	32926.96
775.865	32795.44
776.2	32696.91
776.535	32411.94
776.87	32366.07
777.205	32348.9
777.539	32098.73
777.874	32339.18
778.209	31921.11
778.543	32005.85
778.878	31792.75
779.212	31718.63
779.547	31372.65
779.881	31571.06
780.215	31294.91
780.55	31274.57
780.884	31135.37
781.218	30964.98
781.552	30961.14
781.886	30908.26
782.22	30624.42
782.554	30444.54
782.888	30297.2
783.222	30264.2
783.556	30255.84
783.889	29987.15
784.223	29797.1
784.557	29713.48
784.89	29801.62
785.224	29607.5
785.557	29410.89
785.891	29268.98
786.224	29163.89
786.558	29112.82
786.891	28946.95
787.224	28798.48
787.557	28819.27
787.891	28754.87
788.224	28759.84
788.557	28690.23
788.89	28658.37
789.223	28521.88
789.556	28374.99
789.888	28276.23
790.221	28102.68
790.554	27996.92
790.887	27906.75
791.219	27826.08
791.552	27749.47
791.884	27629.92
792.217	27522.58
792.549	27380.66
792.882	27261.35
793.214	27135.7
793.546	27201.23
793.879	26973.9
794.211	26804.41
794.543	26809.83
794.875	26765.99
795.207	26658.2
795.539	26617.29
795.871	26581.14
796.203	26336.62
796.535	26357.41
796.867	26238.1
797.198	26189.28
797.53	26091.66
797.862	25993.58
798.193	25967.82
798.525	25724.44
798.856	25706.58
799.188	25477.89
799.519	25457.55
799.85	25335.75
800.182	25375.75
800.513	25381.85
800.844	25113.83
801.175	25278.8
801.506	25208.74
801.837	25095.75
802.168	24942.54
802.499	24948.64
802.83	24671.36
803.161	24588.2
803.491	24720.4
803.822	24661.41
804.153	24578.7
804.483	24340.07
804.814	24215.78
805.145	24233.85
805.475	24181.88
805.805	24131.94
806.136	23997.48
806.466	23993.41
806.796	23891.04
807.126	23802.45
807.457	23653.08
807.787	23671.38
808.117	23572.63
808.447	23479.75
808.777	23515.68
809.107	23323.6
809.436	23381.45
809.766	23355.01
810.096	23295.57
810.426	23155.46
810.755	23147.78
811.085	23031.63
811.414	22965.19
811.744	22889.03
812.073	22728.81
812.403	22841.35
812.732	22698.08
813.061	22621.92
813.39	22528.59
813.719	22547.12
814.049	22607.68
814.378	22473.22
814.707	22335.6
815.036	22321.59
815.365	22177.64
815.693	22037.08
816.022	22064.65
816.351	22040.47
816.68	21877.08
817.008	21993.24
817.337	21756.18
817.665	21725.45
817.994	21746.46
818.322	21748.04
818.651	21574.49
818.979	21570.2
819.307	21629.18
819.636	21560.48
819.964	21387.6
820.292	21388.51
820.62	21435.74
820.948	21272.12
821.276	21364.1
821.604	21217.21
821.932	21377.43
822.259	21282.52
822.587	21225.12
822.915	21294.04
823.243	21342.4
823.57	21259.7
823.898	21266.7
824.225	21229.19
824.553	21113.03
824.88	21228.51
825.207	21214.27
825.535	21115.29
825.862	21221.05
826.189	21101.28
826.516	21228.74
826.843	21300.15
827.17	21349.41
827.497	21305.34
827.824	21298.79
828.151	21272.8
828.478	21162.3
828.805	21269.64
829.131	21187.61
829.458	21155.29
829.785	21093.37
830.111	21069.87
830.438	21129.98
830.764	21212.69
831.09	21235.29
831.417	20933.38
831.743	21085.69
832.069	21023.77
832.395	20890.21
832.722	21081.39
833.048	20930.66
833.374	20967.95
833.7	20911
834.026	20935.41
834.351	20943.09
834.677	20882.76
835.003	20884.34
835.329	20927.5
835.654	20830.78
835.98	20676.21
836.306	20821.74
836.631	20708.3
836.956	20668.75
837.282	20789.65
837.607	20739.26
837.932	20613.61
838.258	20609.09
838.583	20514.63
838.908	20497.46
839.233	20472.15
839.558	20419.49
839.883	20383.33
840.208	20310.79
840.533	20338.82
840.858	20323.45
841.182	20332.26
841.507	20262.43
841.832	20113.51
842.156	20059.5
842.481	20103.57
842.805	20047.3
843.13	19941.76
843.454	20024.7
843.778	19827.19
844.103	19771.82
844.427	19751.71
844.751	19751.03
845.075	19685.73
845.399	19673.75
845.723	19589.91
846.047	19451.16
846.371	19279.86
846.695	19324.38
847.019	19197.38
847.343	19024.05
847.666	18875.13
847.99	18910.38
848.313	18891.4
848.637	18742.93
848.96	18826.76
849.284	18683.94
849.607	18599.43
849.931	18561.46
850.254	18451.63
850.577	18279.89
850.9	18202.83
851.223	18239.89
851.546	18106.11
851.869	17976.17
852.192	18035.37
852.515	17963.51
852.838	17848.71
853.161	17806.45
853.483	17758.32
853.806	17567.59
854.129	17603.75
854.451	17617.98
854.774	17464.31
855.096	17539.79
855.419	17380.48
855.741	17313.58
856.063	17266.35
856.385	17200.82
856.708	17131.89
857.03	17065.68
857.352	17067.49
857.674	16880.83
857.996	16864.78
858.318	16861.62
858.64	16737.78
858.961	16653.26
859.283	16725.13
859.605	16577.33
859.926	16643.09
860.248	16612.13
860.57	16529.65
860.891	16565.81
861.212	16412.37
861.534	16300.28
861.855	16392.48
862.176	16414.17
862.498	16337.79
862.819	16262.76
863.14	16180.28
863.461	16268.19
863.782	16090.34
864.103	16208.3
864.424	16192.03
864.745	16169.66
865.065	15997.46
865.386	16027.29
865.707	16032.71
866.027	16030.23
866.348	15978.25
866.668	16021.19
866.989	15852.83
867.309	15833.17
867.63	15838.82
867.95	15817.35
868.27	15706.17
868.59	15756.56
868.91	15643.57
869.23	15752.72
869.55	15686.73
869.87	15805.15
870.19	15673.85
870.51	15561.99
870.83	15569.45
871.15	15442.67
871.469	15508.89
871.789	15505.72
872.109	15454.2
872.428	15434.31
872.748	15508.21
873.067	15467.31
873.386	15366.52
873.706	15284.71
874.025	15249.91
874.344	15261.89
874.663	15217.37
874.982	15178.05
875.301	15142.57
875.62	15091.95
875.939	15143.7
876.258	15108.22
876.577	15098.5
876.896	14984.15
877.214	14984.15
877.533	14996.13
877.852	14937.6
878.17	14938.51
878.489	14985.06
878.807	14898.96
879.125	14937.6
879.444	14837.04
879.762	14816.02
880.08	14852.86
880.398	14697.38
880.716	14865.29
881.034	14737.61
881.352	14702.13
881.67	14684.27
881.988	14628.23
882.306	14665.29
882.624	14543.04
882.941	14504.39
883.259	14403.6
883.577	14415.58
883.894	14355.7
884.212	14416.03
884.529	14305.75
884.846	14265.75
885.164	14248.13
885.481	14149.83
885.798	14201.8
886.115	14096.72
886.432	14135.81
886.75	14014.24
887.067	14115.02
887.383	14029.83
887.7	13983.73
888.017	13924.07
888.334	13944.63
888.651	13825.31
888.967	13833.22
889.284	13829.83
889.6	13796.84
889.917	13718.88
890.233	13771.3
890.55	13695.37
890.866	13586.45
891.182	13574.02
891.498	13526.34
891.815	13473.91
892.131	13391.88
892.447	13406.12
892.763	13324.54
893.079	13421.48
893.395	13280.47
893.71	13227.59
894.026	13146.01
894.342	13183.07
894.657	13063.75
894.973	13009.52
895.289	13113.47
895.604	12952.57
895.92	12827.15
896.235	12813.14
896.55	12981.72
896.865	12829.86
897.181	12838.67
897.496	12837.77
897.811	12661.28
898.126	12742.41
898.441	12602.52
898.756	12602.52
899.071	12480.04
899.386	12517.55
899.7	12452.24
900.015	12374.51
900.33	12320.5
900.644	12246.6
900.959	12253.83
901.273	12199.59
901.588	12133.16
901.902	12110.78
902.216	12001.86
902.531	12030.33
902.845	12001.63
903.159	11923.44
903.473	11856.1
903.787	11800.73
904.101	11706.95
904.415	11732.71
904.729	11690
905.042	11640.74
905.356	11589.89
905.67	11643.45
905.984	11599.38
906.297	11498.82
906.611	11528.88
906.924	11392.84
907.237	11475.32
907.551	11315.32
907.864	11247.08
908.177	11257.7
908.491	11230.81
908.804	11081.88
909.117	11132.5
909.43	10988.33
909.743	10972.51
910.056	10937.71
910.368	10842.79
910.681	10857.26
910.994	10820.87
911.307	10802.8
911.619	10678.05
911.932	10674.66
912.244	10617.49
912.557	10677.15
912.869	10538.17
913.181	10507.89
913.494	10507.89
913.806	10402.35
914.118	10459.3
914.43	10361
914.742	10313.99
915.054	10313.99
915.366	10236.48
915.678	10169.82
915.99	10088.24
916.302	10105.19
916.613	10085.07
916.925	10078.75
917.236	10003.27
917.548	9955.36
917.859	9948.81
918.171	9834.91
918.482	9740.9
918.794	9763.5
919.105	9741.13
919.416	9634.46
919.727	9601.02
920.038	9573.22
920.349	9504.98
920.66	9424.98
920.971	9427.69
921.282	9391.76
921.593	9321.48
921.903	9202.61
922.214	9255.04
922.525	9222.72
922.835	9180.46
923.146	9060.24
923.456	9116.29
923.767	9131.88
924.077	9070.64
924.387	9041.03
924.697	8948.61
925.008	8961.71
925.318	8899.34
925.628	8926.23
925.938	8828.38
926.248	8768.27
926.558	8734.37
926.867	8739.35
927.177	8689.63
927.487	8673.81
927.796	8568.28
928.106	8490.31
928.416	8501.39
928.725	8459.35
929.034	8418.9
929.344	8437.43
929.653	8377.1
929.962	8375.74
930.271	8314.5
930.581	8263.43
930.89	8274.95
931.199	8142.3
931.508	8116.09
931.817	8116.31
932.125	8107.95
932.434	8048.29
932.743	7987.05
933.051	7964.9
933.36	7958.8
933.669	7855.08
933.977	7842.42
934.286	7808.98
934.594	7824.12
934.902	7681.97
935.21	7679.49
935.519	7716.32
935.827	7623.22
936.135	7553.39
936.443	7542.77
936.751	7540.28
937.059	7445.6
937.367	7420.06
937.674	7438.82
937.982	7405.82
938.29	7376.44
938.597	7389.55
938.905	7310.91
939.213	7284.7
939.52	7234.08
939.827	7232.95
940.135	7183
940.442	7103.46
940.749	7117.92
941.056	7119.95
941.363	6994.76
941.67	7001.31
941.977	6987.98
942.284	6912.05
942.591	6948.89
942.898	6908.66
943.205	6916.8
943.511	6769.68
943.818	6787.31
944.125	6757.03
944.431	6733.52
944.738	6671.83
945.044	6682.45
945.35	6678.16
945.657	6601.78
945.963	6604.04
946.269	6545.73
946.575	6555
946.881	6453.98
947.187	6482.91
947.493	6467.32
947.799	6403.14
948.105	6374.21
948.41	6336.02
948.716	6323.36
949.022	6282.24
949.327	6289.47
949.633	6233.65
949.938	6244.95
950.244	6170.37
950.549	6160.88
950.854	6137.83
951.16	6075.24
951.465	6138.28
951.77	6066.2
952.075	6005.41
952.38	6046.76
952.685	5983.26
952.99	5907.1
953.294	5914.11
953.599	5906.65
953.904	5864.62
954.209	5777.84
954.513	5754.57
954.818	5765.41
955.122	5797.5
955.426	5706.21
955.731	5618.52
956.035	5671.63
956.339	5587.34
956.643	5658.3
956.948	5612.2
957.252	5662.59
957.556	5581.24
957.86	5571.07
958.163	5503.95
958.467	5490.62
958.771	5438.64
959.075	5478.87
959.378	5400.68
959.682	5338.76
959.985	5370.85
960.289	5332.88
960.592	5272.54
960.896	5252.88
961.199	5275.03
961.502	5307.12
961.805	5240.23
962.108	5207.91
962.411	5175.82
962.714	5144.41
963.017	5150.51
963.32	5129.72
963.623	5089.27
963.926	5091.98
964.228	5052.21
964.531	5117.07
964.833	5012.66
965.136	5012.89
965.438	4974.7
965.741	4946
966.043	4936.28
966.345	4876.17
966.648	4908.71
966.95	4896.06
967.252	4851.09
967.554	4788.04
967.856	4770.86
968.158	4762.95
968.46	4717.53
968.761	4721.82
969.063	4696.51
969.365	4664.2
969.666	4645.22
969.968	4636.63
970.269	4608.16
970.571	4612.9
970.872	4533.36
971.174	4552.79
971.475	4509.85
971.776	4472.11
972.077	4493.81
972.378	4451.55
972.679	4430.31
972.98	4421.49
973.281	4373.81
973.582	4390.31
973.883	4339.46
974.183	4342.4
974.484	4326.58
974.785	4284.55
975.085	4317.09
975.386	4310.54
975.686	4289.07
975.986	4207.71
976.287	4219.69
976.587	4129.3
976.887	4151.67
977.187	4139.24
977.487	4093.59
977.787	4126.59
978.087	4059.47
978.387	4057.44
978.687	4062.41
978.987	4049.53
979.286	4006.82
979.586	4008.85
979.885	3950.09
980.185	3959.81
980.484	3913.71
980.784	3929.08
981.083	3923.43
981.382	3941.28
981.682	3891.79
981.981	3859.47
982.28	3872.81
982.579	3801.4
982.878	3833.03
983.177	3774.05
983.475	3750.33
983.774	3754.39
984.073	3720.5
984.372	3675.98
984.67	3710.78
984.969	3701.96
985.267	3682.08
985.566	3669.42
985.864	3628.75
986.162	3627.62
986.461	3628.75
986.759	3630.55
987.057	3568.41
987.355	3516.88
987.653	3546.26
987.951	3529.31
988.249	3488.86
988.547	3500.16
988.844	3475.3
989.142	3461.97
989.44	3426.04
989.737	3389.88
990.035	3445.7
990.332	3379.26
990.63	3363.67
990.927	3359.6
991.224	3373.61
991.521	3362.99
991.819	3312.6
992.116	3317.57
992.413	3281.18
992.71	3265.14
993.006	3267.17
993.303	3245.03
993.6	3227.4
993.897	3228.08
994.193	3220.4
994.49	3183.79
994.787	3119.83
995.083	3102.21
995.379	3112.38
995.676	3104.24
995.972	3083.22
996.268	3031.25
996.565	3037.12
996.861	3021.08
997.157	2991.02
997.453	3008.42
997.749	2997.12
998.044	2912.61
998.34	2964.36
998.636	2959.39
998.932	2942.66
999.227	2893.4
999.523	2852.04
999.818	2883.91
1000.114	2865.15
1000.409	2858.82
1000.704	2783.8
1001	2800.52
1001.295	2783.34
1001.59	2782.44
1001.885	2760.97
1002.18	2735.89
1002.475	2732.5
1002.77	2723.23
1003.065	2688.43
1003.359	2714.65
1003.654	2692.73
1003.949	2639.17
1004.243	2636.68
1004.538	2636.46
1004.832	2616.12
1005.127	2605.72
1005.421	2593.97
1005.715	2565.72
1006.009	2586.29
1006.304	2559.85
1006.598	2492.73
1006.892	2507.87
1007.186	2496.35
1007.48	2492.96
1007.773	2448.66
1008.067	2469.91
1008.361	2423.13
1008.655	2438.27
1008.948	2407.76
1009.242	2410.02
1009.535	2380.87
1009.829	2372.51
1010.122	2350.81
1010.415	2350.59
1010.708	2328.22
1011.001	2304.26
1011.295	2272.85
1011.588	2299.74
1011.881	2247.99
1012.173	2252.74
1012.466	2252.51
1012.759	2233.3
1013.052	2213.42
1013.344	2183.59
1013.637	2211.16
1013.93	2165.96
1014.222	2150.82
1014.514	2151.05
1014.807	2118.5
1015.099	2128.22
1015.391	2113.53
1015.683	2114.21
1015.976	2078.96
1016.268	2053.65
1016.56	2049.13
1016.851	2014.78
1017.143	2018.85
1017.435	2026.98
1017.727	2017.04
1018.018	1991.73
1018.31	1977.94
1018.602	1942.69
1018.893	1942.24
1019.185	1908.34
1019.476	1924.84
1019.767	1912.41
1020.058	1883.71
1020.35	1873.76
1020.641	1879.41
1020.932	1856.59
1021.223	1829.47
1021.514	1827.21
1021.804	1802.35
1022.095	1806.65
1022.386	1764.84
1022.677	1771.85
1022.967	1813.2
1023.258	1734.11
1023.548	1713.32
1023.839	1724.62
1024.129	1734.11
1024.419	1705.18
1024.709	1679.19
1025	1668.35
1025.29	1666.54
1025.58	1654.56
1025.87	1649.82
1026.16	1653.21
1026.449	1634.9
1026.739	1617.5
1027.029	1592.64
1027.319	1561.91
1027.608	1606.2
1027.898	1596.48
1028.187	1570.5
1028.477	1534.11
1028.766	1542.02
1029.055	1528.24
1029.344	1540.44
1029.634	1501.34
1029.923	1513.32
1030.212	1488.24
1030.501	1436.71
1030.79	1447.11
1031.078	1445.07
1031.367	1444.62
1031.656	1461.8
1031.945	1425.64
1032.233	1382.48
1032.522	1391.74
1032.81	1368.69
1033.099	1368.69
1033.387	1365.3
1033.675	1375.02
1033.963	1346.32
1034.251	1344.74
1034.54	1311.07
1034.828	1330.73
1035.116	1309.94
1035.403	1275.14
1035.691	1261.8
1035.979	1314.23
1036.267	1275.36
1036.554	1263.38
1036.842	1270.39
1037.129	1254.8
1037.417	1252.54
1037.704	1233.1
1037.992	1258.41
1038.279	1197.62
1038.566	1210.05
1038.853	1210.05
1039.14	1210.05
