Data from plate_ceramic_FLMS001491_068.txt Node
Date: Tue Feb 07 11:17:08 GMT 2017
User: dcchb
Spectrometer: FLMS00149
Trigger mode: 0
Integration Time (sec): 2.000000E-2
Scans to average: 10
Electric dark correction enabled: true
Nonlinearity correction enabled: false
Boxcar width: 0
XAxis mode: Wavelengths
Number of Pixels in Spectrum: 2048
>>>>>Begin Spectral Data<<<<<
341.393	-7.61
341.776	-7.61
342.16	-7.61
342.543	-58.68
342.927	-60.72
343.31	-64.33
343.693	-62.07
344.077	-60.49
344.46	-35.41
344.843	-56.2
345.226	-56.2
345.61	-14.17
345.993	-31.79
346.376	-21.17
346.759	18.15
347.142	37.13
347.525	17.47
347.908	64.02
348.291	59.96
348.674	89.79
349.057	115.32
349.44	121.65
349.823	138.6
350.206	167.07
350.588	227.64
350.971	244.13
351.354	245.94
351.737	275.77
352.119	271.02
352.502	284.13
352.884	276.67
353.267	320.06
353.65	308.09
354.032	334.98
354.414	335.43
354.797	332.49
355.179	328.42
355.562	323.45
355.944	349.67
356.326	353.73
356.709	341.98
357.091	368.87
357.473	368.65
357.855	376.78
358.238	375.65
358.62	367.29
359.002	376.78
359.384	380.4
359.766	376.78
360.148	374.98
360.53	359.61
360.912	359.16
361.294	349.89
361.676	355.99
362.057	367.07
362.439	369.78
362.821	358.03
363.203	345.37
363.584	361.87
363.966	341.98
364.348	358.03
364.729	352.6
365.111	360.74
365.493	378.59
365.874	368.87
366.256	362.55
366.637	357.58
367.019	355.77
367.4	383.79
367.781	364.13
368.163	351.7
368.544	359.38
368.925	353.96
369.306	367.52
369.688	382.21
370.069	346.28
370.45	356.9
370.831	384.24
371.212	384.02
371.593	384.24
371.974	365.94
372.355	379.95
372.736	387.41
373.117	379.95
373.498	369.1
373.879	385.37
374.26	362.09
374.641	365.26
375.021	388.99
375.402	369.78
375.783	380.17
376.163	417.46
376.544	396.44
376.925	404.58
377.305	398.48
377.686	395.99
378.066	414.3
378.447	406.39
378.827	425.6
379.208	413.39
379.588	390.79
379.968	434.64
380.349	441.87
380.729	416.78
381.109	436.22
381.489	413.17
381.87	435.31
382.25	448.19
382.63	433.73
383.01	431.47
383.39	429.89
383.77	444.35
384.15	460.62
384.53	451.13
384.91	452.04
385.29	464.69
385.67	466.05
386.049	474.18
386.429	485.26
386.809	477.12
387.189	483.9
387.568	487.74
387.948	480.28
388.328	503.56
388.707	493.62
389.087	514.63
389.466	522.77
389.846	522.77
390.225	535.2
390.605	515.09
390.984	521.41
391.363	521.41
391.743	539.94
392.122	551.24
392.501	553.05
392.881	565.03
393.26	555.99
393.639	563.67
394.018	560.51
394.397	594.41
394.776	581.52
395.155	597.34
395.534	585.59
395.913	596.44
396.292	607.96
396.671	605.48
397.05	614.74
397.429	631.92
397.808	604.57
398.186	631.69
398.565	638.02
398.944	619.26
399.323	607.51
399.701	647.96
400.08	657.23
400.458	645.93
400.837	669.88
401.215	675.99
401.594	685.93
401.972	681.41
402.351	692.03
402.729	706.94
403.107	718.02
403.486	724.8
403.864	710.79
404.242	724.12
404.62	729.32
404.999	739.03
405.377	746.49
405.755	766.6
406.133	750.79
406.511	786.26
406.889	787.62
407.267	812.03
407.645	821.52
408.023	818.58
408.401	797.79
408.779	849.77
409.156	880.27
409.534	857.68
409.912	841.86
410.29	874.85
410.667	893.83
411.045	897
411.422	911.69
411.8	913.72
412.178	937.22
412.555	922.76
412.933	982.64
413.31	949.88
413.687	986.49
414.065	989.65
414.442	1001.63
414.819	1037.78
415.197	1010.89
415.574	1040.27
415.951	1064.9
416.328	1075.52
416.705	1094.96
417.082	1076.88
417.46	1069.65
417.837	1102.64
418.214	1104.45
418.591	1126.82
418.967	1125.46
419.344	1151.68
419.721	1173.6
420.098	1174.28
420.475	1154.39
420.852	1198.91
421.228	1198.91
421.605	1213.15
421.982	1245.69
422.358	1254.95
422.735	1245.46
423.111	1273.94
423.488	1283.65
423.864	1263.99
424.241	1321.62
424.617	1316.19
424.994	1310.32
425.37	1363.42
425.746	1348.74
426.123	1389.86
426.499	1389.86
426.875	1437.55
427.251	1428.51
427.627	1452.91
428.003	1476.87
428.379	1481.16
428.756	1487.04
429.132	1512.35
429.507	1561.84
429.883	1535.4
430.259	1584.44
430.635	1559.35
431.011	1597.99
431.387	1616.53
431.763	1636.41
432.138	1681.38
432.514	1692
432.89	1697.2
433.265	1750.76
433.641	1779.68
434.016	1811.55
434.392	1810.64
434.767	1837.99
435.143	1831.66
435.518	1882.73
435.894	1869.17
436.269	1950.75
436.644	1922.96
437.02	1952.79
437.395	1970.41
437.77	2002.5
438.145	2019.9
438.52	2030.98
438.895	2062.62
439.271	2113.24
439.646	2099.9
440.021	2120.01
440.395	2161.14
440.77	2121.6
441.145	2153.46
441.52	2209.96
441.895	2205.66
442.27	2228.71
442.645	2227.13
443.019	2284.3
443.394	2286.79
443.769	2288.15
444.143	2269.84
444.518	2334.25
444.892	2319.56
445.267	2326.79
445.641	2405.66
446.016	2395.04
446.39	2369.95
446.764	2413.11
447.139	2404.08
447.513	2430.52
447.887	2458.54
448.262	2479.1
448.636	2513.45
449.01	2519.33
449.384	2569.49
449.758	2572.66
450.132	2635.03
450.506	2637.97
450.88	2635.48
451.254	2657.18
451.628	2674.12
452.002	2736.72
452.376	2708.25
452.75	2777.85
453.123	2808.81
453.497	2817.62
453.871	2833.44
454.244	2919.32
454.618	2975.13
454.992	2961.57
455.365	2972.65
455.739	3023.27
456.112	3099.42
456.486	3142.13
456.859	3128.35
457.232	3197.95
457.606	3189.14
457.979	3256.93
458.352	3307.55
458.725	3348.01
459.099	3410.6
459.472	3451.73
459.845	3482.92
460.218	3536.7
460.591	3532.63
460.964	3531.5
461.337	3650.37
461.71	3691.27
462.083	3757.26
462.456	3740.76
462.829	3760.65
463.201	3861.44
463.574	3858.5
463.947	3972.62
464.32	4006.74
464.692	4071.38
465.065	4078.38
465.438	4115.22
465.81	4201.09
466.183	4231.15
466.555	4321.54
466.928	4354.53
467.3	4345.72
467.672	4458.71
468.045	4561.08
468.417	4533.74
468.789	4583.45
469.161	4670
469.534	4783.9
469.906	4839.72
470.278	4855.76
470.65	4955.87
471.022	4984.57
471.394	5156.77
471.766	5145.02
472.138	5244.68
472.51	5303.66
472.882	5411
473.253	5523.09
473.625	5571
473.997	5738.22
474.369	5711.56
474.74	5804.89
475.112	5872.68
475.484	5944.1
475.855	6112.23
476.227	6136.41
476.598	6316.29
476.97	6418.88
477.341	6564.87
477.713	6641.03
478.084	6737.97
478.455	6857.29
478.827	6898.19
479.198	7112.43
479.569	7149.26
479.94	7429.25
480.311	7384.51
480.682	7587.67
481.053	7716.7
481.424	7882.8
481.795	7909.24
482.166	8045.06
482.537	8124.15
482.908	8404.6
483.279	8464.25
483.65	8584.48
484.021	8775.43
484.391	8885.49
484.762	8893.62
485.133	9006.16
485.503	9188.08
485.874	9320.73
486.244	9418.58
486.615	9682.98
486.985	9738.12
487.356	9942.18
487.726	10023.31
488.097	10197.77
488.467	10279.12
488.837	10485.22
489.207	10581.04
489.578	10787.36
489.948	10832.55
490.318	11042.27
490.688	11199.78
491.058	11304.63
491.428	11386.21
491.798	11512.31
492.168	11774.9
492.538	11792.75
492.908	12008.34
493.278	12140.09
493.648	12156.81
494.017	12269.13
494.387	12527.88
494.757	12566.52
495.126	12717.7
495.496	12701.43
495.866	12811.94
496.235	13000.41
496.605	13205.83
496.974	13184.81
497.344	13324.47
497.713	13416.89
498.082	13515.87
498.452	13709.31
498.821	13817.33
499.19	13891.91
499.559	13953.15
499.928	14010.78
500.298	14134.16
500.667	14258.45
501.036	14283.76
501.405	14411.44
501.774	14513.81
502.143	14621.16
502.512	14747.25
502.88	14914.71
503.249	14870.41
503.618	15044.19
503.987	15041.93
504.356	15174.13
504.724	15320.8
505.093	15420.23
505.462	15457.29
505.83	15638.98
506.199	15751.75
506.567	15918.52
506.936	15900.67
507.304	16179.53
507.672	16213.2
508.041	16254.11
508.409	16459.3
508.777	16533.2
509.145	16671.72
509.514	16852.28
509.882	16877.82
510.25	16925.95
510.618	17125.95
510.986	17134.54
511.354	17406.84
511.722	17571.59
512.09	17683
512.458	17579.27
512.826	17859.04
513.193	17874.4
513.561	18095.19
513.929	18176.32
514.297	18336.54
514.664	18514.16
515.032	18625.57
515.4	18751.44
515.767	18898.1
516.135	19005.22
516.502	18895.39
516.869	19350.07
517.237	19372.22
517.604	19392.78
517.972	19634.58
518.339	19738.99
518.706	19816.72
519.073	19966.55
519.44	20090.39
519.808	20324.96
520.175	20416.93
520.542	20623.48
520.909	20788.68
521.276	20778.51
521.643	20960.2
522.009	21142.11
522.376	21265.27
522.743	21486.96
523.11	21722.44
523.477	21894.18
523.843	22060.28
524.21	22261.18
524.577	22440.84
524.943	22564.9
525.31	22687.38
525.676	22922.63
526.043	23139.58
526.409	23109.75
526.776	23424.99
527.142	23502.5
527.508	23762.84
527.874	23878.54
528.241	24111.3
528.607	24161.47
528.973	24419.32
529.339	24352.42
529.705	24642.13
530.071	24772.75
530.437	24923.71
530.803	25195.57
531.169	25360.31
531.535	25214.55
531.901	25468.1
532.267	25574.09
532.632	25688.21
532.998	25879.39
533.364	26050.01
533.73	26128.2
534.095	26315.54
534.461	26513.95
534.826	26574.97
535.192	26737.9
535.557	26976.08
535.923	26903.09
536.288	27009.08
536.653	27317.32
537.019	27213.59
537.384	27367.26
537.749	27451.78
538.114	27542.4
538.479	27613.36
538.845	27740.13
539.21	27865.55
539.575	27941.71
539.94	28034.14
540.305	28303.51
540.67	28216.73
541.034	28346.44
541.399	28444.07
541.764	28613.33
542.129	28748.69
542.494	28752.08
542.858	28896.71
543.223	28944.17
543.587	29237.49
543.952	29079.53
544.316	29295.57
544.681	29204.27
545.045	29488.11
545.41	29682.23
545.774	29694.88
546.138	29732.4
546.503	29918.15
546.867	29960.41
547.231	30241.54
547.595	30319.5
547.959	30470.91
548.324	30407.41
548.688	30517.91
549.052	30664.58
549.416	30731.92
549.779	30912.48
550.143	30850.33
550.507	31136.65
550.871	31340.72
551.235	31177.33
551.599	31549.07
551.962	31548.85
552.326	31718.78
552.689	31868.84
553.053	31732.57
553.417	31877.42
553.78	32413
554.143	32207.81
554.507	32404.64
554.87	32447.81
555.234	32809.83
555.597	32721.47
555.96	32984.74
556.323	33224.96
556.686	33194.68
557.05	33457.95
557.413	33427.89
557.776	33608.68
558.139	33845.51
558.502	33914.43
558.865	34036.46
559.228	34342.9
559.59	34424.7
559.953	34421.54
560.316	35018.36
560.679	34739.72
561.041	35123.89
561.404	35208.18
561.767	35579.25
562.129	35380.16
562.492	35823.08
562.854	35787.6
563.217	35907.83
563.579	36014.94
563.941	36318.21
564.304	36429.17
564.666	36715.49
565.028	36822.15
565.39	36825.32
565.753	37102.37
566.115	37287.45
566.477	37310.05
566.839	37367
567.201	37734.45
567.563	37805.18
567.925	38005.85
568.287	37922.46
568.648	38148.22
569.01	38374.65
569.372	38625.04
569.734	38545.72
570.095	38793.17
570.457	38971.02
570.819	39110
571.18	39077.69
571.542	39239.04
571.903	39487.85
572.265	39551.35
572.626	39664.11
572.987	39651.01
573.349	39971.67
573.71	40007.15
574.071	40164.21
574.432	40126.25
574.794	40604.88
575.155	40403.53
575.516	40437.65
575.877	40626.57
576.238	40556.74
576.599	40857.3
576.96	40986.56
577.32	41025.66
577.681	41140.01
578.042	41240.57
578.403	41204.18
578.763	41286.89
579.124	41288.25
579.485	41431.3
579.845	41601.69
580.206	41494.57
580.566	41548.58
580.927	41527.11
581.287	41750.39
581.648	41656.38
582.008	41812.98
582.368	41830.84
582.728	41878.52
583.089	41890.72
583.449	41733.66
583.809	41841.23
584.169	41988.12
584.529	41813.43
584.889	42236.93
585.249	41849.14
585.609	41970.27
585.969	42183.82
586.329	41996.25
586.688	42034.67
587.048	42008.23
587.408	42102.69
587.768	42081
588.127	42114.9
588.487	41982.92
588.846	42375.45
589.206	41964.62
589.565	42116.25
589.925	42223.37
590.284	42158.51
590.643	42227.43
591.003	42370.93
591.362	42443.7
591.721	42360.31
592.08	42251.39
592.44	42474.66
592.799	42505.85
593.158	42401.44
593.517	42299.52
593.876	42392.4
594.235	42397.37
594.593	42456.13
594.952	42640.08
595.311	42382.46
595.67	42575
596.029	42663.81
596.387	42680.98
596.746	42738.16
597.104	42523.47
597.463	42678.72
597.822	42797.82
598.18	42662.9
598.538	42837.81
598.897	42907.64
599.255	42521.89
599.613	43041.65
599.972	42835.78
600.33	43001.2
600.688	42944.48
601.046	42950.81
601.404	43165.72
601.762	43051.59
602.12	43246.84
602.478	43293.62
602.836	43313.28
603.194	43181.31
603.552	43214.75
603.91	43076.68
604.268	43318.48
604.625	43243.68
604.983	43499.27
605.341	43231.48
605.698	43551.92
606.056	43528.64
606.413	43537.46
606.771	43697.45
607.128	43739.49
607.485	43543.78
607.843	43584.01
608.2	43879.37
608.557	43870.1
608.914	43731.12
609.272	44083.43
609.629	44037.78
609.986	44176.08
610.343	43893.15
610.7	44264.67
611.057	44194.61
611.414	44311.45
611.771	44228.74
612.127	44470.54
612.484	44332.92
612.841	44559.8
613.198	44367.04
613.554	44526.81
613.911	44730.65
614.267	44672.34
614.624	44554.38
614.98	44668.05
615.337	44928.15
615.693	44926.35
616.05	44816.29
616.406	45052.9
616.762	44846.58
617.118	44865.56
617.475	44884.77
617.831	44934.26
618.187	44990.07
618.543	45071.43
618.899	45329.95
619.255	45170.18
619.611	45193.68
619.967	45151.65
620.323	45353.68
620.678	45181.48
621.034	45104.42
621.39	45226.45
621.746	45169.05
622.101	45605.88
622.457	45238.66
622.812	45297.18
623.168	45369.27
623.523	45381.48
623.879	45413.11
624.234	45217.41
624.589	45432.77
624.945	45415.37
625.3	45382.83
625.655	45277.98
626.01	45444.98
626.365	45465.99
626.72	45473.9
627.075	45451.76
627.43	45440.01
627.785	45369.05
628.14	45298.77
628.495	45484.98
628.85	45328.37
629.205	45204.08
629.559	45367.69
629.914	45069.85
630.269	45246.79
630.623	45064.42
630.978	45010.64
631.332	45134.25
631.687	45106
632.041	44977.42
632.396	45027.81
632.75	44887.03
633.104	44969.74
633.459	44793.7
633.813	44674.38
634.167	44746.01
634.521	44707.37
634.875	44719.8
635.229	44753.02
635.583	44451.78
635.937	44466.92
636.291	44440.71
636.645	44447.72
636.999	44280.26
637.352	44568.16
637.706	44125.01
638.06	44381.95
638.413	44231.68
638.767	44123.66
639.121	44104.67
639.474	43899.03
639.828	43970.21
640.181	44029.87
640.534	44033.49
640.888	43850.22
641.241	43584.91
641.594	43698.13
641.947	43997.56
642.301	43777
642.654	43848.18
643.007	43783.1
643.36	43712.59
643.713	43655.19
644.066	43720.95
644.419	43386.05
644.771	43125.26
645.124	42726.63
645.477	42624.03
645.83	42350.6
646.182	42233.76
646.535	41998.06
646.888	42099.08
647.24	41986.31
647.593	42406.41
647.945	42234.21
648.298	42030.38
648.65	41928.23
649.002	41878.07
649.355	42045.97
649.707	41894.56
650.059	42004.84
650.411	42479.86
650.763	42586.3
651.115	42953.29
651.467	42705.84
651.819	42676.24
652.171	42602.11
652.523	42550.59
652.875	42613.64
653.227	42321.67
653.578	42723.02
653.93	42445.73
654.282	42325.29
654.633	42266.76
654.985	42419.07
655.337	42373.42
655.688	42393.98
656.039	42404.15
656.391	41991.28
656.742	42139.08
657.094	42036.71
657.445	42259.07
657.796	42156.93
658.147	42015.24
658.498	42030.83
658.849	42199.41
659.2	41924.84
659.551	41849.82
659.902	41989.48
660.253	42021.34
660.604	41935.92
660.955	41702.25
661.306	41948.12
661.656	41873.09
662.007	41849.82
662.358	41873.55
662.708	41785.19
663.059	41816.6
663.409	41478.98
663.76	41590.39
664.11	41619.99
664.461	41759.88
664.811	41711.97
665.161	41630.84
665.511	41594.23
665.862	41543.16
666.212	41552.88
666.562	41618.41
666.912	41664.06
667.262	41519.2
667.612	41511.97
667.962	41686.88
668.312	41436.95
668.662	41667.45
669.011	41672.65
669.361	41520.33
669.711	41403.5
670.06	41333.22
670.41	41238.08
670.76	41118.76
671.109	41371.64
671.459	41178.2
671.808	41090.52
672.157	41267.91
672.507	40899.33
672.856	41068.82
673.205	41170.74
673.554	41210.96
673.904	41047.35
674.253	41167.12
674.602	41153.11
674.951	40647.36
675.3	40479.68
675.649	41080.8
675.998	40952.67
676.346	40902.05
676.695	41056.39
677.044	40735.95
677.393	40836.96
677.741	40886.23
678.09	40884.65
678.438	40519.23
678.787	40788.6
679.135	40817.3
679.484	40490.08
679.832	40839.9
680.181	40507.93
680.529	40442.4
680.877	40354.26
681.225	40386.13
681.573	40489.18
681.922	40176.64
682.27	40282.85
682.618	40154.95
682.966	40065.91
683.314	40119.24
683.661	39930.55
684.009	39847.84
684.357	39664.56
684.705	39766.03
685.053	39757.22
685.4	39724
685.748	39615.3
686.095	39533.49
686.443	39306.61
686.79	39308.42
687.138	39299.6
687.485	39282.88
687.832	39094.41
688.18	39227.74
688.527	38909.56
688.874	38931.25
689.221	38753.63
689.568	38509.79
689.915	38723.8
690.262	38771.71
690.609	38500.75
690.956	38504.37
691.303	38449.91
691.65	38145.73
691.997	38148.22
692.344	37996.81
692.69	37979.86
693.037	38047.21
693.383	37846.99
693.73	37953.87
694.077	37564.96
694.423	37689.02
694.769	37555.92
695.116	37511.17
695.462	37420.78
695.808	37423.72
696.155	37193.22
696.501	36956.39
696.847	36855.6
697.193	36888.82
697.539	36903.96
697.885	36499.45
698.231	36703.29
698.577	36586.91
698.923	36466.91
699.269	36247.03
699.614	36153.24
699.96	36077.09
700.306	36113.92
700.651	35956.41
700.997	35903.53
701.342	35961.84
701.688	35735.63
702.033	35622.41
702.379	35480.04
702.724	35510.55
703.069	35495.86
703.415	35100.84
703.76	35053.84
704.105	35069.66
704.45	34911.7
704.795	34680.51
705.14	34586.73
705.485	34676.67
705.83	34619.95
706.175	34665.15
706.52	34464.25
706.865	34365.49
707.209	34353.29
707.554	34201.43
707.899	34312.16
708.243	34208.66
708.588	34114.43
708.932	33855.68
709.277	33685.29
709.621	33723.93
709.966	33488.91
710.31	33728.45
710.654	33472.64
710.998	33562.13
711.342	33480.09
711.687	33222.25
712.031	33247.78
712.375	33263.83
712.719	33369.81
713.063	33187.9
713.407	33198.75
713.75	32916.95
714.094	32932.54
714.438	32857.51
714.782	32829.49
715.125	32743.84
715.469	32660.91
715.812	32619.33
716.156	32425.66
716.499	32391.54
716.843	32333.68
717.186	32244.65
717.53	32362.38
717.873	32329.84
718.216	32221.14
718.559	32154.71
718.902	31959.68
719.246	31987.48
719.589	31882.4
719.932	31770.76
720.275	31717.88
720.617	31874.71
720.96	31643.98
721.303	31711.33
721.646	31621.84
721.989	31432.46
722.331	31533.03
722.674	31365.35
723.016	31504.33
723.359	31382.75
723.701	31331.68
724.044	31029.31
724.386	30988.63
724.729	31059.82
725.071	30900.73
725.413	30992.93
725.755	30971.01
726.097	30858.24
726.439	30759.94
726.782	30507.29
727.124	30689.66
727.465	30529.89
727.807	30566.72
728.149	30445.82
728.491	30442.43
728.833	30451.02
729.175	30379.61
729.516	30338.26
729.858	30264.81
730.199	30315.43
730.541	30246.51
730.882	30184.36
731.224	30145.04
731.565	30029.56
731.906	30036.79
732.248	30029.34
732.589	29825.95
732.93	29795.67
733.271	29742.34
733.612	29879.96
733.953	29843.58
734.294	29674.77
734.635	29585.28
734.976	29723.13
735.317	29569.24
735.658	29627.54
735.999	29606.75
736.339	29446.08
736.68	29482.01
737.021	29381.22
737.361	29219.64
737.702	29353.88
738.042	29291.96
738.383	29232.3
738.723	29291.05
739.063	29062.36
739.404	29193.2
739.744	29033.43
740.084	28922.47
740.424	28912.08
740.764	29037.05
741.104	29079.76
741.444	28855.36
741.784	28718.19
742.124	28748.24
742.464	28787.34
742.804	28712.31
743.143	28596.15
743.483	28523.84
743.823	28457.4
744.162	28513.67
744.502	28487.91
744.841	28428.25
745.181	28336.73
745.52	28305.09
745.86	28240.68
746.199	28090.63
746.538	28286.33
746.877	28106.68
747.216	28108.26
747.556	27960.24
747.895	27935.16
748.234	27858.32
748.573	27943.29
748.911	27661.49
749.25	27753.69
749.589	27751.88
749.928	27606.35
750.267	27678.89
750.605	27573.36
750.944	27495.84
751.283	27379.24
751.621	27580.14
751.96	27349.18
752.298	27311.67
752.636	27289.97
752.975	27105.57
753.313	26989.64
753.651	27248.39
753.989	27112.8
754.327	26856.99
754.666	26862.64
755.004	26850.21
755.342	26887.73
755.679	26661.06
756.017	26520.28
756.355	26579.94
756.693	26441.64
757.031	26553.27
757.368	26390.34
757.706	26395.99
758.044	26314.41
758.381	26274.41
758.719	26256.1
759.056	26235.76
759.394	26178.14
759.731	25879.84
760.068	25932.5
760.405	25664.48
760.743	25678.27
761.08	25796
761.417	25632.84
761.754	25494.77
762.091	25526.41
762.428	25411.83
762.765	25209.35
763.102	25307.43
763.438	25205.28
763.775	25010.03
764.112	25067.21
764.449	24957.61
764.785	24909.47
765.122	24780.44
765.458	24715.13
765.795	24654.11
766.131	24667.67
766.467	24458.18
766.804	24315.82
767.14	24114.46
767.476	24147.23
767.812	24140.23
768.148	24146.33
768.485	23992.21
768.821	23865.21
769.157	23863.85
769.492	23724.42
769.828	23758.09
770.164	23480.81
770.5	23545.44
770.836	23403.3
771.171	23381.15
771.507	23294.15
771.842	23144.77
772.178	23182.96
772.513	23045.11
772.849	22924.89
773.184	22782.75
773.519	22729.19
773.855	22587.27
774.19	22627.5
774.525	22490.78
774.86	22420.27
775.195	22437.22
775.53	22277.68
775.865	22241.29
776.2	22083.78
776.535	21915.43
776.87	21985.26
777.205	21867.07
777.539	21801.76
777.874	21781.19
778.209	21578.26
778.543	21521.54
778.878	21390.24
779.212	21499.62
779.547	21324.03
779.881	21304.82
780.215	21150.02
780.55	21130.59
780.884	21023.25
781.218	21077.03
781.552	20976.47
781.886	20798.39
782.22	20719.3
782.554	20709.13
782.888	20563.82
783.222	20472.3
783.556	20260.33
783.889	20372.64
784.223	20168.81
784.557	20148.02
784.89	20160.67
785.224	19968.59
785.557	19932.65
785.891	19839.55
786.224	19803.39
786.558	19807.01
786.891	19621.25
787.224	19528.14
787.557	19515.26
787.891	19511.42
788.224	19480.69
788.557	19468.26
788.89	19432.78
789.223	19284.76
789.556	19128.83
789.888	19215.16
790.221	19068.95
790.554	18895.62
790.887	18941.04
791.219	18803.64
791.552	18792.12
791.884	18617.66
792.217	18631.9
792.549	18519.81
792.882	18471.22
793.214	18385.8
793.546	18343.32
793.879	18207.95
794.211	18154.62
794.543	18226.48
794.875	18143.1
795.207	18132.93
795.539	18055.19
795.871	17967.06
796.203	17827.85
796.535	17714.63
796.867	17662.43
797.198	17678.93
797.53	17738.14
797.862	17563
798.193	17621.53
798.525	17407.97
798.856	17501.08
799.188	17273.51
799.519	17263.35
799.85	17172.73
800.182	17223.57
800.513	17178.6
800.844	17082.79
801.175	17076.01
801.506	17056.12
801.837	16956.23
802.168	16978.38
802.499	16840.76
802.83	16788.33
803.161	16741.55
803.491	16755.34
803.822	16682.8
804.153	16645.51
804.483	16503.37
804.814	16400.09
805.145	16357.61
805.475	16461.11
805.805	16361
806.136	16276.7
806.466	16352.63
806.796	16235.12
807.126	16229.93
807.457	16145.86
807.787	16067.22
808.117	16105.41
808.447	15826.77
808.777	15951.29
809.107	15791.29
809.436	15801.69
809.766	15736.38
810.096	15677.17
810.426	15623.61
810.755	15619.55
811.085	15610.73
811.414	15561.02
811.744	15444.86
812.073	15365.32
812.403	15447.8
812.732	15249.61
813.061	15294.36
813.39	15211.87
813.719	15218.65
814.049	15396.5
814.378	15213.46
814.707	15093.69
815.036	15021.37
815.365	14983.86
815.693	14878.32
816.022	14923.75
816.351	14824.99
816.68	14779.12
817.008	14826.12
817.337	14686.01
817.665	14606.24
817.994	14709.06
818.322	14721.04
818.651	14627.71
818.979	14506.58
819.307	14621.16
819.636	14588.84
819.964	14471.55
820.292	14517.2
820.62	14529.41
820.948	14423.87
821.276	14410.99
821.604	14425.68
821.932	14353.37
822.259	14419.13
822.587	14381.61
822.915	14355.63
823.243	14404.66
823.57	14437.88
823.898	14332.12
824.225	14358.56
824.553	14303.2
824.88	14281.95
825.207	14368.05
825.535	14274.72
825.862	14397.21
826.189	14337.32
826.516	14403.31
826.843	14472.01
827.17	14444.66
827.497	14473.36
827.824	14488.5
828.151	14384.1
828.478	14305.68
828.805	14313.14
829.131	14334.16
829.458	14260.49
829.785	14239.47
830.111	14244.22
830.438	14382.52
830.764	14279.7
831.09	14238.34
831.417	14216.65
831.743	14253.26
832.069	14158.34
832.395	14180.04
832.722	14229.3
833.048	14142.52
833.374	14203.09
833.7	14108.4
834.026	14156.76
834.351	14147.27
834.677	14083.77
835.003	14207.83
835.329	14127.61
835.654	14114.95
835.98	13969.87
836.306	14032.92
836.631	13975.3
836.956	14008.29
837.282	13998.35
837.607	14031.79
837.932	13901.63
838.258	13911.57
838.583	13912.47
838.908	13879.25
839.233	13819.82
839.558	13736.66
839.883	13768.3
840.208	13785.02
840.533	13728.07
840.858	13735.08
841.182	13728.75
841.507	13716.55
841.832	13730.11
842.156	13670.22
842.481	13658.69
842.805	13549.09
843.13	13529.43
843.454	13464.35
843.778	13416.22
844.103	13386.39
844.427	13416.44
844.751	13382.32
845.075	13420.73
845.399	13297.8
845.723	13261.64
846.047	13214.86
846.371	13120.18
846.695	13193.4
847.019	12966.74
847.343	12850.35
847.666	12863.01
847.99	12799.51
848.313	12738.49
848.637	12736.23
848.96	12708.89
849.284	12612.85
849.607	12586.86
849.931	12524.26
850.254	12540.53
850.577	12405.17
850.9	12312.06
851.223	12305.51
851.546	12275.45
851.869	12210.82
852.192	12220.77
852.515	12066.87
852.838	12022.81
853.161	12060.09
853.483	12053.54
853.806	11987.1
854.129	11962.24
854.451	11938.74
854.774	11852.41
855.096	11796.37
855.419	11732.87
855.741	11740.1
856.063	11758.18
856.385	11679.76
856.708	11669.59
857.03	11592.31
857.352	11628.24
857.674	11466.44
857.996	11416.04
858.318	11374.23
858.64	11404.97
858.961	11395.48
859.283	11347.79
859.605	11281.36
859.926	11323.61
860.248	11244.29
860.57	11204.07
860.891	11265.31
861.212	11085.65
861.534	11126.56
861.855	11034.81
862.176	11088.14
862.498	11109.61
862.819	11122.26
863.14	11050.4
863.461	11085.2
863.782	11073.23
864.103	11018.99
864.424	10966.11
864.745	10978.09
865.065	10872.1
865.386	10779
865.707	10854.93
866.027	10807.7
866.348	10802.72
866.668	10845.21
866.989	10833.23
867.309	10697.64
867.63	10769.5
867.95	10686.8
868.27	10691.31
868.59	10707.81
868.91	10651.99
869.23	10672.11
869.55	10630.07
869.87	10693.8
870.19	10652.67
870.51	10640.24
870.83	10567.25
871.15	10508.95
871.469	10537.42
871.789	10511.66
872.109	10465.33
872.428	10446.35
872.748	10475.05
873.067	10426.24
873.386	10422.62
873.706	10395.96
874.025	10343.08
874.344	10323.19
874.663	10408.61
874.982	10233.47
875.301	10273.7
875.62	10265.79
875.939	10207.71
876.258	10268.05
876.577	10185.57
876.896	10193.02
877.214	10148.05
877.533	10175.4
877.852	10161.61
878.17	10122.74
878.489	10125.23
878.807	10139.92
879.125	10185.79
879.444	10124.78
879.762	10052.24
880.08	10070.09
880.398	10058.34
880.716	9957.77
881.034	9997.55
881.352	9942.86
881.67	10016.98
881.988	9919.13
882.306	9911.45
882.624	9871.9
882.941	9826.25
883.259	9855.86
883.577	9818.34
883.894	9831
884.212	9741.51
884.529	9807.95
884.846	9684.56
885.164	9675.3
885.481	9653.6
885.798	9633.72
886.115	9630.33
886.432	9494.51
886.75	9536.09
887.067	9535.64
887.383	9541.51
887.7	9599.82
888.017	9479.37
888.334	9459.03
888.651	9467.39
888.967	9394.85
889.284	9369.09
889.6	9316.89
889.917	9245.25
890.233	9362.99
890.55	9240.28
890.866	9310.79
891.182	9281.18
891.498	9216.1
891.815	9142.88
892.131	9125.48
892.447	9029.66
892.763	9048.65
893.079	9045.48
893.395	9018.59
893.71	9007.74
894.026	8968.2
894.342	8979.27
894.657	8939.5
894.973	8810.91
895.289	8954.64
895.604	8972.04
895.92	8870.35
896.235	8759.61
896.55	8738.82
896.865	8690.01
897.181	8656.79
897.496	8702.89
897.811	8643.01
898.126	8577.02
898.441	8527.53
898.756	8577.25
899.071	8431.71
899.386	8487.31
899.7	8516.23
900.015	8436.46
900.33	8406.86
900.644	8404.14
900.959	8426.06
901.273	8364.14
901.588	8272.85
901.902	8274.66
902.216	8184.94
902.531	8234.43
902.845	8198.5
903.159	8074.21
903.473	8031.95
903.787	8066.75
904.101	7977.94
904.415	7993.76
904.729	7960.09
905.042	7950.82
905.356	7942.01
905.67	7887.55
905.984	7884.84
906.297	7819.53
906.611	7769.81
906.924	7742.92
907.237	7775.23
907.551	7744.05
907.864	7695.69
908.177	7688.23
908.491	7641.23
908.804	7683.03
909.117	7574.33
909.43	7521.23
909.743	7485.75
910.056	7489.14
910.368	7421.8
910.681	7366.43
910.994	7338.63
911.307	7323.49
911.619	7344.06
911.932	7305.64
912.244	7276.94
912.557	7186.1
912.869	7206.66
913.181	7174.12
913.494	7140.45
913.806	7051.18
914.118	7035.82
914.43	7062.48
914.742	7021.13
915.054	6967.8
915.366	6997.63
915.678	6921.47
915.99	6941.81
916.302	6833.56
916.613	6843.51
916.925	6787.46
917.236	6747.92
917.548	6743.4
917.859	6806.22
918.171	6710.18
918.482	6652.33
918.794	6636.73
919.105	6654.36
919.416	6592.67
919.727	6573.46
920.038	6574.14
920.349	6484.42
920.66	6502.5
920.971	6497.53
921.282	6456.62
921.593	6349.51
921.903	6319.68
922.214	6334.14
922.525	6306.57
922.835	6284.88
923.146	6244.43
923.456	6247.36
923.767	6241.49
924.077	6208.49
924.387	6186.35
924.697	6143.41
925.008	6085.11
925.318	6056.63
925.628	6061.38
925.938	6065.67
926.248	5964.21
926.558	5986.35
926.867	5990.65
927.177	5885.34
927.487	5884.66
927.796	5870.88
928.106	5822.97
928.416	5835.17
928.725	5785.46
929.034	5771.67
929.344	5732.35
929.653	5750.88
929.962	5720.82
930.271	5724.67
930.581	5651.45
930.89	5614.61
931.199	5575.97
931.508	5541.17
931.817	5544.78
932.125	5530.32
932.434	5518.34
932.743	5398.35
933.051	5458.68
933.36	5447.61
933.669	5396.54
933.977	5400.83
934.286	5344.11
934.594	5336.43
934.902	5314.73
935.21	5295.07
935.519	5241.06
935.827	5244
936.135	5255.3
936.443	5257.11
936.751	5162.19
937.059	5140.27
937.367	5149.31
937.674	5096.89
937.982	5114.51
938.29	5075.64
938.597	5093.5
938.905	5049.88
939.213	5043.78
939.52	4983.44
939.827	4973.27
940.135	4975.98
940.442	4896.67
940.749	4888.08
941.056	4881.75
941.363	4889.89
941.67	4834.07
941.977	4799.72
942.284	4760.17
942.591	4755.43
942.898	4750.68
943.205	4774.41
943.511	4717.23
943.818	4699.38
944.125	4633.4
944.431	4612.15
944.738	4604.7
945.044	4610.57
945.35	4637.91
945.657	4554.98
945.963	4543
946.269	4500.97
946.575	4504.58
946.881	4488.54
947.187	4493.51
947.493	4418.71
947.799	4436.79
948.105	4411.25
948.41	4413.74
948.716	4360.41
949.022	4352.5
949.327	4380.52
949.633	4323.8
949.938	4305.27
950.244	4307.53
950.549	4255.1
950.854	4279.28
951.16	4239.28
951.465	4260.52
951.77	4208.1
952.075	4201.54
952.38	4169.45
952.685	4147.53
952.99	4093.97
953.294	4124.48
953.599	4107.76
953.904	4064.37
954.209	4081.32
954.513	4050.36
954.818	4072.73
955.122	3997.71
955.426	3981.89
955.731	3980.08
956.035	3947.31
956.339	3915.45
956.643	3921.1
956.948	3867.31
957.252	3869.8
957.556	3905.73
957.86	3848.56
958.163	3863.02
958.467	3790.93
958.771	3754.77
959.075	3767.43
959.378	3783.93
959.682	3742.8
959.985	3771.04
960.289	3698.5
960.592	3706.87
960.896	3687.43
961.199	3693.98
961.502	3625.06
961.805	3614.89
962.108	3583.93
962.411	3576.02
962.714	3506.65
963.017	3588.22
963.32	3547.77
963.623	3528.11
963.926	3556.59
964.228	3526.76
964.531	3529.24
964.833	3515.01
965.136	3464.39
965.438	3398.17
965.741	3471.39
966.043	3434.78
966.345	3419.42
966.648	3406.99
966.95	3377.61
967.252	3384.61
967.554	3369.47
967.856	3352.3
968.158	3271.85
968.46	3274.79
968.761	3298.74
969.063	3277.95
969.365	3266.2
969.666	3275.69
969.968	3227.33
970.269	3218.74
970.571	3172.87
970.872	3191.17
971.174	3184.85
971.475	3179.2
971.776	3175.13
972.077	3119.08
972.378	3108.92
972.679	3114.34
972.98	3105.98
973.281	3054.23
973.582	3073.66
973.883	3044.51
974.183	3045.87
974.484	3014.68
974.785	3018.07
975.085	3054.23
975.386	3007.68
975.686	2997.73
975.986	2970.39
976.287	2973.1
976.587	2918.41
976.887	2922.93
977.187	2901.92
977.487	2907.56
977.787	2875.02
978.087	2865.98
978.387	2866.21
978.687	2898.3
978.987	2825.53
979.286	2825.99
979.586	2778.75
979.885	2757.51
980.185	2783.73
980.484	2784.63
980.784	2763.16
981.083	2727.91
981.382	2720.23
981.682	2741.02
981.981	2705.31
982.28	2706.44
982.579	2683.16
982.878	2657.85
983.177	2637.52
983.475	2663.96
983.774	2637.97
984.073	2638.65
984.372	2612.43
984.67	2621.24
984.969	2577.4
985.267	2615.37
985.566	2599.55
985.864	2559.1
986.162	2573.79
986.461	2523.17
986.759	2525.88
987.057	2515.71
987.355	2495.15
987.653	2490.17
987.951	2467.58
988.249	2495.37
988.547	2465.09
988.844	2461.25
989.142	2463.73
989.44	2449.27
989.737	2445.43
990.035	2417.41
990.332	2385.54
990.63	2362.72
990.927	2368.37
991.224	2372.89
991.521	2313
991.819	2312.1
992.116	2298.32
992.413	2340.12
992.71	2259.9
993.006	2289.73
993.303	2244.31
993.6	2256.06
993.897	2271.2
994.193	2267.13
994.49	2235.27
994.787	2237.98
995.083	2238.88
995.379	2249.5
995.676	2211.54
995.972	2174.02
996.268	2189.84
996.565	2134.48
996.861	2169.51
997.157	2141.48
997.453	2144.87
997.749	2136.51
998.044	2117.98
998.34	2092.44
998.636	2085.89
998.932	2079.11
999.227	2072.56
999.523	2075.95
999.818	2061.49
1000.114	2054.93
1000.409	2025.78
1000.704	1977.19
1001	1994.14
1001.295	1980.81
1001.59	1988.04
1001.885	1977.65
1002.18	1969.06
1002.475	1922.51
1002.77	1958.44
1003.065	1972.67
1003.359	1949.4
1003.654	1925.44
1003.949	1913.24
1004.243	1927.25
1004.538	1889.74
1004.832	1864.43
1005.127	1855.39
1005.421	1865.33
1005.715	1838.21
1006.009	1823.75
1006.304	1810.19
1006.598	1825.11
1006.892	1823.3
1007.186	1795.05
1007.48	1780.14
1007.773	1790.98
1008.067	1789.85
1008.361	1763.41
1008.655	1730.19
1008.948	1719.8
1009.242	1743.98
1009.535	1716.64
1009.829	1723.19
1010.122	1681.83
1010.415	1680.25
1010.708	1675.96
1011.001	1686.35
1011.295	1669.63
1011.588	1661.95
1011.881	1609.07
1012.173	1648.84
1012.466	1637.54
1012.759	1609.07
1013.052	1610.42
1013.344	1589.18
1013.637	1623.76
1013.93	1604.32
1014.222	1580.37
1014.514	1593.93
1014.807	1576.53
1015.099	1536.08
1015.391	1527.71
1015.683	1522.29
1015.976	1464.44
1016.268	1492.23
1016.56	1500.37
1016.851	1495.4
1017.143	1495.4
1017.435	1480.26
1017.727	1427.6
1018.018	1451.33
1018.31	1444.55
1018.602	1418.34
1018.893	1412.46
1019.185	1431.9
1019.476	1407.94
1019.767	1395.29
1020.058	1394.61
1020.35	1380.6
1020.641	1364.78
1020.932	1367.72
1021.223	1366.14
1021.514	1349.19
1021.804	1327.27
1022.095	1313.93
1022.386	1324.56
1022.677	1318.68
1022.967	1316.42
1023.258	1296.53
1023.548	1275.52
1023.839	1273.48
1024.129	1269.19
1024.419	1251.34
1024.709	1276.87
1025	1243.2
1025.29	1234.84
1025.58	1238.91
1025.87	1200.94
1026.16	1201.39
1026.449	1208.4
1026.739	1192.58
1027.029	1177.67
1027.319	1193.03
1027.608	1201.85
1027.898	1169.08
1028.187	1157.33
1028.477	1165.46
1028.766	1156.88
1029.055	1106.93
1029.344	1107.16
1029.634	1124.56
1029.923	1104.45
1030.212	1091.57
1030.501	1118.01
1030.79	1053.38
1031.078	1079.59
1031.367	1068.29
1031.656	1061.96
1031.945	1077.1
1032.233	1046.6
1032.522	1056.31
1032.81	1049.31
1033.099	1030.33
1033.387	1040.72
1033.675	1009.76
1033.963	1024.45
1034.251	1029.2
1034.54	1036.88
1034.828	993.72
1035.116	978.12
1035.403	988.75
1035.691	974.06
1035.979	973.38
1036.267	960.72
1036.554	1002.76
1036.842	988.29
1037.129	941.51
1037.417	920.95
1037.704	935.64
1037.992	918.92
1038.279	929.54
1038.566	920.72
1038.853	920.72
1039.14	920.72
