Data from plate_porcelain_FLMS001491_088.txt Node
Date: Tue Feb 07 11:20:03 GMT 2017
User: dcchb
Spectrometer: FLMS00149
Trigger mode: 0
Integration Time (sec): 2.000000E-2
Scans to average: 10
Electric dark correction enabled: true
Nonlinearity correction enabled: false
Boxcar width: 0
XAxis mode: Wavelengths
Number of Pixels in Spectrum: 2048
>>>>>Begin Spectral Data<<<<<
341.393	-19.28
341.776	-19.28
342.16	-19.28
342.543	-63.12
342.927	-58.83
343.31	-64.48
343.693	-69
344.077	-65.38
344.46	-52.05
344.843	-67.19
345.226	-29.45
345.61	2.42
345.993	-15.44
346.376	-11.14
346.759	29.53
347.142	26.82
347.525	29.31
347.908	60.94
348.291	56.88
348.674	81.96
349.057	86.25
349.44	119.25
349.823	125.58
350.206	167.61
350.588	222.3
350.971	275.18
351.354	270.66
351.737	260.94
352.119	258
352.502	293.03
352.884	279.92
353.267	301.39
353.65	320.6
354.032	323.31
354.414	359.02
354.797	345.01
355.179	362.86
355.562	349.07
355.944	367.6
356.326	383.87
356.709	377.55
357.091	373.03
357.473	380.03
357.855	378.22
358.238	378.45
358.62	395.4
359.002	395.85
359.384	380.94
359.766	385.46
360.148	384.33
360.53	394.5
360.912	360.37
361.294	383.65
361.676	375.51
362.057	403.99
362.439	381.39
362.821	396.08
363.203	358.34
363.584	364.89
363.966	389.52
364.348	379.58
364.729	405.57
365.111	386.81
365.493	405.79
365.874	388.85
366.256	387.04
366.637	391.78
367.019	366.47
367.4	380.03
367.781	380.26
368.163	384.55
368.544	388.39
368.925	407.15
369.306	393.37
369.688	378
370.069	379.58
370.45	398.79
370.831	394.04
371.212	388.39
371.593	409.86
371.974	401.05
372.355	391.56
372.736	386.81
373.117	418.9
373.498	407.15
373.879	427.04
374.26	410.31
374.641	398.34
375.021	414.83
375.402	439.47
375.783	429.07
376.163	463.87
376.544	454.61
376.925	440.37
377.305	456.19
377.686	465.23
378.066	463.65
378.447	446.47
378.827	449.64
379.208	440.82
379.588	461.16
379.968	476.98
380.349	474.72
380.729	478.11
381.109	478.56
381.489	478.79
381.87	492.8
382.25	495.28
382.63	500.26
383.01	495.51
383.39	508.84
383.77	509.52
384.15	510.65
384.53	526.7
384.91	514.49
385.29	525.11
385.67	573.02
386.049	551.55
386.429	563.76
386.809	551.55
387.189	562.4
387.568	554.72
387.948	554.27
388.328	570.99
388.707	599.69
389.087	589.07
389.466	590.42
389.846	607.37
390.225	605.79
390.605	627.26
390.984	620.25
391.363	615.05
391.743	610.08
392.122	636.52
392.501	645.56
392.881	654.15
393.26	667.93
393.639	672
394.018	668.61
394.397	682.4
394.776	708.39
395.155	678.56
395.534	695.05
395.913	713.58
396.292	702.74
396.671	725.79
397.05	730.98
397.429	728.05
397.808	746.58
398.186	753.81
398.565	781.38
398.944	768.95
399.323	795.16
399.701	763.53
400.08	788.61
400.458	813.47
400.837	795.61
401.215	833.58
401.594	824.54
401.972	843.07
402.351	857.76
402.729	840.59
403.107	858.89
403.486	874.03
403.864	888.49
404.242	850.75
404.62	905.44
404.999	906.12
405.377	925.33
405.755	934.59
406.133	923.29
406.511	946.12
406.889	926.91
407.267	980.47
407.645	978.21
408.023	1031.99
408.401	1014.82
408.779	1029.28
409.156	1053.91
409.534	1054.14
409.912	1068.15
410.29	1104.08
410.667	1121.48
411.045	1140.01
411.422	1132.1
411.8	1139.79
412.178	1167.36
412.555	1181.82
412.933	1201.48
413.31	1211.65
413.687	1256.39
414.065	1248.03
414.442	1276.28
414.819	1277.18
415.197	1273.12
415.574	1315.83
415.951	1328.71
416.328	1318.09
416.705	1373.9
417.082	1342.27
417.46	1407.12
417.837	1405.09
418.214	1375.26
418.591	1403.73
418.967	1438.99
419.344	1437.63
419.721	1467.91
420.098	1462.72
420.475	1460.46
420.852	1497.29
421.228	1536.84
421.605	1553.79
421.982	1557.85
422.358	1582.71
422.735	1578.64
423.111	1584.52
423.488	1627.23
423.864	1649.83
424.241	1694.8
424.617	1652.99
424.994	1711.3
425.37	1734.12
425.746	1749.94
426.123	1746.78
426.499	1778.41
426.875	1817.06
427.251	1831.29
427.627	1885.98
428.003	1901.35
428.379	1914.68
428.756	1923.27
429.132	1933.44
429.507	1987.22
429.883	2021.35
430.259	2064.06
430.635	2066.99
431.011	2098.86
431.387	2122.36
431.763	2172.3
432.138	2166.43
432.514	2223.15
432.89	2224.05
433.265	2336.14
433.641	2329.81
434.016	2307.44
434.392	2419.98
434.767	2425.18
435.143	2444.38
435.518	2446.87
435.894	2486.64
436.269	2534.78
436.644	2532.52
437.02	2571.84
437.395	2623.14
437.77	2642.35
438.145	2676.92
438.52	2696.36
438.895	2699.75
439.271	2750.37
439.646	2809.8
440.021	2795.79
440.395	2869.68
440.77	2831.95
441.145	2855.22
441.52	2920.76
441.895	2918.27
442.27	2937.93
442.645	2985.39
443.019	2999.17
443.394	2996.01
443.769	3068.55
444.143	3061.54
444.518	3096.35
444.892	3087.08
445.267	3127.76
445.641	3140.86
446.016	3179.51
446.39	3214.53
446.764	3223.8
447.139	3239.62
447.513	3276.91
447.887	3318.26
448.262	3344.25
448.636	3333.18
449.01	3376.56
449.384	3407.52
449.758	3436.68
450.132	3485.04
450.506	3480.52
450.88	3560.06
451.254	3546.95
451.628	3577.91
452.002	3619.72
452.376	3672.15
452.75	3755.31
453.123	3742.66
453.497	3815.2
453.871	3905.59
454.244	3960.28
454.618	3950.11
454.992	3977.9
455.365	4061.29
455.739	4130.89
456.112	4117.34
456.486	4219.25
456.859	4242.76
457.232	4358.23
457.606	4356.43
457.979	4425.58
458.352	4485.24
458.725	4557.32
459.099	4572.92
459.472	4691.78
459.845	4722.74
460.218	4765.45
460.591	4858.56
460.964	4861.04
461.337	4985.56
461.71	4993.92
462.083	5108.27
462.456	5125.44
462.829	5148.04
463.201	5252.67
463.574	5261.03
463.947	5317.76
464.32	5497.41
464.692	5547.13
465.065	5591.87
465.438	5612.89
465.81	5787.12
466.183	5747.35
466.555	5966.78
466.928	6004.07
467.3	6007
467.672	6122.25
468.045	6266.43
468.417	6247.45
468.789	6327.9
469.161	6419.65
469.534	6519.08
469.906	6663.03
470.278	6740.54
470.65	6755.68
471.022	6932.18
471.394	7038.16
471.766	7098.05
472.138	7185.05
472.51	7352.73
472.882	7458.26
473.253	7530.35
473.625	7697.13
473.997	7927.4
474.369	7931.02
474.74	8016.44
475.112	8114.97
475.484	8338.92
475.855	8475.19
476.227	8494.4
476.598	8716.99
476.97	8867.94
477.341	9082.18
477.713	9168.05
478.084	9134.38
478.455	9490.3
478.827	9541.6
479.198	9873.34
479.569	9877.86
479.94	10131.41
480.311	10252.54
480.682	10528.47
481.053	10768.01
481.424	10902.69
481.795	11030.6
482.166	11142.24
482.537	11333.19
482.908	11531.15
483.279	11731.15
483.65	11932.5
484.021	12155.54
484.391	12334.75
484.762	12525.02
485.133	12586.27
485.503	12767.73
485.874	13023.77
486.244	13227.83
486.615	13452.68
486.985	13533.81
487.356	13936.74
487.726	13979.45
488.097	14239.55
488.467	14329.5
488.837	14678.19
489.207	14854
489.578	15086.31
489.948	15171.51
490.318	15410.6
490.688	15526.53
491.058	15747.09
491.428	15971.49
491.798	16105.72
492.168	16480.17
492.538	16507.74
492.908	16669.32
493.278	16901.18
493.648	16987.05
494.017	17256.2
494.387	17358.34
494.757	17568.96
495.126	17653.93
495.496	17776.41
495.866	17962.17
496.235	18138.44
496.605	18344.31
496.974	18478.54
497.344	18632.43
497.713	18796.05
498.082	18995.36
498.452	19046.43
498.821	19211.18
499.19	19299.53
499.559	19510.83
499.928	19640.32
500.298	19684.84
500.667	20062.9
501.036	19886.41
501.405	20217.48
501.774	20216.12
502.143	20451.14
502.512	20505.38
502.88	20794.64
503.249	20872.6
503.618	21049.77
503.987	21073.73
504.356	21342.19
504.724	21384.9
505.093	21534.05
505.462	21668.96
505.83	21789.41
506.199	22015.85
506.567	22295.84
506.936	22356.18
507.304	22534.93
507.672	22700.12
508.041	22705.55
508.409	22889.95
508.777	23152.54
509.145	23393.89
509.514	23286.77
509.882	23476.83
510.25	23737.84
510.618	23974.44
510.986	24017.38
511.354	24244.94
511.722	24377.37
512.09	24498.49
512.458	24665.95
512.826	24815.77
513.193	25072.04
513.561	25194.3
513.929	25390.45
514.297	25636.77
514.664	25811.68
515.032	25936.42
515.4	26326.24
515.767	26266.13
516.135	26413.7
516.502	26455.5
516.869	26899.11
517.237	26988.6
517.604	26879.67
517.972	27530.73
518.339	27593.33
518.706	27775.7
519.073	27802.14
519.44	28091.85
519.808	28252.07
520.175	28440.99
520.542	28791.26
520.909	28862
521.276	28865.16
521.643	29215.88
522.009	29477.35
522.376	29753.05
522.743	29932.7
523.11	30127.5
523.477	30498.79
523.843	30633.93
524.21	31077.98
524.577	31217.64
524.943	31314.59
525.31	31598.19
525.676	31941.46
526.043	31944.63
526.409	32214.68
526.776	32576.93
527.142	32767.66
527.508	32935.11
527.874	33208.1
528.241	33439.28
528.607	33546.84
528.973	33865.93
529.339	33898.47
529.705	34053.95
530.071	34538.46
530.437	34746.81
530.803	34706.36
531.169	35124.2
531.535	35045.34
531.901	35103.41
532.267	35364.88
532.632	35701.82
532.998	35798.31
533.364	36083.5
533.73	36313.32
534.095	36509.25
534.461	36503.38
534.826	36747.89
535.192	37035.79
535.557	37202.57
535.923	37179.74
536.288	37377.03
536.653	37570.69
537.019	37561.65
537.384	37709.22
537.749	37789.67
538.114	37968.2
538.479	38049.1
538.845	38317.79
539.21	38242.09
539.575	38503.55
539.94	38758.01
540.305	38985.34
540.67	38869.19
541.034	39089.3
541.399	39178.11
541.764	39305.56
542.129	39512.56
542.494	39721.82
542.858	39756.4
543.223	39767.47
543.587	40025.54
543.952	39967.01
544.316	40272.77
544.681	40279.32
545.045	40497.4
545.41	40731.97
545.774	40820.32
546.138	40774.22
546.503	40986.87
546.867	41049.47
547.231	41506.63
547.595	41560.19
547.959	41594.77
548.324	41621.66
548.688	41816.68
549.052	41778.72
549.416	42049.67
549.779	42313.17
550.143	42298.25
550.507	42626.15
550.871	42733.5
551.235	42796.54
551.599	43009.87
551.962	43049.64
552.326	43167.16
552.689	43520.82
553.053	43426.36
553.417	43624.09
553.78	44076.51
554.143	43957.87
554.507	44031.31
554.87	44235.6
555.234	44691.86
555.597	44513.79
555.96	44725.76
556.323	44911.06
556.686	44871.29
557.05	45255.69
557.413	45378.17
557.776	45411.84
558.139	45822.23
558.502	45843.47
558.865	45949.91
559.228	46337.47
559.59	46344.47
559.953	46501.98
560.316	46905.36
560.679	46881.63
561.041	47142.42
561.404	47244.79
561.767	47607.49
562.129	47439.13
562.492	47843.64
562.854	47828.28
563.217	47975.17
563.579	48057.2
563.941	48436.85
564.304	48482.27
564.666	48880.45
565.028	48778.08
565.39	48964.29
565.753	49241.57
566.115	49303.72
566.477	49493.09
566.839	49480.89
567.201	49794.33
567.563	49852.4
567.925	50082.45
568.287	50154.77
568.648	50202.23
569.01	50427.53
569.372	50639.05
569.734	50470.01
570.095	50838.14
570.457	50924.69
570.819	50987.29
571.18	51029.55
571.542	51193.84
571.903	51295.98
572.265	51318.81
572.626	51509.31
572.987	51641.51
573.349	51720.38
573.71	51786.59
574.071	51898.23
574.432	51989.97
574.794	52206.24
575.155	52104.55
575.516	52049.63
575.877	52278.33
576.238	52341.83
576.599	52371.89
576.96	52533.92
577.32	52510.87
577.681	52668.15
578.042	52631.09
578.403	52731.65
578.763	52842.61
579.124	52850.29
579.485	52905.88
579.845	53033.11
580.206	52973
580.566	52976.62
580.927	53043.28
581.287	53094.8
581.648	53034.24
582.008	53189.04
582.368	53058.65
582.728	53233.11
583.089	53127.8
583.449	53192.2
583.809	53193.33
584.169	53298.41
584.529	53235.59
584.889	53407.11
585.249	53202.15
585.609	53153.56
585.969	53340
586.329	53225.87
586.688	53326.89
587.048	53349.04
587.408	53319.43
587.768	53248.47
588.127	53301.8
588.487	53336.15
588.846	53487.11
589.206	53197.4
589.565	53302.26
589.925	53508.8
590.284	53377.51
590.643	53483.72
591.003	53515.58
591.362	53521.91
591.721	53464.29
592.08	53483.95
592.44	53541.57
592.799	53601.23
593.158	53494.57
593.517	53569.37
593.876	53508.35
594.235	53537.28
594.593	53591.51
594.952	53697.95
595.311	53589.93
595.67	53601.46
596.029	53745.18
596.387	53740.89
596.746	53815.46
597.104	53757.16
597.463	53757.16
597.822	53859.76
598.18	53637.16
598.538	53710.83
598.897	53957.83
599.255	53666.54
599.613	54133.65
599.972	53788.35
600.33	54041.67
600.688	53927.1
601.046	54024.5
601.404	54125.74
601.762	54001
602.12	54219.75
602.478	54219.07
602.836	54203.02
603.194	53946.76
603.552	54125.06
603.91	54074.21
604.268	54281.44
604.625	54208.9
604.983	54276.24
605.341	54116.02
605.698	54292.29
606.056	54361.21
606.413	54277.6
606.771	54441.44
607.128	54431.94
607.485	54311.04
607.843	54415.22
608.2	54542.22
608.557	54594.65
608.914	54470.14
609.272	54715.33
609.629	54664.48
609.986	54758.26
610.343	54654.54
610.7	54849.11
611.057	54846.85
611.414	54821.54
611.771	54859.96
612.127	54960.52
612.484	54951.48
612.841	55054.3
613.198	55017.24
613.554	54923.01
613.911	55158.25
614.267	55016.56
614.624	55141.98
614.98	55146.28
615.337	55333.62
615.693	55149.67
616.05	55087.75
616.406	55348.76
616.762	55286.39
617.118	55237.8
617.475	55266.5
617.831	55304.01
618.187	55322.54
618.543	55351.47
618.899	55492.26
619.255	55479.83
619.611	55504.46
619.967	55538.13
620.323	55562.08
620.678	55486.83
621.034	55395.31
621.39	55461.52
621.746	55444.8
622.101	55699.03
622.457	55446.83
622.812	55499.26
623.168	55636.66
623.523	55580.39
623.879	55644.34
624.234	55473.05
624.589	55590.56
624.945	55643.21
625.3	55651.35
625.655	55562.76
626.01	55630.78
626.365	55673.04
626.72	55572.93
627.075	55624.68
627.43	55578.36
627.785	55465.36
628.14	55537
628.495	55515.76
628.85	55495.42
629.205	55365.93
629.559	55475.53
629.914	55313.28
630.269	55417.91
630.623	55346.95
630.978	55303.33
631.332	55338.81
631.687	55502.2
632.041	55352.6
632.396	55294.97
632.75	55238.02
633.104	55237.57
633.459	55135.43
633.813	55153.96
634.167	55171.36
634.521	55182.43
634.875	55130.01
635.229	55079.39
635.583	54943.12
635.937	54952.61
636.291	54950.57
636.645	54955.09
636.999	54819.05
637.352	54908.32
637.706	54839.62
638.06	54801.65
638.413	54843.01
638.767	54743.8
639.121	54779.05
639.474	54562.79
639.828	54580.64
640.181	54586.52
640.534	54626.97
640.888	54556.01
641.241	54309.91
641.594	54417.48
641.947	54459.74
642.301	54309.01
642.654	54368.22
643.007	54370.7
643.36	54346.3
643.713	54269.46
644.066	54369.57
644.419	54191.27
644.771	53946.76
645.124	53719.87
645.477	53784.05
645.83	53444.63
646.182	53386.77
646.535	53188.59
646.888	53264.52
647.24	53087.8
647.593	53311.97
647.945	53129.38
648.298	52965.77
648.65	52950.18
649.002	52877.64
649.355	53044.64
649.707	52980.23
650.059	53145.65
650.411	53434.46
650.763	53405.08
651.115	53726.65
651.467	53527.79
651.819	53568.46
652.171	53456.15
652.523	53479.2
652.875	53424.29
653.227	53251.41
653.578	53415.93
653.93	53322.37
654.282	53145.88
654.633	53125.99
654.985	53152.2
655.337	53313.78
655.688	53165.99
656.039	53241.02
656.391	53062.26
656.742	53127.57
657.094	53180.23
657.445	53171.19
657.796	53114.92
658.147	53107.46
658.498	52968.93
658.849	53050.96
659.2	53077.18
659.551	53005.77
659.902	53049.16
660.253	52984.52
660.604	52952.66
660.955	52826.56
661.306	52988.82
661.656	52930.29
662.007	52854.81
662.358	52878.31
662.708	52893.23
663.059	52801.03
663.409	52711.09
663.76	52895.04
664.11	52751.31
664.461	52858.2
664.811	52824.53
665.161	52732.1
665.511	52641.26
665.862	52772.33
666.212	52887.8
666.562	52750.86
666.912	52693.23
667.262	52756.28
667.612	52618.66
667.962	52782.72
668.312	52618.88
668.662	52778.43
669.011	52580.47
669.361	52582.73
669.711	52577.3
670.06	52532.11
670.41	52430.19
670.76	52518.32
671.109	52616.4
671.459	52505.22
671.808	52635.38
672.157	52540.69
672.507	52301.83
672.856	52275.84
673.205	52410.3
673.554	52349.51
673.904	52377.08
674.253	52513.58
674.602	52339.34
674.951	51899.13
675.3	51738.46
675.649	52223.64
675.998	52176.18
676.346	52082.85
676.695	52230.19
677.044	52005.34
677.393	52165.79
677.741	52258.89
678.09	52152.91
678.438	51998.79
678.787	52070.2
679.135	52026.13
679.484	51906.36
679.832	52002.4
680.181	51792.01
680.529	51909.75
680.877	51775.07
681.225	51691.9
681.573	51938.45
681.922	51505.69
682.27	51593.38
682.618	51625.01
682.966	51488.29
683.314	51552.02
683.661	51402.87
684.009	51218.47
684.357	51143.22
684.705	51161.52
685.053	51134.18
685.4	51169.43
685.748	50972.83
686.095	50973.28
686.443	50795.2
686.79	50702.1
687.138	50783
687.485	50736.22
687.832	50720.4
688.18	50696.68
688.527	50527.87
688.874	50582.33
689.221	50263.24
689.568	50267.53
689.915	50097.6
690.262	50122.23
690.609	50068.9
690.956	49913.87
691.303	49928.79
691.65	49628.45
691.997	49678.85
692.344	49554.33
692.69	49460.1
693.037	49571.06
693.383	49224.17
693.73	49425.52
694.077	49081.12
694.423	49018.3
694.769	48889.04
695.116	48941.24
695.462	48896.5
695.808	48789.61
696.155	48757.07
696.501	48372.22
696.847	48555.94
697.193	48196.63
697.539	48433.68
697.885	48061.04
698.231	47983.07
698.577	47984.43
698.923	47963.87
699.269	47701.5
699.614	47447.72
699.96	47420.83
700.306	47547.38
700.651	47255.41
700.997	47226.48
701.342	47164.56
701.688	47013.83
702.033	46883.89
702.379	46836.21
702.724	46671.02
703.069	46793.5
703.415	46392.38
703.76	46370.91
704.105	46330.91
704.45	46181.31
704.795	45973.41
705.14	45952.62
705.485	45916.46
705.83	45772.06
706.175	45700.87
706.52	45655.68
706.865	45623.59
707.209	45446.19
707.554	45268.12
707.899	45441.45
708.243	45106.77
708.588	45156.26
708.932	44880.11
709.277	44843.72
709.621	44837.62
709.966	44710.84
710.31	44628.13
710.654	44333.68
710.998	44527.57
711.342	44410.06
711.687	44196.06
712.031	44061.6
712.375	43990.86
712.719	44015.95
713.063	44037.64
713.407	44008.94
713.75	43703.19
714.094	43796.29
714.438	43599.01
714.782	43570.08
715.125	43354.04
715.469	43507.94
715.812	43142.75
716.156	42985.24
716.499	43010.32
716.843	43087.61
717.186	42794.28
717.53	42993.83
717.873	42858.01
718.216	42844.45
718.559	42639.49
718.902	42408.53
719.246	42462.77
719.589	42397.46
719.932	42187.97
720.275	42328.08
720.617	42209.44
720.96	42173.28
721.303	42106.84
721.646	42157.46
721.989	41775.1
722.331	41992.27
722.674	41801.54
723.016	41723.8
723.359	41699.4
723.701	41533.75
724.044	41364.27
724.386	41265.74
724.729	41460.76
725.071	41326.53
725.413	41403.59
725.755	41189.81
726.097	41045.18
726.439	40781.91
726.782	40741.23
727.124	41035.91
727.465	40810.16
727.807	40811.96
728.149	40604.96
728.491	40610.16
728.833	40752.08
729.175	40555.25
729.516	40355.48
729.858	40417.62
730.199	40370.62
730.541	40317.29
730.882	40210.85
731.224	40333.11
731.565	39977.41
731.906	40007.69
732.248	40039.78
732.589	39810.18
732.93	39725.89
733.271	39780.8
733.612	39793.01
733.953	39852.67
734.294	39560.7
734.635	39626.23
734.976	39564.76
735.317	39398.89
735.658	39275.51
735.999	39411.1
736.339	39348.73
736.68	39314.6
737.021	39096.98
737.361	38840.04
737.702	39294.04
738.042	39073.93
738.383	38900.83
738.723	38989.19
739.063	38915.52
739.404	38900.83
739.744	38727.95
740.084	38446.83
740.424	38574.51
740.764	38452.25
741.104	38597.78
741.444	38440.73
741.784	38170.23
742.124	38294.52
742.464	38124.12
742.804	38110.57
743.143	38062.21
743.483	38108.76
743.823	37862.44
744.162	37967.07
744.502	37946.5
744.841	37682.78
745.181	37802.55
745.52	37695.66
745.86	37858.14
746.199	37570.69
746.538	37444.59
746.877	37488.21
747.216	37565.5
747.556	37364.82
747.895	37271.72
748.234	37144.72
748.573	37130.7
748.911	37024.49
749.25	37182.68
749.589	36829.24
749.928	36984.49
750.267	36852.29
750.605	36713.09
750.944	36687.33
751.283	36501.57
751.621	36683.48
751.96	36485.75
752.298	36434.9
752.636	36390.84
752.975	36248.47
753.313	36130.96
753.651	36200.11
753.989	35845.99
754.327	35857.74
754.666	35686.9
755.004	35793.56
755.342	35874.24
755.679	35643.74
756.017	35525.32
756.355	35568.26
756.693	35283.52
757.031	35376.17
757.368	35194.26
757.706	35214.37
758.044	34995.62
758.381	34994.04
758.719	34844.66
759.056	34911.33
759.394	34742.07
759.731	34696.19
760.068	34478.8
760.405	34414.39
760.743	34208.07
761.08	34180.73
761.417	34081.52
761.754	34086.04
762.091	33961.3
762.428	33759.95
762.765	33597.46
763.102	33789.55
763.438	33614.19
763.775	33274.99
764.112	33413.74
764.449	33408.77
764.785	33119.28
765.122	32892.17
765.458	32675.68
765.795	32892.17
766.131	32757.03
766.467	32711.16
766.804	32464.84
767.14	32294
767.476	32343.49
767.812	32226.43
768.148	32118.86
768.485	31816.27
768.821	31785.53
769.157	31818.75
769.492	31793.22
769.828	31622.37
770.164	31304.87
770.5	31209.96
770.836	31317.3
771.171	31050.64
771.507	31079.11
771.842	30831.44
772.178	30835.05
772.513	30781.49
772.849	30672.57
773.184	30517.32
773.519	30497.66
773.855	30354.16
774.19	30166.59
774.525	30019.25
774.86	30049.53
775.195	29931.57
775.53	29764.8
775.865	29749.88
776.2	29584.91
776.535	29257.92
776.87	29287.29
777.205	29219.95
777.539	29055.44
777.874	29110.8
778.209	28823.13
778.543	28771.83
778.878	28555.79
779.212	28599.4
779.547	28477.37
779.881	28589.69
780.215	28184.73
780.55	28243.25
780.884	28088.23
781.218	28079.87
781.552	27988.35
781.886	27885.98
782.22	27600.56
782.554	27529.6
782.888	27464.52
783.222	27230.4
783.556	27161.25
783.889	27194.47
784.223	26930.07
784.557	26969.84
784.89	26902.72
785.224	26660.25
785.557	26599.46
785.891	26561.26
786.224	26466.13
786.558	26363.98
786.891	26189.75
787.224	26015.52
787.557	25947.5
787.891	26084.22
788.224	25977.33
788.557	25893.03
788.89	25974.39
789.223	25809.19
789.556	25691.23
789.888	25594.28
790.221	25413.72
790.554	25201.53
790.887	25310.45
791.219	25107.74
791.552	25079.27
791.884	25008.31
792.217	24888.99
792.549	24843.57
792.882	24601.99
793.214	24513.41
793.546	24591.15
793.879	24379.85
794.211	24289.01
794.543	24331.49
794.875	24157.71
795.207	24173.08
795.539	24111.61
795.871	24046.98
796.203	23990.26
796.535	23684.28
796.867	23704.84
797.198	23667.1
797.53	23632.75
797.862	23425.53
798.193	23521.12
798.525	23299.66
798.856	23368.13
799.188	23149.83
799.519	22900.57
799.85	22974.01
800.182	22929.95
800.513	23047.01
800.844	22701.03
801.175	22838.42
801.506	22853.34
801.837	22628.71
802.168	22566.34
802.499	22447.93
802.83	22393.69
803.161	22212.68
803.491	22366.12
803.822	22163.19
804.153	22090.65
804.483	21880.94
804.814	21818.11
805.145	21834.38
805.475	21858.79
805.805	21625.58
806.136	21806.36
806.466	21682.75
806.796	21795.97
807.126	21456.54
807.457	21519.59
807.787	21470.55
808.117	21259.03
808.447	21150.79
808.777	21340.16
809.107	21184.91
809.436	21074.18
809.766	21131.13
810.096	21080.96
810.426	20863.79
810.755	20945.82
811.085	20927.29
811.414	20806.61
811.744	20585.38
812.073	20605.72
812.403	20636.22
812.732	20505.6
813.061	20418.83
813.39	20379.05
813.719	20300.19
814.049	20327.98
814.378	20352.84
814.707	20237.59
815.036	20217.25
815.365	20098.84
815.693	19980.87
816.022	19992.4
816.351	19824.49
816.68	19774.1
817.008	19928.67
817.337	19688.45
817.665	19573.43
817.994	19682.58
818.322	19612.07
818.651	19514.22
818.979	19432.41
819.307	19443.71
819.636	19401.45
819.964	19329.82
820.292	19348.8
820.62	19313.77
820.948	19321.23
821.276	19255.47
821.604	19231.97
821.932	19277.39
822.259	19270.38
822.587	19320.1
822.915	19248.24
823.243	19283.26
823.57	19212.08
823.898	19171.18
824.225	19071.07
824.553	19224.28
824.88	19302.02
825.207	19328.01
825.535	19156.49
825.862	19232.87
826.189	19182.48
826.516	19254.34
826.843	19238.97
827.17	19238.75
827.497	19239.2
827.824	19218.41
828.151	19228.35
828.478	19200.1
828.805	19221.12
829.131	19103.61
829.458	19149.26
829.785	19002.82
830.111	19211.85
830.438	19194.23
830.764	19040.33
831.09	19081.69
831.417	18973.22
831.743	19198.97
832.069	19016.6
832.395	18928.47
832.722	19018.19
833.048	18963.5
833.374	18958.98
833.7	18944.29
834.026	18928.02
834.351	18894.12
834.677	18926.66
835.003	18877.85
835.329	18826.1
835.654	18833.56
835.98	18803.05
836.306	18850.06
836.631	18796.05
836.956	18771.41
837.282	18698.87
837.607	18706.1
837.932	18684.64
838.258	18680.57
838.583	18636.73
838.908	18445.55
839.233	18428.37
839.558	18497.52
839.883	18391.76
840.208	18425.43
840.533	18356.73
840.858	18368.94
841.182	18322.39
841.507	18363.97
841.832	18248.04
842.156	18243.52
842.481	18218.43
842.805	18081.26
843.13	18070.19
843.454	17991.77
843.778	18006.69
844.103	17835.39
844.427	17879.91
844.751	17942.96
845.075	17815.96
845.399	17725.34
845.723	17606.47
846.047	17598.11
846.371	17509.53
846.695	17576.87
847.019	17401.96
847.343	17205.58
847.666	17221.85
847.99	17141.85
848.313	17067.5
848.637	16941.4
848.96	16900.05
849.284	16923.1
849.607	16825.7
849.931	16768.3
850.254	16687.63
850.577	16583.22
850.9	16442.89
851.223	16425.03
851.546	16358.6
851.869	16222.78
852.192	16331.25
852.515	16154.98
852.838	16172.84
853.161	16123.35
853.483	15973.52
853.806	16006.51
854.129	15988.66
854.451	15821.66
854.774	15757.93
855.096	15738.95
855.419	15740.76
855.741	15696.92
856.063	15590.93
856.385	15578.05
856.708	15472.52
857.03	15479.52
857.352	15405.63
857.674	15367.43
857.996	15275.01
858.318	15223.03
858.64	15219.87
858.961	15206.31
859.283	15028.01
859.605	15109.81
859.926	15046.54
860.248	15082.92
860.57	14920.44
860.891	14986.65
861.212	14938.75
861.534	14885.41
861.855	14864.62
862.176	14822.82
862.498	14931.06
862.819	14781.91
863.14	14665.53
863.461	14681.58
863.782	14642.48
864.103	14661.46
864.424	14629.38
864.745	14551.19
865.065	14578.76
865.386	14438.87
865.707	14416.05
866.027	14470.96
866.348	14503.28
866.668	14463.5
866.989	14406.1
867.309	14294.02
867.63	14291.53
867.95	14301.25
868.27	14123.4
868.59	14254.7
868.91	14182.16
869.23	14235.26
869.55	14141.48
869.87	14254.92
870.19	14117.98
870.51	14081.37
870.83	14150.74
871.15	14038.43
871.469	14057.19
871.789	14043.85
872.109	14103.06
872.428	13940.58
872.748	13910.07
873.067	13864.2
873.386	13899.9
873.706	13842.28
874.025	13816.74
874.344	13821.94
874.663	13735.39
874.982	13748.27
875.301	13801.83
875.62	13658.1
875.939	13703.75
876.258	13720.02
876.577	13657.2
876.896	13667.37
877.214	13544.21
877.533	13644.77
877.852	13576.75
878.17	13517.31
878.489	13551.44
878.807	13526.58
879.125	13495.17
879.444	13456.75
879.762	13395.28
880.08	13413.59
880.398	13345.57
880.716	13409.75
881.034	13299.47
881.352	13304.66
881.67	13283.42
881.988	13279.35
882.306	13322.29
882.624	13153.93
882.941	13100.83
883.259	13046.37
883.577	13052.69
883.894	12999.59
884.212	12972.7
884.529	13033.94
884.846	12937.22
885.164	12857.22
885.481	12890.21
885.798	12901.29
886.115	12812.25
886.432	12777.22
886.75	12784.9
887.067	12698.58
887.383	12628.75
887.7	12760.72
888.017	12650.67
888.334	12637.56
888.651	12553.5
888.967	12598.24
889.284	12468.3
889.6	12478.02
889.917	12370.68
890.233	12426.5
890.55	12348.08
890.866	12337.68
891.182	12313.73
891.498	12233.51
891.815	12175.88
892.131	12169.33
892.447	12052.95
892.763	12051.82
893.079	12099.27
893.395	11970.24
893.71	12027.41
894.026	11987.18
894.342	11945.15
894.657	11895.44
894.973	11808.88
895.289	11770.24
895.604	11813.18
895.92	11649.34
896.235	11632.84
896.55	11667.87
896.865	11585.84
897.181	11605.27
897.496	11624.71
897.811	11517.37
898.126	11529.34
898.441	11441.66
898.756	11363.25
899.071	11417.26
899.386	11284.38
899.7	11207.54
900.015	11125.51
900.33	11174.32
900.644	11125.96
900.959	11172.07
901.273	11072.41
901.588	11054.55
901.902	10970.26
902.216	10911.73
902.531	10873.77
902.845	10858.4
903.159	10803.71
903.473	10753.77
903.787	10726.2
904.101	10627.45
904.415	10663.83
904.729	10622.7
905.042	10507.22
905.356	10529.82
905.67	10572.76
905.984	10495.92
906.297	10448.02
906.611	10337.06
906.924	10375.48
907.237	10299.09
907.551	10365.53
907.864	10267.68
908.177	10210.06
908.491	10202.6
908.804	10102.49
909.117	10077.18
909.43	10042.6
909.743	9973.23
910.056	9949.5
910.368	9851.2
910.681	9858.43
910.994	9826.11
911.307	9761.48
911.619	9681.03
911.932	9711.31
912.244	9622.5
912.557	9608.94
912.869	9534.59
913.181	9452.79
913.494	9535.72
913.806	9412.79
914.118	9510.41
914.43	9408.5
914.742	9383.41
915.054	9280.14
915.366	9255.51
915.678	9230.65
915.99	9202.4
916.302	9095.74
916.613	9070.43
916.925	9044.44
917.236	9032.23
917.548	8934.38
917.859	8975.96
918.171	8899.81
918.482	8883.54
918.794	8836.31
919.105	8824.33
919.416	8756.99
919.727	8749.98
920.038	8726.25
920.349	8640.15
920.66	8578.46
920.971	8592.02
921.282	8526.48
921.593	8481.51
921.903	8446.03
922.214	8424.34
922.525	8381.18
922.835	8349.09
923.146	8346.6
923.456	8310.9
923.767	8284.23
924.077	8237.23
924.387	8180.96
924.697	8170.34
925.008	8169.21
925.318	8102.09
925.628	8040.4
925.938	8006.95
926.248	7941.87
926.558	7892.6
926.867	7931.47
927.177	7872.49
927.487	7798.82
927.796	7782.32
928.106	7741.42
928.416	7650.12
928.725	7672.95
929.034	7616.45
929.344	7672.04
929.653	7590.01
929.962	7541.43
930.271	7526.74
930.581	7431.82
930.89	7445.16
931.199	7369.45
931.508	7391.37
931.817	7379.4
932.125	7344.6
932.434	7310.7
932.743	7206.97
933.051	7237.48
933.36	7246.74
933.669	7130.59
933.977	7136.69
934.286	7041.33
934.594	7110.25
934.902	6986.86
935.21	7028.9
935.519	6986.86
935.827	6912.06
936.135	6898.51
936.443	6805.4
936.751	6816.02
937.059	6837.49
937.367	6782.58
937.674	6777.6
937.982	6737.83
938.29	6712.75
938.597	6692.86
938.905	6628.46
939.213	6596.14
939.52	6573.99
939.827	6600.43
940.135	6611.51
940.442	6483.83
940.749	6458.97
941.056	6477.73
941.363	6441.34
941.67	6432.98
941.977	6345.3
942.284	6297.62
942.591	6338.07
942.898	6302.36
943.205	6268.92
943.511	6231.86
943.818	6179.2
944.125	6159.54
944.431	6105.98
944.738	6106.66
945.044	6061.92
945.35	6020.34
945.657	6014.23
945.963	5988.47
946.269	5965.42
946.575	6006.1
946.881	5942.82
947.187	5916.38
947.493	5842.49
947.799	5860.11
948.105	5816.73
948.41	5780.79
948.716	5747.57
949.022	5710.97
949.327	5721.81
949.633	5626.9
949.938	5669.16
950.244	5677.97
950.549	5636.17
950.854	5619.67
951.16	5558.88
951.465	5553.91
951.77	5530.63
952.075	5522.72
952.38	5492.89
952.685	5477.53
952.99	5395.27
953.294	5364.76
953.599	5363.86
953.904	5341.94
954.209	5314.14
954.513	5329.51
954.818	5283.63
955.122	5260.13
955.426	5227.36
955.731	5145.56
956.035	5204.54
956.339	5162.28
956.643	5138.1
956.948	5116.63
957.252	5078.44
957.556	5063.53
957.86	5004.32
958.163	5003.64
958.467	4986.01
958.771	4979.69
959.075	4934.94
959.378	4927.48
959.682	4910.08
959.985	4877.77
960.289	4830.76
960.592	4831.44
960.896	4846.81
961.199	4799.8
961.502	4794.38
961.805	4742.18
962.108	4716.64
962.411	4701.5
962.714	4662.41
963.017	4644.78
963.32	4659.92
963.623	4616.08
963.926	4660.82
964.228	4648.85
964.531	4635.51
964.833	4545.12
965.136	4552.8
965.438	4516.19
965.741	4516.87
966.043	4498.12
966.345	4438.23
966.648	4452.92
966.95	4416.08
967.252	4390.32
967.554	4441.17
967.856	4373.37
968.158	4320.72
968.46	4318.69
968.761	4331.11
969.063	4280.27
969.365	4248.63
969.666	4257.44
969.968	4201.85
970.269	4192.59
970.571	4155.53
970.872	4141.52
971.174	4130.89
971.475	4106.49
971.776	4108.97
972.077	4096.09
972.378	4023.1
972.679	4065.81
972.98	4034.4
973.281	4019.94
973.582	3986.94
973.883	4051.35
974.183	3959.15
974.484	3962.09
974.785	3949.2
975.085	3903.1
975.386	3908.3
975.686	3862.2
975.986	3870.11
976.287	3871.92
976.587	3811.13
976.887	3818.13
977.187	3784.46
977.487	3795.31
977.787	3723
978.087	3782.2
978.387	3703.79
978.687	3729.55
978.987	3690.91
979.286	3685.48
979.586	3702.2
979.885	3598.48
980.185	3642.55
980.484	3624.01
980.784	3603.68
981.083	3579.5
981.382	3631.02
981.682	3532.04
981.981	3574.52
982.28	3519.16
982.579	3510.35
982.878	3506.05
983.177	3431.25
983.475	3471.48
983.774	3440.06
984.073	3443.45
984.372	3403.91
984.67	3386.51
984.969	3383.12
985.267	3388.54
985.566	3341.76
985.864	3345.15
986.162	3343.8
986.461	3286.85
986.759	3273.52
987.057	3237.36
987.355	3245.27
987.653	3253.86
987.951	3192.39
988.249	3210.47
988.547	3193.52
988.844	3164.37
989.142	3160.52
989.44	3087.98
989.737	3120.98
990.035	3074.2
990.332	3093.18
990.63	3057.93
990.927	3094.76
991.224	3059.51
991.521	3013.41
991.819	3028.1
992.116	3004.6
992.413	3007.76
992.71	2995.56
993.006	2967.76
993.303	2937.48
993.6	2917.59
993.897	2916.46
994.193	2930.7
994.49	2874.66
994.787	2881.21
995.083	2829.01
995.379	2864.94
995.676	2869.23
995.972	2792.4
996.268	2790.36
996.565	2776.35
996.861	2782
997.157	2766.18
997.453	2767.99
997.749	2747.65
998.044	2704.27
998.34	2711.95
998.636	2707.88
998.932	2692.97
999.227	2650.26
999.523	2665.4
999.818	2626.08
1000.114	2657.71
1000.409	2599.41
1000.704	2606.41
1001	2604.61
1001.295	2556.25
1001.59	2548.11
1001.885	2542.46
1002.18	2529.35
1002.475	2525.51
1002.77	2500.65
1003.065	2495.46
1003.359	2469.47
1003.654	2463.82
1003.949	2434.89
1004.243	2482.12
1004.538	2403.48
1004.832	2411.62
1005.127	2390.38
1005.421	2363.71
1005.715	2357.61
1006.009	2337.04
1006.304	2341.56
1006.598	2340.43
1006.892	2289.13
1007.186	2294.33
1007.48	2268.12
1007.773	2217.95
1008.067	2224.05
1008.361	2249.59
1008.655	2227.44
1008.948	2210.94
1009.242	2208.91
1009.535	2162.58
1009.829	2189.7
1010.122	2162.81
1010.415	2156.26
1010.708	2157.16
1011.001	2115.35
1011.295	2109.03
1011.588	2078.97
1011.881	2074
1012.173	2077.84
1012.466	2077.16
1012.759	2043.27
1013.052	2061.8
1013.344	2033.77
1013.637	2010.95
1013.93	2010.72
1014.222	2009.14
1014.514	1977.5
1014.807	1973.66
1015.099	1945.64
1015.391	1944.29
1015.683	1924.4
1015.976	1923.27
1016.268	1905.42
1016.56	1883.27
1016.851	1867
1017.143	1869.71
1017.435	1861.58
1017.727	1848.69
1018.018	1815.47
1018.31	1817.06
1018.602	1817.28
1018.893	1823.16
1019.185	1779.77
1019.476	1770.96
1019.767	1754.91
1020.058	1757.4
1020.35	1735.48
1020.641	1690.51
1020.932	1735.93
1021.223	1680.34
1021.514	1705.42
1021.804	1683.27
1022.095	1692.09
1022.386	1641.24
1022.677	1652.32
1022.967	1620.68
1023.258	1600.11
1023.548	1589.94
1023.839	1589.49
1024.129	1601.02
1024.419	1578.19
1024.709	1534.13
1025	1531.41
1025.29	1549.27
1025.58	1561.7
1025.87	1516.95
1026.16	1506.78
1026.449	1502.94
1026.739	1490.29
1027.029	1493
1027.319	1448.7
1027.608	1461.59
1027.898	1457.52
1028.187	1443.28
1028.477	1445.77
1028.766	1449.83
1029.055	1398.08
1029.344	1395.15
1029.634	1364.87
1029.923	1364.41
1030.212	1376.16
1030.501	1345.43
1030.79	1363.06
1031.078	1363.28
1031.367	1321.48
1031.656	1316.05
1031.945	1323.74
1032.233	1292.55
1032.522	1290.29
1032.81	1288.03
1033.099	1258.2
1033.387	1276.96
1033.675	1274.02
1033.963	1267.01
1034.251	1259.33
1034.54	1242.38
1034.828	1241.93
1035.116	1227.02
1035.403	1234.25
1035.691	1209.84
1035.979	1201.71
1036.267	1190.63
1036.554	1213.91
1036.842	1214.81
1037.129	1166
1037.417	1146.79
1037.704	1158.32
1037.992	1132.55
1038.279	1141.37
1038.566	1104.99
1038.853	1104.99
1039.14	1104.99
