Data from plate_porcelain_FLMS001491_005.txt Node
Date: Tue Feb 07 11:18:38 GMT 2017
User: dcchb
Spectrometer: FLMS00149
Trigger mode: 0
Integration Time (sec): 2.000000E-2
Scans to average: 10
Electric dark correction enabled: true
Nonlinearity correction enabled: false
Boxcar width: 0
XAxis mode: Wavelengths
Number of Pixels in Spectrum: 2048
>>>>>Begin Spectral Data<<<<<
341.393	-18.46
341.776	-18.46
342.16	-18.46
342.543	-61.4
342.927	-65.01
343.31	-62.07
343.693	-55.07
344.077	-53.04
344.46	-60.04
344.843	-76.54
345.226	-32.47
345.61	-40.38
345.993	-17.1
346.376	3.23
346.759	5.27
347.142	36.45
347.525	32.61
347.908	41.2
348.291	72.16
348.674	92.05
349.057	113.74
349.44	121.88
349.823	144.25
350.206	163
350.588	248.2
350.971	231.7
351.354	265.6
351.737	257.24
352.119	273.28
352.502	309.67
352.884	311.02
353.267	324.13
353.65	326.84
354.032	333.17
354.414	364.81
354.797	341.53
355.179	355.54
355.562	351.25
355.944	360.97
356.326	344.92
356.709	371.36
357.091	380.63
357.473	386.95
357.855	385.82
358.238	382.43
358.62	379.95
359.002	391.47
359.384	391.47
359.766	394.86
360.148	379.5
360.53	374.98
360.912	410.46
361.294	372.72
361.676	395.09
362.057	389.89
362.439	392.15
362.821	360.51
363.203	376.56
363.584	382.43
363.966	392.6
364.348	375.43
364.729	379.72
365.111	390.57
365.493	368.87
365.874	400.29
366.256	377.24
366.637	405.26
367.019	414.52
367.4	386.5
367.781	387.63
368.163	392.6
368.544	399.16
368.925	399.61
369.306	402.77
369.688	396.67
370.069	417.23
370.45	419.04
370.831	414.3
371.212	416.78
371.593	417.69
371.974	425.82
372.355	417.91
372.736	434.86
373.117	421.08
373.498	417.23
373.879	423.11
374.26	415.43
374.641	411.36
375.021	412.26
375.402	441.64
375.783	440.74
376.163	478.93
376.544	471.47
376.925	434.64
377.305	463.79
377.686	445.26
378.066	463.79
378.447	487.52
378.827	483
379.208	472.15
379.588	473.5
379.968	464.47
380.349	490
380.729	487.74
381.109	505.59
381.489	490
381.87	494.97
382.25	530.9
382.63	518.48
383.01	523.67
383.39	501.07
383.77	525.48
384.15	528.64
384.53	527.97
384.91	520.51
385.29	559.15
385.67	565.03
386.049	565.25
386.429	584.01
386.809	581.3
387.189	577.68
387.568	573.61
387.948	588.76
388.328	616.33
388.707	602.09
389.087	619.26
389.466	624.91
389.846	628.53
390.225	629.88
390.605	653.84
390.984	622.65
391.363	651.8
391.743	660.17
392.122	673.05
392.501	673.73
392.881	662.2
393.26	693.16
393.639	717.79
394.018	687.28
394.397	729.32
394.776	722.54
395.155	715.76
395.534	754.4
395.913	746.04
396.292	753.5
396.671	750.79
397.05	767.28
397.429	772.48
397.808	771.35
398.186	794.63
398.565	808.18
398.944	802.99
399.323	835.08
399.701	814.06
400.08	842.31
400.458	848.86
400.837	852.48
401.215	863.78
401.594	856.09
401.972	876.43
402.351	863.32
402.729	891.12
403.107	891.8
403.486	929.09
403.864	919.37
404.242	907.39
404.62	946.49
404.999	942.19
405.377	954.4
405.755	963.89
406.133	986.71
406.511	1014.73
406.889	1017.22
407.267	1031.23
407.645	1031.46
408.023	1081.4
408.401	1084.11
408.779	1087.5
409.156	1079.59
409.534	1097.44
409.912	1120.27
410.29	1130.66
410.667	1179.02
411.045	1213.6
411.422	1205.69
411.8	1207.72
412.178	1225.8
412.555	1245.24
412.933	1258.34
413.31	1289.08
413.687	1295.63
414.065	1319.36
414.442	1325.69
414.819	1332.92
415.197	1392.35
415.574	1387.6
415.951	1388.28
416.328	1423.08
416.705	1459.69
417.082	1435.74
417.46	1469.18
417.837	1468.96
418.214	1481.16
418.591	1510.77
418.967	1503.31
419.344	1515.51
419.721	1558.67
420.098	1549.86
420.475	1575.85
420.852	1590.09
421.228	1640.03
421.605	1659.91
421.982	1631.67
422.358	1700.59
422.735	1712.34
423.111	1713.92
423.488	1721.61
423.864	1751.21
424.241	1779.01
424.617	1804.09
424.994	1802.06
425.37	1828.95
425.746	1836.18
426.123	1869.85
426.499	1871.66
426.875	1911.21
427.251	1929.74
427.627	1967.7
428.003	2016.51
428.379	2038.21
428.756	2068.26
429.132	2073.69
429.507	2100.35
429.883	2156.62
430.259	2176.51
430.635	2182.84
431.011	2199.11
431.387	2235.27
431.763	2302.83
432.138	2319.78
432.514	2346.9
432.89	2376.51
433.265	2412.21
433.641	2434.36
434.016	2476.16
434.392	2540.34
434.767	2606.1
435.143	2528.14
435.518	2602.94
435.894	2637.74
436.269	2650.17
436.644	2704.86
437.02	2729.94
437.395	2758.87
437.77	2806.32
438.145	2826.66
438.52	2860.56
438.895	2916.6
439.271	2930.39
439.646	2987.34
440.021	3010.61
440.395	2996.83
440.77	2979.65
441.145	3053.78
441.52	3093.77
441.895	3099.2
442.27	3183.72
442.645	3186.43
443.019	3202.02
443.394	3174.9
443.769	3222.58
444.143	3206.09
444.518	3304.62
444.892	3278.63
445.267	3313.2
445.641	3384.39
446.016	3340.1
446.39	3423.94
446.764	3409.92
447.139	3415.8
447.513	3462.58
447.887	3517.27
448.262	3531.05
448.636	3545.97
449.01	3604.27
449.384	3641.56
449.758	3630.26
450.132	3677.71
450.506	3723.81
450.88	3742.57
451.254	3749.12
451.628	3800.65
452.002	3908.44
452.376	3922.91
452.75	3946.41
453.123	3926.07
453.497	4052.62
453.871	4080.42
454.244	4188.21
454.618	4171.94
454.992	4259.39
455.365	4238.6
455.739	4379.62
456.112	4409.45
456.486	4421.88
456.859	4521.08
457.232	4574.41
457.606	4576.22
457.979	4611.02
458.352	4766.5
458.725	4848.98
459.099	4847.85
459.472	4977.34
459.845	5021.18
460.218	5031.12
460.591	5090.56
460.964	5118.13
461.337	5233.61
461.71	5344.79
462.083	5418.23
462.456	5433.83
462.829	5475.86
463.201	5596.99
463.574	5584.1
463.947	5685.34
464.32	5819.8
464.692	5840.82
465.065	5885.79
465.438	5976.64
465.81	6073.58
466.183	6155.16
466.555	6278.55
466.928	6291.88
467.3	6272.67
467.672	6439.22
468.045	6549.28
468.417	6643.06
468.789	6672.89
469.161	6749.27
469.534	6893.22
469.906	6976.16
470.278	7116.49
470.65	7211.86
471.022	7323.95
471.394	7411.4
471.766	7542.47
472.138	7632.86
472.51	7802.58
472.882	7945.4
473.253	7940.65
473.625	8119.86
473.997	8293.41
474.369	8360.75
474.74	8438.94
475.112	8625.15
475.484	8786.96
475.855	8899.27
476.227	8983.79
476.598	9286.15
476.97	9385.81
477.341	9535.64
477.713	9725.92
478.084	9705.8
478.455	10027.83
478.827	10093.59
479.198	10409.74
479.569	10448.61
479.94	10802.95
480.311	10898.32
480.682	11148.25
481.053	11352.54
481.424	11490.16
481.795	11612.65
482.166	11808.8
482.537	11922.02
482.908	12282.46
483.279	12392.74
483.65	12665.27
484.021	12850.81
484.391	13014.42
484.762	13234.07
485.133	13273.39
485.503	13449.89
485.874	13741.4
486.244	13878.35
486.615	14213.26
486.985	14378.45
487.356	14619.8
487.726	14733.92
488.097	15017.08
488.467	15119.9
488.837	15425.43
489.207	15608.47
489.578	15894.34
489.948	16057.95
490.318	16315.57
490.688	16271.28
491.058	16614.1
491.428	16802.11
491.798	16958.27
492.168	17313.97
492.538	17456.79
492.908	17686.39
493.278	17837.57
493.648	17941.29
494.017	18129.76
494.387	18296.99
494.757	18593.71
495.126	18645
495.496	18745.79
495.866	18945.79
496.235	19218.32
496.605	19314.37
496.974	19544.19
497.344	19721.13
497.713	19811.08
498.082	20028.92
498.452	20131.07
498.821	20361.8
499.19	20370.61
499.559	20622.35
499.928	20788.9
500.298	20918.39
500.667	21090.14
501.036	21078.16
501.405	21403.35
501.774	21395.44
502.143	21611.48
502.512	21734.64
502.88	21925.37
503.249	21921.98
503.618	22176.89
503.987	22242.42
504.356	22507.05
504.724	22589.53
505.093	22745.46
505.462	22804.89
505.83	22995.4
506.199	23194.49
506.567	23501.15
506.936	23492.79
507.304	23727.58
507.672	23840.12
508.041	24013.68
508.409	24157.85
508.777	24449.82
509.145	24589.03
509.514	24727.78
509.882	24917.38
510.25	24998.96
510.618	25147.21
510.986	25298.39
511.354	25633.07
511.722	25796.91
512.09	25980.4
512.458	25997.13
512.826	26198.93
513.193	26373.84
513.561	26524.34
513.929	26791.46
514.297	27075.97
514.664	27139.24
515.032	27485
515.4	27503.08
515.767	27737.42
516.135	28002.95
516.502	27826.01
516.869	28409.04
517.237	28409.04
517.604	28379.66
517.972	28858.52
518.339	29137.16
518.706	29120.89
519.073	29370.82
519.44	29462.57
519.808	29850.59
520.175	29872.51
520.542	30368.54
520.909	30608.98
521.276	30488.76
521.643	30933.49
522.009	31127.61
522.376	31236.76
522.743	31475.85
523.11	31886.69
523.477	32177.08
523.843	32337.3
524.21	32702.26
524.577	32862.48
524.943	33082.82
525.31	33261.12
525.676	33722.8
526.043	33820.65
526.409	33863.36
526.776	34278.27
527.142	34456.57
527.508	34721.64
527.874	35125.93
528.241	35216.09
528.607	35324.34
528.973	35647.27
529.339	35676.42
529.705	36161.15
530.071	36264.43
530.437	36529.96
530.803	36738.31
531.169	36835.26
531.535	36986.67
531.901	37241.35
532.267	37290.84
532.632	37658.74
532.998	37782.13
533.364	37983.7
533.73	38134.21
534.095	38433.41
534.461	38439.74
534.826	38840.41
535.192	39126.5
535.557	39395.42
535.923	39247.85
536.288	39335.08
536.653	39640.16
537.019	39702.08
537.384	39751.34
537.749	39971
538.114	40002.63
538.479	40060.94
538.845	40490.98
539.21	40429.97
539.575	40627.25
539.94	40753.12
540.305	40948.37
540.67	40905.89
541.034	41161.02
541.399	41335.25
541.764	41361.92
542.129	41572.99
542.494	41670.61
542.858	41830.38
543.223	42013.88
543.587	42277.83
543.952	42245.74
544.316	42473.53
544.681	42499.29
545.045	42620.19
545.41	42816.35
545.774	42902.22
546.138	42949.68
546.503	43101.99
546.867	43100.86
547.231	43643.67
547.595	43662.43
547.959	43871.23
548.324	43736.55
548.688	43932.02
549.052	44094.28
549.416	44285.69
549.779	44264.9
550.143	44425.57
550.507	44795.95
550.871	44883.41
551.235	45028.49
551.599	45220.58
551.962	45391.65
552.326	45387.13
552.689	45623.05
553.053	45586.67
553.417	45670.73
553.78	46187.78
554.143	46061.01
554.507	46365.18
554.87	46420.09
555.234	46823.7
555.597	46681.56
555.96	46840.42
556.323	47004.03
556.686	47066.4
557.05	47455.09
557.413	47519.5
557.776	47639.5
558.139	47923.1
558.502	47880.17
558.865	48129.88
559.228	48278.8
559.59	48400.15
559.953	48653.71
560.316	48915.85
560.679	48910.87
561.041	49107.48
561.404	49376.85
561.767	49579.33
562.129	49468.6
562.492	49893.45
562.854	49928.48
563.217	49919.66
563.579	50170.28
563.941	50397.62
564.304	50510.61
564.666	50772.97
565.028	50826.98
565.39	50947.88
565.753	51180.87
566.115	51234.88
566.477	51350.81
566.839	51354.43
567.201	51598.49
567.563	51684.14
567.925	52041.41
568.287	51946.28
568.648	52040.96
569.01	52206.83
569.372	52407.51
569.734	52370.45
570.095	52615.41
570.457	52743.77
570.819	52780.15
571.18	52782.64
571.542	53058.11
571.903	53057.43
572.265	53083.87
572.626	53279.12
572.987	53219.69
573.349	53375.84
573.71	53593.24
574.071	53533.13
574.432	53585.1
574.794	53858.32
575.155	53805.21
575.516	53734.7
575.877	53977.18
576.238	54028.48
576.599	54173.11
576.96	54096.5
577.32	54136.05
577.681	54245.65
578.042	54363.61
578.403	54447.23
578.763	54453.33
579.124	54481.12
579.485	54522.03
579.845	54579.43
580.206	54632.31
580.566	54588.69
580.927	54609.48
581.287	54758.63
581.648	54610.39
582.008	54818.52
582.368	54736.48
582.728	54873.2
583.089	54754.11
583.449	54730.16
583.809	54788.91
584.169	54799.31
584.529	54774.45
584.889	54969.7
585.249	54841.79
585.609	54717.73
585.969	54899.19
586.329	54851.96
586.688	54814
587.048	54912.75
587.408	54863.71
587.768	54827.33
588.127	54823.04
588.487	54792.75
588.846	55033.2
589.206	54832.98
589.565	54813.32
589.925	55084.72
590.284	54962.47
590.643	54999.75
591.003	55071.16
591.362	55079.98
591.721	55031.39
592.08	55034.33
592.44	55161.33
592.799	55111.62
593.158	55139.19
593.517	55105.06
593.876	55115.23
594.235	55048.57
594.593	55075.01
594.952	55240.43
595.311	55105.29
595.67	55119.53
596.029	55311.61
596.387	55285.17
596.746	55275
597.104	55162.69
597.463	55258.73
597.822	55341.67
598.18	55242.46
598.538	55295.79
598.897	55422.12
599.255	55187.09
599.613	55635.9
599.972	55353.64
600.33	55475
600.688	55331.5
601.046	55513.41
601.404	55683.13
601.762	55564.03
602.12	55600.87
602.478	55707.98
602.836	55739.4
603.194	55516.8
603.552	55626.18
603.91	55574.65
604.268	55634.99
604.625	55614.65
604.983	55824.59
605.341	55706.18
605.698	55806.51
606.056	55863.46
606.413	55795.89
606.771	55853.29
607.128	56017.13
607.485	55806.51
607.843	55873.86
608.2	55978.03
608.557	56085.83
608.914	55920.86
609.272	56168.09
609.629	56153.62
609.986	56233.17
610.343	56095.54
610.7	56271.81
611.057	56279.49
611.414	56279.95
611.771	56293.73
612.127	56347.06
612.484	56366.5
612.841	56357.68
613.198	56302.32
613.554	56405.37
613.911	56506.38
614.267	56521.97
614.624	56451.47
614.98	56590
615.337	56664.34
615.693	56588.41
616.05	56619.6
616.406	56782.98
616.762	56537.12
617.118	56678.81
617.475	56653.72
617.831	56736.43
618.187	56745.7
618.543	56792.7
618.899	56936.43
619.255	56876.54
619.611	56824.79
619.967	56947.73
620.323	56963.54
620.678	56832.02
621.034	56807.39
621.39	56761.29
621.746	56795.19
622.101	57138.68
622.457	56830.89
622.812	56910.89
623.168	57037.44
623.523	56972.36
623.879	57100.49
624.234	56911.12
624.589	57042.64
624.945	56956.09
625.3	57005.35
625.655	56877.9
626.01	56883.77
626.365	57065.24
626.72	56963.54
627.075	56897.11
627.43	56898.24
627.785	56801.97
628.14	56916.09
628.495	56874.73
628.85	56875.86
629.205	56750.22
629.559	56856.43
629.914	56817.79
630.269	56819.59
630.623	56769.88
630.978	56672.7
631.332	56764.45
631.687	56795.87
632.041	56679.71
632.396	56734.4
632.75	56621.86
633.104	56697.79
633.459	56510.68
633.813	56566.49
634.167	56554.52
634.521	56513.84
634.875	56569.43
635.229	56458.7
635.583	56324.92
635.937	56373.05
636.291	56287.63
636.645	56295.99
636.999	56229.33
637.352	56277.01
637.706	56159.95
638.06	56252.15
638.413	56198.82
638.767	56111.82
639.121	56222.55
639.474	55982.33
639.828	55971.93
640.181	56066.39
640.534	55972.16
640.888	55963.12
641.241	55869.56
641.594	55861.2
641.947	55954.08
642.301	55853.29
642.654	55858.49
643.007	55811.71
643.36	55789.56
643.713	55707.53
644.066	55778.04
644.419	55625.95
644.771	55451.04
645.124	55180.99
645.477	55129.69
645.83	54955.91
646.182	54804.73
646.535	54662.59
646.888	54763.38
647.24	54627.56
647.593	54776.94
647.945	54687.45
648.298	54502.59
648.65	54407.23
649.002	54405.87
649.355	54502.59
649.707	54467.11
650.059	54576.04
650.411	54963.37
650.763	54909.59
651.115	55188.45
651.467	55084.5
651.819	55002.01
652.171	55061
652.523	54891.28
652.875	54858.06
653.227	54723.83
653.578	54981.22
653.93	54772.87
654.282	54658.97
654.633	54690.38
654.985	54634.79
655.337	54714.34
655.688	54710.72
656.039	54750.72
656.391	54582.82
656.742	54695.36
657.094	54612.65
657.445	54703.27
657.796	54675.24
658.147	54585.75
658.498	54600.89
658.849	54596.83
659.2	54453.55
659.551	54402.71
659.902	54507.79
660.253	54488.13
660.604	54504.4
660.955	54424.18
661.306	54434.12
661.656	54264.41
662.007	54355.7
662.358	54411.3
662.708	54348.92
663.059	54306.44
663.409	54070.29
663.76	54310.06
664.11	54189.15
664.461	54366.78
664.811	54257.18
665.161	54334.91
665.511	54180.34
665.862	54206.55
666.212	54277.51
666.562	54301.92
666.912	54230.96
667.262	54195.71
667.612	54136.73
667.962	54202.49
668.312	54188.25
668.662	54241.58
669.011	54127.46
669.361	54138.08
669.711	54059.21
670.06	54069.16
670.41	54030.51
670.76	53912.55
671.109	54028.93
671.459	53980.35
671.808	53920.91
672.157	53982.15
672.507	53917.97
672.856	53908.71
673.205	53892.89
673.554	53913.91
673.904	53808.15
674.253	54004.3
674.602	53808.6
674.951	53398.67
675.3	53369.97
675.649	53813.57
675.998	53777.64
676.346	53802.72
676.695	53788.26
677.044	53600.7
677.393	53678.66
677.741	53809.96
678.09	53656.74
678.438	53539.91
678.787	53555.5
679.135	53586.68
679.484	53407.93
679.832	53544.88
680.181	53314.15
680.529	53485.44
680.877	53282.74
681.225	53235.96
681.573	53470.76
681.922	53245.68
682.27	53168.62
682.618	53123.87
682.966	53007.94
683.314	53157.32
683.661	52977.21
684.009	52770.66
684.357	52760.04
684.705	52698.35
685.053	52774.73
685.4	52777.21
685.748	52595.07
686.095	52551.23
686.443	52358.69
686.79	52332.03
687.138	52356.43
687.485	52374.74
687.832	52180.62
688.18	52365.25
688.527	52050
688.874	52021.53
689.221	51874.41
689.568	51929.33
689.915	51794.64
690.262	51754.64
690.609	51692.5
690.956	51619.73
691.303	51519.17
691.65	51320.98
691.997	51363.01
692.344	51264.49
692.69	51246.86
693.037	51263.58
693.383	50974.55
693.73	51053.19
694.077	50799.86
694.423	50761.45
694.769	50690.04
695.116	50655.46
695.462	50555.8
695.808	50501.34
696.155	50515.8
696.501	50252.99
696.847	50320.33
697.193	49983.16
697.539	50138.19
697.885	49920.79
698.231	49739.55
698.577	49830.4
698.923	49727.8
699.269	49650.06
699.614	49229.74
699.96	49272.9
700.306	49256.4
700.651	49229.28
700.997	49094.37
701.342	48930.76
701.688	48837.43
702.033	48729.64
702.379	48662.75
702.724	48474.73
703.069	48660.26
703.415	48290.33
703.76	48257.11
704.105	48144.12
704.45	48072.48
704.795	47776.89
705.14	47634.75
705.485	47734.18
705.83	47555.66
706.175	47734.18
706.52	47585.03
706.865	47310.69
707.209	47256.46
707.554	47376.45
707.899	47265.49
708.243	47120.87
708.588	46956.8
708.932	46745.51
709.277	46640.88
709.621	46835.68
709.966	46566.3
710.31	46745.51
710.654	46311.62
710.998	46223.26
711.342	46368.12
711.687	46155.47
712.031	45961.12
712.375	45945.53
712.719	45915.02
713.063	45856.04
713.407	45844.74
713.75	45696.72
714.094	45585.99
714.438	45570.17
714.782	45505.54
715.125	45317.75
715.469	45327.47
715.812	45132.22
716.156	44891.55
716.499	44969.74
716.843	44898.1
717.186	44688.39
717.53	44870.76
717.873	44842.28
718.216	44652
718.559	44567.26
718.902	44333.59
719.246	44483.42
719.589	44333.59
719.932	44254.5
720.275	44176.31
720.617	44012.02
720.96	43863.55
721.303	43888.41
721.646	43943.77
721.989	43777.9
722.331	43854.96
722.674	43712.37
723.016	43638.92
723.359	43516.89
723.701	43525.03
724.044	43405.03
724.386	43266.5
724.729	43401.42
725.071	43131.82
725.413	43027.19
725.755	43043.91
726.097	42895.21
726.439	42701.77
726.782	42684.82
727.124	42951.94
727.465	42652.73
727.807	42574.32
728.149	42453.19
728.491	42340.88
728.833	42566.41
729.175	42160.54
729.516	42326.64
729.858	42133.43
730.199	42212.97
730.541	42108.34
730.882	42059.3
731.224	42090.72
731.565	41864.28
731.906	41911.06
732.248	41899.08
732.589	41592.65
732.93	41652.76
733.271	41761.91
733.612	41495.93
733.953	41604.17
734.294	41340
734.635	41382.94
734.976	41325.99
735.317	41130.74
735.658	41128.03
735.999	41007.13
736.339	41085.09
736.68	41063.4
737.021	40865.89
737.361	40820.01
737.702	40839.9
738.042	40727.81
738.383	40764.87
738.723	40771.88
739.063	40536.63
739.404	40520.36
739.744	40355.39
740.084	40180.03
740.424	40386.35
740.764	40225
741.104	40387.94
741.444	40093.93
741.784	40074.05
742.124	39988.85
742.464	39861.62
742.804	39881.28
743.143	39775.07
743.483	39812.81
743.823	39674.73
744.162	39641.74
744.502	39610.33
744.841	39360.39
745.181	39578.69
745.52	39447.17
745.86	39503.44
746.199	39376.21
746.538	39173.5
746.877	39271.58
747.216	38962.66
747.556	39037.01
747.895	39092.38
748.234	38834.3
748.573	38774.42
748.911	38691.26
749.25	38601.77
749.589	38646.06
749.928	38470.7
750.267	38523.8
750.605	38350.02
750.944	38342.34
751.283	38329.68
751.621	38284.94
751.96	38100.99
752.298	38018.05
752.636	38053.31
752.975	37908
753.313	37643.83
753.651	37738.06
753.989	37655.13
754.327	37547.78
754.666	37268.47
755.004	37484.96
755.342	37518.63
755.679	37469.59
756.017	37090.39
756.355	37108.25
756.693	36957.74
757.031	36836.39
757.368	36850.4
757.706	36789.61
758.044	36711.2
758.381	36581.03
758.719	36491.77
759.056	36557.53
759.394	36370.41
759.731	36240.47
760.068	36044.32
760.405	35973.14
760.743	35755.74
761.08	35868.96
761.417	35654.27
761.754	35467.16
762.091	35528.4
762.428	35416.09
762.765	35159.82
763.102	35129.32
763.438	35018.58
763.775	34897.91
764.112	34939.26
764.449	34769.55
764.785	34635.54
765.122	34450.01
765.458	34329.34
765.795	34305.84
766.131	34157.59
766.467	34016.13
766.804	33807.77
767.14	33641.45
767.476	33780.88
767.812	33442.13
768.148	33525.52
768.485	33491.85
768.821	33315.8
769.157	33196.49
769.492	33095.7
769.828	33087.34
770.164	32784.52
770.5	32851.41
770.836	32793.33
771.171	32473.79
771.507	32383.85
771.842	32168.04
772.178	32260.92
772.513	32222.5
772.849	32038.32
773.184	31854.6
773.519	31817.31
773.855	31681.72
774.19	31533.03
774.525	31358.12
774.86	31442.86
775.195	31255.07
775.53	31201.06
775.865	31010.78
776.2	30687.17
776.535	30611.92
776.87	30645.14
777.205	30573.28
777.539	30423.23
777.874	30366.73
778.209	30250.12
778.543	30098.71
778.878	29995.21
779.212	29867.76
779.547	29785.28
779.881	29681.78
780.215	29539.41
780.55	29583.25
780.884	29467.32
781.218	29306.64
781.552	29336.7
781.886	29015.13
782.22	28965.18
782.554	28875.92
782.888	28685.42
783.222	28468.25
783.556	28422.83
783.889	28226.67
784.223	28236.84
784.557	28114.81
784.89	28260.57
785.224	27873.46
785.557	27724.31
785.891	27719.34
786.224	27725.22
786.558	27544.88
786.891	27279.35
787.224	27299.69
787.557	27341.27
787.891	27118.68
788.224	27229.64
788.557	27080.26
788.89	27059.7
789.223	26962.07
789.556	26727.05
789.888	26715.75
790.221	26537.23
790.554	26377.68
790.887	26414.74
791.219	26218.36
791.552	26186.73
791.884	26125.49
792.217	25978.37
792.549	25961.65
792.882	25752.39
793.214	25664.03
793.546	25749.22
793.879	25521.43
794.211	25400.08
794.543	25409.12
794.875	25213.87
795.207	25332.74
795.539	25207.32
795.871	25155.12
796.203	24913.31
796.535	24804.16
796.867	24777.72
797.198	24736.37
797.53	24629.71
797.862	24360.79
798.193	24592.64
798.525	24291.41
798.856	24344.29
799.188	24001.47
799.519	24046.22
799.85	23909.72
800.182	23941.14
800.513	24110.17
800.844	23789.95
801.175	23831.53
801.506	23837.86
801.837	23746.79
802.168	23555.16
802.499	23430.19
802.83	23429.51
803.161	23357.42
803.491	23310.42
803.822	23196.97
804.153	23145.9
804.483	22965.34
804.814	22927.6
805.145	22850.54
805.475	22850.77
805.805	22729.42
806.136	22706.37
806.466	22736.87
806.796	22661.17
807.126	22460.5
807.457	22420.27
807.787	22351.12
808.117	22261.86
808.447	22239.49
808.777	22286.49
809.107	22178.47
809.436	22068.64
809.766	22119.94
810.096	21991.13
810.426	21949.78
810.755	21969.44
811.085	21842.21
811.414	21756.56
811.744	21550.24
812.073	21592.5
812.403	21610.35
812.732	21476.57
813.061	21333.75
813.39	21301.43
813.719	21234.09
814.049	21323.13
814.378	21194.77
814.707	21095.56
815.036	21136.46
815.365	20910.71
815.693	20761.78
816.022	20836.36
816.351	20782.8
816.68	20651.05
817.008	20752.52
817.337	20594.78
817.665	20469.81
817.994	20600.88
818.322	20553.65
818.651	20480.44
818.979	20301.46
819.307	20430.72
819.636	20262.59
819.964	20190.5
820.292	20200.22
820.62	20185.75
820.948	20080.45
821.276	20253.1
821.604	20127.23
821.932	20127.45
822.259	20142.14
822.587	20089.03
822.915	20089.49
823.243	20181.01
823.57	20105.53
823.898	20091.52
824.225	20119.77
824.553	20035.93
824.88	20003.84
825.207	19965.65
825.535	19988.02
825.862	20042.03
826.189	20052.42
826.516	20042.71
826.843	20224.85
827.17	20115.25
827.497	20044.52
827.824	20114.57
828.151	20153.21
828.478	20060.33
828.805	20042.93
829.131	19955.48
829.458	19997.74
829.785	19927.23
830.111	20054.01
830.438	20058.07
830.764	20022.59
831.09	19946.66
831.417	19778.08
831.743	19933.33
832.069	19792.77
832.395	19791.87
832.722	19883.62
833.048	19788.48
833.374	19795.93
833.7	19701.02
834.026	19790.74
834.351	19850.62
834.677	19770.17
835.003	19693.79
835.329	19797.29
835.654	19627.35
835.98	19600.46
836.306	19615.37
836.631	19600.91
836.956	19585.32
837.282	19709.61
837.607	19585.09
837.932	19482.72
838.258	19540.8
838.583	19504.64
838.908	19314.37
839.233	19333.35
839.558	19384.87
839.883	19260.81
840.208	19219
840.533	19224.65
840.858	19227.81
841.182	19234.59
841.507	19164.54
841.832	19043.41
842.156	18915.73
842.481	18975.16
842.805	18903.75
843.13	18875.05
843.454	18861.5
843.778	18749.86
844.103	18734.49
844.427	18679.35
844.751	18679.58
845.075	18630.77
845.399	18551.45
845.723	18362.75
846.047	18383.77
846.371	18301.74
846.695	18218.12
847.019	18013.61
847.343	18107.84
847.666	18034.85
847.99	17811.81
848.313	17932.71
848.637	17684.8
848.96	17699.27
849.284	17672.37
849.607	17568.2
849.931	17550.57
850.254	17396.9
850.577	17323.91
850.9	17186.96
851.223	17260.41
851.546	17109.45
851.869	17026.06
852.192	17062.22
852.515	16850.02
852.838	16946.74
853.161	16881.89
853.483	16797.37
853.806	16647.54
854.129	16701.78
854.451	16625.85
854.774	16491.84
855.096	16466.08
855.419	16452.07
855.741	16402.35
856.063	16274.67
856.385	16270.6
856.708	16177.5
857.03	16179.31
857.352	16087.78
857.674	16061.57
857.996	16014.56
858.318	15881.91
858.64	15918.75
858.961	15859.31
859.283	15796.27
859.605	15672.2
859.926	15762.82
860.248	15732.31
860.57	15572.09
860.891	15623.39
861.212	15525.54
861.534	15529.15
861.855	15422.49
862.176	15446.44
862.498	15468.59
862.819	15443.51
863.14	15304.98
863.461	15310.85
863.782	15363.73
864.103	15358.08
864.424	15253
864.745	15290.06
865.065	15141.37
865.386	15103.4
865.707	15131.2
866.027	15169.39
866.348	15068.15
866.668	15202.38
866.989	15049.62
867.309	14987.7
867.63	14975.95
867.95	14882.39
868.27	14835.39
868.59	14926.91
868.91	14927.59
869.23	14845.56
869.55	14809.85
869.87	14928.04
870.19	14810.75
870.51	14882.62
870.83	14765.78
871.15	14593.59
871.469	14567.6
871.789	14685.11
872.109	14519.46
872.428	14503.42
872.748	14603.53
873.067	14595.17
873.386	14601.49
873.706	14453.93
874.025	14391.78
874.344	14427.94
874.663	14441.05
874.982	14425.68
875.301	14435.62
875.62	14297.55
875.939	14268.85
876.258	14202.64
876.577	14208.28
876.896	14196.99
877.214	14128.74
877.533	14208.74
877.852	14166.25
878.17	14159.7
878.489	14083.09
878.807	14102.3
879.125	13990.44
879.444	14004.45
879.762	14019.14
880.08	14017.33
880.398	14011.23
880.716	13968.29
881.034	13873.83
881.352	13922.19
881.67	13850.1
881.988	13924.9
882.306	13839.48
882.624	13774.62
882.941	13687.62
883.259	13625.93
883.577	13691.91
883.894	13645.59
884.212	13526.04
884.529	13520.39
884.846	13562.88
885.164	13471.35
885.481	13325.14
885.798	13430.23
886.115	13380.06
886.432	13333.73
886.75	13319.72
887.067	13288.76
887.383	13286.27
887.7	13296.44
888.017	13188.88
888.334	13199.95
888.651	13131.02
888.967	13186.84
889.284	13052.16
889.6	13047.64
889.917	12986.62
890.233	12940.75
890.55	12932.39
890.866	12869.56
891.182	12857.36
891.498	12759.51
891.815	12728.1
892.131	12651.26
892.447	12630.47
892.763	12603.58
893.079	12635.9
893.395	12669.34
893.71	12527.65
894.026	12491.72
894.342	12465.51
894.657	12385.73
894.973	12392.74
895.289	12386.41
895.604	12304.15
895.92	12267.77
896.235	12221.9
896.55	12174.21
896.865	12148.23
897.181	12123.14
897.496	12190.71
897.811	11977.38
898.126	11977.16
898.441	11914.79
898.756	11957.95
899.071	11863.04
899.386	11859.19
899.7	11781.46
900.015	11698.97
900.33	11678.63
900.644	11717.05
900.959	11648.8
901.273	11582.36
901.588	11506.89
901.902	11432.31
902.216	11378.08
902.531	11416.72
902.845	11285.2
903.159	11294.91
903.473	11199.78
903.787	11176.27
904.101	11098.99
904.415	11072.32
904.729	11043.17
905.042	10964.98
905.356	10932.66
905.67	11019.67
905.984	10953
906.297	10895.38
906.611	10780.8
906.924	10848.82
907.237	10724.31
907.551	10695.38
907.864	10642.28
908.177	10651.32
908.491	10578.1
908.804	10529.74
909.117	10447.48
909.43	10430.98
909.743	10335.62
910.056	10330.42
910.368	10315.96
910.681	10283.87
910.994	10202.74
911.307	10215.17
911.619	10034.61
911.932	10177.43
912.244	10075.06
912.557	10002.29
912.869	9925.23
913.181	9991.67
913.494	9938.34
913.806	9886.82
914.118	9842.98
914.43	9798.01
914.742	9747.84
915.054	9726.82
915.366	9653.6
915.678	9569.76
915.99	9576.54
916.302	9459.71
916.613	9459.71
916.925	9434.62
917.236	9465.58
917.548	9365.7
917.859	9388.3
918.171	9350.56
918.482	9280.28
918.794	9131.81
919.105	9228.53
919.416	9085.03
919.727	9063.56
920.038	9031.25
920.349	9022.66
920.66	8891.81
920.971	8961.42
921.282	8863.11
921.593	8831.93
921.903	8733.63
922.214	8785.38
922.525	8791.48
922.835	8707.19
923.146	8649.11
923.456	8631.71
923.767	8588.55
924.077	8584.48
924.387	8481.88
924.697	8476.23
925.008	8443.24
925.318	8384.26
925.628	8413.41
925.938	8325.05
926.248	8285.73
926.558	8275.33
926.867	8206.41
927.177	8184.94
927.487	8132.96
927.796	8077.15
928.106	8047.09
928.416	8054.1
928.725	7958.96
929.034	7903.37
929.344	7962.35
929.653	7958.28
929.962	7860.65
930.271	7847.1
930.581	7799.19
930.89	7801.67
931.199	7712.41
931.508	7650.94
931.817	7678.96
932.125	7631.28
932.434	7632.64
932.743	7563.26
933.051	7482.13
933.36	7452.53
933.669	7447.56
933.977	7411.63
934.286	7365.98
934.594	7347
934.902	7294.57
935.21	7292.08
935.519	7279.43
935.827	7192.88
936.135	7190.62
936.443	7126.21
936.751	7130.28
937.059	7082.6
937.367	7077.62
937.674	7079.21
937.982	7054.12
938.29	6999.43
938.597	6965.76
938.905	6911.53
939.213	6939.1
939.52	6860.23
939.827	6848.93
940.135	6845.54
940.442	6724.64
940.749	6791.53
941.056	6766.45
941.363	6621.82
941.67	6685.77
941.977	6609.61
942.284	6606.45
942.591	6565.1
942.898	6541.82
943.205	6502.72
943.511	6470.86
943.818	6404.65
944.125	6376.85
944.431	6356.74
944.738	6351.77
945.044	6288.94
945.35	6310.64
945.657	6239
945.963	6176.18
946.269	6247.14
946.575	6241.71
946.881	6224.31
947.187	6176.86
947.493	6106.8
947.799	6016.41
948.105	6022.06
948.41	5977.99
948.716	6017.31
949.022	5958.11
949.327	5986.58
949.633	5895.28
949.938	5874.27
950.244	5871.1
950.549	5797.88
950.854	5791.56
951.16	5774.38
951.465	5778.22
951.77	5706.59
952.075	5709.98
952.38	5681.73
952.685	5655.06
952.99	5623.43
953.294	5660.26
953.599	5589.08
953.904	5544.78
954.209	5497.78
954.513	5479.93
954.818	5504.56
955.122	5465.01
955.426	5433.37
955.731	5389.76
956.035	5369.65
956.339	5367.84
956.643	5343.21
956.948	5272.25
957.252	5265.47
957.556	5275.64
957.86	5260.72
958.163	5212.59
958.467	5229.09
958.771	5226.6
959.075	5172.36
959.378	5144.12
959.682	5139.82
959.985	5115.42
960.289	5010.33
960.592	5005.36
960.896	5015.98
961.199	4985.25
961.502	5003.1
961.805	4946.83
962.108	4897.79
962.411	4888.3
962.714	4837.23
963.017	4842.2
963.32	4850.34
963.623	4822.99
963.926	4819.83
964.228	4821.64
964.531	4768.31
964.833	4802.88
965.136	4760.4
965.438	4727.18
965.741	4693.96
966.043	4659.16
966.345	4664.58
966.648	4625.26
966.95	4644.69
967.252	4583.45
967.554	4573.74
967.856	4526.96
968.158	4500.97
968.46	4494.64
968.761	4471.37
969.063	4438.6
969.365	4460.97
969.666	4407.41
969.968	4349.56
970.269	4394.53
970.571	4353.4
970.872	4337.13
971.174	4300.75
971.475	4277.92
971.776	4267.08
972.077	4251.94
972.378	4266.85
972.679	4190.92
972.98	4247.64
973.281	4186.85
973.582	4143.92
973.883	4162.67
974.183	4146.63
974.484	4118.38
974.785	4066.86
975.085	4107.76
975.386	4063.01
975.686	4039.51
975.986	3989.57
976.287	4015.78
976.587	3997.93
976.887	3994.32
977.187	3927.65
977.487	3929.91
977.787	3857.14
978.087	3859.18
978.387	3875.45
978.687	3861.44
978.987	3817.37
979.286	3842.68
979.586	3794.32
979.885	3756.58
980.185	3781.89
980.484	3736.7
980.784	3735.34
981.083	3715.23
981.382	3726.3
981.682	3720.42
981.981	3712.52
982.28	3665.96
982.579	3637.49
982.878	3638.39
983.177	3574.44
983.475	3580.09
983.774	3562.69
984.073	3553.88
984.372	3496.02
984.67	3529.92
984.969	3534.89
985.267	3501
985.566	3478.4
985.864	3434.56
986.162	3436.36
986.461	3417.38
986.759	3400.21
987.057	3417.83
987.355	3347.55
987.653	3357.27
987.951	3314.56
988.249	3362.47
988.547	3305.97
988.844	3294
989.142	3281.34
989.44	3238.63
989.737	3271.4
990.035	3229.59
990.332	3162.93
990.63	3223.94
990.927	3199.31
991.224	3200.44
991.521	3214.22
991.819	3150.04
992.116	3095.81
992.413	3107.11
992.71	3091.29
993.006	3084.06
993.303	3046.09
993.6	3058.3
993.897	3039.99
994.193	3008.58
994.49	3028.24
994.787	3009.48
995.083	2938.75
995.379	2932.42
995.676	2948.24
995.972	2968.35
996.268	2897.4
996.565	2880.45
996.861	2878.64
997.157	2849.04
997.453	2870.28
997.749	2868.47
998.044	2826.21
998.34	2801.13
998.636	2790.96
998.932	2774.46
999.227	2765.87
999.523	2764.97
999.818	2716.16
1000.114	2731.52
1000.409	2691.53
1000.704	2702.15
1001	2687.91
1001.295	2643.16
1001.59	2657.63
1001.885	2626.67
1002.18	2616.5
1002.475	2593.45
1002.77	2599.78
1003.065	2566.1
1003.359	2550.51
1003.654	2571.53
1003.949	2538.31
1004.243	2511.19
1004.538	2529.72
1004.832	2479.33
1005.127	2470.97
1005.421	2458.76
1005.715	2413.79
1006.009	2424.41
1006.304	2437.29
1006.598	2376.28
1006.892	2363.85
1007.186	2407.46
1007.48	2342.16
1007.773	2332.89
1008.067	2327.24
1008.361	2309.16
1008.655	2310.74
1008.948	2306.68
1009.242	2281.59
1009.535	2243.18
1009.829	2268.26
1010.122	2261.71
1010.415	2218.32
1010.708	2255.15
1011.001	2235.94
1011.295	2221.48
1011.588	2167.47
1011.881	2148.94
1012.173	2156.17
1012.466	2153.46
1012.759	2126.12
1013.052	2097.42
1013.344	2084.31
1013.637	2079.79
1013.93	2087.25
1014.222	2056.97
1014.514	2046.12
1014.807	2039.11
1015.099	2051.32
1015.391	2056.97
1015.683	2010.64
1015.976	1992.79
1016.268	1971.77
1016.56	1934.71
1016.851	1950.08
1017.143	1919.34
1017.435	1922.05
1017.727	1943.75
1018.018	1890.87
1018.31	1881.15
1018.602	1860.81
1018.893	1865.56
1019.185	1826.46
1019.476	1841.6
1019.767	1820.36
1020.058	1803.86
1020.35	1790.31
1020.641	1792.57
1020.932	1793.47
1021.223	1746.01
1021.514	1739.69
1021.804	1698.33
1022.095	1725
1022.386	1688.16
1022.677	1697.65
1022.967	1696.52
1023.258	1707.14
1023.548	1652.68
1023.839	1626.92
1024.129	1643.19
1024.419	1630.54
1024.709	1596.86
1025	1604.55
1025.29	1581.72
1025.58	1588.5
1025.87	1596.41
1026.16	1564.1
1026.449	1570.42
1026.739	1548.5
1027.029	1520.48
1027.319	1519.8
1027.608	1499.47
1027.898	1517.09
1028.187	1465.34
1028.477	1470.31
1028.766	1453.82
1029.055	1456.3
1029.344	1446.59
1029.634	1450.2
1029.923	1438.68
1030.212	1450.2
1030.501	1416.08
1030.79	1399.13
1031.078	1398.9
1031.367	1408.85
1031.656	1366.14
1031.945	1360.03
1032.233	1336.31
1032.522	1336.31
1032.81	1318.68
1033.099	1329.08
1033.387	1354.16
1033.675	1313.71
1033.963	1297.21
1034.251	1269.64
1034.54	1289.53
1034.828	1243.43
1035.116	1231.9
1035.403	1255.4
1035.691	1230.77
1035.979	1228.29
1036.267	1227.83
1036.554	1218.8
1036.842	1184.22
1037.129	1195.52
1037.417	1208.17
1037.704	1199.81
1037.992	1164.11
1038.279	1178.57
1038.566	1136.31
1038.853	1136.31
1039.14	1136.31
