Data from plate_ceramic_FLMS001491_018.txt Node
Date: Tue Feb 07 11:16:23 GMT 2017
User: dcchb
Spectrometer: FLMS00149
Trigger mode: 0
Integration Time (sec): 2.000000E-2
Scans to average: 10
Electric dark correction enabled: true
Nonlinearity correction enabled: false
Boxcar width: 0
XAxis mode: Wavelengths
Number of Pixels in Spectrum: 2048
>>>>>Begin Spectral Data<<<<<
341.393	3.29
341.776	3.29
342.16	3.29
342.543	-42.36
342.927	-64.73
343.31	-81.9
343.693	-91.62
344.077	-61.79
344.46	-52.3
344.843	-44.62
345.226	-38.52
345.61	-25.41
345.993	-42.13
346.376	2.61
346.759	-3.26
347.142	27.47
347.525	50.52
347.908	81.48
348.291	66.79
348.674	104.08
349.057	108.6
349.44	129.16
349.823	156.06
350.206	185.21
350.588	216.84
350.971	206.9
351.354	254.36
351.737	254.81
352.119	259.33
352.502	282.61
352.884	316.95
353.267	302.72
353.65	302.94
354.032	327.35
354.414	325.09
354.797	343.39
355.179	330.74
355.562	341.14
355.944	338.42
356.326	368.03
356.709	373.22
357.091	374.35
357.473	361.93
357.855	350.17
358.238	375.48
358.62	354.02
359.002	384.52
359.384	370.74
359.766	354.24
360.148	389.5
360.53	366.45
360.912	373
361.294	375.26
361.676	373.22
362.057	366.45
362.439	382.72
362.821	361.7
363.203	358.08
363.584	332.77
363.966	375.71
364.348	370.06
364.729	342.27
365.111	337.97
365.493	361.7
365.874	347.24
366.256	365.99
366.637	355.37
367.019	365.77
367.4	351.08
367.781	344.52
368.163	355.82
368.544	357.41
368.925	346.33
369.306	378.42
369.688	374.35
370.069	362.83
370.45	366.67
370.831	382.49
371.212	362.15
371.593	364.86
371.974	358.08
372.355	356.95
372.736	390.63
373.117	367.8
373.498	382.04
373.879	368.93
374.26	384.07
374.641	377.74
375.021	367.35
375.402	398.08
375.783	395.82
376.163	434.69
376.544	400.79
376.925	403.05
377.305	400.79
377.686	398.53
378.066	414.13
378.447	420
378.827	389.95
379.208	421.58
379.588	426.33
379.968	420.68
380.349	430.62
380.729	434.47
381.109	424.75
381.489	422.71
381.87	457.97
382.25	441.02
382.63	427.46
383.01	423.62
383.39	440.79
383.77	431.98
384.15	453.22
384.53	453.22
384.91	454.58
385.29	468.59
385.67	475.37
386.049	482.6
386.429	458.87
386.809	482.83
387.189	499.77
387.568	499.55
387.948	495.26
388.328	469.49
388.707	489.83
389.087	493.45
389.466	488.93
389.846	507.68
390.225	536.84
390.605	540.9
390.984	502.26
391.363	525.99
391.743	531.19
392.122	541.36
392.501	556.04
392.881	561.47
393.26	568.93
393.639	573.9
394.018	562.15
394.397	579.77
394.776	587.68
395.155	598.53
395.534	578.42
395.913	610.51
396.292	593.11
396.671	598.3
397.05	615.7
397.429	630.39
397.808	611.41
398.186	640.11
398.565	657.96
398.944	632.65
399.323	627.68
399.701	664.29
400.08	641.01
400.458	656.83
400.837	678.98
401.215	650.28
401.594	668.81
401.972	675.36
402.351	702.48
402.729	696.38
403.107	684.4
403.486	694.35
403.864	698.64
404.242	726.89
404.62	729.37
404.999	752.88
405.377	741.35
405.755	734.57
406.133	734.8
406.511	779.99
406.889	783.61
407.267	799.88
407.645	827.22
408.023	833.78
408.401	818.64
408.779	820.44
409.156	830.39
409.534	839.43
409.912	862.93
410.29	848.69
410.667	881.91
411.045	908.8
411.422	901.57
411.8	936.83
412.178	929.14
412.555	939.09
412.933	957.39
413.31	964.4
413.687	976.6
414.065	997.16
414.442	1026.31
414.819	1009.37
415.197	1023.38
415.574	1024.51
415.951	1048.69
416.328	1062.02
416.705	1069.48
417.082	1058.4
417.46	1096.14
417.837	1094.56
418.214	1115.35
418.591	1133.66
418.967	1111.74
419.344	1106.54
419.721	1132.53
420.098	1163.94
420.475	1156.93
420.852	1185.86
421.228	1175.24
421.605	1215.69
421.982	1224.73
422.358	1227.44
422.735	1239.19
423.111	1238.06
423.488	1265.4
423.864	1279.87
424.241	1274.9
424.617	1325.74
424.994	1316.7
425.37	1317.61
425.746	1337.95
426.123	1361.9
426.499	1359.41
426.875	1390.15
427.251	1454.33
427.627	1453.2
428.003	1440.09
428.379	1462.24
428.756	1499.75
429.132	1525.28
429.507	1548.79
429.883	1544.72
430.259	1574.1
430.635	1567.09
431.011	1602.57
431.387	1634.43
431.763	1657.71
432.138	1652.29
432.514	1701.33
432.89	1726.18
433.265	1739.74
433.641	1777.26
434.016	1795.56
434.392	1802.34
434.767	1832.85
435.143	1852.73
435.518	1875.78
435.894	1898.38
436.269	1890.7
436.644	1931.38
437.02	1944.26
437.395	1971.6
437.77	1977.93
438.145	2016.8
438.52	2027.42
438.895	2086.4
439.271	2043.69
439.646	2108.55
440.021	2130.69
440.395	2118.26
440.77	2111.03
441.145	2148.77
441.52	2196.68
441.895	2197.81
442.27	2202.1
442.645	2173.18
443.019	2285.04
443.394	2240.52
443.769	2284.81
444.143	2257.47
444.518	2317.58
444.892	2288.65
445.267	2350.35
445.641	2324.81
446.016	2366.84
446.39	2392.83
446.764	2411.36
447.139	2420.63
447.513	2407.75
447.887	2468.31
448.262	2481.19
448.636	2477.58
449.01	2502.66
449.384	2532.72
449.758	2551.47
450.132	2604.58
450.506	2580.62
450.88	2645.71
451.254	2633.96
451.628	2677.34
452.002	2748.76
452.376	2723.45
452.75	2760.73
453.123	2783.33
453.497	2801.86
453.871	2860.39
454.244	2874.85
454.618	2889.32
454.992	2973.16
455.365	2965.7
455.739	3017.22
456.112	3028.07
456.486	3060.16
456.859	3145.81
457.232	3176.77
457.606	3191.23
457.979	3257.44
458.352	3278.23
458.725	3376.54
459.099	3371.79
459.472	3428.96
459.845	3469.19
460.218	3489.98
460.591	3520.26
460.964	3534.95
461.337	3637.09
461.71	3661.5
462.083	3765.9
462.456	3693.59
462.829	3754.6
463.201	3826.02
463.574	3873.7
463.947	3886.35
464.32	4030.76
464.692	4039.12
465.065	4063.3
465.438	4103.3
465.81	4177.87
466.183	4254.7
466.555	4329.5
466.928	4356.85
467.3	4303.06
467.672	4429.84
468.045	4542.15
468.417	4567.24
468.789	4567.01
469.161	4686.56
469.534	4744.86
469.906	4817.63
470.278	4848.14
470.65	4929.94
471.022	5011.29
471.394	5111.63
471.766	5183.27
472.138	5185.98
472.51	5325.41
472.882	5430.27
473.253	5473.43
473.625	5550.26
473.997	5664.38
474.369	5737.83
474.74	5750.94
475.112	5917.94
475.484	6011.04
475.855	6125.39
476.227	6159.74
476.598	6324.03
476.97	6370.13
477.341	6527.41
477.713	6605.83
478.084	6631.82
478.455	6862.77
478.827	6877.69
479.198	7115.87
479.569	7091.24
479.94	7329.2
480.311	7380.27
480.682	7539.14
481.053	7720.15
481.424	7880.37
481.795	7966.47
482.166	8075.62
482.537	8157.88
482.908	8330.98
483.279	8504.08
483.65	8635.83
484.021	8801.7
484.391	8811.87
484.762	8892.55
485.133	8973.9
485.503	9094.13
485.874	9345.87
486.244	9500.22
486.615	9678.74
486.985	9682.58
487.356	9950.83
487.726	10014.33
488.097	10144.72
488.467	10257.71
488.837	10505.39
489.207	10643.24
489.578	10721.65
489.948	10888.43
490.318	11067.41
490.688	11078.93
491.058	11267.63
491.428	11375.42
491.798	11506.72
492.168	11731.34
492.538	11819.25
492.908	11878.46
493.278	12060.6
493.648	12138.57
494.017	12320.48
494.387	12387.15
494.757	12543.07
495.126	12710.53
495.496	12654.03
495.866	12858.09
496.235	12976.51
496.605	13050.86
496.974	13132.89
497.344	13306.22
497.713	13415.37
498.082	13514.8
498.452	13583.95
498.821	13710.5
499.19	13775.81
499.559	13919.76
499.928	13974.45
500.298	14207.44
500.667	14271.16
501.036	14274.55
501.405	14468.45
501.774	14500.99
502.143	14675.67
502.512	14689.46
502.88	14870.92
503.249	14799.51
503.618	14969.23
503.987	15069.79
504.356	15136
504.724	15316.11
505.093	15343.68
505.462	15456.44
505.83	15603.33
506.199	15707.06
506.567	15824.34
506.936	15974.17
507.304	16100.04
507.672	16201.96
508.041	16284.67
508.409	16398.11
508.777	16546.58
509.145	16783.19
509.514	16776.18
509.882	16857.54
510.25	16933.92
510.618	17028.15
510.986	17147.25
511.354	17361.7
511.722	17522.15
512.09	17613.45
512.458	17642.15
512.826	17910.16
513.193	17947.9
513.561	18040.1
513.929	18255.01
514.297	18356.48
514.664	18554.44
515.032	18663.59
515.4	18808.22
515.767	18834.89
516.135	19062.9
516.502	18838.05
516.869	19350.13
517.237	19447.53
517.604	19388.09
517.972	19591.7
518.339	19760.51
518.706	19798.02
519.073	19925.7
519.44	20037.11
519.808	20370.89
520.175	20340.84
520.542	20631.9
520.909	20728.17
521.276	20750.09
521.643	20994.83
522.009	21182.17
522.376	21295.16
522.743	21477.75
523.11	21827.12
523.477	21845.88
523.843	21963.39
524.21	22352.08
524.577	22437.28
524.943	22511.85
525.31	22636.14
525.676	22861.22
526.043	23014.66
526.409	23111.38
526.776	23380.98
527.142	23473.63
527.508	23690.13
527.874	23844.47
528.241	24018.48
528.607	24011.93
528.973	24338.02
529.339	24422.99
529.705	24616.65
530.071	24822.07
530.437	24996.76
530.803	25085.57
531.169	25226.36
531.535	25246.02
531.901	25343.64
532.267	25370.31
532.632	25701.15
532.998	25776.17
533.364	26054.13
533.73	26169.16
534.095	26432.88
534.461	26422.94
534.826	26614.79
535.192	26856.37
535.557	26911.51
535.923	26781.8
536.288	26966.65
536.653	27143.14
537.019	27109.7
537.384	27397.15
537.749	27481.66
538.114	27589.23
538.479	27577.26
538.845	27847.08
539.21	27685.27
539.575	27895.44
539.94	28033.06
540.305	28220.85
540.67	28191.7
541.034	28476.89
541.399	28380.62
541.764	28643.89
542.129	28635.98
542.494	28760.73
542.858	28811.8
543.223	28886.37
543.587	29150.32
543.952	29116.2
544.316	29137.21
544.681	29130.21
545.045	29543.31
545.41	29649.97
545.774	29662.85
546.138	29861.71
546.503	29896.29
546.867	29948.27
547.231	30160.24
547.595	30197.98
547.959	30419.21
548.324	30369.27
548.688	30523.17
549.052	30651.3
549.416	30649.26
549.779	30750.96
550.143	30861.46
550.507	31065.3
550.871	31220.55
551.235	31142.59
551.599	31480.2
551.962	31550.48
552.326	31589.13
552.689	31822.57
553.053	31887.42
553.417	31938.27
553.78	32315.66
554.143	32088.77
554.507	32355.66
554.87	32466.62
555.234	32703.9
555.597	32730.57
555.96	32780.96
556.323	33084.45
556.686	33198.8
557.05	33427.04
557.413	33526.03
557.776	33644.67
558.139	33768.05
558.502	33836.53
558.865	33928.05
559.228	34240.81
559.59	34515.15
559.953	34267.93
560.316	34749.72
560.679	34746.33
561.041	34973.22
561.404	35198.75
561.767	35405.07
562.129	35318.52
562.492	35677.83
562.854	35758.06
563.217	35846.19
563.579	36008.67
563.941	36186.29
564.304	36510.13
564.666	36564.82
565.028	36844.81
565.39	36861.3
565.753	37134.52
566.115	37190.56
566.477	37402.76
566.839	37448.41
567.201	37681.62
567.563	37625.8
567.925	37959.58
568.287	37909.86
568.648	38053.82
569.01	38225.56
569.372	38382.85
569.734	38355.28
570.095	38655.16
570.457	38940.8
570.819	38956.16
571.18	39007.01
571.542	39305.08
571.903	39432.31
572.265	39466.43
572.626	39600.89
572.987	39645.41
573.349	39715.47
573.71	39995.91
574.071	39945.97
574.432	40011.05
574.794	40338.5
575.155	40121.11
575.516	40215.11
575.877	40513.19
576.238	40664.59
576.599	40682.22
576.96	40746.17
577.32	40795.44
577.681	40958.82
578.042	41120.4
578.403	41056.67
578.763	41167.41
579.124	41267.74
579.485	41342.54
579.845	41388.87
580.206	41424.12
580.566	41522.2
580.927	41340.06
581.287	41442.43
581.648	41309.55
582.008	41702.76
582.368	41692.82
582.728	41648.07
583.089	41635.19
583.449	41709.76
583.809	41775.3
584.169	41919.93
584.529	41802.87
584.889	41917.22
585.249	41746.37
585.609	41727.17
585.969	41936.43
586.329	41792.25
586.688	41984.56
587.048	41864.11
587.408	41976.42
587.768	41992.92
588.127	41892.13
588.487	41891.46
588.846	42144.33
589.206	41897.78
589.565	42004.45
589.925	42050.55
590.284	41990.21
590.643	42102.3
591.003	42175.74
591.362	42196.08
591.721	42031.56
592.08	42214.84
592.44	42306.59
592.799	42461.61
593.158	42318.79
593.517	42411.67
593.876	42347.49
594.235	42267.04
594.593	42406.7
594.952	42518.11
595.311	42273.37
595.67	42481.27
596.029	42770.75
596.387	42551.55
596.746	42567.82
597.104	42441.05
597.463	42574.15
597.822	42768.27
598.18	42504.32
598.538	42656.63
598.897	42776.63
599.255	42472.23
599.613	43057.07
599.972	42790.41
600.33	42941.37
600.688	42802.62
601.046	42867.02
601.404	42949.05
601.762	42956.74
602.12	43120.8
602.478	43316.28
602.836	43120.8
603.194	42899.56
603.552	42975.95
603.91	42875.16
604.268	43201.25
604.625	43123.96
604.983	43312.89
605.341	43130.97
605.698	43417.29
606.056	43534.58
606.413	43477.4
606.771	43624.29
607.128	43649.83
607.485	43450.96
607.843	43564.18
608.2	43600.56
608.557	43942.7
608.914	43593.11
609.272	43922.81
609.629	43958.07
609.986	44040.1
610.343	43888.24
610.7	44072.41
611.057	44026.54
611.414	43943.15
611.771	44143.15
612.127	44341.56
612.484	44362.35
612.841	44362.35
613.198	44059.08
613.554	44372.97
613.911	44438.28
614.267	44402.58
614.624	44365.29
614.98	44502.69
615.337	44847.31
615.693	44762.11
616.05	44686.64
616.406	44899.06
616.762	44704.26
617.118	44587.2
617.475	44791.94
617.831	44909.45
618.187	44919.62
618.543	44883.24
618.899	45110.13
619.255	44922.34
619.611	44974.76
619.967	45237.58
620.323	45222.44
620.678	45008.89
621.034	45059.96
621.39	45027.19
621.746	44998.94
622.101	45522.32
622.457	45219.96
622.812	45175.44
623.168	45230.35
623.523	45238.49
623.879	45463.11
624.234	45140.64
624.589	45357.8
624.945	45302.66
625.3	45209.11
625.655	45143.12
626.01	45290.69
626.365	45237.58
626.72	45286.39
627.075	45228.09
627.43	45170.46
627.785	45044.14
628.14	45130.01
628.495	45272.16
628.85	45136.79
629.205	45098.83
629.559	45265.6
629.914	44824.94
630.269	44920.53
630.623	44862.22
630.978	44821.77
631.332	44901.32
631.687	45038.04
632.041	44961.66
632.396	44884.14
632.75	44706.97
633.104	44709.01
633.459	44606.19
633.813	44595.56
634.167	44583.14
634.521	44574.1
634.875	44634.89
635.229	44371.84
635.583	44231.96
635.937	44350.37
636.291	44283.03
636.645	44412.29
636.999	44278.51
637.352	44316.25
637.706	44050.27
638.06	44263.82
638.413	44089.36
638.767	43985.19
639.121	44062.7
639.474	43753.78
639.828	43818.64
640.181	43827.45
640.534	43791.52
640.888	43783.61
641.241	43521.92
641.594	43678.53
641.947	43688.02
642.301	43640.79
642.654	43599.66
643.007	43659.09
643.36	43585.2
643.713	43569.6
644.066	43604.4
644.419	43293.68
644.771	42993.12
645.124	42526.47
645.477	42428.16
645.83	42378.67
646.182	42011.45
646.535	41940.95
646.888	42152.92
647.24	41834.51
647.593	42153.6
647.945	42141.84
648.298	41951.57
648.65	41902.75
649.002	41601.52
649.355	41741.18
649.707	41652.37
650.059	41883.55
650.411	42430.2
650.763	42361.27
651.115	42771.66
651.467	42531.44
651.819	42494.15
652.171	42498.67
652.523	42251.67
652.875	42328.28
653.227	42136.19
653.578	42508.39
653.93	42418.45
654.282	42202.63
654.633	42221.39
654.985	42266.59
655.337	42239.02
655.688	42367.37
656.039	42101.84
656.391	41813.49
656.742	41778.01
657.094	41938.01
657.445	42038.12
657.796	42018.23
658.147	41968.29
658.498	41883.32
658.849	41957.67
659.2	41794.96
659.551	41802.64
659.902	41932.36
660.253	41865.92
660.604	41821.63
660.955	41559.03
661.306	41851
661.656	41611.69
662.007	41716.32
662.358	41546.38
662.708	41630.9
663.059	41552.93
663.409	41292.37
663.76	41649.65
664.11	41355.88
664.461	41537.34
664.811	41482.88
665.161	41507.06
665.511	41339.61
665.862	41474.97
666.212	41599.49
666.562	41574.85
666.912	41466.61
667.262	41466.16
667.612	41398.13
667.962	41410.34
668.312	41306.39
668.662	41603.78
669.011	41416.21
669.361	41460.73
669.711	41387.74
670.06	41291.02
670.41	41044.02
670.76	41049.9
671.109	41185.71
671.459	41170.57
671.808	41081.76
672.157	41115.2
672.507	40956.56
672.856	41019.16
673.205	41007.41
673.554	41047.18
673.904	40786.4
674.253	41130.8
674.602	40972.61
674.951	40471.61
675.3	40282.23
675.649	40857.36
675.998	40678.38
676.346	40754.54
676.695	40858.94
677.044	40622.34
677.393	40750.92
677.741	40721.99
678.09	40635.22
678.438	40570.81
678.787	40545.28
679.135	40659.62
679.484	40429.8
679.832	40559.29
680.181	40239.97
680.529	40430.7
680.877	40169.92
681.225	40148.68
681.573	40505.95
681.922	40147.55
682.27	40001.11
682.618	40118.39
682.966	39985.97
683.314	40132.63
683.661	39858.51
684.009	39628.69
684.357	39538.97
684.705	39594.79
685.053	39608.35
685.4	39588.92
685.748	39472.08
686.095	39402.03
686.443	39263.5
686.79	39175.37
687.138	39229.6
687.485	39202.03
687.832	38980.8
688.18	39124.75
688.527	38911.19
688.874	38818.32
689.221	38654.48
689.568	38590.3
689.915	38631.43
690.262	38480.47
690.609	38411.32
690.956	38293.58
691.303	38212.68
691.65	37964.78
691.997	38142.85
692.344	37812.92
692.69	37862.86
693.037	37900.6
693.383	37701.73
693.73	37848.17
694.077	37631
694.423	37546.71
694.769	37558.91
695.116	37425.36
695.462	37393.04
695.808	37283.44
696.155	37145.82
696.501	36867.41
696.847	36795.54
697.193	36627.19
697.539	36790.57
697.885	36500.64
698.231	36365.05
698.577	36323.24
698.923	36338.15
699.269	36055.45
699.614	35819.3
699.96	35888.9
700.306	35960.76
700.651	35858.39
700.997	35908.11
701.342	35748.79
701.688	35649.81
702.033	35525.75
702.379	35333.21
702.724	35335.02
703.069	35486.88
703.415	34977.74
703.76	35050.5
704.105	34971.18
704.45	34809.61
704.795	34468.83
705.14	34604.19
705.485	34584.53
705.83	34425.66
706.175	34427.02
706.52	34301.6
706.865	34272.9
707.209	34219.11
707.554	34150.42
707.899	34302.5
708.243	33946.35
708.588	33919.24
708.932	33758.56
709.277	33703.2
709.621	33727.83
709.966	33451.9
710.31	33603.76
710.654	33368.97
710.998	33443.32
711.342	33516.99
711.687	33313.83
712.031	33189.54
712.375	33033.16
712.719	33136.66
713.063	33079.71
713.407	33103.44
713.75	32878.13
714.094	32769.21
714.438	32662.55
714.782	32905.7
715.125	32752.26
715.469	32812.82
715.812	32562.89
716.156	32369.45
716.499	32374.87
716.843	32234.53
717.186	32197.7
717.53	32213.97
717.873	32290.13
718.216	32218.71
718.559	32093.52
718.902	31916.8
719.246	31913.19
719.589	31898.5
719.932	31771.95
720.275	31740.08
720.617	31749.12
720.96	31663.48
721.303	31542.12
721.646	31573.31
721.989	31368.79
722.331	31460.32
722.674	31234.56
723.016	31288.34
723.359	31308.23
723.701	31239.76
724.044	31025.98
724.386	30926.32
724.729	31083.83
725.071	30994.79
725.413	30948.69
725.755	30941.23
726.097	30865.76
726.439	30662.15
726.782	30622.82
727.124	30712.54
727.465	30581.02
727.807	30574.92
728.149	30624.41
728.491	30482.72
728.833	30386.45
729.175	30436.61
729.516	30366.56
729.858	30254.47
730.199	30306.22
730.541	30126.11
730.882	30133.12
731.224	30268.71
731.565	30094.7
731.906	30111.2
732.248	29940.81
732.589	29731.55
732.93	29716.86
733.271	29824.43
733.612	29894.48
733.953	29843.64
734.294	29640.48
734.635	29664.21
734.976	29733.13
735.317	29483.87
735.658	29549.86
735.999	29499.01
736.339	29467.6
736.68	29568.62
737.021	29303.54
737.361	29186.03
737.702	29375.63
738.042	29200.49
738.383	29074.62
738.723	29221.73
739.063	29038.01
739.404	29180.83
739.744	28987.39
740.084	28954.85
740.424	29013.6
740.764	28865.36
741.104	28959.82
741.444	28735.64
741.784	28708.75
742.124	28766.38
742.464	28676.89
742.804	28569.32
743.143	28698.36
743.483	28585.36
743.823	28358.48
744.162	28472.15
744.502	28352.83
744.841	28315.99
745.181	28555.53
745.52	28257.24
745.86	28292.26
746.199	28068.09
746.538	28127.3
746.877	28047.07
747.216	28009.33
747.556	27907.87
747.895	27969.34
748.234	27796.68
748.573	27821.09
748.911	27719.4
749.25	27650.47
749.589	27610.47
749.928	27647.08
750.267	27639.63
750.605	27551.04
750.944	27548.33
751.283	27516.24
751.621	27511.27
751.96	27321.89
752.298	27161.22
752.636	27257.26
752.975	27162.8
753.313	27014.11
753.651	27115.8
753.989	26882.58
754.327	26931.4
754.666	26795.58
755.004	26803.49
755.342	26737.73
755.679	26773.66
756.017	26556.94
756.355	26628.81
756.693	26562.14
757.031	26542.48
757.368	26369.38
757.706	26319.21
758.044	26299.55
758.381	26342.94
758.719	26079.67
759.056	26283.5
759.394	26080.12
759.731	25866.57
760.068	25886.68
760.405	25834.7
760.743	25731.88
761.08	25698.66
761.417	25492.11
761.754	25512.45
762.091	25414.6
762.428	25411.66
762.765	25290.31
763.102	25415.5
763.438	25175.96
763.775	25005.8
764.112	24991.33
764.449	24886.03
764.785	24777.55
765.122	24604.68
765.458	24644.9
765.795	24522.87
766.131	24487.39
766.467	24398.13
766.804	24356.55
767.14	24187.51
767.476	24150.23
767.812	24145.25
768.148	24185.03
768.485	24116.78
768.821	23841.53
769.157	23726.96
769.492	23683.57
769.828	23748.43
770.164	23483.35
770.5	23479.06
770.836	23490.13
771.171	23289.91
771.507	23256.46
771.842	23086.07
772.178	23123.36
772.513	23130.37
772.849	22948.68
773.184	22857.38
773.519	22746.2
773.855	22671.4
774.19	22623.49
774.525	22619.65
774.86	22485.41
775.195	22381.91
775.53	22332.2
775.865	22128.13
776.2	22011.98
776.535	21998.19
776.87	21883.39
777.205	21804.07
777.539	21758.88
777.874	21860.8
778.209	21508.71
778.543	21597.07
778.878	21429.17
779.212	21503.52
779.547	21296.29
779.881	21333.58
780.215	21170.87
780.55	21150.31
780.884	21102.62
781.218	20916.19
781.552	20948.73
781.886	20739.69
782.22	20695.63
782.554	20721.39
782.888	20485.24
783.222	20443.43
783.556	20433.94
783.889	20292.25
784.223	20226.49
784.557	20143.55
784.89	20198.47
785.224	20118.69
785.557	19911.47
785.891	19836.67
786.224	19786.95
786.558	19927.74
786.891	19717.12
787.224	19608.65
787.557	19490.91
787.891	19488.2
788.224	19514.42
788.557	19423.35
788.89	19396.45
789.223	19287.98
789.556	19064.71
789.888	19154.65
790.221	19048.89
790.554	18919.18
790.887	18882.57
791.219	18756.92
791.552	18693.65
791.884	18629.24
792.217	18589.02
792.549	18486.42
792.882	18367.1
793.214	18275.8
793.546	18355.12
793.879	18175.69
794.211	18099.54
794.543	18206.65
794.875	18153.32
795.207	18081.01
795.539	18038.07
795.871	17935.47
796.203	17865.65
796.535	17755.37
796.867	17735.71
797.198	17752.2
797.53	17725.54
797.862	17577.74
798.193	17618.42
798.525	17375.26
798.856	17473.34
799.188	17310.41
799.519	17244.87
799.85	17215.95
800.182	17147.47
800.513	17205.32
800.844	17013.47
801.175	17123.74
801.506	17052.56
801.837	16945.22
802.168	16864.32
802.499	16812.11
802.83	16746.58
803.161	16653.02
803.491	16672.23
803.822	16695.28
804.153	16629.97
804.483	16419.36
804.814	16467.72
805.145	16385.68
805.475	16402.63
805.805	16338.91
806.136	16336.65
806.466	16330.09
806.796	16308.85
807.126	16125.8
807.457	16092.36
807.787	16113.15
808.117	15903.21
808.447	15851.01
808.777	15846.26
809.107	15769.88
809.436	15715.19
809.766	15791.58
810.096	15776.44
810.426	15628.64
810.755	15720.84
811.085	15621.41
811.414	15580.51
811.744	15405.82
812.073	15409.44
812.403	15352.04
812.732	15354.98
813.061	15210.8
813.39	15235.88
813.719	15224.13
814.049	15287.41
814.378	15150.92
814.707	15157.02
815.036	15096.91
815.365	15018.94
815.693	14870.02
816.022	15000.41
816.351	14886.29
816.68	14714.77
817.008	14934.65
817.337	14742.79
817.665	14719.74
817.994	14695.79
818.322	14743.47
818.651	14662.79
818.979	14630.93
819.307	14608.78
819.636	14575.11
819.964	14448.11
820.292	14467.54
820.62	14479.97
820.948	14359.07
821.276	14497.83
821.604	14507.99
821.932	14482.91
822.259	14472.51
822.587	14404.95
822.915	14376.02
823.243	14400.65
823.57	14372.18
823.898	14418.73
824.225	14276.36
824.553	14302.12
824.88	14320.43
825.207	14356.81
825.535	14271.84
825.862	14313.65
826.189	14367.21
826.516	14328.11
826.843	14555.45
827.17	14315.23
827.497	14361.33
827.824	14343.7
828.151	14433.42
828.478	14381.9
828.805	14418.05
829.131	14319.07
829.458	14183.48
829.785	14246.31
830.111	14258.28
830.438	14325.85
830.764	14276.36
831.09	14229.81
831.417	14272.97
831.743	14138.74
832.069	14260.09
832.395	14161.79
832.722	14249.47
833.048	14145.52
833.374	14212.86
833.7	14111.39
834.026	14169.92
834.351	14104.39
834.677	14150.26
835.003	14211.73
835.329	14123.6
835.654	14134.44
835.98	14047.67
836.306	14018.52
836.631	14021.68
836.956	14025.3
837.282	14103.26
837.607	13923.6
837.932	13947.78
838.258	13951.17
838.583	13883.38
838.908	13796.37
839.233	13840.89
839.558	13785.3
839.883	13736.04
840.208	13668.92
840.533	13773.1
840.858	13694.23
841.182	13727.45
841.507	13701.69
841.832	13607.23
842.156	13625.53
842.481	13582.59
842.805	13576.49
843.13	13444.52
843.454	13534.23
843.778	13433.9
844.103	13421.24
844.427	13420.34
844.751	13443.16
845.075	13436.16
845.399	13315.48
845.723	13188.25
846.047	13290.4
846.371	13140.8
846.695	13159.78
847.019	12987.36
847.343	12898.32
847.666	12921.14
847.99	12694.03
848.313	12776.29
848.637	12753.92
848.96	12653.81
849.284	12650.19
849.607	12608.16
849.931	12572.68
850.254	12459.01
850.577	12447.03
850.9	12291.78
851.223	12330.2
851.546	12259.47
851.869	12221.73
852.192	12203.87
852.515	12045.69
852.838	12002.75
853.161	11998
853.483	12003.88
853.806	11948.97
854.129	11951.45
854.451	11901.28
854.774	11853.6
855.096	11825.58
855.419	11741.97
855.741	11785.81
856.063	11625.36
856.385	11696.77
856.708	11635.08
857.03	11529.32
857.352	11582.42
857.674	11554.17
857.996	11443.44
858.318	11454.97
858.64	11376.78
858.961	11313.95
859.283	11305.59
859.605	11182.43
859.926	11262.66
860.248	11111.7
860.57	11221.98
860.891	11170.23
861.212	11204.58
861.534	11151.25
861.855	11110.57
862.176	11149.21
862.498	11185.82
862.819	11134.98
863.14	11084.81
863.461	11062.66
863.782	10992.38
864.103	10939.05
864.424	10955.09
864.745	10862.89
865.065	10912.61
865.386	10846.17
865.707	10852.72
866.027	10932.27
866.348	10828.77
866.668	10807.75
866.989	10800.75
867.309	10755.78
867.63	10771.37
867.95	10691.37
868.27	10619.51
868.59	10685.5
868.91	10657.7
869.23	10666.51
869.55	10569.34
869.87	10722.33
870.19	10624.48
870.51	10572.96
870.83	10549
871.15	10469.91
871.469	10498.61
871.789	10527.76
872.109	10473.52
872.428	10435.33
872.748	10355.11
873.067	10449.12
873.386	10372.74
873.706	10386.75
874.025	10384.71
874.344	10392.62
874.663	10310.82
874.982	10381.1
875.301	10281.89
875.62	10302.46
875.939	10191.5
876.258	10209.8
876.577	10173.64
876.896	10215.68
877.214	10151.05
877.533	10158.28
877.852	10103.36
878.17	10185.4
878.489	10176.58
878.807	10124.38
879.125	10083.25
879.444	10052.52
879.762	10008.68
880.08	10069.69
880.398	10018.85
880.716	10018.62
881.034	9960.54
881.352	9946.76
881.67	9964.38
881.988	9936.36
882.306	9875.8
882.624	9885.97
882.941	9842.13
883.259	9760.32
883.577	9791.28
883.894	9776.14
884.212	9780.43
884.529	9749.7
884.846	9760.32
885.164	9713.54
885.481	9698.4
885.798	9714.67
886.115	9605.98
886.432	9565.98
886.75	9501.57
887.067	9559.42
887.383	9542.02
887.7	9516.94
888.017	9501.35
888.334	9547.9
888.651	9432.87
888.967	9422.25
889.284	9373.21
889.6	9334.12
889.917	9278.08
890.233	9289.37
890.55	9276.72
890.866	9276.49
891.182	9199.89
891.498	9140.9
891.815	9163.5
892.131	9123.28
892.447	9129.38
892.763	9086.22
893.079	9078.98
893.395	9025.2
893.71	9021.36
894.026	9073.11
894.342	8932.55
894.657	8928.48
894.973	8909.72
895.289	8925.77
895.604	8883.74
895.92	8750.41
896.235	8758.77
896.55	8710.86
896.865	8740.46
897.181	8698.66
897.496	8719.67
897.811	8630.86
898.126	8600.8
898.441	8622.73
898.756	8555.16
899.071	8510.64
899.386	8473.58
899.7	8470.19
900.015	8445.33
900.33	8359.68
900.644	8418.89
900.959	8403.75
901.273	8272.68
901.588	8281.49
901.902	8234.94
902.216	8217.09
902.531	8217.99
902.845	8159.46
903.159	8071.33
903.473	8100.71
903.787	8033.59
904.101	7996.53
904.415	7960.6
904.729	8019.35
905.042	7950.2
905.356	7898.22
905.67	7871.11
905.984	7947.94
906.297	7867.72
906.611	7751.56
906.924	7823.65
907.237	7799.47
907.551	7730.55
907.864	7662.98
908.177	7706.59
908.491	7653.03
908.804	7649.19
909.117	7604.67
909.43	7500.04
909.743	7492.13
910.056	7491.91
910.368	7402.87
910.681	7391.57
910.994	7357.67
911.307	7350.67
911.619	7283.1
911.932	7314.74
912.244	7205.14
912.557	7170.79
912.869	7178.47
913.181	7126.72
913.494	7197.23
913.806	7118.81
914.118	7117.45
914.43	7011.47
914.742	7062.54
915.054	6941.41
915.366	6973.05
915.678	6981.19
915.99	6890.79
916.302	6888.53
916.613	6861.42
916.925	6778.71
917.236	6836.33
917.548	6758.82
917.859	6766.73
918.171	6736.67
918.482	6722.89
918.794	6635.21
919.105	6628.88
919.416	6550.92
919.727	6586.62
920.038	6594.76
920.349	6502.1
920.66	6437.7
920.971	6455.1
921.282	6442.67
921.593	6399.96
921.903	6392.28
922.214	6349.11
922.525	6321.54
922.835	6277.25
923.146	6280.87
923.456	6226.63
923.767	6189.57
924.077	6211.94
924.387	6180.98
924.697	6141.43
925.008	6099.85
925.318	6082.68
925.628	6074.77
925.938	6027.54
926.248	6004.94
926.558	5960.2
926.867	6015.79
927.177	5933.3
927.487	5916.81
927.796	5868.22
928.106	5871.16
928.416	5841.78
928.725	5778.28
929.034	5764.72
929.344	5736.47
929.653	5708.45
929.962	5674.78
930.271	5676.14
930.581	5642.24
930.89	5568.34
931.199	5550.49
931.508	5538.96
931.817	5592.97
932.125	5556.59
932.434	5516.37
932.743	5471.4
933.051	5445.63
933.36	5462.13
933.669	5372.42
933.977	5368.57
934.286	5356.6
934.594	5395.24
934.902	5310.27
935.21	5240.44
935.519	5254.45
935.827	5261.46
936.135	5216.49
936.443	5231.18
936.751	5130.16
937.059	5146.66
937.367	5134.91
937.674	5100.56
937.982	5149.6
938.29	5082.93
938.597	5085.19
938.905	5078.41
939.213	5050.62
939.52	5042.48
939.827	5035.02
940.135	4967.45
940.442	4917.74
940.749	4882.71
941.056	4889.49
941.363	4875.48
941.67	4873.9
941.977	4850.85
942.284	4737.18
942.591	4778.08
942.898	4753.22
943.205	4763.39
943.511	4738.53
943.818	4701.02
944.125	4651.08
944.431	4689.72
944.738	4666.67
945.044	4615.82
945.35	4532.66
945.657	4551.42
945.963	4531.99
946.269	4628.25
946.575	4498.31
946.881	4468.03
947.187	4507.35
947.493	4452.67
947.799	4449.73
948.105	4424.87
948.41	4393.23
948.716	4390.97
949.022	4377.64
949.327	4379.9
949.633	4319.79
949.938	4297.64
950.244	4301.48
950.549	4253.57
950.854	4338.09
951.16	4219.45
951.465	4174.25
951.77	4215.38
952.075	4197.53
952.38	4181.94
952.685	4161.37
952.99	4114.82
953.294	4107.14
953.599	4108.04
953.904	4048.38
954.209	4033.24
954.513	4035.28
954.818	4018.1
955.122	3964.77
955.426	3950.08
955.731	3948.95
956.035	3943.53
956.339	3962.96
956.643	3917.54
956.948	3873.47
957.252	3837.31
957.556	3889.74
957.86	3852.23
958.163	3834.6
958.467	3887.48
958.771	3809.29
959.075	3774.72
959.378	3768.16
959.682	3743.98
959.985	3751.89
960.289	3711.44
960.592	3702.85
960.896	3696.3
961.199	3657.21
961.502	3651.78
961.805	3640.26
962.108	3579.69
962.411	3555.97
962.714	3566.36
963.017	3511.9
963.32	3567.04
963.623	3530.2
963.926	3527.49
964.228	3533.14
964.531	3503.54
964.833	3497.21
965.136	3455.63
965.438	3459.7
965.741	3454.05
966.043	3439.81
966.345	3441.84
966.648	3418.34
966.95	3389.42
967.252	3386.03
967.554	3354.84
967.856	3344.9
968.158	3306.93
968.46	3326.37
968.761	3257.89
969.063	3284.79
969.365	3246.14
969.666	3261.74
969.968	3267.39
970.269	3209.31
970.571	3241.17
970.872	3204.34
971.174	3187.16
971.475	3198.46
971.776	3154.39
972.077	3166.82
972.378	3145.36
972.679	3098.58
972.98	3101.51
973.281	3096.77
973.582	3037.34
973.883	3061.29
974.183	3070.33
974.484	3002.99
974.785	3012.25
975.085	2996.43
975.386	3024.68
975.686	2952.14
975.986	2954.63
976.287	2959.15
976.587	2961.41
976.887	2932.48
977.187	2893.61
977.487	2881.86
977.787	2887.96
978.087	2836.66
978.387	2881.86
978.687	2859.49
978.987	2829.43
979.286	2816.78
979.586	2808.19
979.885	2736.78
980.185	2783.33
980.484	2752.82
980.784	2743.11
981.083	2744.24
981.382	2757.12
981.682	2746.72
981.981	2762.31
982.28	2718.93
982.579	2698.36
982.878	2676.89
983.177	2668.98
983.475	2655.65
983.774	2666.95
984.073	2657.91
984.372	2602.09
984.67	2623.56
984.969	2595.09
985.267	2591.02
985.566	2581.08
985.864	2545.37
986.162	2538.82
986.461	2528.2
986.759	2517.8
987.057	2527.52
987.355	2496.11
987.653	2497.24
987.951	2489.55
988.249	2468.08
988.547	2500.63
988.844	2463.79
989.142	2456.33
989.44	2438.26
989.737	2398.26
990.035	2372.95
990.332	2397.13
990.63	2376.11
990.927	2390.12
991.224	2365.04
991.521	2338.37
991.819	2334.08
992.116	2316.22
992.413	2327.07
992.71	2320.52
993.006	2278.26
993.303	2310.35
993.6	2261.99
993.897	2276.9
994.193	2259.05
994.49	2249.33
994.787	2239.39
995.083	2196.23
995.379	2199.62
995.676	2196.91
995.972	2175.21
996.268	2190.13
996.565	2137.92
996.861	2169.79
997.157	2114.2
997.453	2114.2
997.749	2116.91
998.044	2136.12
998.34	2082.11
998.636	2049.11
998.932	2095.21
999.227	2065.84
999.523	2057.7
999.818	2071.26
1000.114	2043.01
1000.409	2024.25
1000.704	2005.05
1001	2003.01
1001.295	1982.22
1001.59	1986.74
1001.885	1972.73
1002.18	1977.7
1002.475	1954.88
1002.77	1942.45
1003.065	1941.32
1003.359	1951.04
1003.654	1904.94
1003.949	1927.31
1004.243	1914.88
1004.538	1908.78
1004.832	1868.78
1005.127	1873.3
1005.421	1841.89
1005.715	1832.17
1006.009	1827.65
1006.304	1839.85
1006.598	1799.85
1006.892	1801.89
1007.186	1781.32
1007.48	1799.85
1007.773	1767.54
1008.067	1774.54
1008.361	1729.12
1008.655	1721.44
1008.948	1744.71
1009.242	1743.58
1009.535	1721.66
1009.829	1708.56
1010.122	1692.51
1010.415	1674.89
1010.708	1678.95
1011.001	1679.63
1011.295	1672.4
1011.588	1642.34
1011.881	1625.17
1012.173	1604.83
1012.466	1625.62
1012.759	1585.62
1013.052	1630.82
1013.344	1601.21
1013.637	1601.44
1013.93	1589.01
1014.222	1551.5
1014.514	1559.63
1014.807	1555.34
1015.099	1522.57
1015.391	1528.9
1015.683	1514.89
1015.976	1520.54
1016.268	1504.95
1016.56	1496.81
1016.851	1491.16
1017.143	1466.76
1017.435	1479.41
1017.727	1444.61
1018.018	1449.81
1018.31	1412.07
1018.602	1413.88
1018.893	1420.88
1019.185	1428.79
1019.476	1404.84
1019.767	1396.02
1020.058	1390.15
1020.35	1401.67
1020.641	1365.29
1020.932	1349.24
1021.223	1378.62
1021.514	1345.85
1021.804	1315.12
1022.095	1332.07
1022.386	1319.41
1022.677	1319.19
1022.967	1270.83
1023.258	1300.21
1023.548	1285.52
1023.839	1260.21
1024.129	1264.5
1024.419	1282.81
1024.709	1251.39
1025	1251.39
1025.29	1207.1
1025.58	1215.69
1025.87	1212.52
1026.16	1191.73
1026.449	1225.41
1026.739	1194.9
1027.029	1183.6
1027.319	1192.86
1027.608	1191.28
1027.898	1166.88
1028.187	1166.2
1028.477	1121.23
1028.766	1141.79
1029.055	1134.79
1029.344	1121.91
1029.634	1132.75
1029.923	1117.84
1030.212	1123.26
1030.501	1123.49
1030.79	1109.93
1031.078	1063.6
1031.367	1062.02
1031.656	1055.47
1031.945	1076.03
1032.233	1056.6
1032.522	1053.43
1032.81	1045.98
1033.099	1052.53
1033.387	1008.24
1033.675	1017.28
1033.963	1010.5
1034.251	1024.96
1034.54	1002.81
1034.828	1002.81
1035.116	987.22
1035.403	970.95
1035.691	963.72
1035.979	966.2
1036.267	954.68
1036.554	968.01
1036.842	945.19
1037.129	956.94
1037.417	919.65
1037.704	925.98
1037.992	906.32
1038.279	938.86
1038.566	913.32
1038.853	913.32
1039.14	913.32
