Data from plate_ceramic_FLMS001491_030.txt Node
Date: Tue Feb 07 11:16:32 GMT 2017
User: dcchb
Spectrometer: FLMS00149
Trigger mode: 0
Integration Time (sec): 2.000000E-2
Scans to average: 10
Electric dark correction enabled: true
Nonlinearity correction enabled: false
Boxcar width: 0
XAxis mode: Wavelengths
Number of Pixels in Spectrum: 2048
>>>>>Begin Spectral Data<<<<<
341.393	-5.76
341.776	-5.76
342.16	-5.76
342.543	-62.26
342.927	-65.65
343.31	-69.49
343.693	-64.29
344.077	-68.59
344.46	-73.56
344.843	-42.37
345.226	-51.64
345.61	-28.59
345.993	-14.35
346.376	-8.7
346.759	17.97
347.142	17.51
347.525	61.13
347.908	56.16
348.291	80.11
348.674	93.22
349.057	95.48
349.44	140.45
349.823	142.93
350.206	173.22
350.588	209.6
350.971	211.18
351.354	219.77
351.737	247.79
352.119	251.63
352.502	279.65
352.884	282.59
353.267	268.81
353.65	296.38
354.032	317.17
354.414	309.71
354.797	329.6
355.179	330.95
355.562	323.95
355.944	328.92
356.326	349.71
356.709	352.87
357.091	320.1
357.473	353.1
357.855	341.12
358.238	358.07
358.62	349.48
359.002	358.07
359.384	346.32
359.766	353.1
360.148	364.17
360.53	355.13
360.912	343.38
361.294	350.84
361.676	330.05
362.057	358.07
362.439	351.06
362.821	328.92
363.203	328.01
363.584	326.66
363.966	355.13
364.348	343.38
364.729	341.57
365.111	353.1
365.493	344.28
365.874	336.15
366.256	326.88
366.637	338.64
367.019	352.19
367.4	356.04
367.781	336.83
368.163	358.07
368.544	341.57
368.925	351.52
369.306	328.92
369.688	338.41
370.069	340.22
370.45	348.8
370.831	334.79
371.212	340.67
371.593	361.01
371.974	367.56
372.355	347.22
372.736	349.03
373.117	356.71
373.498	367.33
373.879	351.74
374.26	362.59
374.641	369.82
375.021	360.1
375.402	351.52
375.783	378.18
376.163	357.17
376.544	380.67
376.925	380.67
377.305	362.36
377.686	397.62
378.066	382.02
378.447	401.91
378.827	400.1
379.208	383.83
379.588	381.12
379.968	369.37
380.349	403.49
380.729	387.22
381.109	398.52
381.489	391.52
381.87	396.71
382.25	391.06
382.63	405.07
383.01	399.42
383.39	421.57
383.77	390.39
384.15	400.33
384.53	408.01
384.91	422.02
385.29	433.32
385.67	397.16
386.049	441.01
386.429	437.16
386.809	435.13
387.189	435.58
387.568	430.84
387.948	431.29
388.328	422.7
388.707	459.08
389.087	437.39
389.466	464.96
389.846	471.74
390.225	452.98
390.605	455.92
390.984	490.04
391.363	470.61
391.743	501.57
392.122	486.2
392.501	498.18
392.881	505.86
393.26	488.69
393.639	479.2
394.018	524.84
394.397	488.24
394.776	498.86
395.155	499.99
395.534	518.52
395.913	523.49
396.292	559.42
396.671	537.73
397.05	525.97
397.429	549.48
397.808	557.16
398.186	554.67
398.565	540.44
398.944	557.84
399.323	570.27
399.701	571.85
400.08	541.12
400.458	581.11
400.837	560.55
401.215	590.61
401.594	586.54
401.972	599.42
402.351	623.37
402.729	605.29
403.107	591.51
403.486	620.66
403.864	593.54
404.242	627.67
404.62	619.08
404.999	631.73
405.377	642.13
405.755	669.47
406.133	655.46
406.511	644.84
406.889	664.95
407.267	679.64
407.645	694.56
408.023	713.09
408.401	693.88
408.779	710.6
409.156	708.34
409.534	730.72
409.912	728.68
410.29	744.95
410.667	769.58
411.045	758.74
411.422	756.48
411.8	804.61
412.178	773.88
412.555	791.96
412.933	783.14
413.31	842.8
413.687	826.76
414.065	819.75
414.442	850.94
414.819	850.26
415.197	836.7
415.574	847.32
415.951	866.98
416.328	873.54
416.705	894.78
417.082	869.92
417.46	923.7
417.837	924.61
418.214	930.71
418.591	919.86
418.967	917.15
419.344	932.29
419.721	961.22
420.098	985.62
420.475	980.65
420.852	991.05
421.228	982.46
421.605	1005.51
421.982	1029.24
422.358	1022.01
422.735	1028.33
423.111	1008.9
423.488	1058.84
423.864	1057.71
424.241	1074.89
424.617	1084.6
424.994	1097.49
425.37	1092.74
425.746	1139.07
426.123	1104.72
426.499	1141.1
426.875	1143.81
427.251	1159.18
427.627	1173.64
428.003	1204.38
428.379	1215.22
428.756	1243.92
429.132	1238.05
429.507	1284.6
429.883	1261.55
430.259	1300.64
430.635	1310.14
431.011	1312.85
431.387	1334.32
431.763	1343.58
432.138	1359.63
432.514	1401.66
432.89	1406.18
433.265	1417.02
433.641	1443.92
434.016	1462.9
434.392	1486.18
434.767	1473.97
435.143	1472.39
435.518	1510.81
435.894	1534.54
436.269	1561.65
436.644	1567.98
437.02	1559.17
437.395	1576.79
437.77	1592.16
438.145	1618.15
438.52	1641.43
438.895	1650.47
439.271	1642.33
439.646	1701.09
440.021	1711.71
440.395	1698.37
440.77	1692.72
441.145	1728.2
441.52	1785.38
441.895	1766.62
442.27	1796
442.645	1764.13
443.019	1790.57
443.394	1816.56
443.769	1778.82
444.143	1807.07
444.518	1847.97
444.892	1847.07
445.267	1842.55
445.641	1864.24
446.016	1907.63
446.39	1904.92
446.764	1923.23
447.139	1948.54
447.513	1917.58
447.887	1977.01
448.262	1940.17
448.636	1974.3
449.01	2026.05
449.384	2036.9
449.758	2041.42
450.132	2054.07
450.506	2064.69
450.88	2075.99
451.254	2091.81
451.628	2126.38
452.002	2134.07
452.376	2183.78
452.75	2180.17
453.123	2214.29
453.497	2233.05
453.871	2284.35
454.244	2259.04
454.618	2296.1
454.992	2327.06
455.365	2325.7
455.739	2424.46
456.112	2428.07
456.486	2439.6
456.859	2494.28
457.232	2533.61
457.606	2524.34
457.979	2535.87
458.352	2603.89
458.725	2577.9
459.099	2644.34
459.472	2702.19
459.845	2717.1
460.218	2732.47
460.591	2797.1
460.964	2739.48
461.337	2869.87
461.71	2888.62
462.083	2931.79
462.456	2927.95
462.829	2971.11
463.201	3000.94
463.574	2977.44
463.947	3059.47
464.32	3124.78
464.692	3163.42
465.065	3168.62
465.438	3236.41
465.81	3298.33
466.183	3322.96
466.555	3384.2
466.928	3400.02
467.3	3426.01
467.672	3429.85
468.045	3536.74
468.417	3555.27
468.789	3564.31
469.161	3643.63
469.534	3678.66
469.906	3744.42
470.278	3730.41
470.65	3830.75
471.022	3897.64
471.394	3981.03
471.766	4021.93
472.138	4083.4
472.51	4133.34
472.882	4219.44
473.253	4288.14
473.625	4321.36
473.997	4454.91
474.369	4447.68
474.74	4465.08
475.112	4601.12
475.484	4650.39
475.855	4734.9
476.227	4806.99
476.598	4893.09
476.97	4931.28
477.341	5066.87
477.713	5152.52
478.084	5222.8
478.455	5335.57
478.827	5385.51
479.198	5474.32
479.569	5471.38
479.94	5690.36
480.311	5695.78
480.682	5867.53
481.053	6007.19
481.424	6051.03
481.795	6139.16
482.166	6211.48
482.537	6319.95
482.908	6462.77
483.279	6486.04
483.65	6590
484.021	6763.32
484.391	6870.21
484.762	6949.99
485.133	6919.48
485.503	7082.86
485.874	7261.84
486.244	7333.71
486.615	7417.09
486.985	7540.93
487.356	7629.52
487.726	7737.54
488.097	7898.44
488.467	7919.9
488.837	8114.02
489.207	8241.25
489.578	8300.46
489.948	8388.14
490.318	8596.95
490.688	8514.24
491.058	8669.72
491.428	8817.28
491.798	8886.88
492.168	9080.55
492.538	9071.06
492.908	9206.42
493.278	9297.72
493.648	9332.97
494.017	9450.71
494.387	9612.29
494.757	9640.76
495.126	9738.84
495.496	9782.23
495.866	9908.55
496.235	9974.54
496.605	10135.21
496.974	10210.01
497.344	10231.93
497.713	10345.15
498.082	10417.69
498.452	10470.8
498.821	10630.34
499.19	10633.51
499.559	10761.64
499.928	10822.65
500.298	10962.99
500.667	10980.39
501.036	10997.79
501.405	11094.28
501.774	11125.02
502.143	11297.22
502.512	11325.92
502.88	11438
503.249	11473.48
503.618	11548.28
503.987	11639.35
504.356	11686.36
504.724	11842.51
505.093	11868.28
505.462	11899.24
505.83	12018.1
506.199	12147.36
506.567	12239.57
506.936	12307.13
507.304	12432.55
507.672	12509.39
508.041	12559.56
508.409	12695.82
508.777	12810.17
509.145	12913.9
509.514	12967.23
509.882	13050.62
510.25	13105.53
510.618	13176.94
510.986	13264.62
511.354	13373.32
511.722	13527.44
512.09	13582.81
512.458	13620.09
512.826	13759.3
513.193	13928.56
513.561	13880.88
513.929	14034.32
514.297	14053.75
514.664	14267.76
515.032	14317.7
515.4	14446.29
515.767	14575.1
516.135	14616
516.502	14651.25
516.869	14810.35
517.237	14883.79
517.604	14825.26
517.972	15084.91
518.339	15233.16
518.706	15301.41
519.073	15387.96
519.44	15483.32
519.808	15713.82
520.175	15703.2
520.542	15852.8
520.909	15992.46
521.276	16015.51
521.643	16207.14
522.009	16324.43
522.376	16480.58
522.743	16572.78
523.11	16783.85
523.477	16868.6
523.843	17013
524.21	17177.51
524.577	17302.48
524.943	17371.18
525.31	17495.92
525.676	17577.5
526.043	17862.02
526.409	17897.95
526.776	18060.43
527.142	18231.27
527.508	18231.27
527.874	18433.3
528.241	18587.42
528.607	18665.16
528.973	18829.67
529.339	18755.33
529.705	18982.66
530.071	19113.51
530.437	19259.27
530.803	19410.68
531.169	19579.49
531.535	19512.59
531.901	19587.39
532.267	19767.73
532.632	19925.92
532.998	19963.66
533.364	20035.52
533.73	20132.69
534.095	20406.81
534.461	20299.92
534.826	20539.46
535.192	20575.39
535.557	20719.34
535.923	20704.2
536.288	20994.82
536.653	20997.08
537.019	20872.33
537.384	21171.31
537.749	21240.46
538.114	21256.96
538.479	21226.67
538.845	21407.46
539.21	21416.95
539.575	21583.5
539.94	21701.69
540.305	21718.19
540.67	21844.74
541.034	21924.28
541.399	21967.22
541.764	22081.11
542.129	22079.31
542.494	22222.81
542.858	22389.13
543.223	22366.08
543.587	22442.01
543.952	22354.1
544.316	22637.71
544.681	22639.74
545.045	22782.34
545.41	22829.57
545.774	22993.63
546.138	23033.18
546.503	23121.09
546.867	23062.33
547.231	23330.12
547.595	23360.18
547.959	23341.42
548.324	23503
548.688	23500.51
549.052	23519.27
549.416	23738.25
549.779	23764.01
550.143	23811.01
550.507	24139.37
550.871	24152.02
551.235	24123.09
551.599	24403.54
551.962	24323.32
552.326	24491.67
552.689	24607.6
553.053	24438.11
553.417	24647.37
553.78	24997.42
554.143	24902.06
554.507	24960.36
554.87	25155.61
555.234	25448.94
555.597	25315.15
555.96	25387.24
556.323	25621.81
556.686	25674.24
557.05	25861.35
557.413	25864.97
557.776	25967.34
558.139	26085.08
558.502	26317.84
558.865	26354.9
559.228	26494.56
559.59	26567.78
559.953	26514.67
560.316	26862.91
560.679	26838.96
561.041	26993.75
561.404	27243.46
561.767	27329.34
562.129	27394.42
562.492	27728.88
562.854	27561.87
563.217	27711.47
563.579	27719.16
563.941	28080.05
564.304	28312.81
564.666	28275.3
565.028	28328.41
565.39	28523.66
565.753	28664.9
566.115	28665.57
566.477	28765.01
566.839	29022.4
567.201	29136.07
567.563	29196.63
567.925	29464.87
568.287	29462.84
568.648	29461.49
569.01	29691.99
569.372	29882.72
569.734	29786
570.095	30064.18
570.457	30185.99
570.819	30263.5
571.18	30279.77
571.542	30510.27
571.903	30415.81
572.265	30713.66
572.626	30624.17
572.987	30814.44
573.349	30897.61
573.71	30959.3
574.071	30924.5
574.432	31168.56
574.794	31354.77
575.155	31402.68
575.516	31333.53
575.877	31455.11
576.238	31497.14
576.599	31638.15
576.96	31752.27
577.32	31652.61
577.681	31856.45
578.042	31891.48
578.403	31992.49
578.763	32080.85
579.124	32027.75
579.485	32259.38
579.845	32255.54
580.206	32159.72
580.566	32295.76
580.927	32447.17
581.287	32457.56
581.648	32297.34
582.008	32513.38
582.368	32457.34
582.728	32422.31
583.089	32433.61
583.449	32325.59
583.809	32548.41
584.169	32567.39
584.529	32580.5
584.889	32718.57
585.249	32558.35
585.609	32668.63
585.969	32695.3
586.329	32676.77
586.688	32842.41
587.048	32708.63
587.408	32595.19
587.768	32708.63
588.127	32696.65
588.487	32642.19
588.846	32853.49
589.206	32654.17
589.565	32748.4
589.925	32780.04
590.284	32744.34
590.643	32812.58
591.003	32887.16
591.362	32922.41
591.721	32966.93
592.08	32933.03
592.44	33066.81
592.799	32993.82
593.158	32909.53
593.517	33074.5
593.876	32980.71
594.235	33041.96
594.593	32980.71
594.952	33048.96
595.311	32999.7
595.67	32980.04
596.029	33276.3
596.387	33239.46
596.746	33262.29
597.104	33137.77
597.463	33237.21
597.822	33232.91
598.18	33191.78
598.538	33229.52
598.897	33430.65
599.255	33217.32
599.613	33552.9
599.972	33448.5
600.33	33479.68
600.688	33393.81
601.046	33516.07
601.404	33692.33
601.762	33593.81
602.12	33808.94
602.478	33693.01
602.836	33756.51
603.194	33590.87
603.552	33680.81
603.91	33602.85
604.268	33709.28
604.625	33660.47
604.983	33721.49
605.341	33608.27
605.698	34017.75
606.056	33972.78
606.413	33952.21
606.771	34048.26
607.128	34134.13
607.485	33921.71
607.843	34056.39
608.2	34253.9
608.557	34324.18
608.914	34254.35
609.272	34292.32
609.629	34391.3
609.986	34506.32
610.343	34388.59
610.7	34577.28
611.057	34558.53
611.414	34466.55
611.771	34403.73
612.127	34603.04
612.484	34609.82
612.841	34874.9
613.198	34672.87
613.554	34811.18
613.911	34794.23
614.267	34978.63
614.624	34779.99
614.98	34807.33
615.337	35030.38
615.693	34997.16
616.05	34967.78
616.406	35156.48
616.762	35133.2
617.118	35026.99
617.475	34930.95
617.831	35134.78
618.187	35212.29
618.543	35216.59
618.899	35469.69
619.255	35351.73
619.611	35402.57
619.967	35461.1
620.323	35491.16
620.678	35372.97
621.034	35280.32
621.39	35339.07
621.746	35277.15
622.101	35539.74
622.457	35246.64
622.812	35369.13
623.168	35479.63
623.523	35568.67
623.879	35404.83
624.234	35257.94
624.589	35525.05
624.945	35408.9
625.3	35489.35
625.655	35459.75
626.01	35392.18
626.365	35581.55
626.72	35501.55
627.075	35533.42
627.43	35459.29
627.785	35324.38
628.14	35437.6
628.495	35480.99
628.85	35203.71
629.205	35277.15
629.559	35368.67
629.914	35139.98
630.269	35301.11
630.623	35151.96
630.978	35196.02
631.332	35285.74
631.687	35252.07
632.041	35107.21
632.396	35048.91
632.75	35079.87
633.104	35051.39
633.459	34869.93
633.813	34858.41
634.167	34866.09
634.521	34924.62
634.875	34847.78
635.229	34939.53
635.583	34725.08
635.937	34852.08
636.291	34618.86
636.645	34616.6
636.999	34644.17
637.352	34881.23
637.706	34331.41
638.06	34527.57
638.413	34535.93
638.767	34360.79
639.121	34453.44
639.474	34190.17
639.828	34455.93
640.181	34262.26
640.534	34309.27
640.888	34183.39
641.241	34111.76
641.594	34189.5
641.947	34170.51
642.301	33879.45
642.654	34165.32
643.007	33872.89
643.36	33862.05
643.713	33847.13
644.066	33924.87
644.419	33770.52
644.771	33530.08
645.124	33206.25
645.477	33114.27
645.83	32864.79
646.182	32838.57
646.535	32817.78
646.888	32733.72
647.24	32717.9
647.593	32912.47
647.945	32809.19
648.298	32573.95
648.65	32526.26
649.002	32440.84
649.355	32614.4
649.707	32560.39
650.059	32647.39
650.411	32928.29
650.763	32854.16
651.115	33292.12
651.467	33247.15
651.819	33221.39
652.171	33062.07
652.523	32957.66
652.875	32977.32
653.227	32878.8
653.578	33240.82
653.93	32931.45
654.282	32785.69
654.633	32823.66
654.985	32925.35
655.337	32786.37
655.688	32821.85
656.039	32945.46
656.391	32582.08
656.742	32633.38
657.094	32733.04
657.445	32840.61
657.796	32784.79
658.147	32611.01
658.498	32545.7
658.849	32702.3
659.2	32642.19
659.551	32581.63
659.902	32741.4
660.253	32566.26
660.604	32619.37
660.955	32479.03
661.306	32522.87
661.656	32437.9
662.007	32471.12
662.358	32334.18
662.708	32284.24
663.059	32384.57
663.409	32101.42
663.76	32315.42
664.11	32347.29
664.461	32378.02
664.811	32377.57
665.161	32288.98
665.511	32207.18
665.862	32187.29
666.212	32272.48
666.562	32352.48
666.912	32233.39
667.262	32140.96
667.612	32091.7
667.962	32139.38
668.312	32191.58
668.662	32210.57
669.011	32052.6
669.361	32049.21
669.711	32009.44
670.06	31945.71
670.41	31993.85
670.76	31955.2
671.109	32013.73
671.459	32075.65
671.808	31864.36
672.157	31961.76
672.507	31698.94
672.856	31712.27
673.205	31882.66
673.554	31968.09
673.904	31812.84
674.253	31913.62
674.602	31898.48
674.951	31466.86
675.3	31231.83
675.649	31800.41
675.998	31700.07
676.346	31648.09
676.695	31872.72
677.044	31580.75
677.393	31503.92
677.741	31599.06
678.09	31623.91
678.438	31480.42
678.787	31522.22
679.135	31519.28
679.484	31385.95
679.832	31396.35
680.181	31193.64
680.529	31378.95
680.877	31244.04
681.225	31220.76
681.573	31353.19
681.922	31111.39
682.27	30936.7
682.618	31163.36
682.966	30943.71
683.314	31122.46
683.661	30887.89
684.009	30745.52
684.357	30734.22
684.705	30629.82
685.053	30804.73
685.4	30614.68
685.748	30532.42
686.095	30497.39
686.443	30446.77
686.79	30340.33
687.138	30457.62
687.485	30391.4
687.832	30324.06
688.18	30344.85
688.527	30082.49
688.874	30099.66
689.221	29924.3
689.568	29943.51
689.915	29788.93
690.262	29855.6
690.609	29779.22
690.956	29727.69
691.303	29724.3
691.65	29553.91
691.997	29498.09
692.344	29319.12
692.69	29374.26
693.037	29423.29
693.383	29167.48
693.73	29304.65
694.077	29069.41
694.423	29179.46
694.769	29113.92
695.116	28885.91
695.462	28798
695.808	28770.2
696.155	28782.41
696.501	28480.04
696.847	28624.67
697.193	28337.22
697.539	28392.36
697.885	28152.14
698.231	28150.56
698.577	28059.26
698.923	28074.18
699.269	27984.69
699.614	27836.22
699.96	27732.94
700.306	27676
700.651	27625.83
700.997	27553.06
701.342	27538.82
701.688	27308.32
702.033	27419.73
702.379	27507.64
702.724	27274.42
703.069	27396.91
703.415	27001.66
703.76	27000.08
704.105	27111.49
704.45	26953.53
704.795	26986.07
705.14	26895.68
705.485	26687.55
705.83	26513.77
706.175	26652.52
706.52	26581.79
706.865	26457.72
707.209	26483.71
707.554	26333.88
707.899	26350.61
708.243	26251.85
708.588	26309.93
708.932	26010.5
709.277	25970.73
709.621	25984.51
709.966	25919.43
710.31	25834.91
710.654	25805.76
710.998	25708.14
711.342	25716.95
711.687	25572.1
712.031	25495.71
712.375	25465.21
712.719	25501.14
713.063	25440.12
713.407	25493.23
713.75	25368.03
714.094	25294.36
714.438	25143.86
714.782	25247.13
715.125	25047.82
715.469	25194.93
715.812	25098.21
716.156	24921.94
716.499	24969.17
716.843	24878.1
717.186	24742.51
717.53	24914.49
717.873	24926.69
718.216	24669.52
718.559	24655.96
718.902	24445.57
719.246	24456.87
719.589	24416.65
719.932	24309.98
720.275	24356.08
720.617	24350.21
720.96	24341.17
721.303	24325.12
721.646	24263.2
721.989	24137.78
722.331	24092.81
722.674	23985.7
723.016	24153.6
723.359	23968.97
723.701	23939.6
724.044	23822.09
724.386	23727.4
724.729	23814.18
725.071	23839.94
725.413	23707.29
725.755	23820.28
726.097	23555.65
726.439	23428.42
726.782	23628.64
727.124	23599.27
727.465	23466.16
727.807	23444.47
728.149	23408.76
728.491	23334.19
728.833	23381.42
729.175	23365.6
729.516	23258.26
729.858	23218.03
730.199	23245.15
730.541	23136.68
730.882	23049
731.224	23117.25
731.565	23002.22
731.906	23057.81
732.248	23101.65
732.589	22961.09
732.93	22760.42
733.271	22872.51
733.612	22792.73
733.953	22940.07
734.294	22725.39
734.635	22734.66
734.976	22780.76
735.317	22637.48
735.658	22701.21
735.999	22573.98
736.339	22486.98
736.68	22566.98
737.021	22475.45
737.361	22265.06
737.702	22439.07
738.042	22384.16
738.383	22286.53
738.723	22379.64
739.063	22298.96
739.404	22361.78
739.744	22220.77
740.084	22164.5
740.424	22209.25
740.764	22174.45
741.104	22181.9
741.444	22018.74
741.784	22058.06
742.124	21922.47
742.464	21977.16
742.804	21849.71
743.143	21772.2
743.483	21847
743.823	21672.76
744.162	21594.12
744.502	21649.26
744.841	21690.84
745.181	21738.3
745.52	21683.16
745.86	21585.76
746.199	21621.01
746.538	21494.46
746.877	21453.79
747.216	21541.92
747.556	21366.1
747.895	21503.95
748.234	21284.3
748.573	21218.31
748.911	21241.81
749.25	21179.9
749.589	21162.95
749.928	21226.67
750.267	21203.17
750.605	21019.45
750.944	21021.48
751.283	20978.32
751.621	20983.52
751.96	20827.36
752.298	20810.41
752.636	20775.61
752.975	20704.2
753.313	20615.39
753.651	20787.59
753.989	20606.8
754.327	20559.57
754.666	20404.1
755.004	20439.35
755.342	20484.55
755.679	20294.72
756.017	20273.93
756.355	20349.86
756.693	20204.33
757.031	20241.61
757.368	20055.4
757.706	20092.47
758.044	20082.52
758.381	20040.26
758.719	19955.97
759.056	19949.19
759.394	19937.89
759.731	19777.45
760.068	19751.01
760.405	19636.88
760.743	19594.85
761.08	19641.86
761.417	19484.12
761.754	19408.64
762.091	19322.32
762.428	19238.25
762.765	19158.48
763.102	19310.79
763.438	19195.54
763.775	19130.46
764.112	19077.13
764.449	19039.39
764.785	18893.4
765.122	18767.76
765.458	18760.3
765.795	18768.66
766.131	18750.81
766.467	18589.91
766.804	18545.39
767.14	18544.26
767.476	18505.16
767.812	18420.87
768.148	18386.52
768.485	18217.26
768.821	18229.24
769.157	18122.57
769.492	18011.84
769.828	18079.19
770.164	17961.45
770.5	17923.03
770.836	17815.92
771.171	17789.93
771.507	17794.9
771.842	17535.25
772.178	17589.93
772.513	17574.57
772.849	17391.97
773.184	17420.22
773.519	17423.16
773.855	17375.02
774.19	17274.24
774.525	17105.2
774.86	17175.93
775.195	17074.24
775.53	16993.11
775.865	16982.72
776.2	16780.24
776.535	16712.44
776.87	16687.36
777.205	16561.94
777.539	16544.54
777.874	16613.24
778.209	16365.56
778.543	16433.35
778.878	16294.6
779.212	16323.3
779.547	16146.36
779.881	16188.39
780.215	16052.57
780.55	16045.11
780.884	15941.84
781.218	15892.35
781.552	15942.74
781.886	15768.51
782.22	15743.65
782.554	15573.71
782.888	15549.08
783.222	15493.72
783.556	15358.13
783.889	15395.87
784.223	15333.27
784.557	15314.06
784.89	15267.73
785.224	15150.9
785.557	15133.95
785.891	15126.95
786.224	15036.1
786.558	15029.1
786.891	14928.53
787.224	14849.89
787.557	14814.19
787.891	14816.45
788.224	14740.29
788.557	14724.47
788.89	14638.6
789.223	14631.37
789.556	14531.71
789.888	14422.11
790.221	14390.47
790.554	14278.61
790.887	14187.76
791.219	14237.03
791.552	14205.84
791.884	14120.19
792.217	14160.42
792.549	14146.41
792.882	13958.39
793.214	13881.1
793.546	13932.4
793.879	13778.73
794.211	13755.68
794.543	13768.79
794.875	13733.31
795.207	13712.75
795.539	13652.41
795.871	13640.21
796.203	13525.86
796.535	13545.97
796.867	13469.36
797.198	13344.85
797.53	13356.15
797.862	13241.35
798.193	13296.26
798.525	13164.29
798.856	13271.63
799.188	13119.99
799.519	13092.42
799.85	12978.53
800.182	12963.84
800.513	12943.5
800.844	12977.62
801.175	12934.24
801.506	12877.74
801.837	12783.05
802.168	12775.14
802.499	12699.89
802.83	12643.62
803.161	12651.08
803.491	12596.17
803.822	12589.39
804.153	12536.73
804.483	12459.22
804.814	12454.47
805.145	12334.93
805.475	12373.8
805.805	12329.05
806.136	12388.94
806.466	12266.91
806.796	12254.25
807.126	12160.02
807.457	12148.72
807.787	12092.22
808.117	12046.8
808.447	12025.79
808.777	11985.56
809.107	12075.95
809.436	11913.92
809.766	12000.02
810.096	11763.19
810.426	11881.16
810.755	11854.94
811.085	11763.87
811.414	11787.37
811.744	11687.04
812.073	11635.29
812.403	11548.96
812.732	11540.6
813.061	11584.67
813.39	11541.28
813.719	11551.67
814.049	11492.47
814.378	11505.12
814.707	11491.11
815.036	11364.56
815.365	11399.81
815.693	11251.79
816.022	11282.53
816.351	11304
816.68	11187.39
817.008	11184.45
817.337	11147.39
817.665	11198.69
817.994	11121.18
818.322	11117.33
818.651	10994.4
818.979	11003.89
819.307	11032.37
819.636	10976.77
819.964	10922.76
820.292	10870.79
820.62	10967.06
820.948	10913.5
821.276	10955.31
821.604	10849.09
821.932	10873.5
822.259	10899.26
822.587	10842.77
822.915	10872.37
823.243	10877.34
823.57	10837.34
823.898	10877.34
824.225	10783.11
824.553	10817.23
824.88	10817.46
825.207	10793.05
825.535	10742.2
825.862	10811.13
826.189	10753.5
826.516	10773.16
826.843	10837.34
827.17	10852.93
827.497	10844.35
827.824	10784.24
828.151	10802.77
828.478	10806.16
828.805	10786.27
829.131	10809.09
829.458	10770
829.785	10740.62
830.111	10764.35
830.438	10786.04
830.764	10761.86
831.09	10723.9
831.417	10657.69
831.743	10678.02
832.069	10695.65
832.395	10653.39
832.722	10740.17
833.048	10694.97
833.374	10732.26
833.7	10638.25
834.026	10720.28
834.351	10672.83
834.677	10688.42
835.003	10640.51
835.329	10638.48
835.654	10584.47
835.98	10609.33
836.306	10654.75
836.631	10592.83
836.956	10613.62
837.282	10530.91
837.607	10514.86
837.932	10488.42
838.258	10407.75
838.583	10503.79
838.908	10386.51
839.233	10394.64
839.558	10431.25
839.883	10370.24
840.208	10378.37
840.533	10341.31
840.858	10297.47
841.182	10376.79
841.507	10324.14
841.832	10270.58
842.156	10230.13
842.481	10227.64
842.805	10202.33
843.13	10152.61
843.454	10195.55
843.778	10113.52
844.103	10105.38
844.427	9990.81
844.751	10009.57
845.075	10048.66
845.399	10010.92
845.723	9913.3
846.047	9988.32
846.371	9853.87
846.695	9857.25
847.019	9789.23
847.343	9807.76
847.666	9665.85
847.99	9690.25
848.313	9639.86
848.637	9630.14
848.96	9538.62
849.284	9605.96
849.607	9504.27
849.931	9449.81
850.254	9411.62
850.577	9397.83
850.9	9299.53
851.223	9289.13
851.546	9205.75
851.869	9174.11
852.192	9251.17
852.515	9168.46
852.838	9106.77
853.161	9111.06
853.483	9016.15
853.806	9025.86
854.129	9042.81
854.451	8947.22
854.774	8972.76
855.096	8827
855.419	8857.06
855.741	8893.89
856.063	8837.62
856.385	8783.61
856.708	8689.83
857.03	8748.58
857.352	8705.87
857.674	8732.31
857.996	8642.82
858.318	8569.83
858.64	8646.21
858.961	8544.75
859.283	8498.42
859.605	8495.48
859.926	8534.13
860.248	8469.95
860.57	8484.86
860.891	8394.47
861.212	8388.59
861.534	8429.04
861.855	8386.11
862.176	8366.67
862.498	8403.28
862.819	8336.84
863.14	8376.62
863.461	8259.56
863.782	8300.23
864.103	8279.22
864.424	8230.41
864.745	8323.06
865.065	8165.32
865.386	8217.75
865.707	8150.63
866.027	8205.55
866.348	8107.47
866.668	8203.97
866.989	8085.1
867.309	8012.11
867.63	8095.95
867.95	8031.54
868.27	8001.71
868.59	7964.42
868.91	7982.95
869.23	7998.32
869.55	7950.19
869.87	8046
870.19	8036.96
870.51	7940.24
870.83	7968.27
871.15	7897.53
871.469	7896.18
871.789	7888.95
872.109	7894.59
872.428	7859.34
872.748	7854.14
873.067	7793.35
873.386	7845.78
873.706	7785.22
874.025	7739.34
874.344	7801.49
874.663	7779.34
874.982	7787.25
875.301	7788.38
875.62	7711.55
875.939	7706.8
876.258	7683.75
876.577	7699.12
876.896	7665.22
877.214	7546.36
877.533	7658.22
877.852	7667.71
878.17	7570.76
878.489	7639.01
878.807	7597.43
879.125	7552.23
879.444	7556.3
879.762	7520.82
880.08	7520.82
880.398	7495.51
880.716	7546.36
881.034	7448.73
881.352	7451.67
881.67	7485.11
881.988	7408.73
882.306	7416.87
882.624	7390.2
882.941	7327.83
883.259	7376.42
883.577	7352.01
883.894	7346.81
884.212	7332.35
884.529	7253.48
884.846	7301.39
885.164	7257.32
885.481	7271.11
885.798	7280.6
886.115	7229.75
886.432	7140.72
886.75	7201.51
887.067	7139.59
887.383	7108.85
887.7	7188.4
888.017	7139.13
888.334	7105.01
888.651	7037.44
888.967	7009.87
889.284	6949.08
889.6	6986.14
889.917	6898.91
890.233	6952.47
890.55	6952.92
890.866	6914.28
891.182	6914.06
891.498	6918.8
891.815	6885.13
892.131	6835.19
892.447	6779.6
892.763	6832.93
893.079	6791.8
893.395	6825.47
893.71	6807.62
894.026	6713.38
894.342	6724.68
894.657	6728.98
894.973	6604.69
895.289	6686.26
895.604	6643.55
895.92	6597.91
896.235	6526.5
896.55	6571.92
896.865	6550.22
897.181	6490.56
897.496	6556.55
897.811	6519.72
898.126	6520.62
898.441	6439.49
898.756	6413.73
899.071	6382.09
899.386	6408.98
899.7	6293.05
900.015	6310.46
900.33	6229.78
900.644	6289.21
900.959	6260.97
901.273	6240.4
901.588	6252.15
901.902	6166.05
902.216	6178.03
902.531	6138.71
902.845	6104.81
903.159	6077.92
903.473	6083.34
903.787	6077.92
904.101	5956.79
904.415	5981.88
904.729	5966.28
905.042	5963.57
905.356	5952.95
905.67	5897.59
905.984	5900.75
906.297	5893.52
906.611	5869.34
906.924	5894.87
907.237	5815.78
907.551	5787.76
907.864	5757.48
908.177	5740.3
908.491	5757.7
908.804	5656.91
909.117	5652.85
909.43	5598.16
909.743	5611.04
910.056	5573.07
910.368	5527.88
910.681	5554.54
910.994	5525.84
911.307	5523.36
911.619	5462.12
911.932	5480.65
912.244	5465.73
912.557	5408.33
912.869	5372.18
913.181	5352.06
913.494	5376.02
913.806	5279.52
914.118	5321.55
914.43	5275.23
914.742	5266.87
915.054	5209.47
915.366	5229.13
915.678	5199.3
915.99	5172.63
916.302	5099.19
916.613	5142.35
916.925	5126.53
917.236	5128.34
917.548	5063.03
917.859	5080.43
918.171	5017.38
918.482	5040.21
918.794	4998.4
919.105	4992.75
919.416	4992.52
919.727	4942.81
920.038	4906.88
920.349	4916.82
920.66	4865.52
920.971	4858.52
921.282	4843.83
921.593	4810.38
921.903	4809.93
922.214	4770.16
922.525	4788.91
922.835	4750.95
923.146	4621.23
923.456	4686.54
923.767	4626.43
924.077	4627.11
924.387	4613.55
924.697	4584.4
925.008	4617.17
925.318	4540.33
925.628	4574.23
925.938	4518.64
926.248	4496.94
926.558	4493.55
926.867	4451.97
927.177	4446.32
927.487	4456.94
927.796	4397.74
928.106	4420.11
928.416	4397.29
928.725	4368.13
929.034	4306.89
929.344	4382.14
929.653	4262.83
929.962	4250.17
930.271	4299.43
930.581	4233.9
930.89	4239.55
931.199	4228.48
931.508	4195.26
931.817	4193.9
932.125	4183.51
932.434	4146.67
932.743	4134.69
933.051	4099.89
933.36	4110.97
933.669	4073
933.977	4048.37
934.286	4002.72
934.594	4008.14
934.902	3992.32
935.21	3978.31
935.519	3958.65
935.827	3946.9
936.135	3962.72
936.443	3907.35
936.751	3879.11
937.059	3911.87
937.367	3898.32
937.674	3854.7
937.982	3860.8
938.29	3813.57
938.597	3815.61
938.905	3812.22
939.213	3767.92
939.52	3737.87
939.827	3769.51
940.135	3717.53
940.442	3692.45
940.749	3670.52
941.056	3689.28
941.363	3658.1
941.67	3671.88
941.977	3655.16
942.284	3585.78
942.591	3607.48
942.898	3592.56
943.205	3538.78
943.511	3563.41
943.818	3537.42
944.125	3523.64
944.431	3471.66
944.738	3484.77
945.044	3483.19
945.35	3474.15
945.657	3460.14
945.963	3448.61
946.269	3430.08
946.575	3464.2
946.881	3378.33
947.187	3397.76
947.493	3376.3
947.799	3359.35
948.105	3324.32
948.41	3319.35
948.716	3301.5
949.022	3325.68
949.327	3284.32
949.633	3270.76
949.938	3283.19
950.244	3254.94
950.549	3196.87
950.854	3203.87
951.16	3182.4
951.465	3175.85
951.77	3172.68
952.075	3154.15
952.38	3157.32
952.685	3126.58
952.99	3122.52
953.294	3112.8
953.599	3084.55
953.904	3067.38
954.209	3064.21
954.513	3040.03
954.818	3019.92
955.122	3053.59
955.426	2982.18
955.731	3010.2
956.035	2973.82
956.339	2952.35
956.643	2966.81
956.948	2922.52
957.252	2922.3
957.556	2911.45
957.86	2871.68
958.163	2912.8
958.467	2855.18
958.771	2854.5
959.075	2873.71
959.378	2839.36
959.682	2804.56
959.985	2859.92
960.289	2815.41
960.592	2797.33
960.896	2793.94
961.199	2759.14
961.502	2766.14
961.805	2778.12
962.108	2723.21
962.411	2723.43
962.714	2699.93
963.017	2690.21
963.32	2696.54
963.623	2691.79
963.926	2702.19
964.228	2661.06
964.531	2662.87
964.833	2627.84
965.136	2658.35
965.438	2626.48
965.741	2600.04
966.043	2626.03
966.345	2560.72
966.648	2575.19
966.95	2536.09
967.252	2580.38
967.554	2500.84
967.856	2521.85
968.158	2499.48
968.46	2480.5
968.761	2505.13
969.063	2479.82
969.365	2460.16
969.666	2464.23
969.968	2439.6
970.269	2433.04
970.571	2427.85
970.872	2417.45
971.174	2410.9
971.475	2426.04
971.776	2338.13
972.077	2384.91
972.378	2391.24
972.679	2386.26
972.98	2349.66
973.281	2357.57
973.582	2340.39
973.883	2345.59
974.183	2297.68
974.484	2337.45
974.785	2275.76
975.085	2311.92
975.386	2273.5
975.686	2284.57
975.986	2257.23
976.287	2248.87
976.587	2244.12
976.887	2252.71
977.187	2201.86
977.487	2201.19
977.787	2198.93
978.087	2206.16
978.387	2172.49
978.687	2156.67
978.987	2161.41
979.286	2165.71
979.586	2160.06
979.885	2154.86
980.185	2097.01
980.484	2105.37
980.784	2061.3
981.083	2072.6
981.382	2081.64
981.682	2088.87
981.981	2086.16
982.28	2074.41
982.579	2023.11
982.878	2046.84
983.177	2026.95
983.475	2006.39
983.774	2011.36
984.073	1990.12
984.372	2033.51
984.67	2002.09
984.969	1989.89
985.267	1990.34
985.566	1979.72
985.864	1987.86
986.162	1969.1
986.461	1956.45
986.759	1930.91
987.057	1955.32
987.355	1901.53
987.653	1905.6
987.951	1903.11
988.249	1869.44
988.547	1888.88
988.844	1871.7
989.142	1865.6
989.44	1850.46
989.737	1851.82
990.035	1870.8
990.332	1827.64
990.63	1835.32
990.927	1831.48
991.224	1789.67
991.521	1810.91
991.819	1813.62
992.116	1812.27
992.413	1798.71
992.71	1791.7
993.006	1726.4
993.303	1745.6
993.6	1776.56
993.897	1772.04
994.193	1731.14
994.49	1711.93
994.787	1682.78
995.083	1717.13
995.379	1695.66
995.676	1691.14
995.972	1688.2
996.268	1718.03
996.565	1673.52
996.861	1676.23
997.157	1667.19
997.453	1614.99
997.749	1653.4
998.044	1614.53
998.34	1641.88
998.636	1614.08
998.932	1588.32
999.227	1586.74
999.523	1571.15
999.818	1556.46
1000.114	1579.05
1000.409	1564.37
1000.704	1557.59
1001	1565.27
1001.295	1538.38
1001.59	1549.9
1001.885	1518.27
1002.18	1526.17
1002.475	1512.39
1002.77	1504.93
1003.065	1500.64
1003.359	1506.74
1003.654	1502.67
1003.949	1496.34
1004.243	1486.85
1004.538	1456.57
1004.832	1454.76
1005.127	1483.92
1005.421	1445.05
1005.715	1422.45
1006.009	1421.54
1006.304	1439.85
1006.598	1399.85
1006.892	1399.85
1007.186	1395.1
1007.48	1391.49
1007.773	1370.25
1008.067	1391.26
1008.361	1382.68
1008.655	1326.63
1008.948	1343.81
1009.242	1351.26
1009.535	1330.47
1009.829	1332.28
1010.122	1348.33
1010.415	1312.85
1010.708	1333.86
1011.001	1302.23
1011.295	1297.25
1011.588	1293.86
1011.881	1258.16
1012.173	1260.42
1012.466	1289.12
1012.759	1262.68
1013.052	1267.88
1013.344	1250.7
1013.637	1237.14
1013.93	1253.64
1014.222	1229.69
1014.514	1236.46
1014.807	1205.28
1015.099	1211.61
1015.391	1190.59
1015.683	1195.34
1015.976	1195.79
1016.268	1152.4
1016.56	1184.94
1016.851	1167.54
1017.143	1176.35
1017.435	1182.91
1017.727	1124.83
1018.018	1146.98
1018.31	1110.82
1018.602	1127.54
1018.893	1126.19
1019.185	1125.06
1019.476	1103.59
1019.767	1098.39
1020.058	1099.97
1020.35	1084.6
1020.641	1094.55
1020.932	1084.6
1021.223	1076.24
1021.514	1067.66
1021.804	1040.31
1022.095	1073.08
1022.386	1040.99
1022.677	1045.74
1022.967	1032.4
1023.258	1031.72
1023.548	1027.88
1023.839	1021.78
1024.129	1006.41
1024.419	1006.19
1024.709	997.83
1025	992.63
1025.29	990.37
1025.58	1010.03
1025.87	981.33
1026.16	968.9
1026.449	924.61
1026.739	984.49
1027.029	975.23
1027.319	941.56
1027.608	935.46
1027.898	946.75
1028.187	933.42
1028.477	935.23
1028.766	923.48
1029.055	897.26
1029.344	920.31
1029.634	925.06
1029.923	897.49
1030.212	880.77
1030.501	886.42
1030.79	885.97
1031.078	880.99
1031.367	886.64
1031.656	879.19
1031.945	857.04
1032.233	860.2
1032.522	883.93
1032.81	851.16
1033.099	839.41
1033.387	840.77
1033.675	853.65
1033.963	853.65
1034.251	826.31
1034.54	826.31
1034.828	783.14
1035.116	809.81
1035.403	818.17
1035.691	783.82
1035.979	801.22
1036.267	782.69
1036.554	781.79
1036.842	799.41
1037.129	775.46
1037.417	782.69
1037.704	790.83
1037.992	757.61
1038.279	756.7
1038.566	767.78
1038.853	767.78
1039.14	767.78
