Data from plate_porcelain_FLMS001491_041.txt Node
Date: Tue Feb 07 11:19:22 GMT 2017
User: dcchb
Spectrometer: FLMS00149
Trigger mode: 0
Integration Time (sec): 2.000000E-2
Scans to average: 10
Electric dark correction enabled: true
Nonlinearity correction enabled: false
Boxcar width: 0
XAxis mode: Wavelengths
Number of Pixels in Spectrum: 2048
>>>>>Begin Spectral Data<<<<<
341.393	-2.06
341.776	-2.06
342.16	-2.06
342.543	-61.5
342.927	-54.49
343.31	-81.16
343.693	-54.04
344.077	-64.89
344.46	-66.24
344.843	-46.35
345.226	-55.62
345.61	-21.27
345.993	-13.59
346.376	-7.26
346.759	8.33
347.142	42
347.525	40.42
347.908	65.51
348.291	79.97
348.674	80.42
349.057	93.75
349.44	118.16
349.823	142.57
350.206	176.46
350.588	257.82
350.971	242.68
351.354	277.93
351.737	291.94
352.119	284.26
352.502	312.96
352.884	309.79
353.267	323.35
353.65	327.19
354.032	349.34
354.414	344.82
354.797	362.22
355.179	377.81
355.562	358.15
355.944	384.59
356.326	372.39
356.709	386.18
357.091	394.99
357.473	395.89
357.855	385.95
358.238	374.2
358.62	400.64
359.002	391.6
359.384	399.06
359.766	394.99
360.148	410.81
360.53	388.44
360.912	396.8
361.294	391.37
361.676	410.81
362.057	387.76
362.439	382.79
362.821	396.35
363.203	396.35
363.584	402.9
363.966	385.05
364.348	390.92
364.729	395.22
365.111	402
365.493	397.48
365.874	388.44
366.256	409.9
366.637	399.28
367.019	406.29
367.4	390.47
367.781	391.6
368.163	408.55
368.544	403.58
368.925	411.71
369.306	396.12
369.688	412.39
370.069	397.7
370.45	410.13
370.831	425.5
371.212	418.72
371.593	409.23
371.974	427.98
372.355	423.24
372.736	431.37
373.117	440.86
373.498	424.82
373.879	409.45
374.26	432.28
374.641	399.51
375.021	428.21
375.402	436.12
375.783	439.96
376.163	455.78
376.544	496.91
376.925	452.16
377.305	462.78
377.686	482.67
378.066	460.98
378.447	479.73
378.827	472.5
379.208	490.13
379.588	451.49
379.968	496.46
380.349	482.22
380.729	482.9
381.109	502.33
381.489	520.64
381.87	516.12
382.25	509.34
382.63	506.85
383.01	508.66
383.39	511.6
383.77	528.77
384.15	525.61
384.53	545.72
384.91	540.07
385.29	546.17
385.67	578.04
386.049	582.1
386.429	558.6
386.809	588.43
387.189	593.85
387.568	582.1
387.948	596.57
388.328	614.42
388.707	626.85
389.087	603.35
389.466	608.54
389.846	619.39
390.225	638.15
390.605	664.81
390.984	652.61
391.363	659.84
391.743	641.54
392.122	653.97
392.501	700.07
392.881	698.71
393.26	675.89
393.639	733.51
394.018	715.89
394.397	717.92
394.776	723.57
395.155	715.66
395.534	740.52
395.913	745.94
396.292	777.58
396.671	754.3
397.05	748.65
397.429	802.89
397.808	770.8
398.186	806.73
398.565	783
398.944	806.28
399.323	822.55
399.701	822.77
400.08	826.16
400.458	830.01
400.837	850.8
401.215	865.03
401.594	858.25
401.972	876.11
402.351	868.88
402.729	897.35
403.107	910
403.486	925.15
403.864	949.33
404.242	917.91
404.62	944.35
404.999	958.14
405.377	961.98
405.755	982.77
406.133	989.78
406.511	1005.6
406.889	1016.67
407.267	1023.22
407.645	1047.85
408.023	1041.98
408.401	1101.19
408.779	1078.81
409.156	1086.72
409.534	1098.93
409.912	1154.29
410.29	1166.27
410.667	1172.82
411.045	1186.83
411.422	1201.52
411.8	1207.62
412.178	1234.97
412.555	1250.56
412.933	1260.96
413.31	1255.08
413.687	1285.81
414.065	1316.32
414.442	1314.51
414.819	1350.9
415.197	1353.83
415.574	1373.72
415.951	1389.77
416.328	1402.65
416.705	1418.69
417.082	1453.04
417.46	1455.07
417.837	1493.04
418.214	1500.72
418.591	1505.69
418.967	1510.89
419.344	1541.4
419.721	1542.3
420.098	1565.35
420.475	1574.62
420.852	1620.72
421.228	1615.52
421.605	1633.38
421.982	1640.38
422.358	1664.11
422.735	1688.51
423.111	1696.42
423.488	1746.14
423.864	1738.46
424.241	1755.63
424.617	1784.11
424.994	1801.51
425.37	1838.79
425.746	1840.6
426.123	1879.7
426.499	1839.02
426.875	1892.13
427.251	1943.88
427.627	1977.55
428.003	2006.02
428.379	2027.04
428.756	2031.56
429.132	2068.17
429.507	2119.92
429.883	2102.29
430.259	2161.72
430.635	2179.8
431.011	2202.63
431.387	2270.87
431.763	2318.55
432.138	2311.78
432.514	2334.6
432.89	2356.75
433.265	2457.31
433.641	2438.1
434.016	2465.22
434.392	2506.8
434.767	2568.49
435.143	2554.71
435.518	2594.48
435.894	2678.32
436.269	2643.74
436.644	2686.23
437.02	2733.01
437.395	2738.88
437.77	2791.31
438.145	2816.17
438.52	2862.04
438.895	2852.78
439.271	2875.6
439.646	2948.14
440.021	2981.81
440.395	2999.21
440.77	2973.23
441.145	3005.99
441.52	3135.03
441.895	3065.43
442.27	3135.03
442.645	3123.96
443.019	3153.34
443.394	3179.78
443.769	3235.82
444.143	3218.19
444.518	3315.36
444.892	3291.41
445.267	3295.93
445.641	3291.18
446.016	3335.03
446.39	3406.66
446.764	3412.76
447.139	3406.66
447.513	3471.07
447.887	3491.86
448.262	3540.67
448.636	3530.27
449.01	3541.12
449.384	3611.63
449.758	3606.2
450.132	3679.2
450.506	3727.33
450.88	3678.07
451.254	3757.61
451.628	3840.55
452.002	3890.94
452.376	3853.43
452.75	3959.87
453.123	3969.36
453.497	4081.45
453.871	4071.73
454.244	4153.53
454.618	4185.4
454.992	4229.24
455.365	4258.84
455.739	4336.58
456.112	4410.93
456.486	4412.06
456.859	4435.34
457.232	4609.79
457.606	4585.39
457.979	4659.51
458.352	4736.12
458.725	4815.44
459.099	4828.55
459.472	4910.13
459.845	5022.21
460.218	4994.42
460.591	5039.16
460.964	5109.67
461.337	5281.19
461.71	5292.49
462.083	5390.11
462.456	5395.08
462.829	5429.21
463.201	5552.82
463.574	5562.54
463.947	5660.84
464.32	5794.4
464.692	5822.42
465.065	5856.99
465.438	5935.86
465.81	6047.72
466.183	6147.83
466.555	6269.64
466.928	6296.53
467.3	6357.54
467.672	6414.04
468.045	6603.64
468.417	6650.87
468.789	6686.8
469.161	6810.64
469.534	6854.48
469.906	7013.57
470.278	7054.7
470.65	7208.6
471.022	7300.57
471.394	7440.91
471.766	7520.68
472.138	7582.6
472.51	7803.16
472.882	7903.27
473.253	7952.53
473.625	8083.15
473.997	8321.11
474.369	8312.07
474.74	8491.5
475.112	8631.61
475.484	8802.23
475.855	8871.15
476.227	8985.95
476.598	9193.18
476.97	9323.12
477.341	9536.22
477.713	9618.7
478.084	9704.35
478.455	9983.66
478.827	10103.66
479.198	10360.6
479.569	10370.77
479.94	10783.42
480.311	10905.67
480.682	11038.33
481.053	11314.02
481.424	11488.94
481.795	11566.22
482.166	11885.31
482.537	11990.16
482.908	12239.2
483.279	12394
483.65	12593.09
484.021	12859.52
484.391	13067.42
484.762	13061.55
485.133	13299.28
485.503	13428.77
485.874	13702.66
486.244	13887.06
486.615	14142.2
486.985	14286.38
487.356	14633.49
487.726	14763.43
488.097	15010.88
488.467	15073.7
488.837	15367.93
489.207	15529.73
489.578	15865.32
489.948	15969.95
490.318	16318.86
490.688	16361.8
491.058	16641.57
491.428	16769.25
491.798	16936.7
492.168	17362.23
492.538	17347.09
492.908	17550.7
493.278	17841.54
493.648	17855.32
494.017	18083.56
494.387	18311.81
494.757	18414.85
495.126	18671.12
495.496	18784.56
495.866	18915.18
496.235	19061.84
496.605	19359.24
496.974	19406.92
497.344	19723.07
497.713	19753.12
498.082	19952.22
498.452	20232.89
498.821	20260.23
499.19	20376.61
499.559	20516.95
499.928	20783.83
500.298	20849.59
500.667	21023.15
501.036	21089.13
501.405	21360.77
501.774	21362.57
502.143	21596.92
502.512	21684.83
502.88	21887.98
503.249	21959.85
503.618	22061.54
503.987	22212.04
504.356	22380.85
504.724	22500.17
505.093	22659.04
505.462	22798.69
505.83	22959.37
506.199	23149.19
506.567	23504.66
506.936	23424.67
507.304	23729.29
507.672	23916.18
508.041	23932.9
508.409	24249.73
508.777	24363.85
509.145	24578.76
509.514	24572.21
509.882	24867.79
510.25	24984.17
510.618	25115.92
510.986	25132.42
511.354	25478.4
511.722	25717.26
512.09	26008.1
512.458	26012.85
512.826	26213.97
513.193	26347.53
513.561	26540.74
513.929	26846.05
514.297	26997.68
514.664	27265.47
515.032	27348.86
515.4	27596.53
515.767	27740.71
516.135	27914.72
516.502	27911.55
516.869	28217.08
517.237	28405.78
517.604	28422.73
517.972	28770.51
518.339	28990.17
518.706	29131.64
519.073	29308.58
519.44	29431.97
519.808	29796.25
520.175	29931.84
520.542	30297.93
520.909	30420.19
521.276	30393.07
521.643	30830.57
522.009	31050.45
522.376	31372.25
522.743	31680.95
523.11	31863.99
523.477	32167.49
523.843	32220.59
524.21	32633.01
524.577	32763.63
524.943	33117.07
525.31	33295.37
525.676	33651.29
526.043	33781.68
526.409	33936.03
526.776	34352.51
527.142	34363.81
527.508	34682.45
527.874	34967.19
528.241	35201.53
528.607	35146.39
528.973	35511.81
529.339	35721.07
529.705	35925.35
530.071	36204.67
530.437	36562.63
530.803	36668.39
531.169	36733.7
531.535	36859.12
531.901	36999.9
532.267	37304.3
532.632	37365.99
532.998	37702.94
533.364	37996.71
533.73	38019.09
534.095	38328
534.461	38546.75
534.826	38632.63
535.192	38932.96
535.557	39157.36
535.923	39059.96
536.288	39125.72
536.653	39404.13
537.019	39395.77
537.384	39678.48
537.749	39859.71
538.114	39945.36
538.479	40097.67
538.845	40246.82
539.21	40363.66
539.575	40504.9
539.94	40686.81
540.305	41025.33
540.67	40892
541.034	41050.64
541.399	41185.1
541.764	41412.44
542.129	41536.73
542.494	41622.61
542.858	41850.17
543.223	41920.23
543.587	42122.93
543.952	42089.71
544.316	42303.04
544.681	42419.42
545.045	42485.41
545.41	42690.15
545.774	42798.62
546.138	42845.62
546.503	43140.53
546.867	43061.44
547.231	43417.59
547.595	43488.77
547.959	43512.95
548.324	43717.01
548.688	43843.79
549.052	44051.47
549.416	44111.35
549.779	44160.62
550.143	44355.87
550.507	44653.49
550.871	44718.34
551.235	44890.99
551.599	45096.41
551.962	45193.59
552.326	45326.92
552.689	45454.82
553.053	45361.49
553.417	45591.54
553.78	46043.28
554.143	45983.17
554.507	46251.41
554.87	46374.35
555.234	46773.88
555.597	46650.5
555.96	46844.16
556.323	46954.22
556.686	47118.28
557.05	47258.39
557.413	47403.47
557.776	47613.86
558.139	47902.89
558.502	47834.19
558.865	48011.59
559.228	48311.24
559.59	48478.92
559.953	48404.57
560.316	48751.23
560.679	48774.06
561.041	49131.79
561.404	49369.52
561.767	49524.77
562.129	49385.34
562.492	49849.28
562.854	49809.28
563.217	49964.31
563.579	50063.51
563.941	50277.07
564.304	50434.13
564.666	50750.05
565.028	50637.74
565.39	50921.8
565.753	51124.5
566.115	51106.65
566.477	51293.31
566.839	51390.03
567.201	51593.64
567.563	51661.44
567.925	51927.19
568.287	51863.47
568.648	51926.97
569.01	52204.93
569.372	52354.53
569.734	52319.73
570.095	52480.17
570.457	52652.6
570.819	52700.96
571.18	52773.05
571.542	52886.94
571.903	52963.78
572.265	53112.7
572.626	53176.2
572.987	53276.09
573.349	53354.28
573.71	53511.33
574.071	53502.29
574.432	53514.27
574.794	53853.47
575.155	53782.51
575.516	53706.58
575.877	53860.7
576.238	53863.19
576.599	54015.73
576.96	54026.57
577.32	53994.03
577.681	54148.83
578.042	54235.61
578.403	54289.62
578.763	54384.53
579.124	54455.26
579.485	54428.37
579.845	54607.35
580.206	54497.07
580.566	54580.91
580.927	54534.36
581.287	54705.43
581.648	54588.82
582.008	54670.17
582.368	54615.26
582.728	54690.74
583.089	54701.13
583.449	54723.96
583.809	54754.46
584.169	54859.09
584.529	54801.92
584.889	54987.68
585.249	54737.06
585.609	54695.93
585.969	54832.43
586.329	54737.74
586.688	54954.01
587.048	54864.29
587.408	54777.06
587.768	54848.47
588.127	54803.05
588.487	54803.5
588.846	54977.06
589.206	54793.79
589.565	54850.51
589.925	54956.27
590.284	54876.27
590.643	54902.03
591.003	55014.57
591.362	55040.78
591.721	54988.13
592.08	55031.75
592.44	55118.07
592.799	55050.5
593.158	55057.28
593.517	55043.95
593.876	55090.5
594.235	55022.71
594.593	55088.47
594.952	55137.96
595.311	55045.53
595.67	55104.96
596.029	55237.39
596.387	55265.41
596.746	55244.62
597.104	55157.84
597.463	55230.38
597.822	55276.94
598.18	55220.21
598.538	55222.25
598.897	55369.59
599.255	55166.66
599.613	55561
599.972	55351.51
600.33	55419.76
600.688	55346.99
601.046	55440.77
601.404	55614.1
601.762	55498.63
602.12	55664.95
602.478	55597.15
602.836	55648
603.194	55499.08
603.552	55581.79
603.91	55426.09
604.268	55678.06
604.625	55632.63
604.983	55735.68
605.341	55567.32
605.698	55717.38
606.056	55758.28
606.413	55765.51
606.771	55812.97
607.128	55896.81
607.485	55770.26
607.843	55781.78
608.2	55923.7
608.557	56061.77
608.914	55977.71
609.272	56062
609.629	56124.6
609.986	56116.69
610.343	56004.37
610.7	56263.35
611.057	56252.73
611.414	56209.79
611.771	56178.61
612.127	56314.65
612.484	56290.02
612.841	56411.82
613.198	56288.89
613.554	56381.31
613.911	56530.69
614.267	56432.84
614.624	56475.32
614.98	56620.86
615.337	56695.43
615.693	56645.04
616.05	56615.43
616.406	56707.86
616.762	56562.55
617.118	56564.59
617.475	56622.44
617.831	56680.52
618.187	56731.59
618.543	56756.67
618.899	56832.6
619.255	56806.61
619.611	56772.72
619.967	56893.17
620.323	56886.16
620.678	56833.51
621.034	56765.26
621.39	56828.99
621.746	56754.86
622.101	57067.85
622.457	56825.37
622.812	56849.55
623.168	56874.63
623.523	56891.58
623.879	56989.89
624.234	56810.68
624.589	56939.94
624.945	56974.29
625.3	56897.23
625.655	56871.02
626.01	56955.31
626.365	56964.58
626.72	56968.87
627.075	56863.34
627.43	56891.13
627.785	56826.27
628.14	56868.76
628.495	56850
628.85	56783.34
629.205	56711.25
629.559	56870.57
629.914	56777.69
630.269	56824.01
630.623	56688.2
630.978	56659.27
631.332	56720.74
631.687	56785.37
632.041	56651.14
632.396	56739.04
632.75	56539.05
633.104	56621.31
633.459	56397.58
633.813	56504.02
634.167	56509.45
634.521	56435.1
634.875	56493.4
635.229	56433.29
635.583	56310.36
635.937	56302.45
636.291	56270.36
636.645	56280.3
636.999	56219.51
637.352	56315.33
637.706	56090.7
638.06	56225.84
638.413	56095.22
638.767	56101.77
639.121	56112.85
639.474	55962.12
639.828	55998.73
640.181	55987.65
640.534	55970.7
640.888	55852.29
641.241	55771.61
641.594	55824.49
641.947	55939.29
642.301	55798.5
642.654	55800.54
643.007	55801.89
643.36	55694.55
643.713	55716.02
644.066	55833.53
644.419	55578.17
644.771	55360.32
645.124	55192.19
645.477	55095.92
645.83	54889.6
646.182	54811.86
646.535	54675.14
646.888	54720.11
647.24	54610.06
647.593	54705.65
647.945	54597.18
648.298	54480.12
648.65	54543.4
649.002	54322.84
649.355	54474.92
649.707	54388.6
650.059	54605.99
650.411	54873.33
650.763	54923.95
651.115	55176.15
651.467	55089.37
651.819	55031.07
652.171	55004.18
652.523	54789.27
652.875	54862.48
653.227	54689.83
653.578	54907.91
653.93	54827.46
654.282	54687.57
654.633	54681.7
654.985	54694.13
655.337	54686.44
655.688	54716.5
656.039	54805.31
656.391	54379.78
656.742	54597.63
657.094	54613.68
657.445	54684.18
657.796	54610.51
658.147	54604.19
658.498	54481.7
658.849	54535.94
659.2	54438.09
659.551	54397.86
659.902	54508.82
660.253	54398.32
660.604	54505.88
660.955	54290.07
661.306	54443.74
661.656	54311.76
662.007	54322.84
662.358	54324.42
662.708	54335.04
663.059	54313.57
663.409	54064.76
663.76	54360.35
664.11	54238.09
664.461	54269.05
664.811	54266.34
665.161	54171.2
665.511	54187.02
665.862	54156.97
666.212	54298.43
666.562	54207.13
666.912	54274.25
667.262	54229.96
667.612	54151.09
667.962	54236.96
668.312	54133.46
668.662	54237.87
669.011	54122.84
669.361	54066.8
669.711	54062.28
670.06	54083.75
670.41	53915.84
670.76	53967.82
671.109	54066.35
671.459	53992.9
671.808	53941.83
672.157	54031.32
672.507	53847.82
672.856	53751.1
673.205	53899.57
673.554	53969.85
673.904	53804.21
674.253	53881.49
674.602	53780.25
674.951	53388.4
675.3	53337.1
675.649	53765.79
675.998	53665
676.346	53658.45
676.695	53738.67
677.044	53475.63
677.393	53632.46
677.741	53754.04
678.09	53597.88
678.438	53572.12
678.787	53594.49
679.135	53558.79
679.484	53348.63
679.832	53503.65
680.181	53197.9
680.529	53497.55
680.877	53160.16
681.225	53145.92
681.573	53386.14
681.922	53146.82
682.27	53097.33
682.618	53105.69
682.966	53041.29
683.314	53030.67
683.661	52967.39
684.009	52830.45
684.357	52699.38
684.705	52717
685.053	52818.02
685.4	52653.73
685.748	52620.51
686.095	52530.12
686.443	52380.74
686.79	52314.53
687.138	52386.84
687.485	52340.52
687.832	52230.46
688.18	52331.7
688.527	52152.5
688.874	52063.46
689.221	51902.34
689.568	51783.02
689.915	51811.49
690.262	51817.82
690.609	51708.89
690.956	51491.5
691.303	51545.96
691.65	51308.91
691.997	51288.79
692.344	51100.78
692.69	51167.44
693.037	51238.17
693.383	50893.55
693.73	51031.62
694.077	50868.92
694.423	50681.8
694.769	50700.79
695.116	50568.81
695.462	50613.1
695.808	50507.8
696.155	50474.35
696.501	50270.74
696.847	50259.22
697.193	49910.07
697.539	50223.74
697.885	49896.29
698.231	49772
698.577	49829.85
698.923	49654.71
699.269	49422.63
699.614	49284.1
699.96	49219.24
700.306	49296.53
700.651	49184.89
700.997	48994.39
701.342	48792.36
701.688	48874.84
702.033	48692.02
702.379	48705.36
702.724	48603.21
703.069	48646.6
703.415	48299.94
703.76	48317.57
704.105	48122.55
704.45	48210
704.795	47825.61
705.14	47786.96
705.485	47757.13
705.83	47619.96
706.175	47629
706.52	47458.61
706.865	47360.31
707.209	47286.86
707.554	47186.08
707.899	47235.57
708.243	47097.49
708.588	46940.21
708.932	46734.56
709.277	46794
709.621	46746.54
709.966	46483.72
710.31	46467.22
710.654	46173.22
710.998	46206.89
711.342	46316.27
711.687	46028.14
712.031	45878.77
712.375	45816.17
712.719	45893.45
713.063	45804.64
713.407	45745.44
713.75	45579.79
714.094	45631.31
714.438	45508.38
714.782	45465.67
715.125	45341.38
715.469	45323.75
715.812	45067.49
716.156	44907.04
716.499	44788.85
716.843	44849.87
717.186	44580.49
717.53	44728.51
717.873	44823.43
718.216	44646.48
718.559	44563.77
718.902	44368.3
719.246	44458.24
719.589	44384.12
719.932	44016.89
720.275	44115.65
720.617	43971.02
720.96	43902.55
721.303	43803.34
721.646	43938.25
721.989	43676.56
722.331	43757.92
722.674	43611.93
723.016	43568.09
723.359	43559.28
723.701	43538.04
724.044	43362.9
724.386	43137.82
724.729	43379.62
725.071	43110.7
725.413	43111.61
725.755	43017.82
726.097	42875.68
726.439	42756.59
726.782	42700.77
727.124	42839.52
727.465	42574.22
727.807	42495.8
728.149	42461.91
728.491	42334
728.833	42404.51
729.175	42193.66
729.516	42153.21
729.858	42181.91
730.199	42130.62
730.541	42039.77
730.882	42082.03
731.224	42106.44
731.565	41764.98
731.906	41855.14
732.248	41920.23
732.589	41736.05
732.93	41592.32
733.271	41523.85
733.612	41618.99
733.953	41511.65
734.294	41192.56
734.635	41284.54
734.976	41431.65
735.317	41136.07
735.658	41142.39
735.999	41196.18
736.339	41030.98
736.68	40995.96
737.021	40889.52
737.361	40644.33
737.702	40964.32
738.042	40667.15
738.383	40616.08
738.723	40525.46
739.063	40466.93
739.404	40697.88
739.744	40493.14
740.084	40267.61
740.424	40311.23
740.764	40319.14
741.104	40300.61
741.444	40158.46
741.784	39962.54
742.124	40034.85
742.464	39974.29
742.804	39912.37
743.143	39869.66
743.483	39754.18
743.823	39667.63
744.162	39576.11
744.502	39668.53
744.841	39513.06
745.181	39618.59
745.52	39281.88
745.86	39475.09
746.199	39291.37
746.538	39395.32
746.877	39268.77
747.216	39218.83
747.556	38909.01
747.895	38878.05
748.234	38734.55
748.573	38691.61
748.911	38704.72
749.25	38846.63
749.589	38598.96
749.928	38509.69
750.267	38461.11
750.605	38408
750.944	38348.12
751.283	38120.55
751.621	38299.53
751.96	38088.01
752.298	38034.45
752.636	38049.82
752.975	37837.17
753.313	37527.8
753.651	37802.59
753.989	37533.22
754.327	37500
754.666	37323.74
755.004	37474.01
755.342	37368.93
755.679	37273.57
756.017	37105.66
756.355	37230.18
756.693	37086.68
757.031	37051.43
757.368	36830.19
757.706	36647.82
758.044	36667.48
758.381	36683.3
758.719	36384.55
759.056	36508.62
759.394	36303.65
759.731	36129.19
760.068	36200.15
760.405	35940.95
760.743	35789.99
761.08	35741.63
761.417	35526.72
761.754	35569.66
762.091	35615.76
762.428	35359.27
762.765	35160.4
763.102	35305.94
763.438	35176.22
763.775	34809.23
764.112	34842.9
764.449	34784.37
764.785	34552.96
765.122	34399.75
765.458	34316.36
765.795	34264.16
766.131	34236.36
766.467	34072.75
766.804	33895.8
767.14	33712.76
767.476	33709.82
767.812	33759.54
768.148	33548.92
768.485	33397.06
768.821	33190.06
769.157	33311.64
769.492	33208.59
769.828	32947.81
770.164	32894.93
770.5	32731.31
770.836	32815.15
771.171	32482.06
771.507	32259.01
771.842	32190.99
772.178	32161.16
772.513	32177.66
772.849	32081.84
773.184	31896.31
773.519	31993.25
773.855	31783.77
774.19	31597.11
774.525	31471.23
774.86	31379.26
775.195	31393.5
775.53	31213.61
775.865	31021.75
776.2	30811.14
776.535	30751.03
776.87	30684.14
777.205	30528.66
777.539	30413.86
777.874	30404.82
778.209	30138.39
778.543	30086.86
778.878	29923.93
779.212	29947.43
779.547	29786.99
779.881	29811.39
780.215	29598.74
780.55	29575.01
780.884	29307
781.218	29314
781.552	29245.08
781.886	29160.11
782.22	28887.57
782.554	28848.48
782.888	28669.27
783.222	28542.72
783.556	28484.65
783.889	28463.4
784.223	28206.01
784.557	28164.43
784.89	28248.04
785.224	28116.97
785.557	27912.01
785.891	27742.97
786.224	27718.79
786.558	27667.94
786.891	27300.04
787.224	27359.93
787.557	27235.87
787.891	27168.3
788.224	27144.34
788.557	27166.94
788.89	27076.55
789.223	26920.17
789.556	26840.85
789.888	26704.35
790.221	26651.25
790.554	26362.89
790.887	26397.24
791.219	26288.55
791.552	26184.82
791.884	26131.71
792.217	26020.98
792.549	25858.05
792.882	25741.67
793.214	25638.17
793.546	25711.16
793.879	25508.23
794.211	25397.5
794.543	25342.36
794.875	25224.85
795.207	25267.56
795.539	25162.02
795.871	25150.04
796.203	24938.75
796.535	24768.81
796.867	24692.66
797.198	24675.93
797.53	24736.27
797.862	24372.21
798.193	24414.7
798.525	24311.2
798.856	24465.09
799.188	24057.19
799.519	24082.28
799.85	23873.92
800.182	23966.12
800.513	23949.4
800.844	23748.27
801.175	23842.06
801.506	23826.24
801.837	23681.38
802.168	23549.86
802.499	23536.53
802.83	23359.58
803.161	23308.29
803.491	23277.1
803.822	23304.44
804.153	23149.87
804.483	23046.15
804.814	22958.69
805.145	22902.19
805.475	22866.94
805.805	22857.22
806.136	22745.59
806.466	22730.9
806.796	22756.89
807.126	22530.68
807.457	22497.91
807.787	22472.83
808.117	22308.31
808.447	22148.54
808.777	22451.36
809.107	22141.08
809.436	22207.75
809.766	22128.43
810.096	22084.59
810.426	22000.3
810.755	22033.97
811.085	21909.68
811.414	21811.38
811.744	21645.28
812.073	21516.92
812.403	21522.8
812.732	21388.34
813.061	21434.89
813.39	21292.07
813.719	21282.35
814.049	21328.45
814.378	21302.01
814.707	21087.33
815.036	21028.12
815.365	21000.78
815.693	20803.27
816.022	20917.39
816.351	20786.09
816.68	20609.37
817.008	20788.13
817.337	20531.64
817.665	20542.48
817.994	20544.29
818.322	20590.84
818.651	20437.17
818.979	20329.15
819.307	20535.7
819.636	20327.12
819.964	20283.28
820.292	20183.85
820.62	20184.3
820.948	20115.6
821.276	20229.04
821.604	20168.26
821.932	20108.82
822.259	20197.86
822.587	20190.63
822.915	20091.65
823.243	20200.8
823.57	20090.06
823.898	20052.55
824.225	20092.32
824.553	19993.34
824.88	20010.97
825.207	20102.49
825.535	20063.4
825.862	20145.66
826.189	20054.36
826.516	20103.62
826.843	20117.41
827.17	20144.98
827.497	20066.79
827.824	20148.37
828.151	20123.96
828.478	20052.55
828.805	19930.75
829.131	20101.36
829.458	19962.61
829.785	19879.68
830.111	19992.89
830.438	20115.6
830.764	20058.2
831.09	19977.3
831.417	19847.81
831.743	19845.1
832.069	19974.36
832.395	19764.88
832.722	19796.74
833.048	19798.55
833.374	19862.95
833.7	19689.17
834.026	19740.02
834.351	19793.35
834.677	19812.33
835.003	19716.52
835.329	19735.05
835.654	19687.14
835.98	19600.81
836.306	19669.74
836.631	19569.85
836.956	19572.56
837.282	19683.75
837.607	19449.4
837.932	19457.31
838.258	19523.98
838.583	19472
838.908	19401.04
839.233	19322.85
839.558	19361.72
839.883	19201.05
840.208	19259.35
840.533	19227.71
840.858	19267.49
841.182	19165.57
841.507	19121.05
841.832	18992.47
842.156	18997.66
842.481	19005.8
842.805	18892.81
843.13	18862.07
843.454	18856.88
843.778	18776.88
844.103	18729.42
844.427	18678.58
844.751	18617.79
845.075	18628.41
845.399	18546.83
845.723	18486.04
846.047	18511.12
846.371	18208.98
846.695	18301.64
847.019	18201.98
847.343	18149.1
847.666	17939.84
847.99	17964.47
848.313	17926.73
848.637	17764.25
848.96	17790.24
849.284	17762.67
849.607	17587.08
849.931	17527.65
850.254	17487.65
850.577	17372.62
850.9	17230.25
851.223	17230.25
851.546	17181.44
851.869	17021.67
852.192	17199.97
852.515	16970.82
852.838	16883.6
853.161	16812.19
853.483	16771.51
853.806	16659.19
854.129	16679.53
854.451	16728.57
854.774	16565.86
855.096	16468.69
855.419	16474.34
855.741	16367.45
856.063	16373.78
856.385	16338.3
856.708	16215.36
857.03	16074.35
857.352	16127.46
857.674	16014.92
857.996	15981.7
858.318	15916.84
858.64	15993.9
858.961	15957.97
859.283	15800.91
859.605	15769.73
859.926	15817.86
860.248	15764.3
860.57	15611.09
860.891	15727.47
861.212	15583.74
861.534	15476.4
861.855	15481.6
862.176	15550.3
862.498	15567.02
862.819	15502.61
863.14	15440.7
863.461	15365.67
863.782	15359.57
864.103	15397.08
864.424	15306.69
864.745	15303.98
865.065	15179.01
865.386	15110.76
865.707	15205.45
866.027	15270.08
866.348	15179.23
866.668	15171.78
866.989	15124.77
867.309	14942.18
867.63	14915.51
867.95	14963.42
868.27	14855.63
868.59	14949.86
868.91	14933.14
869.23	14941.73
869.55	14821.28
869.87	14968.62
870.19	14809.98
870.51	14879.58
870.83	14699.7
871.15	14649.53
871.469	14589.87
871.789	14634.39
872.109	14614.73
872.428	14519.82
872.748	14599.59
873.067	14572.24
873.386	14553.26
873.706	14520.72
874.025	14449.76
874.344	14493.6
874.663	14402.98
874.982	14379.03
875.301	14430.78
875.62	14415.19
875.939	14347.84
876.258	14274.85
876.577	14261.74
876.896	14207.06
877.214	14206.6
877.533	14371.35
877.852	14260.61
878.17	14141.75
878.489	14253.83
878.807	14169.99
879.125	14117.34
879.444	14052.71
879.762	13991.69
880.08	14040.96
880.398	14023.78
880.716	14037.57
881.034	13959.6
881.352	13955.99
881.67	13869.44
881.988	13979.27
882.306	13890.45
882.624	13838.93
882.941	13771.59
883.259	13605.72
883.577	13621.76
883.894	13645.26
884.212	13581.76
884.529	13591.93
884.846	13517.81
885.164	13540.86
885.481	13348.55
885.798	13514.19
886.115	13378.83
886.432	13350.36
886.75	13308.55
887.067	13398.72
887.383	13283.92
887.7	13357.81
888.017	13246.86
888.334	13277.59
888.651	13136.58
888.967	13178.38
889.284	13021.32
889.6	13086.18
889.917	13090.7
890.233	13045.73
890.55	12992.17
890.866	12895
891.182	12871.72
891.498	12858.62
891.815	12745.17
892.131	12649.13
892.447	12669.47
892.763	12619.07
893.079	12688.9
893.395	12592.86
893.71	12525.52
894.026	12515.12
894.342	12473.54
894.657	12344.73
894.973	12416.14
895.289	12422.47
895.604	12319.65
895.92	12254.11
896.235	12203.27
896.55	12214.34
896.865	12118.75
897.181	12149.03
897.496	12101.57
897.811	12036.49
898.126	12004.85
898.441	12020.45
898.756	11940.45
899.071	11917.4
899.386	11921.01
899.7	11719.66
900.015	11698.87
900.33	11660.68
900.644	11598.08
900.959	11648.93
901.273	11515.38
901.588	11517.18
901.902	11419.56
902.216	11392.89
902.531	11447.35
902.845	11408.94
903.159	11299.79
903.473	11161.94
903.787	11222.73
904.101	11159.23
904.415	11121.94
904.729	10997.42
905.042	11013.24
905.356	11010.76
905.67	10949.74
905.984	10991.77
906.297	10948.16
906.611	10877.43
906.924	10859.35
907.237	10798.11
907.551	10795.39
907.864	10736.41
908.177	10679.92
908.491	10627.26
908.804	10593.59
909.117	10485.8
909.43	10467.04
909.743	10401.05
910.056	10422.52
910.368	10357.21
910.681	10285.58
910.994	10312.24
911.307	10259.14
911.619	10168.74
911.932	10204.68
912.244	10146.82
912.557	10058.46
912.869	9966.72
913.181	9992.03
913.494	9984.57
913.806	9872.48
914.118	9923.1
914.43	9838.81
914.742	9765.82
915.054	9811.24
915.366	9603.11
915.678	9630.23
915.99	9595.2
916.302	9536.44
916.613	9510
916.925	9535.77
917.236	9430.91
917.548	9409.89
917.859	9439.05
918.171	9417.35
918.482	9269.78
918.794	9187.75
919.105	9188.88
919.416	9218.94
919.727	9194.76
920.038	9128.77
920.349	9046.97
920.66	8968.32
920.971	8962.9
921.282	8952.5
921.593	8864.6
921.903	8840.42
922.214	8812.85
922.525	8810.36
922.835	8756.13
923.146	8655.56
923.456	8675.68
923.767	8638.39
924.077	8557.49
924.387	8581.44
924.697	8540.09
925.008	8538.73
925.318	8411.73
925.628	8430.26
925.938	8395.68
926.248	8303.93
926.558	8281.34
926.867	8245.4
927.177	8208.57
927.487	8165.86
927.796	8067.78
928.106	8142.81
928.416	8068.46
928.725	8092.19
929.034	7945.75
929.344	8016.26
929.653	7922.48
929.962	7910.5
930.271	7826.43
930.581	7804.06
930.89	7785.76
931.199	7692.88
931.508	7668.92
931.817	7722.25
932.125	7652.2
932.434	7639.32
932.743	7508.93
933.051	7516.16
933.36	7523.39
933.669	7490.85
933.977	7435.48
934.286	7417.63
934.594	7437.74
934.902	7365.65
935.21	7255.37
935.519	7276.84
935.827	7279.1
936.135	7193.45
936.443	7176.73
936.751	7125.89
937.059	7095.6
937.367	7058.54
937.674	7080.24
937.982	7047.47
938.29	7023.29
938.597	7024.42
938.905	6910.75
939.213	6923.63
939.52	6912.56
939.827	6919.79
940.135	6860.81
940.442	6758.89
940.749	6776.74
941.056	6811.77
941.363	6697.65
941.67	6684.09
941.977	6672.11
942.284	6649.06
942.591	6608.61
942.898	6551.44
943.205	6577.43
943.511	6494.49
943.818	6451.33
944.125	6385.34
944.431	6409.07
944.738	6365.45
945.044	6325.91
945.35	6318.45
945.657	6307.15
945.963	6258.79
946.269	6214.05
946.575	6198.45
946.881	6152.35
947.187	6192.13
947.493	6187.83
947.799	6136.31
948.105	6044.56
948.41	6023.54
948.716	5986.93
949.022	5948.74
949.327	5965.69
949.633	5899.25
949.938	5867.84
950.244	5925.69
950.549	5871.46
950.854	5825.58
951.16	5780.84
951.465	5784.9
951.77	5770.67
952.075	5740.39
952.38	5652.93
952.685	5715.08
952.99	5636.21
953.294	5684.79
953.599	5597.11
953.904	5527.51
954.209	5585.81
954.513	5507.62
954.818	5517.57
955.122	5478.25
955.426	5502.2
955.731	5414.74
956.035	5425.59
956.339	5393.95
956.643	5324.35
956.948	5315.99
957.252	5268.99
957.556	5333.16
957.86	5276.67
958.163	5249.1
958.467	5213.85
958.771	5166.39
959.075	5220.85
959.378	5130.91
959.682	5104.92
959.985	5131.59
960.289	5092.04
960.592	5085.04
960.896	5035.09
961.199	5002.55
961.502	4996.68
961.805	4967.75
962.108	4932.5
962.411	4936.79
962.714	4913.29
963.017	4871.71
963.32	4866.06
963.623	4888.43
963.926	4849.11
964.228	4774.08
964.531	4799.62
964.833	4736.34
965.136	4769.34
965.438	4707.87
965.741	4688.66
966.043	4685.05
966.345	4678.49
966.648	4617.25
966.95	4658.61
967.252	4568.21
967.554	4569.34
967.856	4572.28
968.158	4533.64
968.46	4525.73
968.761	4468.33
969.063	4474.43
969.365	4429.69
969.666	4451.38
969.968	4403.02
970.269	4375.68
970.571	4405.05
970.872	4355.11
971.174	4329.8
971.475	4310.37
971.776	4333.42
972.077	4276.7
972.378	4217.26
972.679	4205.51
972.98	4219.75
973.281	4238.28
973.582	4185.62
973.883	4200.31
974.183	4132.07
974.484	4170.03
974.785	4106.53
975.085	4069.47
975.386	4065.63
975.686	4059.75
975.986	4013.43
976.287	3986.76
976.587	4014.56
976.887	3989.92
977.187	3967.33
977.487	3953.99
977.787	3904.05
978.087	3918.06
978.387	3861.34
978.687	3846.2
978.987	3831.06
979.286	3823.37
979.586	3789.93
979.885	3799.19
980.185	3771.85
980.484	3799.42
980.784	3719.42
981.083	3741.34
981.382	3762.13
981.682	3715.58
981.981	3702.7
982.28	3687.11
982.579	3660.21
982.878	3648.24
983.177	3638.97
983.475	3640.78
983.774	3582.93
984.073	3568.47
984.372	3542.7
984.67	3565.3
984.969	3508.81
985.267	3506.55
985.566	3470.61
985.864	3439.2
986.162	3448.02
986.461	3421.35
986.759	3419.77
987.057	3411.63
987.355	3398.3
987.653	3354.46
987.951	3345.87
988.249	3345.42
988.547	3366.66
988.844	3324.86
989.142	3283.5
989.44	3252.32
989.737	3265.87
990.035	3249.83
990.332	3194.01
990.63	3226.78
990.927	3154.47
991.224	3196.95
991.521	3126.44
991.819	3140.91
992.116	3110.85
992.413	3099.78
992.71	3118.99
993.006	3105.2
993.303	3109.72
993.6	3052.09
993.897	3054.58
994.193	3043.51
994.49	2986.11
994.787	2998.54
995.083	2981.36
995.379	2986.11
995.676	2971.87
995.972	2928.03
996.268	2904.3
996.565	2885.77
996.861	2886.9
997.157	2894.36
997.453	2862.04
997.749	2819.78
998.044	2837.19
998.34	2805.55
998.636	2813.01
998.932	2754.48
999.227	2777.3
999.523	2752.44
999.818	2717.41
1000.114	2725.1
1000.409	2719.22
1000.704	2689.17
1001	2674.48
1001.295	2684.87
1001.59	2665.21
1001.885	2659.11
1002.18	2569.62
1002.475	2596.74
1002.77	2609.39
1003.065	2602.39
1003.359	2557.87
1003.654	2575.95
1003.949	2507.93
1004.243	2550.41
1004.538	2520.13
1004.832	2492.34
1005.127	2505.89
1005.421	2472.45
1005.715	2450.08
1006.009	2457.08
1006.304	2444.88
1006.598	2400.81
1006.892	2426.12
1007.186	2380.93
1007.48	2428.16
1007.773	2363.98
1008.067	2377.54
1008.361	2327.82
1008.655	2294.37
1008.948	2303.64
1009.242	2295.73
1009.535	2244.88
1009.829	2284.88
1010.122	2264.09
1010.415	2234.26
1010.708	2255.73
1011.001	2225.45
1011.295	2199.24
1011.588	2200.14
1011.881	2181.16
1012.173	2168.95
1012.466	2145.68
1012.759	2150.2
1013.052	2140.25
1013.344	2109.29
1013.637	2098
1013.93	2098.45
1014.222	2049.64
1014.514	2052.8
1014.807	2058.9
1015.099	2057.09
1015.391	2012.12
1015.683	2019.58
1015.976	2012.12
1016.268	1964.67
1016.56	1963.99
1016.851	1936.64
1017.143	1939.36
1017.435	1904.55
1017.727	1891.45
1018.018	1906.14
1018.31	1913.82
1018.602	1888.06
1018.893	1855.74
1019.185	1827.27
1019.476	1831.79
1019.767	1847.15
1020.058	1836.31
1020.35	1784.33
1020.641	1808.51
1020.932	1801.73
1021.223	1770.77
1021.514	1755.86
1021.804	1722.64
1022.095	1722.64
1022.386	1688.97
1022.677	1710.89
1022.967	1689.64
1023.258	1704.11
1023.548	1672.92
1023.839	1679.02
1024.129	1630.44
1024.419	1655.97
1024.709	1652.36
1025	1601.29
1025.29	1609.87
1025.58	1616.65
1025.87	1578.24
1026.16	1567.61
1026.449	1563.09
1026.739	1523.77
1027.029	1518.12
1027.319	1535.3
1027.608	1495.3
1027.898	1507.28
1028.187	1476.32
1028.477	1482.42
1028.766	1492.59
1029.055	1440.61
1029.344	1422.08
1029.634	1440.84
1029.923	1422.53
1030.212	1411.91
1030.501	1422.99
1030.79	1379.37
1031.078	1381.86
1031.367	1382.53
1031.656	1377.34
1031.945	1375.08
1032.233	1351.12
1032.522	1348.64
1032.81	1345.47
1033.099	1292.14
1033.387	1290.33
1033.675	1311.12
1033.963	1318.13
1034.251	1319.94
1034.54	1288.07
1034.828	1284.01
1035.116	1308.86
1035.403	1275.64
1035.691	1254.63
1035.979	1232.48
1036.267	1226.83
1036.554	1239.26
1036.842	1195.87
1037.129	1222.09
1037.417	1190.45
1037.704	1191.8
1037.992	1184.57
1038.279	1185.7
1038.566	1175.99
1038.853	1175.99
1039.14	1175.99
