Data from plate_ceramic_FLMS001491_002.txt Node
Date: Tue Feb 07 11:16:13 GMT 2017
User: dcchb
Spectrometer: FLMS00149
Trigger mode: 0
Integration Time (sec): 2.000000E-2
Scans to average: 10
Electric dark correction enabled: true
Nonlinearity correction enabled: false
Boxcar width: 0
XAxis mode: Wavelengths
Number of Pixels in Spectrum: 2048
>>>>>Begin Spectral Data<<<<<
341.393	-12.09
341.776	-12.09
342.16	-12.09
342.543	-50.73
342.927	-52.54
343.31	-67.68
343.693	-75.14
344.077	-74.24
344.46	-63.39
344.843	-54.12
345.226	-44.18
345.61	-24.52
345.993	-28.36
346.376	1.92
346.759	12.99
347.142	32.2
347.525	34.46
347.908	45.31
348.291	80.34
348.674	107.23
349.057	117.17
349.44	123.5
349.823	143.16
350.206	154.69
350.588	201.01
350.971	217.28
351.354	258.41
351.737	250.28
352.119	276.26
352.502	275.36
352.884	294.12
353.267	294.57
353.65	304.96
354.032	334.12
354.414	339.54
354.797	351.29
355.179	334.12
355.562	346.77
355.944	368.92
356.326	343.38
356.709	347.45
357.091	355.81
357.473	370.72
357.855	339.77
358.238	360.1
358.62	365.3
359.002	391.74
359.384	369.37
359.766	357.84
360.148	371.18
360.53	360.56
360.912	356.94
361.294	376.15
361.676	365.08
362.057	374.11
362.439	374.57
362.821	383.15
363.203	340.22
363.584	362.59
363.966	366.21
364.348	358.07
364.729	377.28
365.111	341.12
365.493	344.51
365.874	361.91
366.256	370.72
366.637	358.75
367.019	360.33
367.4	361.23
367.781	356.49
368.163	359.65
368.544	369.59
368.925	358.3
369.306	354.91
369.688	363.49
370.069	357.17
370.45	374.79
370.831	353.78
371.212	386.54
371.593	380.67
371.974	363.72
372.355	374.11
372.736	373.21
373.117	370.5
373.498	395.36
373.879	389.71
374.26	384.28
374.641	359.2
375.021	369.59
375.402	362.82
375.783	394.23
376.163	416.83
376.544	413.89
376.925	391.74
377.305	388.35
377.686	403.04
378.066	410.27
378.447	418.86
378.827	413.66
379.208	407.56
379.588	410.95
379.968	403.27
380.349	410.05
380.729	420.21
381.109	448.24
381.489	424.51
381.87	419.09
382.25	424.73
382.63	443.72
383.01	448.01
383.39	441.46
383.77	439.65
384.15	475.35
384.53	449.14
384.91	454.79
385.29	488.91
385.67	465.19
386.049	470.61
386.429	457.5
386.809	466.32
387.189	510.61
387.568	508.12
387.948	478.52
388.328	499.08
388.707	507.44
389.087	482.13
389.466	519.2
389.846	511.74
390.225	519.65
390.605	503.6
390.984	513.77
391.363	545.18
391.743	552.41
392.122	545.64
392.501	560.32
392.881	559.65
393.26	548.12
393.639	584.96
394.018	573.88
394.397	570.95
394.776	572.53
395.155	558.52
395.534	603.26
395.913	605.29
396.292	602.58
396.671	589.7
397.05	625.41
397.429	621.11
397.808	627.67
398.186	638.06
398.565	622.47
398.944	629.47
399.323	654.79
399.701	652.53
400.08	664.05
400.458	648.91
400.837	699.98
401.215	651.85
401.594	666.08
401.972	697.72
402.351	692.3
402.729	699.53
403.107	698.17
403.486	722.81
403.864	719.87
404.242	726.65
404.62	746.08
404.999	776.14
405.377	777.72
405.755	762.58
406.133	781.11
406.511	786.53
406.889	812.3
407.267	810.94
407.645	789.7
408.023	819.3
408.401	823.82
408.779	824.95
409.156	847.1
409.534	869.24
409.912	862.01
410.29	887.77
410.667	886.64
411.045	888.68
411.422	916.7
411.8	897.49
412.178	921.22
412.555	958.28
412.933	920.09
413.31	995.12
413.687	985.4
414.065	993.31
414.442	997.6
414.819	1037.6
415.197	1028.79
415.574	1041.89
415.951	1052.74
416.328	1036.24
416.705	1076.92
417.082	1086.64
417.46	1099.52
417.837	1118.5
418.214	1144.04
418.591	1143.13
418.967	1127.99
419.344	1122.8
419.721	1190.14
420.098	1163.02
420.475	1205.51
420.852	1198.73
421.228	1212.74
421.605	1200.76
421.982	1219.52
422.358	1235.79
422.735	1267.2
423.111	1285.28
423.488	1266.29
423.864	1327.54
424.241	1310.59
424.617	1318.27
424.994	1352.62
425.37	1369.57
425.746	1346.52
426.123	1402.11
426.499	1381.32
426.875	1377.03
427.251	1422.45
427.627	1461.77
428.003	1473.52
428.379	1499.96
428.756	1492.05
429.132	1537.25
429.507	1547.19
429.883	1574.53
430.259	1595.1
430.635	1635.32
431.011	1607.75
431.387	1667.64
431.763	1694.76
432.138	1692.05
432.514	1737.92
432.89	1751.03
433.265	1767.52
433.641	1794.64
434.016	1788.77
434.392	1810.91
434.767	1856.34
435.143	1889.55
435.518	1907.41
435.894	1916.45
436.269	1945.15
436.644	2005.26
437.02	1992.38
437.395	1991.47
437.77	2016.11
438.145	2051.36
438.52	2089.1
438.895	2110.79
439.271	2100.62
439.646	2146.27
440.021	2178.81
440.395	2168.42
440.77	2168.87
441.145	2194.18
441.52	2228.3
441.895	2249.77
442.27	2225.37
442.645	2283.89
443.019	2278.7
443.394	2323.67
443.769	2319.83
444.143	2319.6
444.518	2346.27
444.892	2329.32
445.267	2388.3
445.641	2421.97
446.016	2445.25
446.39	2450.44
446.764	2448.86
447.139	2457.68
447.513	2501.29
447.887	2503.78
448.262	2523.66
448.636	2498.13
449.01	2579.03
449.384	2594.4
449.758	2596.88
450.132	2668.52
450.506	2676.65
450.88	2664
451.254	2646.82
451.628	2742.87
452.002	2768.18
452.376	2756.42
452.75	2836.65
453.123	2809.53
453.497	2869.64
453.871	2883.43
454.244	2965.23
454.618	2954.84
454.992	3005.91
455.365	3032.12
455.739	3109.86
456.112	3145.57
456.486	3192.35
456.859	3210.42
457.232	3245
457.606	3277.09
457.979	3289.29
458.352	3362.74
458.725	3438.67
459.099	3435.73
459.472	3444.54
459.845	3538.78
460.218	3558.21
460.591	3611.54
460.964	3646.34
461.337	3718.66
461.71	3809.96
462.083	3857.41
462.456	3854.25
462.829	3898.09
463.201	3933.12
463.574	3969.73
463.947	4030.74
464.32	4099.89
464.692	4160.68
465.065	4204.97
465.438	4263.5
465.81	4321.58
466.183	4327
466.555	4430.96
466.928	4517.73
467.3	4494.91
467.672	4550.95
468.045	4671.4
468.417	4664.85
468.789	4738.75
469.161	4775.13
469.534	4883.15
469.906	4962.69
470.278	5041.34
470.65	5098.28
471.022	5151.16
471.394	5280.2
471.766	5299.18
472.138	5354.32
472.51	5476.58
472.882	5602
473.253	5606.52
473.625	5740.98
473.997	5863.46
474.369	5918.15
474.74	5913.86
475.112	6014.87
475.484	6168.76
475.855	6332.83
476.227	6371.47
476.598	6514.74
476.97	6544.8
477.341	6688.52
477.713	6816.66
478.084	6836.77
478.455	7081.51
478.827	7075.18
479.198	7335.51
479.569	7333.48
479.94	7577.54
480.311	7595.17
480.682	7794.48
481.053	7973.69
481.424	8104.31
481.795	8105.21
482.166	8326.45
482.537	8482.83
482.908	8674.91
483.279	8778.19
483.65	8857.96
484.021	9037.62
484.391	9166.43
484.762	9201.9
485.133	9270.83
485.503	9437.83
485.874	9718.28
486.244	9768.44
486.615	9942.22
486.985	10120.98
487.356	10301.54
487.726	10430.8
488.097	10587.63
488.467	10623.79
488.837	10919.6
489.207	10974.51
489.578	11097.45
489.948	11261.96
490.318	11425.12
490.688	11476.2
491.058	11635.29
491.428	11807.49
491.798	12000.25
492.168	12254.93
492.538	12204.99
492.908	12418.32
493.278	12572.44
493.648	12555.49
494.017	12832.54
494.387	12900.56
494.757	12985.08
495.126	13152.31
495.496	13191.4
495.866	13345.75
496.235	13469.36
496.605	13547.78
496.974	13650.15
497.344	13842.91
497.713	13872.29
498.082	14046.98
498.452	14194.99
498.821	14250.59
499.19	14312.96
499.559	14502.33
499.928	14578.03
500.298	14693.06
500.667	14821.64
501.036	14826.84
501.405	14960.4
501.774	15012.83
502.143	15165.14
502.512	15279.71
502.88	15380.73
503.249	15439.93
503.618	15545.24
503.987	15681.51
504.356	15693.49
504.724	15866.14
505.093	16006.25
505.462	16023.87
505.83	16095.06
506.199	16312.9
506.567	16533.01
506.936	16507.7
507.304	16799.9
507.672	16831.31
508.041	16942.27
508.409	17026.56
508.777	17142.94
509.145	17267.68
509.514	17362.14
509.882	17490.27
510.25	17595.36
510.618	17710.61
510.986	17827.89
511.354	18070.15
511.722	18257.94
512.09	18360.53
512.458	18397.82
512.826	18468.33
513.193	18601.43
513.561	18767.53
513.929	18858.6
514.297	19074.19
514.664	19262.66
515.032	19352.37
515.4	19515.31
515.767	19582.42
516.135	19681.63
516.502	19659.03
516.869	20113.26
517.237	20105.35
517.604	20176.08
517.972	20255.63
518.339	20471.89
518.706	20625.11
519.073	20693.35
519.44	20896.96
519.808	21115.49
520.175	21076.85
520.542	21420.11
520.909	21604.74
521.276	21561.13
521.643	21823.27
522.009	21943.72
522.376	22194.33
522.743	22286.76
523.11	22482.91
523.477	22737.59
523.843	22885.61
524.21	23148.66
524.577	23411.93
524.943	23447.41
525.31	23550.91
525.676	23760.39
526.043	23978.24
526.409	24084.45
526.776	24400.15
527.142	24325.12
527.508	24573.7
527.874	24800.82
528.241	24940.25
528.607	24933.92
528.973	25235.38
529.339	25324.42
529.705	25457.07
530.071	25780.23
530.437	25879.66
530.803	26013.67
531.169	26211.85
531.535	26161.23
531.901	26371.85
532.267	26492.98
532.632	26728
532.998	26861.78
533.364	26951.27
533.73	27195.78
534.095	27300.86
534.461	27487.98
534.826	27549.45
535.192	27736.11
535.557	27843.67
535.923	27905.59
536.288	28016.55
536.653	28191.01
537.019	28101.75
537.384	28394.39
537.749	28414.96
538.114	28477.33
538.479	28642.75
538.845	28777.44
539.21	28834.16
539.575	28908.28
539.94	29044.1
540.305	29291.09
540.67	29185.33
541.034	29451.09
541.399	29489.51
541.764	29644.98
542.129	29762.72
542.494	29747.81
542.858	29912.77
543.223	29954.58
543.587	30115.48
543.952	30230.28
544.316	30226.44
544.681	30365.19
545.045	30535.81
545.41	30684.05
545.774	30668.91
546.138	30767.21
546.503	30877.27
546.867	30941.22
547.231	31136.24
547.595	31179.18
547.959	31451.94
548.324	31354.32
548.688	31520.64
549.052	31785.27
549.416	31790.92
549.779	31861.42
550.143	31920.86
550.507	32248.53
550.871	32289.21
551.235	32168.08
551.599	32496.21
551.962	32571.69
552.326	32631.8
552.689	32899.81
553.053	32838.12
553.417	32975.29
553.78	33405.34
554.143	33302.74
554.507	33485.11
554.87	33361.27
555.234	33852.1
555.597	33627.25
555.96	34042.61
556.323	34075.83
556.686	34144.07
557.05	34422.03
557.413	34527.11
557.776	34723.72
558.139	34991.74
558.502	34909.25
558.865	35096.37
559.228	35426.53
559.59	35507.88
559.953	35382.23
560.316	35854.99
560.679	35789
561.041	36100.18
561.404	36199.84
561.767	36522.32
562.129	36457.01
562.492	36760.28
562.854	36892.93
563.217	36813.83
563.579	37150.55
563.941	37351.67
564.304	37521.39
564.666	37607.03
565.028	37702.4
565.39	37915.27
565.753	38037.76
566.115	38248.37
566.477	38405.66
566.839	38438.2
567.201	38723.61
567.563	38669.15
567.925	39004.51
568.287	38958.18
568.648	39190.04
569.01	39219.65
569.372	39689.92
569.734	39550.03
570.095	39731.27
570.457	39842.68
570.819	40083.13
571.18	40206.29
571.542	40421.88
571.903	40385.49
572.265	40667.29
572.626	40673.85
572.987	40667.52
573.349	40793.39
573.71	41018.7
574.071	40956.78
574.432	41100.05
574.794	41415.07
575.155	41293.72
575.516	41386.14
575.877	41675.85
576.238	41749.07
576.599	41891.21
576.96	41895.96
577.32	41902.29
577.681	42095.5
578.042	42152.68
578.403	42158.55
578.763	42134.37
579.124	42365.1
579.485	42335.5
579.845	42618.65
580.206	42431.09
580.566	42553.8
580.927	42617.3
581.287	42842.38
581.648	42834.24
582.008	42757.86
582.368	42588.6
582.728	42836.05
583.089	42702.94
583.449	42823.85
583.809	42862.71
584.169	42969.15
584.529	42712.44
584.889	43069.71
585.249	42743.85
585.609	42763.28
585.969	43072.88
586.329	42853.68
586.688	43004.63
587.048	43149.26
587.408	42813.22
587.768	42922.6
588.127	42951.3
588.487	43049.38
588.846	43433.1
589.206	43132.99
589.565	43175.25
589.925	43118.98
590.284	43074.91
590.643	43184.51
591.003	43324.4
591.362	43444.62
591.721	43300.67
592.08	43322.36
592.44	43435.13
592.799	43537.5
593.158	43501.57
593.517	43300.9
593.876	43396.03
594.235	43455.24
594.593	43410.95
594.952	43692.98
595.311	43424.28
595.67	43501.12
596.029	43663.6
596.387	43658.85
596.746	43709.02
597.104	43487.33
597.463	43592.41
597.822	43913.99
598.18	43552.64
598.538	43601.45
598.897	43834.67
599.255	43737.27
599.613	44181.1
599.972	43796.7
600.33	44097.48
600.688	43927.09
601.046	43995.11
601.404	44117.37
601.762	44031.95
602.12	44198.05
602.478	44171.83
602.836	44343.35
603.194	44143.81
603.552	44174.09
603.91	43999.86
604.268	44256.12
604.625	44180.19
604.983	44479.4
605.341	44316.69
605.698	44490.02
606.056	44518.49
606.413	44454.54
606.771	44628.77
607.128	44699.28
607.485	44560.98
607.843	44580.64
608.2	44708.54
608.557	44863.11
608.914	44626.74
609.272	45004.58
609.629	45062.88
609.986	45095.42
610.343	44911.25
610.7	45227.85
611.057	45108.53
611.414	45111.24
611.771	45144.24
612.127	45272.82
612.484	45283.22
612.841	45481.85
613.198	45279.37
613.554	45248.41
613.911	45450.44
614.267	45520.27
614.624	45438.92
614.98	45607.5
615.337	45821.06
615.693	45700.83
616.05	45708.52
616.406	45978.79
616.762	45769.31
617.118	45828.96
617.475	45787.84
617.831	45875.06
618.187	46000.94
618.543	45981.28
618.899	46107.83
619.255	46185.34
619.611	45914.39
619.967	46268.5
620.323	46287.48
620.678	46098.34
621.034	45909.64
621.39	46210.42
621.746	46124.78
622.101	46497.42
622.457	46219.69
622.812	46173.59
623.168	46452.9
623.523	46327.26
623.879	46395.05
624.234	46265.56
624.589	46181.72
624.945	46349.85
625.3	46256.75
625.655	46200.48
626.01	46282.96
626.365	46245.22
626.72	46369.97
627.075	46212.68
627.43	46052.69
627.785	46134.27
628.14	46230.31
628.495	46313.47
628.85	46095.17
629.205	45955.29
629.559	46155.51
629.914	46008.62
630.269	46032.12
630.623	45977.21
630.978	45793.03
631.332	46079.81
631.687	45979.47
632.041	45891.56
632.396	45960.03
632.75	45729.98
633.104	45756.42
633.459	45527.73
633.813	45712.36
634.167	45573.38
634.521	45688.86
634.875	45624.9
635.229	45504.91
635.583	45234.4
635.937	45323.67
636.291	45334.51
636.645	45332.03
636.999	45249.77
637.352	45288.64
637.706	45055.88
638.06	45209.77
638.413	45165.25
638.767	45045.26
639.121	45022.88
639.474	44779.05
639.828	44777.69
640.181	44929.55
640.534	44926.39
640.888	44680.97
641.241	44585.38
641.594	44571.14
641.947	44665.61
642.301	44714.64
642.654	44690.69
643.007	44635.1
643.36	44506.74
643.713	44479.17
644.066	44509.68
644.419	44299.97
644.771	44146.52
645.124	43832.86
645.477	43682.13
645.83	43292.31
646.182	43165.98
646.535	43004.86
646.888	43101.13
647.24	42919.89
647.593	43212.54
647.945	43181.58
648.298	42870.85
648.65	42725.32
649.002	42655.49
649.355	42869.49
649.707	42801.25
650.059	42885.77
650.411	43268.35
650.763	43487.56
651.115	43772.52
651.467	43467.44
651.819	43501.12
652.171	43529.14
652.523	43454.79
652.875	43378.18
653.227	43005.08
653.578	43412.76
653.93	43367.79
654.282	43267.9
654.633	43067
654.985	43168.47
655.337	43208.69
655.688	43138.41
656.039	43177.51
656.391	42728.03
656.742	42833.79
657.094	42885.77
657.445	43056.61
657.796	43179.32
658.147	42746.79
658.498	42925.76
658.849	42849.16
659.2	42869.72
659.551	42718.99
659.902	42780.68
660.253	42660.23
660.604	42916.95
660.955	42641.93
661.306	42790.85
661.656	42713.57
662.007	42560.12
662.358	42529.16
662.708	42611.42
663.059	42520.12
663.409	42192.45
663.76	42521.03
664.11	42375.27
664.461	42502.05
664.811	42369.85
665.161	42422.05
665.511	42365.33
665.862	42359.45
666.212	42529.39
666.562	42628.37
666.912	42496.62
667.262	42364.87
667.612	42419.11
667.962	42478.32
668.312	42342.95
668.662	42494.36
669.011	42314.93
669.361	42267.02
669.711	42252.11
670.06	42234.48
670.41	42205.1
670.76	42125.79
671.109	42264.31
671.459	42093.92
671.808	42052.11
672.157	42225.44
672.507	41858.22
672.856	41988.84
673.205	41871.33
673.554	41994.94
673.904	41846.47
674.253	42027.48
674.602	41794.95
674.951	41312.47
675.3	41190.89
675.649	41806.7
675.998	41559.47
676.346	41596.08
676.695	41771.44
677.044	41508.17
677.393	41649.19
677.741	41782.97
678.09	41597.66
678.438	41560.38
678.787	41496.87
679.135	41536.2
679.484	41336.43
679.832	41588.62
680.181	41287.39
680.529	41331.91
680.877	41212.36
681.225	41099.82
681.573	41345.47
681.922	41006.72
682.27	40942.54
682.618	41004.01
682.966	40888.98
683.314	40893.5
683.661	40750.45
684.009	40509.1
684.357	40539.61
684.705	40442.67
685.053	40556.11
685.4	40433.63
685.748	40274.31
686.095	40269.56
686.443	40155.44
686.79	40017.14
687.138	39967.2
687.485	40011.26
687.832	39883.58
688.18	40044.26
688.527	39640.88
688.874	39686.75
689.221	39516.36
689.568	39430.04
689.915	39318.85
690.262	39461.9
690.609	39278.85
690.956	39339.42
691.303	39071.18
691.65	38960.67
691.997	38919.32
692.344	38701.47
692.69	38816.72
693.037	38761.35
693.383	38444.07
693.73	38552.77
694.077	38328.82
694.423	38407.24
694.769	38390.52
695.116	38117.53
695.462	38246.56
695.808	38000.24
696.155	37921.6
696.501	37580.82
696.847	37630.76
697.193	37390.99
697.539	37599.12
697.885	37315.97
698.231	37182.19
698.577	37310.09
698.923	37183.09
699.269	36837.11
699.614	36731.12
699.96	36649.09
700.306	36804.34
700.651	36636.66
700.997	36573.84
701.342	36457.01
701.688	36396.44
702.033	36191.93
702.379	36231.02
702.724	36085.72
703.069	36211.82
703.415	35791.49
703.76	35650.02
704.105	35577.48
704.45	35548.78
704.795	35342.91
705.14	35243.71
705.485	35339.97
705.83	35115.57
706.175	35265.85
706.52	35048.23
706.865	34954.9
707.209	35070.83
707.554	34736.6
707.899	34890.72
708.243	34711.06
708.588	34642.14
708.932	34389.04
709.277	34402.6
709.621	34396.04
709.966	34173.68
710.31	34436.04
710.654	33941.37
710.998	34150.85
711.342	34086.9
711.687	33870.63
712.031	33841.48
712.375	33738.66
712.719	33787.93
713.063	33654.82
713.407	33681.49
713.75	33600.13
714.094	33514.03
714.438	33434.04
714.782	33430.87
715.125	33217.09
715.469	33274.27
715.812	33196.98
716.156	33043.31
716.499	32929.42
716.843	32924.67
717.186	32697.78
717.53	32893.49
717.873	32749.08
718.216	32745.47
718.559	32637.22
718.902	32603.78
719.246	32571.23
719.589	32171.7
719.932	32338.02
720.275	32339.15
720.617	32209.89
720.96	32267.06
721.303	32194.29
721.646	32165.82
721.989	31901.42
722.331	32098.48
722.674	31849.67
723.016	32026.16
723.359	31810.12
723.701	31812.84
724.044	31640.41
724.386	31558.83
724.729	31559.28
725.071	31611.71
725.413	31564.71
725.755	31453.52
726.097	31311.38
726.439	31162.91
726.782	31132.18
727.124	31326.29
727.465	30987.32
727.807	31114.1
728.149	31031.84
728.491	30938.06
728.833	31188.22
729.175	30899.87
729.516	30739.19
729.858	30784.84
730.199	30971.73
730.541	30825.52
730.882	30646.99
731.224	30809.92
731.565	30550.5
731.906	30536.71
732.248	30610.83
732.589	30281.58
732.93	30265.53
733.271	30216.27
733.612	30364.29
733.953	30329.26
734.294	30169.26
734.635	30090.17
734.976	30063.28
735.317	29895.82
735.658	29965.2
735.999	30047.23
736.339	29919.33
736.68	29994.8
737.021	29818.54
737.361	29713.91
737.702	29807.69
738.042	29703.74
738.383	29632.78
738.723	29741.7
739.063	29592.78
739.404	29663.97
739.744	29541.71
740.084	29408.15
740.424	29557.3
740.764	29390.98
741.104	29440.24
741.444	29187.59
741.784	29102.17
742.124	29229.85
742.464	29157.99
742.804	29101.72
743.143	28923.87
743.483	29084.32
743.823	28826.47
744.162	28882.29
744.502	28803.88
744.841	28677.1
745.181	28720.26
745.52	28664.67
745.86	28751.67
746.199	28609.08
746.538	28531.57
746.877	28471.23
747.216	28547.38
747.556	28336.77
747.895	28405.69
748.234	28245.92
748.573	28123.67
748.911	28215.87
749.25	28185.13
749.589	28074.63
749.928	28152.37
750.267	28176.1
750.605	28001.64
750.944	27851.58
751.283	27780.17
751.621	27828.53
751.96	27750.57
752.298	27619.5
752.636	27598.71
752.975	27538.82
753.313	27440.75
753.651	27522.55
753.989	27273.29
754.327	27360.07
754.666	27132.28
755.004	27227.42
755.342	27272.62
755.679	27049.35
756.017	27020.65
756.355	27048.89
756.693	26957.82
757.031	26957.82
757.368	26733.65
757.706	26732.97
758.044	26662.69
758.381	26770.71
758.719	26553.09
759.056	26615.01
759.394	26496.82
759.731	26228.35
760.068	26179.09
760.405	26154.68
760.743	26157.84
761.08	26155.13
761.417	25984.29
761.754	25875.36
762.091	25844.18
762.428	25831.07
762.765	25624.07
763.102	25633.11
763.438	25446
763.775	25234.7
764.112	25253.46
764.449	25272.67
764.785	25215.5
765.122	25076.29
765.458	24983.41
765.795	24842.85
766.131	24863.19
766.467	24668.62
766.804	24646.7
767.14	24576.42
767.476	24609.41
767.812	24395.86
768.148	24501.62
768.485	24255.75
768.821	24219.14
769.157	24150.44
769.492	24096.65
769.828	24148.63
770.164	23891.91
770.5	23646.5
770.836	23781.63
771.171	23622.77
771.507	23549.78
771.842	23296.9
772.178	23466.39
772.513	23310.69
772.849	23256
773.184	23060.52
773.519	22993.18
773.855	23017.13
774.19	22864.6
774.525	22841.32
774.86	22809
775.195	22785.05
775.53	22715.22
775.865	22520.42
776.2	22361.11
776.535	22211.05
776.87	22177.16
777.205	22164.05
777.539	21952.98
777.874	22108.91
778.209	21962.02
778.543	21885.41
778.878	21699.43
779.212	21658.53
779.547	21579.21
779.881	21597.29
780.215	21392.77
780.55	21442.26
780.884	21266.22
781.218	21199.78
781.552	21319.55
781.886	21143.96
782.22	21062.84
782.554	20947.81
782.888	20710.98
783.222	20728.38
783.556	20567.26
783.889	20591.89
784.223	20480.25
784.557	20405.9
784.89	20453.36
785.224	20265.34
785.557	20170.88
785.891	20190.09
786.224	20022.19
786.558	20036.87
786.891	19968.63
787.224	19878.91
787.557	19739.25
787.891	19745.13
788.224	19657.68
788.557	19691.35
788.89	19548.75
789.223	19557.79
789.556	19420.17
789.888	19397.34
790.221	19157.12
790.554	19101.08
790.887	19101.53
791.219	19076.9
791.552	19036.9
791.884	18840.3
792.217	18848.66
792.549	18783.57
792.882	18647.31
793.214	18562.11
793.546	18588.55
793.879	18531.83
794.211	18382
794.543	18467.42
794.875	18288.22
795.207	18445.96
795.539	18316.69
795.871	18230.59
796.203	18081.22
796.535	17969.81
796.867	17906.99
797.198	17882.58
797.53	17871.51
797.862	17782.24
798.193	17747.22
798.525	17680.33
798.856	17653.89
799.188	17463.16
799.519	17377.74
799.85	17397.4
800.182	17387.68
800.513	17375.02
800.844	17283.95
801.175	17289.38
801.506	17250.05
801.837	17184.29
802.168	17083.05
802.499	17029.5
802.83	16878.54
803.161	16865.88
803.491	16872.89
803.822	16862.72
804.153	16798.32
804.483	16625.44
804.814	16724.87
805.145	16646.45
805.475	16595.16
805.805	16606.68
806.136	16510.87
806.466	16528.72
806.796	16456.4
807.126	16269.29
807.457	16254.15
807.787	16331.89
808.117	16094.15
808.447	16029.3
808.777	16095.28
809.107	16013.93
809.436	15901.39
809.766	15969.41
810.096	15965.57
810.426	15875.63
810.755	15868.4
811.085	15848.28
811.414	15755.86
811.744	15585.92
812.073	15522.87
812.403	15525.58
812.732	15389.99
813.061	15467.5
813.39	15454.62
813.719	15380.95
814.049	15396.54
814.378	15314.29
814.707	15366.26
815.036	15230.67
815.365	15235.64
815.693	15074.74
816.022	15086.04
816.351	15067.06
816.68	14878.37
817.008	14999.72
817.337	14879.72
817.665	14862.1
817.994	14850.12
818.322	14843.34
818.651	14750.46
818.979	14695.32
819.307	14759.05
819.636	14709.1
819.964	14587.07
820.292	14726.28
820.62	14621.2
820.948	14555.66
821.276	14632.04
821.604	14586.17
821.932	14610.12
822.259	14588.66
822.587	14535.78
822.915	14519.51
823.243	14553.4
823.57	14492.84
823.898	14593.4
824.225	14467.53
824.553	14525.61
824.88	14411.49
825.207	14551.14
825.535	14531.93
825.862	14530.8
826.189	14473.63
826.516	14536.91
826.843	14562.67
827.17	14444.7
827.497	14590.24
827.824	14532.84
828.151	14570.35
828.478	14479.96
828.805	14478.6
829.131	14431.6
829.458	14435.89
829.785	14412.16
830.111	14436.57
830.438	14420.98
830.764	14419.17
831.09	14404.03
831.417	14314.76
831.743	14434.76
832.069	14380.07
832.395	14351.37
832.722	14385.72
833.048	14347.31
833.374	14355.67
833.7	14361.77
834.026	14278.83
834.351	14281.77
834.677	14329.23
835.003	14394.31
835.329	14268.21
835.654	14245.61
835.98	14164.26
836.306	14198.16
836.631	14190.7
836.956	14218.04
837.282	14162
837.607	14097.82
837.932	14082.23
838.258	14115.45
838.583	14101.89
838.908	13864.38
839.233	13936.02
839.558	13975.34
839.883	13825.51
840.208	13865.74
840.533	13888.79
840.858	13900.76
841.182	13905.51
841.507	13867.54
841.832	13786.42
842.156	13713.42
842.481	13643.14
842.805	13669.36
843.13	13612.86
843.454	13624.61
843.778	13526.76
844.103	13568.12
844.427	13544.62
844.751	13485.63
845.075	13420.1
845.399	13540.1
845.723	13362.47
846.047	13437.5
846.371	13210.16
846.695	13279.76
847.019	13037.51
847.343	13062.14
847.666	12932.43
847.99	12941.92
848.313	12923.61
848.637	12803.84
848.96	12735.15
849.284	12795.71
849.607	12728.14
849.931	12656.5
850.254	12611.53
850.577	12641.59
850.9	12464.19
851.223	12382.61
851.546	12389.39
851.869	12299.9
852.192	12428.94
852.515	12284.54
852.838	12160.92
853.161	12125.67
853.483	12189.62
853.806	12060.81
854.129	11998.89
854.451	12016.75
854.774	11970.19
855.096	11889.74
855.419	11895.17
855.741	11858.11
856.063	11833.7
856.385	11743.53
856.708	11687.26
857.03	11698.79
857.352	11651.11
857.674	11601.39
857.996	11535.4
858.318	11508.28
858.64	11459.7
858.961	11456.31
859.283	11422.86
859.605	11367.05
859.926	11344.67
860.248	11311
860.57	11282.53
860.891	11296.31
861.212	11155.75
861.534	11194.17
861.855	11241.17
862.176	11226.71
862.498	11231.91
862.819	11181.74
863.14	11154.17
863.461	11176.09
863.782	11104
864.103	11139.48
864.424	11023.78
864.745	11008.64
865.065	10999.82
865.386	10977
865.707	10907.62
866.027	10944.91
866.348	10955.76
866.668	10985.59
866.989	10925.48
867.309	10871.92
867.63	10836.89
867.95	10798.02
868.27	10764.8
868.59	10711.02
868.91	10680.96
869.23	10771.81
869.55	10680.28
869.87	10752.6
870.19	10740.85
870.51	10626.95
870.83	10619.95
871.15	10597.57
871.469	10585.6
871.789	10652.49
872.109	10572.04
872.428	10485.49
872.748	10515.77
873.067	10541.53
873.386	10514.19
873.706	10480.52
874.025	10489.33
874.344	10494.07
874.663	10451.36
874.982	10458.6
875.301	10365.49
875.62	10264.02
875.939	10302.21
876.258	10357.13
876.577	10297.24
876.896	10286.62
877.214	10245.95
877.533	10168.43
877.852	10259.05
878.17	10278.71
878.489	10205.27
878.807	10199.17
879.125	10190.35
879.444	10220.64
879.762	10180.86
880.08	10118.94
880.398	10082.79
880.716	10128.21
881.034	10052.96
881.352	10055.67
881.67	10035.78
881.988	10069
882.306	10063.8
882.624	9940.87
882.941	9844.83
883.259	9881.66
883.577	9895.67
883.894	9859.51
884.212	9848.44
884.529	9891.38
884.846	9762.57
885.164	9815.22
885.481	9743.36
885.798	9747.43
886.115	9606.87
886.432	9683.47
886.75	9594.21
887.067	9584.04
887.383	9629.24
887.7	9586.98
888.017	9595.79
888.334	9565.51
888.651	9595.11
888.967	9533.2
889.284	9417.72
889.6	9400.09
889.917	9341.79
890.233	9382.47
890.55	9324.16
890.866	9308.57
891.182	9224.5
891.498	9232.19
891.815	9177.5
892.131	9176.59
892.447	9154.45
892.763	9152.64
893.079	9137.05
893.395	9172.98
893.71	9055.69
894.026	9020.21
894.342	9040.78
894.657	8995.58
894.973	9002.36
895.289	8967.11
895.604	8989.71
895.92	8873.78
896.235	8804.85
896.55	8789.71
896.865	8818.19
897.181	8747.45
897.496	8760.56
897.811	8734.57
898.126	8668.59
898.441	8627.46
898.756	8668.81
899.071	8501.58
899.386	8568.93
899.7	8499.78
900.015	8501.81
900.33	8463.17
900.644	8448.48
900.959	8493.67
901.273	8442.6
901.588	8377.29
901.902	8307.01
902.216	8253
902.531	8256.17
902.845	8253.68
903.159	8122.39
903.473	8137.98
903.787	8114.7
904.101	7983.63
904.415	8046.68
904.729	7986.8
905.042	7992.45
905.356	7981.15
905.67	7959.45
905.984	7970.75
906.297	7953.58
906.611	7870.19
906.924	7879.45
907.237	7816.4
907.551	7822.05
907.864	7763.52
908.177	7718.55
908.491	7741.15
908.804	7697.09
909.117	7549.07
909.43	7605.34
909.743	7490.09
910.056	7517.2
910.368	7399.92
910.681	7436.08
910.994	7462.97
911.307	7371.67
911.619	7262.75
911.932	7318.11
912.244	7253.26
912.557	7305.46
912.869	7240.15
913.181	7179.13
913.494	7186.14
913.806	7135.74
914.118	7144.56
914.43	7036.09
914.742	7038.8
915.054	7058.23
915.366	7056.65
915.678	6990.66
915.99	6878.58
916.302	6893.72
916.613	6879.93
916.925	6928.07
917.236	6874.73
917.548	6783.89
917.859	6834.28
918.171	6750.9
918.482	6786.6
918.794	6710.67
919.105	6670.22
919.416	6621.63
919.727	6608.53
920.038	6662.08
920.349	6573.05
920.66	6495.76
920.971	6535.31
921.282	6480.85
921.593	6438.14
921.903	6375.99
922.214	6331.47
922.525	6334.18
922.835	6312.04
923.146	6323.79
923.456	6306.39
923.767	6237.92
924.077	6182.1
924.387	6235.2
924.697	6207.18
925.008	6156.34
925.318	6159.5
925.628	6129.9
925.938	6066.17
926.248	6056.45
926.558	6004.02
926.867	6017.58
927.177	5971.26
927.487	5954.98
927.796	5923.35
928.106	5907.3
928.416	5840.19
928.725	5833.41
929.034	5809.45
929.344	5776.68
929.653	5719.51
929.962	5735.1
930.271	5732.17
930.581	5694.43
930.89	5677.48
931.199	5649.91
931.508	5620.76
931.817	5622.56
932.125	5568.55
932.434	5538.5
932.743	5479.97
933.051	5483.81
933.36	5494.88
933.669	5424.83
933.977	5385.96
934.286	5386.86
934.594	5404.04
934.902	5366.98
935.21	5313.42
935.519	5344.15
935.827	5284.72
936.135	5258.05
936.443	5217.6
936.751	5183.93
937.059	5173.99
937.367	5140.54
937.674	5211.95
937.982	5185.97
938.29	5095.12
938.597	5118.4
938.905	5053.09
939.213	5043.14
939.52	5068.68
939.827	5074.56
940.135	4951.17
940.442	4982.58
940.749	4938.06
941.056	4928.34
941.363	4889.48
941.67	4813.55
941.977	4878.4
942.284	4829.14
942.591	4837.95
942.898	4822.36
943.205	4771.51
943.511	4747.11
943.818	4738.07
944.125	4693.55
944.431	4628.69
944.738	4618.07
945.044	4636.6
945.35	4607.9
945.657	4624.62
945.963	4610.61
946.269	4512.08
946.575	4557.96
946.881	4505.08
947.187	4522.25
947.493	4480.9
947.799	4482.48
948.105	4450.62
948.41	4392.99
948.716	4392.54
949.022	4423.27
949.327	4399.09
949.633	4349.83
949.938	4360.45
950.244	4353.44
950.549	4323.84
950.854	4265.09
951.16	4292.88
951.465	4254.69
951.77	4268.02
952.075	4238.65
952.38	4181.47
952.685	4148.93
952.99	4170.4
953.294	4162.49
953.599	4149.38
953.904	4105.99
954.209	4091.08
954.513	4028.93
954.818	4019.67
955.122	4070.74
955.426	4014.47
955.731	3978.99
956.035	3975.38
956.339	3996.17
956.643	3961.14
956.948	3915.04
957.252	3902.16
957.556	3884.3
957.86	3882.5
958.163	3875.72
958.467	3832.1
958.771	3864.87
959.075	3806.11
959.378	3777.41
959.682	3779.9
959.985	3764.08
960.289	3703.97
960.592	3726.34
960.896	3729.73
961.199	3683.86
961.502	3687.25
961.805	3678.21
962.108	3620.81
962.411	3630.75
962.714	3588.72
963.017	3550.08
963.32	3593.01
963.623	3588.04
963.926	3582.84
964.228	3593.24
964.531	3552.56
964.833	3528.83
965.136	3518.89
965.438	3498.33
965.741	3507.82
966.043	3453.13
966.345	3429.18
966.648	3445.9
966.95	3423.07
967.252	3420.81
967.554	3347.82
967.856	3396.86
968.158	3326.81
968.46	3303.08
968.761	3345.34
969.063	3346.01
969.365	3269.18
969.666	3278.44
969.968	3253.13
970.269	3246.81
970.571	3221.5
970.872	3239.12
971.174	3152.35
971.475	3202.51
971.776	3187.15
972.077	3191.44
972.378	3134.27
972.679	3124.78
972.98	3107.83
973.281	3093.82
973.582	3084.1
973.883	3099.92
974.183	3055.85
974.484	3041.39
974.785	3003.88
975.085	3021.95
975.386	3031.45
975.686	3041.16
975.986	2955.06
976.287	2973.14
976.587	2965.68
976.887	2937.21
977.187	2950.54
977.487	2906.7
977.787	2876.42
978.087	2889.53
978.387	2907.16
978.687	2882.07
978.987	2844.78
979.286	2820.38
979.586	2827.61
979.885	2829.19
980.185	2827.61
980.484	2784.45
980.784	2780.6
981.083	2745.13
981.382	2777.22
981.682	2739.02
981.981	2745.35
982.28	2705.8
982.579	2690.66
982.878	2710.55
983.177	2694.28
983.475	2680.95
983.774	2658.12
984.073	2650.66
984.372	2652.47
984.67	2668.52
984.969	2614.28
985.267	2677.78
985.566	2603.43
985.864	2598.91
986.162	2561.18
986.461	2555.3
986.759	2556.88
987.057	2512.82
987.355	2526.83
987.653	2506.94
987.951	2488.64
988.249	2486.38
988.547	2479.82
988.844	2498.13
989.142	2466.04
989.44	2432.59
989.737	2424.23
990.035	2417
990.332	2387.39
990.63	2399.37
990.927	2412.25
991.224	2378.36
991.521	2344.68
991.819	2383.78
992.116	2351.69
992.413	2335.87
992.71	2307.4
993.006	2309.43
993.303	2309.2
993.6	2290.67
993.897	2284.8
994.193	2309.88
994.49	2280.96
994.787	2260.62
995.083	2260.84
995.379	2234.63
995.676	2218.36
995.972	2210
996.268	2208.19
996.565	2176.55
996.861	2188.53
997.157	2185.82
997.453	2163.9
997.749	2128.87
998.044	2137.01
998.34	2109.89
998.636	2146.5
998.932	2122.32
999.227	2108.53
999.523	2060.4
999.818	2069.21
1000.114	2052.94
1000.409	2050
1000.704	2033.28
1001	2042.32
1001.295	2007.52
1001.59	2013.39
1001.885	2025.6
1002.18	1998.48
1002.475	1983.56
1002.77	1982.21
1003.065	1942.89
1003.359	1928.88
1003.654	1955.54
1003.949	1904.24
1004.243	1918.71
1004.538	1867.18
1004.832	1901.76
1005.127	1915.54
1005.421	1896.33
1005.715	1834.19
1006.009	1860.63
1006.304	1880.52
1006.598	1825.6
1006.892	1847.75
1007.186	1815.43
1007.48	1845.26
1007.773	1788.99
1008.067	1787.64
1008.361	1762.78
1008.655	1765.04
1008.948	1731.14
1009.242	1771.82
1009.535	1740.18
1009.829	1726.62
1010.122	1724.36
1010.415	1709.22
1010.708	1722.78
1011.001	1680.29
1011.295	1662.22
1011.588	1679.62
1011.881	1662.67
1012.173	1648.66
1012.466	1637.36
1012.759	1629
1013.052	1601.88
1013.344	1624.25
1013.637	1629.9
1013.93	1594.87
1014.222	1577.47
1014.514	1593.07
1014.807	1600.75
1015.099	1578.38
1015.391	1566.17
1015.683	1568.89
1015.976	1551.71
1016.268	1531.37
1016.56	1519.17
1016.851	1511.71
1017.143	1500.86
1017.435	1471.03
1017.727	1488.89
1018.018	1490.02
1018.31	1475.78
1018.602	1436.46
1018.893	1427.65
1019.185	1429
1019.476	1395.56
1019.767	1386.74
1020.058	1432.39
1020.35	1396.46
1020.641	1351.26
1020.932	1365.73
1021.223	1356.91
1021.514	1377.25
1021.804	1337.25
1022.095	1336.8
1022.386	1319.4
1022.677	1328.44
1022.967	1300.87
1023.258	1275.79
1023.548	1285.73
1023.839	1283.92
1024.129	1284.82
1024.419	1252.51
1024.709	1264.03
1025	1263.81
1025.29	1221.78
1025.58	1249.57
1025.87	1222.45
1026.16	1248.67
1026.449	1214.77
1026.739	1231.72
1027.029	1176.35
1027.319	1176.81
1027.608	1189.91
1027.898	1182.23
1028.187	1175.22
1028.477	1162.79
1028.766	1144.49
1029.055	1136.58
1029.344	1145.17
1029.634	1130.7
1029.923	1124.83
1030.212	1132.96
1030.501	1114.66
1030.79	1118.95
1031.078	1102.46
1031.367	1077.82
1031.656	1086.19
1031.945	1075.34
1032.233	1084.6
1032.522	1068.79
1032.81	1065.85
1033.099	1062.46
1033.387	1039.63
1033.675	1043.7
1033.963	1021.78
1034.251	1059.07
1034.54	1042.57
1034.828	1003.48
1035.116	1003.25
1035.403	1022.23
1035.691	989.47
1035.979	990.6
1036.267	957.83
1036.554	990.82
1036.842	957.15
1037.129	948.79
1037.417	958.05
1037.704	927.32
1037.992	923.25
1038.279	929.35
1038.566	904.95
1038.853	904.95
1039.14	904.95
