Data from plate_porcelain_FLMS001491_067.txt Node
Date: Tue Feb 07 11:19:42 GMT 2017
User: dcchb
Spectrometer: FLMS00149
Trigger mode: 0
Integration Time (sec): 2.000000E-2
Scans to average: 10
Electric dark correction enabled: true
Nonlinearity correction enabled: false
Boxcar width: 0
XAxis mode: Wavelengths
Number of Pixels in Spectrum: 2048
>>>>>Begin Spectral Data<<<<<
341.393	-10.47
341.776	-10.47
342.16	-10.47
342.543	-57.24
342.927	-78.03
343.31	-48.2
343.693	-73.29
344.077	-46.85
344.46	-44.36
344.843	-70.8
345.226	-43.01
345.61	-29.45
345.993	-14.31
346.376	-10.01
346.759	11.45
347.142	41.74
347.525	17.33
347.908	43.54
348.291	73.37
348.674	80.61
349.057	112.24
349.44	105.01
349.823	133.71
350.206	188.4
350.588	249.19
350.971	247.83
351.354	247.15
351.737	273.82
352.119	288.51
352.502	291.9
352.884	316.53
353.267	321.95
353.65	343.2
354.032	352.46
354.414	364.67
354.797	370.54
355.179	359.47
355.562	375.96
355.944	371.67
356.326	381.39
356.709	385.46
357.091	383.65
357.473	389.52
357.855	394.95
358.238	390.65
358.62	399.24
359.002	395.4
359.384	396.08
359.766	380.03
360.148	402.86
360.53	397.21
360.912	411.22
361.294	384.78
361.676	394.04
362.057	389.75
362.439	394.72
362.821	395.17
363.203	393.37
363.584	402.86
363.966	401.27
364.348	387.04
364.729	378.45
365.111	400.37
365.493	387.04
365.874	393.59
366.256	408.96
366.637	397.43
367.019	386.13
367.4	408.51
367.781	403.53
368.163	413.25
368.544	411.44
368.925	377.09
369.306	410.77
369.688	393.14
370.069	420.26
370.45	406.47
370.831	399.92
371.212	423.2
371.593	408.96
371.974	424.78
372.355	425.91
372.736	416.19
373.117	437.43
373.498	446.02
373.879	408.51
374.26	425.91
374.641	439.69
375.021	417.55
375.402	423.2
375.783	452.35
376.163	467.94
376.544	476.3
376.925	444.89
377.305	460.26
377.686	490.09
378.066	471.56
378.447	473.82
378.827	478.79
379.208	481.27
379.588	464.32
379.968	482.85
380.349	500.71
380.729	514.27
381.109	488.05
381.489	499.35
381.87	506.81
382.25	484.44
382.63	522.63
383.01	535.96
383.39	540.48
383.77	518.33
384.15	519.24
384.53	546.13
384.91	561.5
385.29	556.98
385.67	559.01
386.049	569.18
386.429	555.4
386.809	569.41
387.189	572.12
387.568	594.04
387.948	594.72
388.328	603.3
388.707	592.91
389.087	607.6
389.466	620.7
389.846	627.71
390.225	631.1
390.605	655.28
390.984	641.95
391.363	637.43
391.743	657.54
392.122	669.97
392.501	666.58
392.881	682.17
393.26	682.17
393.639	699.8
394.018	689.4
394.397	728.5
394.776	713.36
395.155	750.64
395.534	745.9
395.913	735.96
396.292	745.67
396.671	744.77
397.05	787.48
397.429	768.95
397.808	782.51
398.186	791.77
398.565	786.8
398.944	770.3
399.323	779.34
399.701	823.86
400.08	819.79
400.458	841.49
400.837	837.65
401.215	864.31
401.594	857.31
401.972	845.33
402.351	892.11
402.729	886.91
403.107	908.38
403.486	895.95
403.864	899.57
404.242	924.2
404.62	932.33
404.999	962.84
405.377	967.14
405.755	981.37
406.133	973.24
406.511	994.03
406.889	1014.82
407.267	1012.78
407.645	1040.58
408.023	1036.29
408.401	1061.37
408.779	1069.05
409.156	1077.19
409.534	1073.57
409.912	1121.71
410.29	1147.47
410.667	1127.81
411.045	1138.2
411.422	1167.58
411.8	1193.8
412.178	1193.12
412.555	1247.35
412.933	1248.03
413.31	1265.88
413.687	1282.61
414.065	1300.46
414.442	1302.95
414.819	1336.17
415.197	1307.92
415.574	1345.2
415.951	1360.35
416.328	1406.22
416.705	1395.82
417.082	1417.29
417.46	1416.16
417.837	1454.81
418.214	1454.13
418.591	1474.47
418.967	1473.79
419.344	1504.75
419.721	1530.51
420.098	1542.49
420.475	1531.41
420.852	1558.98
421.228	1581.81
421.605	1587.68
421.982	1625.2
422.358	1655.48
422.735	1671.75
423.111	1652.99
423.488	1711.3
423.864	1695.48
424.241	1729.83
424.617	1764.63
424.994	1787
425.37	1776.61
425.746	1813.22
426.123	1826.55
426.499	1874.46
426.875	1857.06
427.251	1910.84
427.627	1932.53
428.003	1940.67
428.379	1962.82
428.756	2013.89
429.132	2037.84
429.507	2086.65
429.883	2076.03
430.259	2118.97
430.635	2140.89
431.011	2133.21
431.387	2197.16
431.763	2264.05
432.138	2282.58
432.514	2314.44
432.89	2302.69
433.265	2402.8
433.641	2423.59
434.016	2408.68
434.392	2440.32
434.767	2519.86
435.143	2525.51
435.518	2519.41
435.894	2585.4
436.269	2636.24
436.644	2655.68
437.02	2660.65
437.395	2690.93
437.77	2728.9
438.145	2796.92
438.52	2800.53
438.895	2789.91
439.271	2839.4
439.646	2917.82
440.021	2925.73
440.395	2923.02
440.77	2940.19
441.145	2985.39
441.52	3039.85
441.895	3029.68
442.27	3059.96
442.645	3071.94
443.019	3134.76
443.394	3089.79
443.769	3155.1
444.143	3141.09
444.518	3215.21
444.892	3223.57
445.267	3261.99
445.641	3237.81
446.016	3308.77
446.39	3316.68
446.764	3304.93
447.139	3299.73
447.513	3400.52
447.887	3432.38
448.262	3446.84
448.636	3494.98
449.01	3553.96
449.384	3525.71
449.758	3583.34
450.132	3669.44
450.506	3652.26
450.88	3626.95
451.254	3645.71
451.628	3708.76
452.002	3773.39
452.376	3778.81
452.75	3858.13
453.123	3914.63
453.497	3926.38
453.871	3989.43
454.244	4100.39
454.618	4092.93
454.992	4176.77
455.365	4144.91
455.739	4265.35
456.112	4291.79
456.486	4395.07
456.859	4408.85
457.232	4488.4
457.606	4499.47
457.979	4535.18
458.352	4649.07
458.725	4686.81
459.099	4755.28
459.472	4822.18
459.845	4899.69
460.218	4951.21
460.591	4931.55
460.964	4966.8
461.337	5118.66
461.71	5191.43
462.083	5270.98
462.456	5348.04
462.829	5356.4
463.201	5413.35
463.574	5426
463.947	5534.47
464.32	5679.55
464.692	5685.43
465.065	5771.3
465.438	5813.56
465.81	5942.82
466.183	5964.29
466.555	6129.71
466.928	6164.97
467.3	6164.29
467.672	6263.27
468.045	6390.27
468.417	6456.03
468.789	6488.8
469.161	6628.23
469.534	6714.56
469.906	6860.77
470.278	6893.76
470.65	6998.39
471.022	7180.76
471.394	7296.01
471.766	7274.99
472.138	7470.47
472.51	7615.1
472.882	7688.77
473.253	7790.46
473.625	7933.05
473.997	8040.17
474.369	8112.71
474.74	8228.64
475.112	8428.86
475.484	8561.29
475.855	8680.61
476.227	8761.51
476.598	9020.48
476.97	9041.5
477.341	9330.53
477.713	9489.4
478.084	9494.82
478.455	9795.15
478.827	9923.74
479.198	10165.09
479.569	10192.66
479.94	10463.38
480.311	10562.82
480.682	10762.58
481.053	11093.2
481.424	11203.25
481.795	11332.74
482.166	11458.39
482.537	11618.15
482.908	11873.52
483.279	12060.18
483.65	12250.68
484.021	12466.49
484.391	12619.26
484.762	12886.82
485.133	12927.73
485.503	13171.56
485.874	13423.53
486.244	13587.82
486.615	13784.88
486.985	13889.73
487.356	14233.68
487.726	14362.26
488.097	14664.4
488.467	14711.86
488.837	15059.87
489.207	15215.57
489.578	15573.31
489.948	15587.54
490.318	15848.55
490.688	15862.56
491.058	16264.59
491.428	16474.3
491.798	16572.37
492.168	16852.82
492.538	16934.17
492.908	17228.63
493.278	17391.34
493.648	17458
494.017	17675.62
494.387	17846.01
494.757	18016.18
495.126	18283.06
495.496	18319.45
495.866	18483.74
496.235	18767.35
496.605	18904.74
496.974	18966.89
497.344	19250.27
497.713	19283.04
498.082	19438.29
498.452	19699.98
498.821	19754.89
499.19	19876.92
499.559	20028.1
499.928	20085.95
500.298	20315.1
500.667	20614.75
501.036	20526.4
501.405	20685.26
501.774	20914.63
502.143	21043.9
502.512	21066.04
502.88	21352.14
503.249	21339.48
503.618	21528.18
503.987	21656.54
504.356	21770.88
504.724	22073.47
505.093	22110.08
505.462	22200.7
505.83	22423.29
506.199	22632.55
506.567	22843.17
506.936	22901.93
507.304	23169.72
507.672	23374.23
508.041	23193.22
508.409	23574.68
508.777	23763.82
509.145	23983.71
509.514	23971.73
509.882	24175.79
510.25	24339.18
510.618	24537.36
510.986	24639.73
511.354	24759.05
511.722	25057.12
512.09	25179.15
512.458	25335.08
512.826	25561.52
513.193	25869.31
513.561	25865.92
513.929	26153.37
514.297	26419.57
514.664	26433.81
515.032	26650.53
515.4	26956.73
515.767	26941.14
516.135	27248.7
516.502	27153.57
516.869	27720.78
517.237	27741.57
517.604	27636.04
517.972	28087.55
518.339	28219.07
518.706	28539.07
519.073	28564.83
519.44	28710.13
519.808	29151.71
520.175	29096.34
520.542	29541.98
520.909	29717.11
521.276	29666.49
521.643	30148.97
522.009	30384.89
522.376	30493.36
522.743	30661.95
523.11	30980.36
523.477	31304.64
523.843	31442.49
524.21	31907.11
524.577	32067.11
524.943	32083.61
525.31	32370.38
525.676	32638.85
526.043	32843.59
526.409	33069.12
526.776	33412.84
527.142	33651.93
527.508	33800.85
527.874	34238.8
528.241	34236.32
528.607	34428.63
528.973	34707.72
529.339	34795.17
529.705	35042.62
530.071	35403.97
530.437	35536.4
530.803	35862.94
531.169	36065.65
531.535	36054.12
531.901	36054.12
532.267	36282.14
532.632	36617.72
532.998	36804.61
533.364	37165.51
533.73	37220.19
534.095	37415.67
534.461	37488.66
534.826	37880.74
535.192	37948.08
535.557	38186.04
535.923	38114.86
536.288	38351.92
536.653	38628.97
537.019	38506.26
537.384	38758.01
537.749	38849.3
538.114	39056.3
538.479	39102.18
538.845	39324.55
539.21	39321.83
539.575	39603.63
539.94	39687.02
540.305	39850.63
540.67	39963.62
541.034	40208.36
541.399	40391.41
541.764	40256.05
542.129	40524.51
542.494	40621.69
542.858	40898.52
543.223	40849.48
543.587	41029.81
543.952	41167.21
544.316	41384.38
544.681	41391.38
545.045	41515.67
545.41	41852.16
545.774	41987.75
546.138	41931.93
546.503	42052.38
546.867	42171.25
547.231	42544.12
547.595	42538.7
547.959	42720.16
548.324	42731.91
548.688	42743.44
549.052	43065.69
549.416	43188.62
549.779	43223.65
550.143	43372.12
550.507	43746.8
550.871	43921.71
551.235	43857.76
551.599	44222.04
551.962	44254.81
552.326	44220.91
552.689	44584.07
553.053	44529.38
553.417	44653.22
553.78	45211.17
554.143	45039.2
554.507	45259.76
554.87	45396.25
555.234	45849.35
555.597	45600.54
555.96	45798.27
556.323	45941.09
556.686	46122.56
557.05	46478.03
557.413	46492.04
557.776	46612.72
558.139	46760.28
558.502	47012.03
558.865	47119.37
559.228	47376.99
559.59	47358.46
559.953	47602.29
560.316	47891.33
560.679	47867.15
561.041	48120.92
561.404	48416.06
561.767	48611.31
562.129	48453.8
562.492	48988.47
562.854	48955.25
563.217	48930.39
563.579	49270.05
563.941	49382.36
564.304	49672.3
564.666	49812.4
565.028	49917.71
565.39	50034.77
565.753	50301.21
566.115	50388.43
566.477	50444.93
566.839	50540.07
567.201	50819.16
567.563	50836.33
567.925	51091.24
568.287	51120.39
568.648	51311.8
569.01	51350.22
569.372	51626.59
569.734	51538.69
570.095	51823.43
570.457	51836.98
570.819	51961.5
571.18	51926.02
571.542	52268.84
571.903	52279.68
572.265	52383.41
572.626	52394.94
572.987	52512.22
573.349	52672.44
573.71	52752.21
574.071	52814.13
574.432	52857.07
574.794	53039.21
575.155	53101.81
575.516	53043.51
575.877	53106.56
576.238	53226.33
576.599	53363.5
576.96	53301.13
577.32	53369.83
577.681	53539.76
578.042	53608.46
578.403	53532.31
578.763	53637.16
579.124	53774.33
579.485	53747.89
579.845	53829.47
580.206	53755.8
580.566	53770.72
580.927	53880.32
581.287	53950.83
581.648	53873.09
582.008	53954.67
582.368	53930.49
582.728	54078.51
583.089	54019.07
583.449	53961.22
583.809	54019.3
584.169	54128
584.529	54119.64
584.889	54294.32
585.249	54090.94
585.609	53994.89
585.969	54219.07
586.329	54129.35
586.688	54250.93
587.048	54207.77
587.408	54102.01
587.768	54076.02
588.127	54186.53
588.487	54126.19
588.846	54318.73
589.206	54076.47
589.565	54129.35
589.925	54219.29
590.284	54253.87
590.643	54206.19
591.003	54461.1
591.362	54337.48
591.721	54299.07
592.08	54303.59
592.44	54398.73
592.799	54493.19
593.158	54401.21
593.517	54347.88
593.876	54341.78
594.235	54370.93
594.593	54431.72
594.952	54464.49
595.311	54383.36
595.67	54505.16
596.029	54538.61
596.387	54574.09
596.746	54573.86
597.104	54556.46
597.463	54573.41
597.822	54647.98
598.18	54632.84
598.538	54611.37
598.897	54765.04
599.255	54466.75
599.613	54922.55
599.972	54723.69
600.33	54682.11
600.688	54678.94
601.046	54766.4
601.404	54988.99
601.762	54807.98
602.12	55052.49
602.478	54972.27
602.836	55026.05
603.194	54878.26
603.552	54915.77
603.91	54823.8
604.268	55022.66
604.625	54916
604.983	55058.14
605.341	54992.61
605.698	55108.99
606.056	55127.97
606.413	55120.29
606.771	55225.6
607.128	55300.85
607.485	55170.68
607.843	55193.28
608.2	55295.88
608.557	55423.56
608.914	55341.53
609.272	55418.59
609.629	55475.31
609.986	55557.79
610.343	55412.26
610.7	55691.8
611.057	55633.95
611.414	55604.8
611.771	55670.1
612.127	55739.71
612.484	55722.08
612.841	55746.49
613.198	55733.83
613.554	55783.32
613.911	55933.6
614.267	55836.43
614.624	55856.09
614.98	55931.79
615.337	55996.88
615.693	55990.1
616.05	55897.67
616.406	56026.25
616.762	55964.56
617.118	56028.51
617.475	55962.98
617.831	56069.64
618.187	56114.61
618.543	56029.19
618.899	56283.87
619.255	56168.4
619.611	56120.94
619.967	56275.96
620.323	56279.81
620.678	56213.14
621.034	56122.75
621.39	56156.87
621.746	56163.88
622.101	56453.59
622.457	56195.97
622.812	56295.85
623.168	56327.94
623.523	56315.06
623.879	56402.74
624.234	56214.5
624.589	56319.13
624.945	56357.09
625.3	56374.94
625.655	56343.98
626.01	56334.95
626.365	56294.27
626.72	56288.62
627.075	56337.43
627.43	56286.81
627.785	56174.95
628.14	56307.83
628.495	56293.14
628.85	56211.78
629.205	56058.57
629.559	56270.99
629.914	56072.13
630.269	56166.81
630.623	56039.59
630.978	55971.79
631.332	56143.31
631.687	56181.73
632.041	56136.31
632.396	56074.39
632.75	56012.92
633.104	55956.42
633.459	55921.17
633.813	55857.44
634.167	55939.48
634.521	55832.81
634.875	55871.68
635.229	55794.39
635.583	55694.06
635.937	55645.25
636.291	55581.29
636.645	55657.9
636.999	55510.56
637.352	55705.13
637.706	55455.65
638.06	55571.58
638.413	55499.94
638.767	55453.39
639.121	55515.76
639.474	55316.67
639.828	55312.83
640.181	55426.95
640.534	55417
640.888	55218.36
641.241	55145.15
641.594	55194.41
641.947	55256.1
642.301	55160.74
642.654	55233.51
643.007	55192.15
643.36	55071.93
643.713	55128.88
644.066	55092.04
644.419	54921.42
644.771	54728.89
645.124	54522.34
645.477	54409.57
645.83	54245.73
646.182	54022.46
646.535	53987.66
646.888	54000.54
647.24	53913.31
647.593	54064.95
647.945	53941.34
648.298	53785.18
648.65	53637.84
649.002	53586.99
649.355	53836.93
649.707	53693.66
650.059	53860.89
650.411	54131.61
650.763	54160.99
651.115	54397.82
651.467	54370.25
651.819	54355.79
652.171	54299.52
652.523	54212.74
652.875	54181.33
653.227	53985.63
653.578	54167.54
653.93	54128.22
654.282	54048
654.633	53945.4
654.985	53970.71
655.337	53953.76
655.688	53946.08
656.039	54050.26
656.391	53809.14
656.742	53888.23
657.094	53883.03
657.445	54026.76
657.796	53844.84
658.147	53922.13
658.498	53786.99
658.849	53873.77
659.2	53806.88
659.551	53732.75
659.902	53894.33
660.253	53787.22
660.604	53856.59
660.955	53627.67
661.306	53803.26
661.656	53677.39
662.007	53604.4
662.358	53553.1
662.708	53607.33
663.059	53521.46
663.409	53472.2
663.76	53505.42
664.11	53574.11
664.461	53570.05
664.811	53599.42
665.161	53539.99
665.511	53429.94
665.862	53631.29
666.212	53617.28
666.562	53625.19
666.912	53485.08
667.262	53507.22
667.612	53477.62
667.962	53547.22
668.312	53458.41
668.662	53579.09
669.011	53466.77
669.361	53423.38
669.711	53377.28
670.06	53351.52
670.41	53387
670.76	53188.36
671.109	53356.72
671.459	53293.22
671.808	53248.02
672.157	53322.14
672.507	53035.82
672.856	53105.2
673.205	53149.27
673.554	53302.71
673.904	53139.78
674.253	53194.01
674.602	53080.79
674.951	52632.9
675.3	52529.4
675.649	53051.87
675.998	53008.25
676.346	52937.07
676.695	53023.62
677.044	52816.39
677.393	53008.03
677.741	52925.54
678.09	52897.75
678.438	52710.86
678.787	52891.87
679.135	52855.71
679.484	52632.22
679.832	52796.96
680.181	52593.12
680.529	52693.23
680.877	52491.43
681.225	52527.59
681.573	52641.94
681.922	52471.32
682.27	52331.66
682.618	52410.98
682.966	52299.35
683.314	52328.5
683.661	52172.79
684.009	52008.96
684.357	52048.05
684.705	52028.17
685.053	52029.3
685.4	52019.35
685.748	51783.43
686.095	51718.12
686.443	51610.1
686.79	51462.98
687.138	51631.57
687.485	51674.5
687.832	51429.99
688.18	51552.02
688.527	51255.53
688.874	51237.9
689.221	51084.46
689.568	51079.04
689.915	51036.1
690.262	51063.9
690.609	50889.21
690.956	50810.8
691.303	50732.61
691.65	50596.34
691.997	50548.88
692.344	50276.57
692.69	50436.12
693.037	50376.68
693.383	50026.41
693.73	50196.8
694.077	49946.41
694.423	49968.33
694.769	49929.24
695.116	49841.1
695.462	49822.35
695.808	49619.42
696.155	49679.08
696.501	49405.18
696.847	49344.39
697.193	49208.8
697.539	49280.67
697.885	49092.2
698.231	48925.2
698.577	48953.9
698.923	48792.77
699.269	48555.49
699.614	48383.97
699.96	48295.61
700.306	48413.8
700.651	48194.82
700.997	48119.57
701.342	48030.98
701.688	48067.82
702.033	47890.42
702.379	47898.33
702.724	47593.71
703.069	47697.21
703.415	47302.87
703.76	47343.54
704.105	47379.02
704.45	47143.32
704.795	46949.43
705.14	46756.44
705.485	46898.13
705.83	46634.86
706.175	46697.91
706.52	46487.52
706.865	46438.48
707.209	46493.17
707.554	46210.69
707.899	46380.4
708.243	46171.6
708.588	45940.19
708.932	45745.17
709.277	45791.72
709.621	45842.79
709.966	45567.32
710.31	45566.19
710.654	45321.45
710.998	45476.02
711.342	45319.19
711.687	45237.16
712.031	45149.02
712.375	44907.68
712.719	45005.07
713.063	44911.97
713.407	44863.38
713.75	44671.52
714.094	44561.7
714.438	44569.83
714.782	44600.79
715.125	44316.28
715.469	44439.66
715.812	44065.44
716.156	43998.55
716.499	44062.73
716.843	44016.17
717.186	43834.48
717.53	44004.42
717.873	43824.31
718.216	43773.92
718.559	43596.98
718.902	43457.54
719.246	43575.51
719.589	43480.59
719.932	43183.65
720.275	43159.25
720.617	43162.41
720.96	43047.39
721.303	42947.5
721.646	42983.66
721.989	42825.24
722.331	42900.72
722.674	42695.76
723.016	42635.19
723.359	42566.72
723.701	42470.23
724.044	42173.28
724.386	42176.9
724.729	42288.08
725.071	42205.37
725.413	42078.6
725.755	41963.57
726.097	41938.49
726.439	41783.01
726.782	41793.18
727.124	41961.09
727.465	41687.87
727.807	41662.11
728.149	41641.32
728.491	41323.36
728.833	41472.51
729.175	41434.09
729.516	41385.28
729.858	41172.86
730.199	41262.57
730.541	41059.41
730.882	41121.56
731.224	41125.18
731.565	40872.08
731.906	40989.36
732.248	40927.21
732.589	40767.22
732.93	40689.25
733.271	40634.79
733.612	40703.27
733.953	40649.71
734.294	40557.96
734.635	40280.45
734.976	40438.41
735.317	40164.3
735.658	40238.65
735.999	40101.25
736.339	40091.76
736.68	40116.16
737.021	40039.55
737.361	39956.84
737.702	39872.55
738.042	39930.18
738.383	39611.77
738.723	39663.52
739.063	39525.44
739.404	39702.16
739.744	39535.61
740.084	39337.2
740.424	39554.14
740.764	39317.31
741.104	39467.14
741.444	39204.55
741.784	39019.02
742.124	39063.54
742.464	39069.41
742.804	38948.51
743.143	38963.2
743.483	38910.09
743.823	38709.65
744.162	38661.51
744.502	38874.61
744.841	38505.81
745.181	38658.35
745.52	38482.53
745.86	38440.73
746.199	38407.73
746.538	38342.2
746.877	38264.69
747.216	38332.48
747.556	38067.85
747.895	38005.94
748.234	37956.45
748.573	37795.77
748.911	37796.68
749.25	37728.2
749.589	37626.96
749.928	37627.41
750.267	37616.12
750.605	37429.91
750.944	37319.85
751.283	37327.08
751.621	37417.93
751.96	37134.55
752.298	37089.12
752.636	37055.68
752.975	36941.1
753.313	36740.66
753.651	36857.04
753.989	36623.83
754.327	36665.41
754.666	36569.14
755.004	36622.7
755.342	36680.77
755.679	36393.55
756.017	36280.56
756.355	36377.73
756.693	36138.64
757.031	36231.52
757.368	35968.02
757.706	35941.58
758.044	35662.27
758.381	35811.64
758.719	35708.14
759.056	35705.88
759.394	35555.6
759.731	35180.25
760.068	35276.97
760.405	35034.04
760.743	34946.36
761.08	34880.59
761.417	34753.37
761.754	34621.17
762.091	34636.76
762.428	34491
762.765	34411.68
763.102	34450.77
763.438	34248.07
763.775	34087.39
764.112	34060.5
764.449	33897.57
764.785	33817.57
765.122	33608.99
765.458	33523.79
765.795	33445.83
766.131	33513.85
766.467	33322.67
766.804	33124.26
767.14	32940.08
767.476	33023.24
767.812	32735.34
768.148	32801.1
768.485	32565.85
768.821	32469.58
769.157	32411.05
769.492	32453.54
769.828	32173.32
770.164	31986.66
770.5	31950.05
770.836	31885.87
771.171	31732.65
771.507	31616.95
771.842	31359.78
772.178	31533.11
772.513	31376.73
772.849	31335.15
773.184	31258.09
773.519	31128.83
773.855	30962.73
774.19	30717.99
774.525	30702.62
774.86	30681.38
775.195	30463.99
775.53	30446.36
775.865	30276.2
776.2	30011.34
776.535	29859.03
776.87	29956.43
777.205	29856.09
777.539	29644.8
777.874	29671.92
778.209	29541.3
778.543	29420.17
778.878	29243
779.212	29144.02
779.547	29004.14
779.881	29079.16
780.215	28732.96
780.55	28926.85
780.884	28633.53
781.218	28646.86
781.552	28629.23
781.886	28479.63
782.22	28236.25
782.554	28142.47
782.888	27984.73
783.222	27919.87
783.556	27860.21
783.889	27691.63
784.223	27692.53
784.557	27587.68
784.89	27519.66
785.224	27227.46
785.557	27130.29
785.891	27161.7
786.224	27038.31
786.558	26959.22
786.891	26778.66
787.224	26688.27
787.557	26625.44
787.891	26576.41
788.224	26490.08
788.557	26352.91
788.89	26386.81
789.223	26427.03
789.556	26086.7
789.888	26065.23
790.221	26016.87
790.554	25785.47
790.887	25757.22
791.219	25606.26
791.552	25632.25
791.884	25408.07
792.217	25302.54
792.549	25279.72
792.882	25229.1
793.214	25104.35
793.546	25137.57
793.879	24947.3
794.211	24776.45
794.543	24803.57
794.875	24822.55
795.207	24784.59
795.539	24562.22
795.871	24573.29
796.203	24370.14
796.535	24301.44
796.867	24348.67
797.198	24160.42
797.53	24125.62
797.862	23901.45
798.193	23975.57
798.525	23781.68
798.856	23810.83
799.188	23590.04
799.519	23476.37
799.85	23448.8
800.182	23506.66
800.513	23355.02
800.844	23207.68
801.175	23280.9
801.506	23185.08
801.837	23132.88
802.168	23194.8
802.499	22957.97
802.83	22805.66
803.161	22783.74
803.491	22717.98
803.822	22697.64
804.153	22595.04
804.483	22355.05
804.814	22265.11
805.145	22358.89
805.475	22351.88
805.805	22162.06
806.136	22110.31
806.466	22200.02
806.796	22083.64
807.126	22036.41
807.457	21893.37
807.787	21933.59
808.117	21693.14
808.447	21650.66
808.777	21788.28
809.107	21692.69
809.436	21538.57
809.766	21711.67
810.096	21514.84
810.426	21417.45
810.755	21442.08
811.085	21308.75
811.414	21268.3
811.744	21085.48
812.073	21044.8
812.403	21051.81
812.732	20852.71
813.061	20919.61
813.39	20744.69
813.719	20700.4
814.049	20913.5
814.378	20720.97
814.707	20614.3
815.036	20607.75
815.365	20489.11
815.693	20362.78
816.022	20428.09
816.351	20379.51
816.68	20257.48
817.008	20319.17
817.337	20024.49
817.665	20080.31
817.994	20146.07
818.322	20138.61
818.651	19958.73
818.979	19861.55
819.307	19993.53
819.636	19913.08
819.964	19729.58
820.292	19848.45
820.62	19805.74
820.948	19683.48
821.276	19815.68
821.604	19623.14
821.932	19705.4
822.259	19780.43
822.587	19750.37
822.915	19636.25
823.243	19695
823.57	19601
823.898	19639.19
824.225	19479.64
824.553	19466.31
824.88	19638.28
825.207	19707.43
825.535	19553.54
825.862	19582.69
826.189	19455.91
826.516	19679.41
826.843	19643.25
827.17	19614.78
827.497	19644.61
827.824	19519.64
828.151	19588.11
828.478	19631.28
828.805	19632.86
829.131	19519.64
829.458	19563.71
829.785	19420.21
830.111	19470.15
830.438	19530.72
830.764	19487.55
831.09	19548.12
831.417	19335.24
831.743	19525.29
832.069	19475.12
832.395	19318.29
832.722	19471.96
833.048	19358.52
833.374	19417.5
833.7	19165.3
834.026	19259.08
834.351	19434.67
834.677	19249.59
835.003	19297.73
835.329	19217.5
835.654	19302.7
835.98	19114.68
836.306	19074
836.631	19092.53
836.956	19078.98
837.282	19102.03
837.607	18996.49
837.932	19052.08
838.258	19024.29
838.583	18934.35
838.908	18779.77
839.233	18904.07
839.558	18860.22
839.883	18799.89
840.208	18697.29
840.533	18678.99
840.858	18686.67
841.182	18752.88
841.507	18710.85
841.832	18564.64
842.156	18603.06
842.481	18584.07
842.805	18416.39
843.13	18436.96
843.454	18306.57
843.778	18266.12
844.103	18300.01
844.427	18230.86
844.751	18192.67
845.075	18341.82
845.399	18148.15
845.723	18021.38
846.047	18038.55
846.371	17971.89
846.695	17899.12
847.019	17694.15
847.343	17696.87
847.666	17460.26
847.99	17522.41
848.313	17372.58
848.637	17369.64
848.96	17371.68
849.284	17258.46
849.607	17127.39
849.931	17039.03
850.254	16957
850.577	16968.97
850.9	16779.83
851.223	16841.07
851.546	16748.64
851.869	16591.81
852.192	16619.83
852.515	16498.93
852.838	16513.85
853.161	16450.57
853.483	16290.12
853.806	16309.33
854.129	16225.04
854.451	16270.91
854.774	16128.32
855.096	16083.57
855.419	16117.25
855.741	16033.18
856.063	15962.67
856.385	15822.56
856.708	15844.03
857.03	15807.42
857.352	15730.59
857.674	15660.31
857.996	15636.35
858.318	15520.2
858.64	15553.19
858.961	15480.2
859.283	15465.96
859.605	15365.63
859.926	15461.9
860.248	15385.06
860.57	15300.32
860.891	15300.09
861.212	15208.12
861.534	15229.13
861.855	15192.07
862.176	15181.9
862.498	15240.66
862.819	15127.89
863.14	15008.12
863.461	14956.82
863.782	14964.73
864.103	14947.56
864.424	14876.15
864.745	14901.46
865.065	14748.69
865.386	14733.33
865.707	14791.86
866.027	14763.16
866.348	14771.97
866.668	14834.79
866.989	14661.46
867.309	14561.81
867.63	14587.34
867.95	14629.6
868.27	14439.1
868.59	14536.27
868.91	14469.61
869.23	14497.18
869.55	14468.93
869.87	14519.77
870.19	14431.87
870.51	14487.68
870.83	14413.11
871.15	14238.65
871.469	14299.89
871.789	14376.5
872.109	14249.05
872.428	14227.35
872.748	14312.1
873.067	14174.92
873.386	14195.94
873.706	14197.07
874.025	14075.04
874.344	14090.41
874.663	14089.73
874.982	13957.75
875.301	14026
875.62	13973.35
875.939	14014.02
876.258	13893.58
876.577	13864.88
876.896	13835.95
877.214	13804.09
877.533	13894.03
877.852	13898.32
878.17	13893.12
878.489	13817.65
878.807	13760.92
879.125	13797.08
879.444	13766.57
879.762	13698.78
880.08	13717.99
880.398	13729.06
880.716	13673.47
881.034	13632.57
881.352	13642.28
881.67	13597.54
881.988	13622.4
882.306	13469.18
882.624	13466.02
882.941	13295.62
883.259	13266.47
883.577	13275.96
883.894	13306.25
884.212	13255.63
884.529	13263.99
884.846	13138.57
885.164	13155.74
885.481	13062.18
885.798	13110.09
886.115	13047.5
886.432	13085.24
886.75	12942.19
887.067	12968.18
887.383	12948.74
887.7	12957.33
888.017	12905.8
888.334	12923.43
888.651	12876.88
888.967	12801.63
889.284	12765.7
889.6	12731.35
889.917	12672.14
890.233	12737.9
890.55	12576.55
890.866	12563.89
891.182	12510.33
891.498	12490.22
891.815	12414.07
892.131	12423.56
892.447	12348.31
892.763	12323.67
893.079	12366.38
893.395	12293.84
893.71	12247.06
894.026	12214.52
894.342	12210.68
894.657	12119.61
894.973	12024.92
895.289	12110.35
895.604	12043
895.92	11999.39
896.235	11898.83
896.55	11854.53
896.865	11830.8
897.181	11823.12
897.496	11826.74
897.811	11761.65
898.126	11711.49
898.441	11589.68
898.756	11673.07
899.071	11574.77
899.386	11557.59
899.7	11461.32
900.015	11412.28
900.33	11342.68
900.644	11392.4
900.959	11375
901.273	11316.24
901.588	11188.79
901.902	11155.57
902.216	11154.44
902.531	11113.08
902.845	11077.83
903.159	10943.82
903.473	11003.03
903.787	11002.13
904.101	10901.11
904.415	10836.93
904.729	10790.61
905.042	10780.66
905.356	10730.72
905.67	10733.21
905.984	10698.63
906.297	10634.68
906.611	10535.02
906.924	10616.37
907.237	10517.39
907.551	10511.52
907.864	10392.2
908.177	10395.36
908.491	10354.69
908.804	10269.26
909.117	10305.65
909.43	10218.19
909.743	10139.78
910.056	10161.02
910.368	10064.52
910.681	10036.95
910.994	9953.34
911.307	9988.14
911.619	9864.08
911.932	9895.04
912.244	9907.47
912.557	9849.61
912.869	9696.17
913.181	9742.72
913.494	9700.69
913.806	9701.37
914.118	9627.47
914.43	9560.81
914.742	9558.55
915.054	9503.41
915.366	9470.41
915.678	9453.24
915.99	9405.56
916.302	9313.13
916.613	9249.63
916.925	9255.28
917.236	9218.67
917.548	9150.2
917.859	9228.39
918.171	9044.21
918.482	9106.81
918.794	8996.75
919.105	8916.08
919.416	8897.32
919.727	8924.44
920.038	8854.16
920.349	8815.74
920.66	8817.55
920.971	8805.57
921.282	8747.95
921.593	8692.13
921.903	8568.52
922.214	8601.29
922.525	8578.69
922.835	8507.5
923.146	8462.53
923.456	8427.05
923.767	8432.93
924.077	8392.03
924.387	8373.95
924.697	8325.81
925.008	8230.22
925.318	8233.39
925.628	8206.95
925.938	8181.64
926.248	8141.41
926.558	8121.3
926.867	8057.57
927.177	8068.19
927.487	7961.53
927.796	7940.74
928.106	7894.41
928.416	7844.92
928.725	7880.17
929.034	7841.76
929.344	7837.01
929.653	7763.34
929.962	7704.13
930.271	7672.27
930.581	7584.36
930.89	7582.1
931.199	7546.17
931.508	7559.5
931.817	7511.6
932.125	7451.48
932.434	7411.71
932.743	7390.24
933.051	7328.78
933.36	7362.67
933.669	7277.25
933.977	7252.62
934.286	7163.81
934.594	7190.02
934.902	7128.56
935.21	7111.61
935.519	7112.96
935.827	7043.13
936.135	7040.87
936.443	7009.69
936.751	7000.2
937.059	6985.73
937.367	6915.91
937.674	6889.24
937.982	6896.92
938.29	6820.54
938.597	6826.42
938.905	6769.24
939.213	6764.95
939.52	6735.35
939.827	6732.18
940.135	6650.83
940.442	6652.86
940.749	6611.51
941.056	6602.69
941.363	6556.59
941.67	6555.01
941.977	6457.39
942.284	6518.4
942.591	6443.6
942.898	6400.89
943.205	6356.15
943.511	6393.89
943.818	6326.09
944.125	6280.22
944.431	6235.92
944.738	6216.49
945.044	6205.42
945.35	6124.51
945.657	6116.15
945.963	6097.85
946.269	6094.01
946.575	6114.12
946.881	6056.04
947.187	5992.31
947.493	6015.59
947.799	5908.7
948.105	5897.18
948.41	5855.59
948.716	5900.11
949.022	5823.28
949.327	5801.13
949.633	5733.11
949.938	5795.94
950.244	5708.71
950.549	5741.47
950.854	5734.47
951.16	5711.64
951.465	5653.34
951.77	5622.61
952.075	5620.8
952.38	5564.98
952.685	5523.85
952.99	5498.77
953.294	5524.53
953.599	5481.59
953.904	5434.81
954.209	5381.03
954.513	5403.18
954.818	5325.21
955.122	5316.85
955.426	5328.6
955.731	5290.41
956.035	5228.04
956.339	5258.32
956.643	5223.52
956.948	5223.52
957.252	5198.21
957.556	5164.09
957.86	5155.73
958.163	5131.55
958.467	5110.08
958.771	5117.08
959.075	5063.07
959.378	5002.96
959.682	5059.23
959.985	4986.24
960.289	4965.45
960.592	4956.86
960.896	4863.76
961.199	4862.4
961.502	4853.81
961.805	4819.69
962.108	4857.65
962.411	4805.68
962.714	4748.96
963.017	4776.53
963.32	4738.34
963.623	4710.31
963.926	4691.78
964.228	4674.38
964.531	4724.32
964.833	4663.08
965.136	4668.96
965.438	4585.35
965.741	4586.7
966.043	4585.12
966.345	4545.35
966.648	4552.58
966.95	4540.37
967.252	4452.92
967.554	4509.64
967.856	4456.76
968.158	4435.07
968.46	4379.7
968.761	4406.37
969.063	4348.97
969.365	4339.48
969.666	4328.18
969.968	4326.6
970.269	4250.89
970.571	4251.79
970.872	4260.83
971.174	4219.48
971.475	4205.69
971.776	4176.09
972.077	4137.45
972.378	4150.33
972.679	4110.78
972.98	4120.72
973.281	4051.12
973.582	4081.18
973.883	4090.44
974.183	4077.11
974.484	4025.13
974.785	4013.61
975.085	4005.02
975.386	3991.01
975.686	3918.7
975.986	3966.83
976.287	3918.92
976.587	3902.43
976.887	3901.3
977.187	3871.01
977.487	3817.91
977.787	3831.92
978.087	3802.32
978.387	3782.65
978.687	3801.64
978.987	3754.63
979.286	3750.57
979.586	3745.82
979.885	3672.83
980.185	3648.42
980.484	3672.6
980.784	3689.1
981.083	3605.71
981.382	3636.44
981.682	3616.33
981.981	3576.11
982.28	3558.71
982.579	3537.24
982.878	3580.63
983.177	3530.68
983.475	3517.58
983.774	3518.93
984.073	3471.48
984.372	3459.5
984.67	3412.72
984.969	3477.8
985.267	3443
985.566	3417.01
985.864	3409.56
986.162	3394.87
986.461	3365.26
986.759	3370.24
987.057	3290.69
987.355	3288.88
987.653	3305.38
987.951	3275.32
988.249	3267.19
988.547	3262.89
988.844	3245.95
989.142	3194.87
989.44	3156.46
989.737	3178.6
990.035	3196
990.332	3171.6
990.63	3158.72
990.927	3161.2
991.224	3112.62
991.521	3111.71
991.819	3103.35
992.116	3059.96
992.413	3060.19
992.71	3053.18
993.006	2990.36
993.303	3038.95
993.6	3011.6
993.897	2985.61
994.193	2933.41
994.49	2957.14
994.787	2937.71
995.083	2904.71
995.379	2928.21
995.676	2917.37
995.972	2873.75
996.268	2828.78
996.565	2841.21
996.861	2823.58
997.157	2821.1
997.453	2815.22
997.749	2784.26
998.044	2764.6
998.34	2739.74
998.636	2745.39
998.932	2732.51
999.227	2718.95
999.523	2682.8
999.818	2687.32
1000.114	2638.96
1000.409	2656.36
1000.704	2594.89
1001	2620.2
1001.295	2629.01
1001.59	2561.44
1001.885	2559.86
1002.18	2535.91
1002.475	2561.44
1002.77	2530.03
1003.065	2484.61
1003.359	2496.13
1003.654	2507.89
1003.949	2476.47
1004.243	2460.43
1004.538	2424.72
1004.832	2450.94
1005.127	2420.66
1005.421	2412.07
1005.715	2389.02
1006.009	2374.78
1006.304	2382.69
1006.598	2346.53
1006.892	2353.54
1007.186	2302.02
1007.48	2308.8
1007.773	2297.95
1008.067	2252.98
1008.361	2265.86
1008.655	2281.9
1008.948	2255.24
1009.242	2241.68
1009.535	2221.57
1009.829	2192.64
1010.122	2194.22
1010.415	2156.71
1010.708	2170.72
1011.001	2150.38
1011.295	2168.23
1011.588	2156.71
1011.881	2108.8
1012.173	2091.17
1012.466	2109.93
1012.759	2080.33
1013.052	2088.91
1013.344	2074
1013.637	2090.04
1013.93	2054.79
1014.222	2023.38
1014.514	2019.99
1014.807	1987.67
1015.099	1985.64
1015.391	1973.21
1015.683	1992.87
1015.976	1923.27
1016.268	1935.92
1016.56	1921.69
1016.851	1944.96
1017.143	1890.73
1017.435	1882.37
1017.727	1870.39
1018.018	1895.92
1018.31	1900.9
1018.602	1836.49
1018.893	1808.92
1019.185	1815.47
1019.476	1787.9
1019.767	1791.75
1020.058	1740.67
1020.35	1753.33
1020.641	1752.65
1020.932	1744.52
1021.223	1719.43
1021.514	1725.31
1021.804	1720.34
1022.095	1676.5
1022.386	1669.04
1022.677	1648.47
1022.967	1674.24
1023.258	1654.58
1023.548	1632.43
1023.839	1636.5
1024.129	1632.43
1024.419	1595.14
1024.709	1605.76
1025	1588.14
1025.29	1592.43
1025.58	1565.09
1025.87	1553.56
1026.16	1509.49
1026.449	1538.65
1026.739	1513.34
1027.029	1537.74
1027.319	1513.34
1027.608	1511.3
1027.898	1464.98
1028.187	1482.15
1028.477	1471.53
1028.766	1443.73
1029.055	1426.78
1029.344	1402.38
1029.634	1430.4
1029.923	1392.21
1030.212	1396.73
1030.501	1399.67
1030.79	1379.1
1031.078	1376.62
1031.367	1341.82
1031.656	1324.64
1031.945	1351.76
1032.233	1316.73
1032.522	1311.31
1032.81	1333
1033.099	1269.95
1033.387	1294.13
1033.675	1299.33
1033.963	1258.43
1034.251	1282.61
1034.54	1247.35
1034.828	1224.3
1035.116	1231.54
1035.403	1239.9
1035.691	1195.83
1035.979	1210.07
1036.267	1217.75
1036.554	1199.67
1036.842	1182.27
1037.129	1192.67
1037.417	1162.61
1037.704	1165.55
1037.992	1130.97
1038.279	1166
1038.566	1146.79
1038.853	1146.79
1039.14	1146.79
