Data from plate_ceramic_FLMS001491_055.txt Node
Date: Tue Feb 07 11:16:59 GMT 2017
User: dcchb
Spectrometer: FLMS00149
Trigger mode: 0
Integration Time (sec): 2.000000E-2
Scans to average: 10
Electric dark correction enabled: true
Nonlinearity correction enabled: false
Boxcar width: 0
XAxis mode: Wavelengths
Number of Pixels in Spectrum: 2048
>>>>>Begin Spectral Data<<<<<
341.393	9.66
341.776	9.66
342.16	9.66
342.543	-47.96
342.927	-54.07
343.31	-72.82
343.693	-75.31
344.077	-59.26
344.46	-78.25
344.843	-53.16
345.226	-38.93
345.61	-23.33
345.993	-4.58
346.376	7.17
346.759	18.93
347.142	-1.64
347.525	48.98
347.908	60.96
348.291	83.11
348.674	90.56
349.057	97.57
349.44	130.34
349.823	135.53
350.206	170.79
350.588	216.21
350.971	248.3
351.354	244.46
351.737	246.26
352.119	263.21
352.502	279.94
352.884	298.24
353.267	315.87
353.65	313.16
354.032	309.31
354.414	320.61
354.797	338.47
355.179	344.57
355.562	351.35
355.944	345.92
356.326	339.37
356.709	361.29
357.091	362.87
357.473	375.07
357.855	378.92
358.238	354.96
358.62	343.89
359.002	352.48
359.384	369.43
359.766	370.56
360.148	357.67
360.53	365.58
360.912	366.26
361.294	369.65
361.676	362.65
362.057	348.63
362.439	375.75
362.821	359.48
363.203	365.13
363.584	358.8
363.966	351.12
364.348	349.99
364.729	382.98
365.111	353.83
365.493	348.18
365.874	324.91
366.256	343.89
366.637	372.14
367.019	358.35
367.4	364.45
367.781	355.19
368.163	369.2
368.544	350.89
368.925	351.35
369.306	376.66
369.688	356.77
370.069	358.13
370.45	350.67
370.831	367.17
371.212	345.25
371.593	369.43
371.974	374.4
372.355	372.59
372.736	374.4
373.117	365.81
373.498	393.61
373.879	364.68
374.26	364.45
374.641	369.65
375.021	380.95
375.402	382.76
375.783	369.88
376.163	406.49
376.544	396.32
376.925	398.58
377.305	411.46
377.686	379.37
378.066	390.44
378.447	418.01
378.827	417.33
379.208	408.07
379.588	410.55
379.968	417.33
380.349	401.74
380.729	406.49
381.109	418.01
381.489	430.67
381.87	421.85
382.25	442.64
382.63	452.81
383.01	422.53
383.39	445.58
383.77	452.59
384.15	446.71
384.53	441.29
384.91	433.38
385.29	450.78
385.67	484
386.049	476.54
386.429	453.26
386.809	494.62
387.189	477.67
387.568	481.29
387.948	484.68
388.328	492.59
388.707	493.94
389.087	511.57
389.466	495.98
389.846	513.38
390.225	499.37
390.605	523.09
390.984	530.1
391.363	522.19
391.743	528.07
392.122	524.45
392.501	530.33
392.881	538.46
393.26	546.14
393.639	577.56
394.018	579.14
394.397	576.88
394.776	564.67
395.155	579.14
395.534	577.33
395.913	590.66
396.292	593.83
396.671	598.35
397.05	596.09
397.429	577.33
397.808	622.07
398.186	617.78
398.565	611.45
398.944	620.04
399.323	648.06
399.701	641.51
400.08	642.64
400.458	653.71
400.837	680.15
401.215	667.5
401.594	667.5
401.972	689.87
402.351	663.88
402.729	696.42
403.107	700.26
403.486	723.99
403.864	701.39
404.242	705.69
404.62	703.43
404.999	715.18
405.377	728.96
405.755	722.86
406.133	759.02
406.511	751.11
406.889	751.79
407.267	770.77
407.645	770.09
408.023	795.63
408.401	803.54
408.779	836.31
409.156	796.53
409.534	834.72
409.912	830.43
410.29	855.29
410.667	865.01
411.045	891.67
411.422	900.71
411.8	900.71
412.178	912.01
412.555	919.24
412.933	934.83
413.31	948.39
413.687	947.94
414.065	961.73
414.442	976.64
414.819	976.19
415.197	1004.21
415.574	1022.74
415.951	1012.35
416.328	1031.33
416.705	1023.87
417.082	1045.11
417.46	1057.54
417.837	1072.91
418.214	1084.21
418.591	1105
418.967	1090.54
419.344	1106.13
419.721	1135.96
420.098	1110.87
420.475	1137.09
420.852	1141.61
421.228	1184.32
421.605	1134.6
421.982	1164.88
422.358	1206.47
422.735	1213.24
423.111	1221.38
423.488	1250.53
423.864	1246.92
424.241	1253.24
424.617	1289.4
424.994	1304.09
425.37	1292.34
425.746	1288.5
426.123	1326.24
426.499	1356.07
426.875	1349.96
427.251	1348.16
427.627	1392.22
428.003	1379.57
428.379	1443.07
428.756	1427.93
429.132	1452.33
429.507	1493.01
429.883	1501.15
430.259	1532.33
430.635	1540.69
431.011	1523.97
431.387	1617.53
431.763	1621.82
432.138	1627.7
432.514	1663.85
432.89	1685.32
433.265	1675.15
433.641	1744.3
434.016	1731.42
434.392	1732.78
434.767	1769.39
435.143	1772.55
435.518	1808.03
435.894	1824.53
436.269	1849.16
436.644	1881.93
437.02	1931.64
437.395	1888.26
437.77	1955.82
438.145	1967.8
438.52	1969.16
438.895	1998.31
439.271	2004.64
439.646	2039.44
440.021	2067.46
440.395	2051.64
440.77	2053.45
441.145	2099.1
441.52	2163.05
441.895	2135.03
442.27	2100.68
442.645	2142.94
443.019	2180
443.394	2195.59
443.769	2231.52
444.143	2218.64
444.518	2231.98
444.892	2254.57
445.267	2257.06
445.641	2284.86
446.016	2323.27
446.39	2304.52
446.764	2333.89
447.139	2328.47
447.513	2364.4
447.887	2402.82
448.262	2371.86
448.636	2429.26
449.01	2464.51
449.384	2469.94
449.758	2480.1
450.132	2541.12
450.506	2567.33
450.88	2532.08
451.254	2552.87
451.628	2600.55
452.002	2613.66
452.376	2645.52
452.75	2619.76
453.123	2678.74
453.497	2756.03
453.871	2777.72
454.244	2801.23
454.618	2846.87
454.992	2879.64
455.365	2911.28
455.739	2921.67
456.112	2998.51
456.486	3016.36
456.859	2989.92
457.232	3066.76
457.606	3062.46
457.979	3157.15
458.352	3180.2
458.725	3217.26
459.099	3275.34
459.472	3322.34
459.845	3368.67
460.218	3405.73
460.591	3404.15
460.964	3411.61
461.337	3495.44
461.71	3567.08
462.083	3564.82
462.456	3609.79
462.829	3665.84
463.201	3712.61
463.574	3723.46
463.947	3781.31
464.32	3861.54
464.692	3876.23
465.065	3919.84
465.438	3937.47
465.81	3999.39
466.183	4071.25
466.555	4164.81
466.928	4204.8
467.3	4183.56
467.672	4259.94
468.045	4357.8
468.417	4378.81
468.789	4445.48
469.161	4522.31
469.534	4533.84
469.906	4626.04
470.278	4705.81
470.65	4800.27
471.022	4842.08
471.394	4904.22
471.766	4980.83
472.138	5019.25
472.51	5181.95
472.882	5203.87
473.253	5326.58
473.625	5384.66
473.997	5475.28
474.369	5540.14
474.74	5583.07
475.112	5667.37
475.484	5775.38
475.855	5876.63
476.227	5955.27
476.598	6069.39
476.97	6117.52
477.341	6327.46
477.713	6366.33
478.084	6469.6
478.455	6549.83
478.827	6651.29
479.198	6835.92
479.569	6865.75
479.94	7044.05
480.311	7124.28
480.682	7285.85
481.053	7457.15
481.424	7594.32
481.795	7672.74
482.166	7789.34
482.537	7911.37
482.908	8063.01
483.279	8153.4
483.65	8269.78
484.021	8402.66
484.391	8505.48
484.762	8584.35
485.133	8717.91
485.503	8859.6
485.874	9071.8
486.244	9080.83
486.615	9312.69
486.985	9463.88
487.356	9551.56
487.726	9690.99
488.097	9852.79
488.467	9973.92
488.837	10146.34
489.207	10208.49
489.578	10345.43
489.948	10446.67
490.318	10608.48
490.688	10671.98
491.058	10806.67
491.428	11029.48
491.798	11118.75
492.168	11306.09
492.538	11385.41
492.908	11571.16
493.278	11656.81
493.648	11677.15
494.017	11876.47
494.387	12005.96
494.757	12105.16
495.126	12243.01
495.496	12389.45
495.866	12425.38
496.235	12548.99
496.605	12683.68
496.974	12693.62
497.344	12861.07
497.713	12922.99
498.082	12997.79
498.452	13213.61
498.821	13166.83
499.19	13347.16
499.559	13535.18
499.928	13653.14
500.298	13595.52
500.667	13817.21
501.036	13753.71
501.405	13967.03
501.774	14015.17
502.143	14062.17
502.512	14255.16
502.88	14343.97
503.249	14389.17
503.618	14552.1
503.987	14527.25
504.356	14706.45
504.724	14830.29
505.093	14857.18
505.462	14872.09
505.83	15053.33
506.199	15195.02
506.567	15400.67
506.936	15472.31
507.304	15635.24
507.672	15635.01
508.041	15811.96
508.409	15829.36
508.777	16010.82
509.145	16075.68
509.514	16194.32
509.882	16385.95
510.25	16361.77
510.618	16539.4
510.986	16555.67
511.354	16865.71
511.722	16953.62
512.09	17060.06
512.458	17044.02
512.826	17269.32
513.193	17310.67
513.561	17520.16
513.929	17652.59
514.297	17830.66
514.664	17919.25
515.032	18036.98
515.4	18228.62
515.767	18197.21
516.135	18396.97
516.502	18241.95
516.869	18656.4
517.237	18775.72
517.604	18687.14
517.972	18949.05
518.339	19167.35
518.706	19151.76
519.073	19278.76
519.44	19361.69
519.808	19667.45
520.175	19680.78
520.542	19950.83
520.909	20094.1
521.276	20128
521.643	20279.86
522.009	20502.91
522.376	20629.68
522.743	20773.18
523.11	21041.42
523.477	21273.73
523.843	21300.63
524.21	21556.21
524.577	21755.53
524.943	21818.58
525.31	21930.67
525.676	22068.52
526.043	22292.92
526.409	22405
526.776	22630.76
527.142	22780.14
527.508	22867.59
527.874	23104.87
528.241	23266.45
528.607	23304.42
528.973	23570.85
529.339	23568.82
529.705	24004.74
530.071	24062.36
530.437	24185.52
530.803	24275.24
531.169	24519.75
531.535	24468.9
531.901	24604.95
532.267	24751.84
532.632	24899.63
532.998	25011.72
533.364	25289
533.73	25199.51
534.095	25500.06
534.461	25565.15
534.826	25766.5
535.192	25950.9
535.557	26071.8
535.923	26081.07
536.288	26214.85
536.653	26356.09
537.019	26362.19
537.384	26481.06
537.749	26627.72
538.114	26634.05
538.479	26743.42
538.845	26956.3
539.21	26918.56
539.575	26969.63
539.94	27232.45
540.305	27358.09
540.67	27311.32
541.034	27344.31
541.399	27674.02
541.764	27720.12
542.129	27797.86
542.494	27801.25
542.858	28058.19
543.223	28117.4
543.587	28209.82
543.952	28299.31
544.316	28381.12
544.681	28459.31
545.045	28609.81
545.41	28710.6
545.774	28728.23
546.138	28862.24
546.503	28904.27
546.867	29073.98
547.231	29337.7
547.595	29215.67
547.959	29406.18
548.324	29480.52
548.688	29553.06
549.052	29560.52
549.416	29797.58
549.779	29786.5
550.143	29924.35
550.507	30093.84
550.871	30302.88
551.235	30289.77
551.599	30600.72
551.962	30567.5
552.326	30657.89
552.689	30889.07
553.053	30840.71
553.417	30871.9
553.78	31251.55
554.143	31298.33
554.507	31461.49
554.87	31584.65
555.234	31918.2
555.597	31623.52
555.96	31921.36
556.323	32050.17
556.686	32155.71
557.05	32394.35
557.413	32416.04
557.776	32575.58
558.139	32784.62
558.502	32741.46
558.865	32928.57
559.228	33169.01
559.59	33314.1
559.953	33396.35
560.316	33766.97
560.679	33649.68
561.041	34038.14
561.404	34024.13
561.767	34311.81
562.129	34218.03
562.492	34550.67
562.854	34607.4
563.217	34741.85
563.579	34946.6
563.941	35194.5
564.304	35245.57
564.666	35410.31
565.028	35543.19
565.39	35759.68
565.753	35947.02
566.115	36095.49
566.477	36228.14
566.839	36246.22
567.201	36449.83
567.563	36520.11
567.925	36734.34
568.287	36716.72
568.648	36938.41
569.01	37022.25
569.372	37382.46
569.734	37211.17
570.095	37577.26
570.457	37737.71
570.819	37688.9
571.18	37782.45
571.542	38165.72
571.903	38238.94
572.265	38240.07
572.626	38253.85
572.987	38562.77
573.349	38591.25
573.71	38548.76
574.071	38681.86
574.432	38887.73
574.794	39023.1
575.155	39076.43
575.516	39066.49
575.877	39306.93
576.238	39365.91
576.599	39505.57
576.96	39473.71
577.32	39556.42
577.681	39715.28
578.042	39956.86
578.403	39880.48
578.763	39899.46
579.124	40034.6
579.485	40079.34
579.845	40291.77
580.206	40046.57
580.566	40243.41
580.927	40278.43
581.287	40374.93
581.648	40291.99
582.008	40425.32
582.368	40264.2
582.728	40293.8
583.089	40308.04
583.449	40464.64
583.809	40391.65
584.169	40730.4
584.529	40501.7
584.889	40692.21
585.249	40461.93
585.609	40398.43
585.969	40632.55
586.329	40630.74
586.688	40661.25
587.048	40750.51
587.408	40572.44
587.768	40688.59
588.127	40644.52
588.487	40675.94
588.846	41002.93
589.206	40632.32
589.565	40673
589.925	40986.44
590.284	40754.58
590.643	40929.04
591.003	40869.6
591.362	41072.54
591.721	40767.46
592.08	40877.29
592.44	41072.31
592.799	41016.72
593.158	41018.98
593.517	40928.36
593.876	40983.72
594.235	40945.53
594.593	40994.35
594.952	41097.17
595.311	41021.24
595.67	41212.65
596.029	41315.69
596.387	41285.64
596.746	41417.39
597.104	41248.12
597.463	41235.24
597.822	41540.32
598.18	41345.98
598.538	41167
598.897	41670.94
599.255	41243.83
599.613	41767.21
599.972	41560.43
600.33	41695.8
600.688	41441.34
601.046	41811.95
601.404	41863.93
601.762	41671.16
602.12	41755
602.478	41867.77
602.836	41903.47
603.194	41756.81
603.552	41799.52
603.91	41695.8
604.268	41931.95
604.625	41808.11
604.983	42012.62
605.341	41867.54
605.698	42097.37
606.056	42114.77
606.413	42023.7
606.771	42238.38
607.128	42392.5
607.485	42024.15
607.843	42253.52
608.2	42507.75
608.557	42477.92
608.914	42371.94
609.272	42547.53
609.629	42532.84
609.986	42785.71
610.343	42594.76
610.7	42861.19
611.057	42760.4
611.414	42733.74
611.771	42887.18
612.127	42954.97
612.484	42815.09
612.841	43050.11
613.198	42771.93
613.554	42921.75
613.911	43178.47
614.267	43112.71
614.624	43109.32
614.98	43245.59
615.337	43511.57
615.693	43391.57
616.05	43313.15
616.406	43576.65
616.762	43492.13
617.118	43388.63
617.475	43518.12
617.831	43607.61
618.187	43512.7
618.543	43596.76
618.899	43889.86
619.255	43694.39
619.611	43694.39
619.967	43869.75
620.323	44119.46
620.678	43762.18
621.034	43585.69
621.39	43688.74
621.746	43594.73
622.101	44179.12
622.457	43807.15
622.812	43779.36
623.168	44077.65
623.523	43873.82
623.879	44141.83
624.234	43819.36
624.589	43993.14
624.945	43938.68
625.3	44004.44
625.655	43846.25
626.01	43931.22
626.365	43912.91
626.72	43914.95
627.075	43931.9
627.43	43895.29
627.785	43652.81
628.14	43878.34
628.495	43878.11
628.85	43788.85
629.205	43622.3
629.559	43836.76
629.914	43647.61
630.269	43667.5
630.623	43585.01
630.978	43461.63
631.332	43604.45
631.687	43623.66
632.041	43466.15
632.396	43556.76
632.75	43263.21
633.104	43415.07
633.459	43319.93
633.813	43219.37
634.167	43278.13
634.521	43221.86
634.875	43204.91
635.229	43114.29
635.583	43059.15
635.937	42916.1
636.291	42843.11
636.645	43032.94
636.999	42911.13
637.352	42828.87
637.706	42667.07
638.06	42914.07
638.413	42794.75
638.767	42652.61
639.121	42712.72
639.474	42358.38
639.828	42615.32
640.181	42653.51
640.534	42441.54
640.888	42401.99
641.241	42109.57
641.594	42303.46
641.947	42328.77
642.301	42221.21
642.654	42163.81
643.007	42142.79
643.36	42050.82
643.713	42087.88
644.066	42221.66
644.419	42056.69
644.771	41701.45
645.124	41337.84
645.477	41164.74
645.83	40896.27
646.182	40814.46
646.535	40670.51
646.888	40782.37
647.24	40704.64
647.593	41036.83
647.945	40893.33
648.298	40745.54
648.65	40477.52
649.002	40335.38
649.355	40437.52
649.707	40418.77
650.059	40668.25
650.411	41031.18
650.763	40963.61
651.115	41411.74
651.467	41138.75
651.819	41219.42
652.171	41188.47
652.523	41046.1
652.875	41040.9
653.227	40783.73
653.578	41218.07
653.93	41061.91
654.282	40956.38
654.633	40816.95
654.985	40945.76
655.337	40795.03
655.688	40680.23
656.039	40833.9
656.391	40542.38
656.742	40462.83
657.094	40614.69
657.445	40693.11
657.796	40600.23
658.147	40670.74
658.498	40472.33
658.849	40585.09
659.2	40501.03
659.551	40606.33
659.902	40590.06
660.253	40361.37
660.604	40426.9
660.955	40164.09
661.306	40525.21
661.656	40343.06
662.007	40262.39
662.358	40339.45
662.708	40369.96
663.059	40237.08
663.409	39923.64
663.76	40158.21
664.11	40049.96
664.461	40190.98
664.811	40210.86
665.161	40218.77
665.511	40133.58
665.862	40318.88
666.212	40263.52
666.562	40354.36
666.912	40165.44
667.262	40189.4
667.612	40000.25
667.962	40157.98
668.312	39998.44
668.662	40265.33
669.011	39972
669.361	40023.52
669.711	40056.07
670.06	39883.64
670.41	39830.99
670.76	39861.95
671.109	40060.81
671.459	39875.28
671.808	39760.25
672.157	39917.31
672.507	39682.74
672.856	39526.81
673.205	39786.92
673.554	39873.7
673.904	39521.16
674.253	39719.8
674.602	39700.82
674.951	39195.75
675.3	38947.39
675.649	39423.31
675.998	39447.72
676.346	39386.25
676.695	39449.98
677.044	39320.27
677.393	39452.92
677.741	39421.51
678.09	39364.33
678.438	39183.77
678.787	39361.17
679.135	39380.6
679.484	39071.46
679.832	39273.26
680.181	39113.04
680.529	39037.79
680.877	38896.77
681.225	38887.73
681.573	39120.5
681.922	38870.56
682.27	38693.39
682.618	38832.82
682.966	38629.44
683.314	38680.51
683.661	38532.04
684.009	38356
684.357	38363.23
684.705	38247.07
685.053	38340.86
685.4	38217.7
685.748	38196.68
686.095	38122.1
686.443	37833.3
686.79	37724.6
687.138	37821.1
687.485	37891.6
687.832	37763.47
688.18	37778.16
688.527	37622.01
688.874	37488.9
689.221	37419.07
689.568	37264.95
689.915	37148.8
690.262	37215.46
690.609	37245.29
690.956	37145.86
691.303	36933.44
691.65	36697.74
691.997	36766.89
692.344	36557.85
692.69	36648.25
693.037	36777.28
693.383	36528.47
693.73	36519.66
694.077	36145.21
694.423	36091.88
694.769	36177.98
695.116	36201.48
695.462	36078.09
695.808	35888.72
696.155	35911.99
696.501	35650.31
696.847	35559.46
697.193	35430.88
697.539	35497.99
697.885	35366.92
698.231	35199.7
698.577	35194.72
698.923	35133.48
699.269	34875.64
699.614	34543.89
699.96	34654.85
700.306	34745.47
700.651	34602.42
700.997	34422.54
701.342	34553.84
701.688	34370.79
702.033	34167.63
702.379	34214.64
702.724	34172.38
703.069	34200.85
703.415	33707.08
703.76	33788.21
704.105	33651.26
704.45	33524.26
704.795	33384.15
705.14	33189.58
705.485	33388.44
705.83	33197.94
706.175	33150.71
706.52	33123.37
706.865	33062.13
707.209	32958.17
707.554	32915.24
707.899	32811.74
708.243	32706.65
708.588	32772.42
708.932	32611.06
709.277	32478.41
709.621	32541.46
709.966	32381.24
710.31	32483.61
710.654	32123.17
710.998	32184.41
711.342	32171.75
711.687	32040.23
712.031	31978.09
712.375	31879.78
712.719	31949.16
713.063	31723.63
713.407	31844.98
713.75	31699.9
714.094	31663.52
714.438	31514.82
714.782	31662.84
715.125	31477.31
715.469	31486.57
715.812	31214.26
716.156	31063.08
716.499	31167.03
716.843	31019.69
717.186	30920.26
717.53	31085
717.873	31018.11
718.216	30984.67
718.559	30855.4
718.902	30672.58
719.246	30718.01
719.589	30624.45
719.932	30482.76
720.275	30633.04
720.617	30475.07
720.96	30473.27
721.303	30501.51
721.646	30346.26
721.989	30261.07
722.331	30228.75
722.674	30101.3
723.016	30168.42
723.359	30158.02
723.701	30134.07
724.044	29875.77
724.386	29746.73
724.729	30035.76
725.071	29816.33
725.413	29645.49
725.755	29780.63
726.097	29606.4
726.439	29501.77
726.782	29546.74
727.124	29566.17
727.465	29264.26
727.807	29366.4
728.149	29264.03
728.491	29350.58
728.833	29292.28
729.175	29210.93
729.516	29114.88
729.858	29052.96
730.199	28996.7
730.541	28992.18
730.882	28935
731.224	29032.63
731.565	28872.63
731.906	28890.03
732.248	28864.5
732.589	28834.67
732.93	28561
733.271	28537.72
733.612	28620.43
733.953	28666.76
734.294	28545.41
734.635	28405.52
734.976	28540.89
735.317	28324.62
735.658	28316.26
735.999	28296.15
736.339	28221.12
736.68	28312.65
737.021	28151.29
737.361	28063.16
737.702	28285.75
738.042	28041.47
738.383	28032.2
738.723	28073.56
739.063	27885.09
739.404	27959.21
739.744	27869.04
740.084	27845.99
740.424	27873.11
740.764	27796.73
741.104	27864.97
741.444	27587.47
741.784	27558.54
742.124	27568.71
742.464	27572.33
742.804	27394.7
743.143	27439.45
743.483	27324.2
743.823	27284.2
744.162	27285.55
744.502	27255.5
744.841	27027.71
745.181	27265.44
745.52	27165.33
745.86	27096.41
746.199	26943.64
746.538	27002.17
746.877	27013.7
747.216	26877.65
747.556	26851.89
747.895	26811.22
748.234	26747.26
748.573	26527.16
748.911	26616.64
749.25	26642.41
749.589	26455.07
749.928	26494.84
750.267	26509.3
750.605	26403.32
750.944	26283.09
751.283	26223.21
751.621	26237.67
751.96	26226.15
752.298	26110.22
752.636	26148.18
752.975	26060.95
753.313	25827.06
753.651	26005.59
753.989	25783.67
754.327	25920.17
754.666	25680.62
755.004	25737.35
755.342	25715.43
755.679	25579.61
756.017	25442.66
756.355	25473.85
756.693	25392.27
757.031	25366.28
757.368	25268.21
757.706	25212.61
758.044	25127.64
758.381	25295.32
758.719	25158.15
759.056	25102.79
759.394	24993.18
759.731	24812.4
760.068	24750.93
760.405	24725.4
760.743	24646.3
761.08	24579.86
761.417	24482.69
761.754	24535.34
762.091	24422.35
762.428	24299.19
762.765	24196.82
763.102	24265.75
763.438	24085.64
763.775	24038.41
764.112	23981.46
764.449	23906.66
764.785	23745.76
765.122	23609.04
765.458	23505.31
765.795	23576.27
766.131	23420.57
766.467	23459.21
766.804	23326.56
767.14	23198.43
767.476	23311.65
767.812	23099.68
768.148	23192.33
768.485	22994.37
768.821	22865.78
769.157	22842.51
769.492	22767.03
769.828	22686.35
770.164	22475.28
770.5	22502.63
770.836	22451.1
771.171	22247.72
771.507	22280.94
771.842	22077.1
772.178	22168.63
772.513	22074.84
772.849	21996.65
773.184	21814.51
773.519	21865.13
773.855	21861.06
774.19	21662.88
774.525	21546.27
774.86	21503.78
775.195	21493.16
775.53	21378.14
775.865	21280.74
776.2	21148.99
776.535	21079.16
776.87	20922.78
777.205	20891.6
777.539	20916.23
777.874	20878.04
778.209	20534.32
778.543	20633.3
778.878	20406.86
779.212	20555.11
779.547	20331.16
779.881	20466.75
780.215	20194.21
780.55	20299.3
780.884	20138.17
781.218	20089.36
781.552	20037.61
781.886	19902.02
782.22	19769.14
782.554	19752.42
782.888	19687.11
783.222	19622.7
783.556	19508.36
783.889	19438.3
784.223	19231.53
784.557	19325.76
784.89	19283.28
785.224	19125.77
785.557	19039.22
785.891	19001.03
786.224	18977.3
786.558	18956.28
786.891	18852.1
787.224	18704.31
787.557	18711.54
787.891	18674.03
788.224	18550.87
788.557	18632.22
788.89	18500.25
789.223	18484.2
789.556	18361.27
789.888	18310.87
790.221	18216.19
790.554	17993.59
790.887	18101.16
791.219	18073.37
791.552	18034.5
791.884	17842.19
792.217	17826.82
792.549	17780.27
792.882	17612.14
793.214	17693.72
793.546	17516.55
793.879	17524.23
794.211	17404.91
794.543	17466.15
794.875	17365.59
795.207	17365.36
795.539	17306.83
795.871	17203.33
796.203	17079.49
796.535	16991.81
796.867	16938.93
797.198	16948.65
797.53	16931.02
797.862	16838.14
798.193	16832.95
798.525	16653.06
798.856	16697.13
799.188	16560.41
799.519	16446.29
799.85	16433.64
800.182	16456.91
800.513	16398.83
800.844	16252.4
801.175	16398.38
801.506	16362
801.837	16236.58
802.168	16131.04
802.499	16126.75
802.83	15905.74
803.161	15964.27
803.491	16056.7
803.822	16083.59
804.153	15905.97
804.483	15675.69
804.814	15670.72
805.145	15752.75
805.475	15712.52
805.805	15586.88
806.136	15521.8
806.466	15600.89
806.796	15570.83
807.126	15496.94
807.457	15358.64
807.787	15341.91
808.117	15252.42
808.447	15193.89
808.777	15237.28
809.107	15109.6
809.436	15164.97
809.766	15079.55
810.096	15132.2
810.426	14974.47
810.755	15045.88
811.085	14916.39
811.414	14863.73
811.744	14770.18
812.073	14756.84
812.403	14696.05
812.732	14652.44
813.061	14640.24
813.39	14552.78
813.719	14575.83
814.049	14654.7
814.378	14567.24
814.707	14487.7
815.036	14472.11
815.365	14354.37
815.693	14272.34
816.022	14300.36
816.351	14176.29
816.68	14204.32
817.008	14264.88
817.337	14115.73
817.665	14000.71
817.994	14073.02
818.322	14045.9
818.651	13946.7
818.979	13944.89
819.307	13963.42
819.636	13850.88
819.964	13778.79
820.292	13870.31
820.62	13835.51
820.948	13793.25
821.276	13869.41
821.604	13814.72
821.932	13874.83
822.259	13796.19
822.587	13862.18
822.915	13706.93
823.243	13800.71
823.57	13788.51
823.898	13768.85
824.225	13664.89
824.553	13685.46
824.88	13725.46
825.207	13779.69
825.535	13721.39
825.862	13758
826.189	13618.79
826.516	13805.91
826.843	13831.44
827.17	13758
827.497	13733.82
827.824	13760.49
828.151	13776.3
828.478	13724.78
828.805	13754.61
829.131	13658.57
829.458	13670.09
829.785	13627.16
830.111	13689.3
830.438	13705.8
830.764	13703.54
831.09	13670.54
831.417	13565.01
831.743	13614.05
832.069	13656.99
832.395	13537.21
832.722	13583.99
833.048	13598.23
833.374	13573.82
833.7	13505.58
834.026	13513.94
834.351	13556.2
834.677	13515.75
835.003	13522.3
835.329	13471.91
835.654	13495.18
835.98	13381.74
836.306	13415.41
836.631	13392.59
836.956	13459.48
837.282	13433.71
837.607	13341.97
837.932	13370.44
838.258	13349.42
838.583	13266.26
838.908	13228.97
839.233	13251.57
839.558	13120.73
839.883	13071.01
840.208	13081.18
840.533	13136.77
840.858	13246.37
841.182	13196.66
841.507	13163.89
841.832	13075.08
842.156	13050.22
842.481	13046.15
842.805	12938.13
843.13	12892.26
843.454	12846.16
843.778	12866.5
844.103	12815.88
844.427	12853.16
844.751	12857.01
845.075	12803.22
845.399	12768.65
845.723	12651.14
846.047	12654.07
846.371	12511.48
846.695	12534.76
847.019	12395.32
847.343	12320.52
847.666	12253.86
847.99	12209.34
848.313	12208.66
848.637	12187.65
848.96	12126.63
849.284	12094.09
849.607	12034.66
849.931	11949.91
850.254	11882.79
850.577	11818.62
850.9	11743.59
851.223	11817.94
851.546	11743.14
851.869	11656.59
852.192	11677.83
852.515	11576.14
852.838	11525.29
853.161	11506.53
853.483	11537.27
853.806	11415.46
854.129	11440.77
854.451	11349.93
854.774	11332.75
855.096	11343.15
855.419	11205.75
855.741	11249.14
856.063	11205.98
856.385	11191.29
856.708	11038.98
857.03	11074.45
857.352	11016.38
857.674	10986.32
857.996	11001.91
858.318	10849.6
858.64	10885.98
858.961	10864.52
859.283	10820.45
859.605	10730.28
859.926	10765.99
860.248	10750.85
860.57	10711.07
860.891	10717.4
861.212	10650.74
861.534	10648.93
861.855	10561.47
862.176	10613.9
862.498	10662.71
862.819	10669.49
863.14	10574.81
863.461	10554.69
863.782	10489.16
864.103	10489.61
864.424	10446.67
864.745	10431.99
865.065	10413
865.386	10410.97
865.707	10394.7
866.027	10368.03
866.348	10400.35
866.668	10417.07
866.989	10344.08
867.309	10290.29
867.63	10286.45
867.95	10277.41
868.27	10147.7
868.59	10200.13
868.91	10133.91
869.23	10191.54
869.55	10177.98
869.87	10160.58
870.19	10126.91
870.51	10127.59
870.83	10085.55
871.15	9991.32
871.469	9944.54
871.789	10085.33
872.109	10046.46
872.428	9955.84
872.748	9982.28
873.067	10019.79
873.386	9962.85
873.706	9955.61
874.025	9880.36
874.344	9852.57
874.663	9847.37
874.982	9830.42
875.301	9879.23
875.62	9782.29
875.939	9763.53
876.258	9773.7
876.577	9742.51
876.896	9694.15
877.214	9680.59
877.533	9716.98
877.852	9710.87
878.17	9744.77
878.489	9690.99
878.807	9654.15
879.125	9680.59
879.444	9610.99
879.762	9563.53
880.08	9562.63
880.398	9572.35
880.716	9604.21
881.034	9570.09
881.352	9542.29
881.67	9580.93
881.988	9502.74
882.306	9477.21
882.624	9479.47
882.941	9402.63
883.259	9363.54
883.577	9444.21
883.894	9329.19
884.212	9342.52
884.529	9338.68
884.846	9237.67
885.164	9262.07
885.481	9194.96
885.798	9263.65
886.115	9186.14
886.432	9172.58
886.75	9220.72
887.067	9153.15
887.383	9092.36
887.7	9166.71
888.017	9036.77
888.334	9090.55
888.651	9027.28
888.967	8985.92
889.284	9032.47
889.6	8954.51
889.917	8888.07
890.233	8930.56
890.55	8900.5
890.866	8881.74
891.182	8912.93
891.498	8761.07
891.815	8779.6
892.131	8697.57
892.447	8692.14
892.763	8712.26
893.079	8674.97
893.395	8653.5
893.71	8630.23
894.026	8538.93
894.342	8579.83
894.657	8569.89
894.973	8589.32
895.289	8517.69
895.604	8526.5
895.92	8325.37
896.235	8352.49
896.55	8376.67
896.865	8364.24
897.181	8318.14
897.496	8322.66
897.811	8301.65
898.126	8202.67
898.441	8207.41
898.756	8143.91
899.071	8069.11
899.386	8152.72
899.7	8037.7
900.015	8111.82
900.33	7987.76
900.644	8033.4
900.959	8028.21
901.273	8015.55
901.588	7878.38
901.902	7867.53
902.216	7814.65
902.531	7896.69
902.845	7845.61
903.159	7764.94
903.473	7665.05
903.787	7652.17
904.101	7639.52
904.415	7586.41
904.729	7601.33
905.042	7572.4
905.356	7581.67
905.67	7538.28
905.984	7561.1
906.297	7579.41
906.611	7484.04
906.924	7490.14
907.237	7479.52
907.551	7414.21
907.864	7382.8
908.177	7307.1
908.491	7324.95
908.804	7245.18
909.117	7176.48
909.43	7196.36
909.743	7140.77
910.056	7129.7
910.368	7091.51
910.681	7047.89
910.994	7051.74
911.307	7008.57
911.619	6960.44
911.932	6978.07
912.244	6939.2
912.557	6894
912.869	6895.13
913.181	6807.45
913.494	6788.47
913.806	6758.18
914.118	6831.85
914.43	6752.08
914.742	6720.9
915.054	6711.86
915.366	6700.56
915.678	6643.61
915.99	6629.37
916.302	6579.43
916.613	6521.35
916.925	6534.69
917.236	6495.14
917.548	6478.19
917.859	6460.11
918.171	6464.18
918.482	6389.61
918.794	6363.62
919.105	6343.51
919.416	6301.25
919.727	6291.08
920.038	6284.3
920.349	6219.22
920.66	6222.6
920.971	6214.47
921.282	6185.32
921.593	6113
921.903	6107.13
922.214	6127.69
922.525	6057.64
922.835	6027.58
923.146	6007.47
923.456	5986.45
923.767	5948.04
924.077	5973.35
924.387	5944.42
924.697	5903.97
925.008	5844.54
925.318	5828.94
925.628	5861.26
925.938	5799.57
926.248	5710.75
926.558	5684.99
926.867	5739.45
927.177	5684.09
927.487	5654.71
927.796	5627.59
928.106	5610.19
928.416	5554.83
928.725	5571.55
929.034	5496.52
929.344	5525.9
929.653	5484.09
929.962	5470.53
930.271	5433.25
930.581	5423.98
930.89	5373.59
931.199	5362.97
931.508	5403.42
931.817	5338.56
932.125	5333.81
932.434	5347.83
932.743	5215.4
933.051	5257.43
933.36	5210.65
933.669	5119.81
933.977	5147.38
934.286	5141.5
934.594	5167.04
934.902	5087.49
935.21	5088.62
935.519	5045.69
935.827	5087.04
936.135	4986.03
936.443	4955.52
936.751	4912.13
937.059	4958.46
937.367	4883.43
937.674	4897.22
937.982	4891.79
938.29	4843.88
938.597	4862.41
938.905	4837.56
939.213	4832.36
939.52	4832.13
939.827	4806.6
940.135	4701.51
940.442	4659.93
940.749	4697.45
941.056	4681.85
941.363	4691.57
941.67	4654.06
941.977	4671.01
942.284	4594.85
942.591	4609.54
942.898	4604.12
943.205	4534.29
943.511	4541.74
943.818	4485.25
944.125	4449.77
944.431	4447.74
944.738	4466.94
945.044	4419.04
945.35	4383.11
945.657	4376.33
945.963	4414.52
946.269	4339.72
946.575	4372.94
946.881	4292.94
947.187	4318.02
947.493	4278.93
947.799	4247.74
948.105	4279.6
948.41	4235.31
948.716	4252.04
949.022	4175.2
949.327	4180.4
949.633	4142.66
949.938	4133.62
950.244	4154.86
950.549	4062.66
950.854	4086.16
951.16	4088.42
951.465	4058.82
951.77	4001.65
952.075	4032.83
952.38	4006.39
952.685	4018.82
952.99	3976.34
953.294	3939.95
953.599	3968.2
953.904	3887.3
954.209	3896.79
954.513	3892.72
954.818	3857.92
955.122	3813.4
955.426	3817.92
955.731	3808.2
956.035	3784.93
956.339	3784.7
956.643	3742.67
956.948	3748.77
957.252	3759.39
957.556	3709.68
957.86	3710.13
958.163	3683.24
958.467	3683.46
958.771	3682.11
959.075	3609.79
959.378	3597.59
959.682	3604.37
959.985	3616.12
960.289	3606.63
960.592	3547.87
960.896	3567.53
961.199	3488.21
961.502	3491.38
961.805	3496.57
962.108	3460.87
962.411	3436.24
962.714	3440.31
963.017	3404.83
963.32	3385.17
963.623	3422.68
963.926	3402.34
964.228	3401.44
964.531	3351.49
964.833	3355.11
965.136	3343.13
965.438	3330.93
965.741	3337.93
966.043	3300.65
966.345	3293.42
966.648	3223.36
966.95	3279.86
967.252	3234.21
967.554	3264.26
967.856	3208.9
968.158	3215.68
968.46	3180.88
968.761	3177.94
969.063	3149.24
969.365	3141.78
969.666	3103.59
969.968	3084.16
970.269	3107.21
970.571	3051.39
970.872	3066.08
971.174	3031.5
971.475	3038.28
971.776	3005.51
972.077	3024.72
972.378	3006.87
972.679	2972.97
972.98	2987.89
973.281	2926.65
973.582	2933.65
973.883	2938.17
974.183	2934.33
974.484	2917.38
974.785	2873.09
975.085	2904.05
975.386	2905.4
975.686	2872.64
975.986	2873.31
976.287	2844.39
976.587	2820.21
976.887	2848.46
977.187	2821.79
977.487	2806.2
977.787	2792.86
978.087	2767.33
978.387	2740.66
978.687	2770.04
978.987	2701.12
979.286	2714
979.586	2739.08
979.885	2678.07
980.185	2661.12
980.484	2640.78
980.784	2676.03
981.083	2624.96
981.382	2662.92
981.682	2655.69
981.981	2645.98
982.28	2632.19
982.579	2611.4
982.878	2574.34
983.177	2567.56
983.475	2523.27
983.774	2517.39
984.073	2534.57
984.372	2504.28
984.67	2519.88
984.969	2524.62
985.267	2497.73
985.566	2472.42
985.864	2466.77
986.162	2465.19
986.461	2457.28
986.759	2433.78
987.057	2415.02
987.355	2378.86
987.653	2399.43
987.951	2387.68
988.249	2387.68
988.547	2375.7
988.844	2366.89
989.142	2378.64
989.44	2335.48
989.737	2301.35
990.035	2300.9
990.332	2307.68
990.63	2322.59
990.927	2292.76
991.224	2302.93
991.521	2265.19
991.819	2260.45
992.116	2247.12
992.413	2183.84
992.71	2187
993.006	2203.05
993.303	2215.03
993.6	2202.37
993.897	2170.96
994.193	2168.93
994.49	2212.09
994.787	2169.15
995.083	2151.53
995.379	2166.67
995.676	2135.48
995.972	2124.18
996.268	2090.74
996.565	2122.37
996.861	2080.11
997.157	2090.28
997.453	2057.74
997.749	2028.59
998.044	2041.47
998.34	2011.87
998.636	2020.91
998.932	2041.92
999.227	1996.05
999.523	1972.1
999.818	1999.44
1000.114	1977.74
1000.409	1970.97
1000.704	1956.5
1001	1946.33
1001.295	1923.96
1001.59	1908.37
1001.885	1901.14
1002.18	1912.89
1002.475	1912.44
1002.77	1887.35
1003.065	1873.34
1003.359	1844.64
1003.654	1851.19
1003.949	1871.53
1004.243	1846.22
1004.538	1830.4
1004.832	1816.62
1005.127	1792.89
1005.421	1781.14
1005.715	1740.91
1006.009	1810.97
1006.304	1775.26
1006.598	1743.4
1006.892	1751.99
1007.186	1763.51
1007.48	1738.43
1007.773	1719.22
1008.067	1705.44
1008.361	1725.1
1008.655	1692.33
1008.948	1692.1
1009.242	1679.22
1009.535	1671.54
1009.829	1687.13
1010.122	1648.71
1010.415	1629.28
1010.708	1616.85
1011.001	1606.23
1011.295	1617.75
1011.588	1584.08
1011.881	1588.6
1012.173	1571.65
1012.466	1575.04
1012.759	1574.14
1013.052	1565.33
1013.344	1550.41
1013.637	1551.09
1013.93	1525.33
1014.222	1519.23
1014.514	1493.92
1014.807	1499.34
1015.099	1489.4
1015.391	1460.92
1015.683	1462.73
1015.976	1459.79
1016.268	1481.49
1016.56	1445.1
1016.851	1447.82
1017.143	1456.85
1017.435	1442.62
1017.727	1411.21
1018.018	1420.25
1018.31	1393.81
1018.602	1404.2
1018.893	1408.27
1019.185	1379.34
1019.476	1359.91
1019.767	1346.57
1020.058	1343.19
1020.35	1356.52
1020.641	1326.46
1020.932	1318.55
1021.223	1325.78
1021.514	1304.77
1021.804	1307.48
1022.095	1280.81
1022.386	1253.02
1022.677	1286.46
1022.967	1271.32
1023.258	1262.06
1023.548	1221.38
1023.839	1242.62
1024.129	1246.46
1024.419	1230.65
1024.709	1217.54
1025	1231.78
1025.29	1192.45
1025.58	1189.06
1025.87	1176.86
1026.16	1166.69
1026.449	1191.78
1026.739	1165.34
1027.029	1149.07
1027.319	1133.25
1027.608	1140.25
1027.898	1123.53
1028.187	1143.64
1028.477	1134.6
1028.766	1106.13
1029.055	1126.47
1029.344	1102.29
1029.634	1102.29
1029.923	1084.66
1030.212	1090.76
1030.501	1064.1
1030.79	1059.12
1031.078	1058.67
1031.367	1051.44
1031.656	1040.14
1031.945	1068.84
1032.233	1053.25
1032.522	1043.53
1032.81	1014.61
1033.099	1006.7
1033.387	996.53
1033.675	1009.41
1033.963	960.6
1034.251	973.7
1034.54	976.64
1034.828	957.43
1035.116	957.88
1035.403	969.86
1035.691	956.98
1035.979	930.31
1036.267	964.21
1036.554	935.74
1036.842	947.94
1037.129	914.95
1037.417	925.57
1037.704	907.04
1037.992	937.77
1038.279	901.39
1038.566	919.69
1038.853	919.69
1039.14	919.69
