Data from plate_ceramic_FLMS001491_083.txt Node
Date: Tue Feb 07 11:17:24 GMT 2017
User: dcchb
Spectrometer: FLMS00149
Trigger mode: 0
Integration Time (sec): 2.000000E-2
Scans to average: 10
Electric dark correction enabled: true
Nonlinearity correction enabled: false
Boxcar width: 0
XAxis mode: Wavelengths
Number of Pixels in Spectrum: 2048
>>>>>Begin Spectral Data<<<<<
341.393	8.49
341.776	8.49
342.16	8.49
342.543	-57.72
342.927	-58.18
343.31	-64.05
343.693	-67.44
344.077	-63.37
344.46	-53.88
344.843	-42.81
345.226	-47.33
345.61	-35.35
345.993	-17.05
346.376	-8.69
346.759	0.81
347.142	13.69
347.525	35.61
347.908	55.27
348.291	85.77
348.674	96.4
349.057	112.44
349.44	114.25
349.823	165.09
350.206	176.62
350.588	226.79
350.971	227.69
351.354	244.41
351.737	250.29
352.119	266.56
352.502	281.02
352.884	276.05
353.267	309.5
353.65	334.81
354.032	318.31
354.414	337.75
354.797	331.64
355.179	354.47
355.562	359.89
355.944	353.56
356.326	335.26
356.709	361.93
357.091	384.52
357.473	346.11
357.855	382.94
358.238	375.26
358.62	378.42
359.002	360.8
359.384	357.86
359.766	366.67
360.148	349.04
360.53	360.8
360.912	365.77
361.294	374.35
361.676	355.82
362.057	366.67
362.439	348.37
362.821	354.24
363.203	354.47
363.584	358.99
363.966	350.4
364.348	351.53
364.729	362.83
365.111	362.83
365.493	359.67
365.874	360.34
366.256	359.21
366.637	356.05
367.019	354.24
367.4	350.85
367.781	342.94
368.163	366.67
368.544	366.22
368.925	353.34
369.306	359.44
369.688	359.44
370.069	352.21
370.45	351.76
370.831	355.15
371.212	355.15
371.593	355.37
371.974	362.38
372.355	357.86
372.736	366.9
373.117	374.58
373.498	360.57
373.879	374.81
374.26	375.48
374.641	372.55
375.021	351.76
375.402	359.21
375.783	370.06
376.163	393.34
376.544	424.75
376.925	396.95
377.305	390.17
377.686	387.91
378.066	401.47
378.447	376.39
378.827	420.46
379.208	404.86
379.588	384.98
379.968	425.43
380.349	393.79
380.729	431.3
381.109	418.42
381.489	413.68
381.87	430.4
382.25	425.65
382.63	427.23
383.01	425.2
383.39	427.69
383.77	432.21
384.15	434.24
384.53	442.6
384.91	446.67
385.29	450.96
385.67	442.6
386.049	438.76
386.429	438.08
386.809	474.46
387.189	461.58
387.568	464.07
387.948	469.27
388.328	484.18
388.707	464.97
389.087	477.18
389.466	482.15
389.846	489.15
390.225	508.59
390.605	511.3
390.984	512.2
391.363	513.79
391.743	509.27
392.122	531.64
392.501	519.44
392.881	527.57
393.26	537.51
393.639	542.49
394.018	543.39
394.397	536.38
394.776	546.78
395.155	560.79
395.534	550.85
395.913	527.34
396.292	581.13
396.671	564.63
397.05	578.19
397.429	577.51
397.808	564.41
398.186	597.4
398.565	570.73
398.944	597.4
399.323	585.42
399.701	606.89
400.08	605.08
400.458	628.81
400.837	596.5
401.215	631.3
401.594	629.72
401.972	629.26
402.351	651.41
402.729	630.39
403.107	662.93
403.486	642.14
403.864	673.56
404.242	657.28
404.62	680.34
404.999	697.74
405.377	696.38
405.755	689.83
406.133	698.64
406.511	714.01
406.889	732.31
407.267	727.34
407.645	754.23
408.023	765.3
408.401	747.23
408.779	766.21
409.156	790.16
409.534	782.03
409.912	800.11
410.29	800.33
410.667	813.44
411.045	811.63
411.422	855.47
411.8	831.97
412.178	861.35
412.555	855.02
412.933	873.1
413.31	873.1
413.687	870.84
414.065	917.17
414.442	928.46
414.819	916.71
415.197	946.99
415.574	942.7
415.951	933.44
416.328	943.83
416.705	955.58
417.082	997.84
417.46	974.56
417.837	1008.46
418.214	1024.73
418.591	1038.52
418.967	1027.67
419.344	1041.23
419.721	1035.13
420.098	1057.27
420.475	1041.91
420.852	1045.07
421.228	1105.18
421.605	1097.95
421.982	1090.27
422.358	1132.07
422.735	1130.27
423.111	1119.42
423.488	1127.78
423.864	1147.44
424.241	1180.21
424.617	1161.68
424.994	1187.21
425.37	1194.9
425.746	1231.73
426.123	1203.26
426.499	1248.68
426.875	1256.82
427.251	1288
427.627	1305.63
428.003	1316.93
428.379	1331.39
428.756	1346.76
429.132	1351.5
429.507	1372.75
429.883	1409.81
430.259	1417.49
430.635	1383.82
431.011	1429.92
431.387	1454.78
431.763	1454.78
432.138	1510.6
432.514	1535.23
432.89	1539.07
433.265	1565.28
433.641	1594.89
434.016	1583.81
434.392	1619.75
434.767	1623.59
435.143	1655.9
435.518	1675.34
435.894	1677.82
436.269	1737.93
436.644	1725.73
437.02	1761.89
437.395	1724.15
437.77	1769.35
438.145	1791.49
438.52	1797.59
438.895	1808.22
439.271	1847.99
439.646	1881.43
440.021	1869
440.395	1895.44
440.77	1865.39
441.145	1898.61
441.52	1953.97
441.895	1942.67
442.27	1952.17
442.645	1970.02
443.019	1993.97
443.394	2008.89
443.769	2009.11
444.143	1993.3
444.518	2052.28
444.892	2039.17
445.267	2057.02
445.641	2096.12
446.016	2066.74
446.39	2111.48
446.764	2134.53
447.139	2133.4
447.513	2140.64
447.887	2182.44
448.262	2173.86
448.636	2166.85
449.01	2204.59
449.384	2215.44
449.758	2256.11
450.132	2264.93
450.506	2280.07
450.88	2290.91
451.254	2287.75
451.628	2353.74
452.002	2367.75
452.376	2374.53
452.75	2410.01
453.123	2404.81
453.497	2468.31
453.871	2487.29
454.244	2541.53
454.618	2566.61
454.992	2573.62
455.365	2606.84
455.739	2635.76
456.112	2654.97
456.486	2728.42
456.859	2720.51
457.232	2804.57
457.606	2794.63
457.979	2811.13
458.352	2848.19
458.725	2944.68
459.099	2912.59
459.472	2944.46
459.845	3014.74
460.218	3036.88
460.591	3104.23
460.964	3080.5
461.337	3174.73
461.71	3206.14
462.083	3219.03
462.456	3292.02
462.829	3247.73
463.201	3365.01
463.574	3366.59
463.947	3393.03
464.32	3483.43
464.692	3499.24
465.065	3517.55
465.438	3540.82
465.81	3605.68
466.183	3639.58
466.555	3760.25
466.928	3748.73
467.3	3804.09
467.672	3834.6
468.045	3953.02
468.417	3913.24
468.789	3983.98
469.161	4049.06
469.534	4111.21
469.906	4184.65
470.278	4224.87
470.65	4218.1
471.022	4337.64
471.394	4427.13
471.766	4477.3
472.138	4525.88
472.51	4603.4
472.882	4673.68
473.253	4704.41
473.625	4766.56
473.997	4914.12
474.369	4923.39
474.74	4944.4
475.112	5053.78
475.484	5144.4
475.855	5280.21
476.227	5288.12
476.598	5445.18
476.97	5503.49
477.341	5632.75
477.713	5701.22
478.084	5718.39
478.455	5877.94
478.827	5997.48
479.198	6131.72
479.569	6133.53
479.94	6290.81
480.311	6335.55
480.682	6525.15
481.053	6642.44
481.424	6750.68
481.795	6814.41
482.166	6932.37
482.537	6973.28
482.908	7154.06
483.279	7192.25
483.65	7443.1
484.021	7532.13
484.391	7629.98
484.762	7710.43
485.133	7716.08
485.503	7879.92
485.874	8047.6
486.244	8054.83
486.615	8213.47
486.985	8341.83
487.356	8562.84
487.726	8555.61
488.097	8793.57
488.467	8844.64
488.837	8999.89
489.207	9124.86
489.578	9253.44
489.948	9347.68
490.318	9471.29
490.688	9508.35
491.058	9628.57
491.428	9778.4
491.798	9831.96
492.168	10052.07
492.538	10112.63
492.908	10258.16
493.278	10297.26
493.648	10332.06
494.017	10556.69
494.387	10652.28
494.757	10747.87
495.126	10770.47
495.496	10912.38
495.866	10999.16
496.235	11144.47
496.605	11183.34
496.974	11254.97
497.344	11438.47
497.713	11398.02
498.082	11532.71
498.452	11722.53
498.821	11753.04
499.19	11818.35
499.559	11869.42
499.928	11961.85
500.298	12079.81
500.667	12202.52
501.036	12101.96
501.405	12375.62
501.774	12357.54
502.143	12500.36
502.512	12513.92
502.88	12726.12
503.249	12761.37
503.618	12802.28
503.987	12881.6
504.356	12917.53
504.724	13051.76
505.093	13128.37
505.462	13196.84
505.83	13230.97
506.199	13433.67
506.567	13646.1
506.936	13535.82
507.304	13764.28
507.672	13854.23
508.041	13943.26
508.409	13973.32
508.777	14155.69
509.145	14250.6
509.514	14296.02
509.882	14369.01
510.25	14437.94
510.618	14592.29
510.986	14660.76
511.354	14758.84
511.722	14911.83
512.09	15006.29
512.458	14992.95
512.826	15222.33
513.193	15354.75
513.561	15365.6
513.929	15437.69
514.297	15642.43
514.664	15695.08
515.032	15811.46
515.4	15920.84
515.767	16038.8
516.135	16182.98
516.502	16079.93
516.869	16444.89
517.237	16456.19
517.604	16472.46
517.972	16674.04
518.339	16827.48
518.706	16859.57
519.073	17072.9
519.44	17050.98
519.808	17376.85
520.175	17348.6
520.542	17604.64
520.909	17691.87
521.276	17716.27
521.643	18006.66
522.009	18029.71
522.376	18294.11
522.743	18246.88
523.11	18464.73
523.477	18577.27
523.843	18746.98
524.21	18961.44
524.577	19036.01
524.943	19175.44
525.31	19326.85
525.676	19438.49
526.043	19601.87
526.409	19683.45
526.776	19898.59
527.142	20059.49
527.508	20135.42
527.874	20222.65
528.241	20411.79
528.607	20474.62
528.973	20756.64
529.339	20747.83
529.705	20968.39
530.071	21128.84
530.437	21231.43
530.803	21331.32
531.169	21475.95
531.535	21566.79
531.901	21710.97
532.267	21684.53
532.632	21856.28
532.998	21868.93
533.364	22016.05
533.73	22232.54
534.095	22355.92
534.461	22426.66
534.826	22478.63
535.192	22717.5
535.557	22889.47
535.923	22940.99
536.288	23012.18
536.653	23153.64
537.019	23109.35
537.384	23176.24
537.749	23335.78
538.114	23390.02
538.479	23363.13
538.845	23534.42
539.21	23604.93
539.575	23699.84
539.94	23833.17
540.305	24045.82
540.67	23927.86
541.034	24077.46
541.399	24253.73
541.764	24251.47
542.129	24409.65
542.494	24474.29
542.858	24566.03
543.223	24608.75
543.587	24818.01
543.952	24699.14
544.316	24860.49
544.681	24861.62
545.045	25051.45
545.41	25168.28
545.774	25223.87
546.138	25219.8
546.503	25251.21
546.867	25310.87
547.231	25683.29
547.595	25754.03
547.959	25734.14
548.324	25866.79
548.688	25956.28
549.052	26058.42
549.416	26209.16
549.779	26194.24
550.143	26394.46
550.507	26495.25
550.871	26575.25
551.235	26448.92
551.599	26778.41
551.962	26796.03
552.326	26871.74
552.689	27047.78
553.053	26944.28
553.417	27105.86
553.78	27569.35
554.143	27357.83
554.507	27484.38
554.87	27566.63
555.234	27895.21
555.597	27810.24
555.96	27920.97
556.323	28112.38
556.686	28155.09
557.05	28527.06
557.413	28452.94
557.776	28561.86
558.139	28701.52
558.502	28896.09
558.865	28994.17
559.228	29247.49
559.59	29256.08
559.953	29258.34
560.316	29606.35
560.679	29597.54
561.041	29794.6
561.404	29961.37
561.767	30151.65
562.129	30202.72
562.492	30486.33
562.854	30534.92
563.217	30521.81
563.579	30712.99
563.941	30841.8
564.304	30947.79
564.666	31179.42
565.028	31276.14
565.39	31525.85
565.753	31532.86
566.115	31672.97
566.477	31729.24
566.839	31853.53
567.201	32039.96
567.563	32230.01
567.925	32430.69
568.287	32578.25
568.648	32511.14
569.01	32650.34
569.372	32999.71
569.734	32778.02
570.095	33196.99
570.457	33245.13
570.819	33309.53
571.18	33257.11
571.542	33591.79
571.903	33611.9
572.265	33715.17
572.626	33865
572.987	34002.4
573.349	34161.94
573.71	34248.72
574.071	34311.54
574.432	34393.8
574.794	34652.1
575.155	34517.64
575.516	34557.86
575.877	34707.46
576.238	34730.51
576.599	34990.85
576.96	34973.22
577.32	35045.76
577.681	35166.89
578.042	35218.86
578.403	35228.58
578.763	35299.99
579.124	35405.3
579.485	35687.78
579.845	35611.39
580.206	35488.69
580.566	35493.66
580.927	35509.7
581.287	35742.24
581.648	35569.36
582.008	35645.29
582.368	35693.2
582.728	35722.35
583.089	35811.16
583.449	35801.67
583.809	35867.43
584.169	35941.78
584.529	35859.52
584.889	36110.36
585.249	35847.55
585.609	35946.98
585.969	36248.44
586.329	35935.68
586.688	35990.37
587.048	36022
587.408	35965.74
587.768	35901.1
588.127	36003.93
588.487	35959.63
588.846	36186.29
589.206	36000.08
589.565	36013.87
589.925	36206.63
590.284	36044.6
590.643	36101.55
591.003	36234.65
591.362	36423.12
591.721	36073.75
592.08	36263.58
592.44	36427.19
592.799	36338.83
593.158	36348.32
593.517	36264.71
593.876	36401.66
594.235	36340.87
594.593	36453.41
594.952	36503.12
595.311	36398.49
595.67	36506.96
596.029	36777.47
596.387	36682.78
596.746	36852.94
597.104	36583.8
597.463	36595.32
597.822	36709.67
598.18	36502.9
598.538	36640.97
598.897	36960.06
599.255	36594.19
599.613	37059.72
599.972	36707.86
600.33	36857.46
600.688	36793.06
601.046	37001.87
601.404	36984.69
601.762	36866.5
602.12	37217.91
602.478	37113.5
602.836	37171.35
603.194	37123.44
603.552	37083.22
603.91	37012.49
604.268	37292.25
604.625	37113.5
604.983	37235.98
605.341	37074.18
605.698	37260.62
606.056	37485.7
606.413	37428.3
606.771	37525.02
607.128	37581.06
607.485	37470.1
607.843	37536.77
608.2	37555.98
608.557	37717.55
608.914	37497.67
609.272	37785.12
609.629	37825.35
609.986	37958
610.343	37763.65
610.7	38000.26
611.057	38018.56
611.414	38034.38
611.771	37944.21
612.127	38133.14
612.484	38031.67
612.841	38341.94
613.198	38140.82
613.554	38117.32
613.911	38449.96
614.267	38355.05
614.624	38379.23
614.98	38428.04
615.337	38657.42
615.693	38552.33
616.05	38418.78
616.406	38727.92
616.762	38725.66
617.118	38547.36
617.475	38549.4
617.831	38715.27
618.187	38786.68
618.543	38589.85
618.899	38851.53
619.255	38767.02
619.611	38811.31
619.967	38905.09
620.323	39030.97
620.678	38870.52
621.034	38898.54
621.39	38890.18
621.746	38781.93
622.101	39367.68
622.457	38883.4
622.812	39033
623.168	39079.78
623.523	39050.85
623.879	39205.65
624.234	38738.54
624.589	39065.09
624.945	39164.52
625.3	39064.86
625.655	38956.84
626.01	39051.53
626.365	39080.91
626.72	39033
627.075	38981.48
627.43	39000.68
627.785	38795.27
628.14	39010.17
628.495	39058.54
628.85	38891.53
629.205	38856.28
629.559	39125.88
629.914	38864.64
630.269	38974.92
630.623	38803.4
630.978	38734.02
631.332	38907.8
631.687	38941.02
632.041	38616.51
632.396	38716.62
632.75	38596.63
633.104	38665.33
633.459	38578.32
633.813	38439.79
634.167	38440.92
634.521	38416.07
634.875	38527.02
635.229	38383.52
635.583	38219.24
635.937	38257.43
636.291	38278.44
636.645	38367.48
636.999	38086.13
637.352	38306.46
637.706	37960.03
638.06	38036.42
638.413	37959.13
638.767	37868.96
639.121	37926.14
639.474	37659.93
639.828	37760.94
640.181	37645.69
640.534	37792.58
640.888	37619.93
641.241	37477.56
641.594	37616.77
641.947	37720.94
642.301	37543.09
642.654	37624.45
643.007	37595.07
643.36	37434.85
643.713	37407.73
644.066	37519.82
644.419	37125.03
644.771	36864.69
645.124	36457.02
645.477	36436.46
645.83	36335.89
646.182	36258.83
646.535	36096.13
646.888	36296.57
647.24	36006.41
647.593	36225.16
647.945	36157.59
648.298	36055.45
648.65	35930.93
649.002	35695.46
649.355	35802.58
649.707	35810.94
650.059	35914.66
650.411	36381.54
650.763	36304.94
651.115	36582.44
651.467	36690.91
651.819	36649.78
652.171	36497.47
652.523	36535.89
652.875	36402.11
653.227	36349.23
653.578	36410.02
653.93	36297.7
654.282	36425.38
654.633	36211.6
654.985	36128.67
655.337	36245.28
655.688	36185.62
656.039	36384.03
656.391	35983.36
656.742	36032.4
657.094	35962.35
657.445	36036.92
657.796	36137.03
658.147	36029.01
658.498	36079.18
658.849	36026.07
659.2	36001.21
659.551	35955.79
659.902	35858.17
660.253	35975.23
660.604	36029.01
660.955	35792.18
661.306	35876.02
661.656	35868.11
662.007	35736.81
662.358	35801.67
662.708	35779.98
663.059	35778.4
663.409	35517.61
663.76	35692.3
664.11	35829.47
664.461	35757.83
664.811	35853.65
665.161	35635.12
665.511	35624.73
665.862	35577.27
666.212	35672.64
666.562	35769.36
666.912	35676.7
667.262	35535.46
667.612	35520.78
667.962	35531.62
668.312	35476.71
668.662	35605.97
669.011	35455.24
669.361	35410.27
669.711	35358.97
670.06	35396.94
670.41	35311.29
670.76	35182.03
671.109	35400.1
671.459	35229.94
671.808	35287.79
672.157	35340.44
672.507	34944.29
672.856	35046.89
673.205	35107.23
673.554	35316.03
673.904	35127.79
674.253	35402.13
674.602	35189.26
674.951	34631.76
675.3	34569.61
675.649	35105.64
675.998	35039.21
676.346	34921.47
676.695	35160.78
677.044	34687.58
677.393	34921.47
677.741	34920.34
678.09	34900
678.438	34587.47
678.787	34797.86
679.135	34859.78
679.484	34566.45
679.832	34810.96
680.181	34494.14
680.529	34625.21
680.877	34450.75
681.225	34521.93
681.573	34640.57
681.922	34251.66
682.27	34288.27
682.618	34359.68
682.966	34255.05
683.314	34308.83
683.661	34168.95
684.009	34098.89
684.357	33957.2
684.705	33858.22
685.053	33897.54
685.4	33865.9
685.748	33879.46
686.095	33684.21
686.443	33517.89
686.79	33547.72
687.138	33551.11
687.485	33622.75
687.832	33307.27
688.18	33536.42
688.527	33328.97
688.874	33207.16
689.221	33196.99
689.568	33073.83
689.915	33029.77
690.262	32942.76
690.609	32832.03
690.956	32806.27
691.303	32845.82
691.65	32666.61
691.997	32646.95
692.344	32330.8
692.69	32483.57
693.037	32480.63
693.383	32194.08
693.73	32279.96
694.077	32154.31
694.423	32174.65
694.769	32098.04
695.116	32003.81
695.462	31916.12
695.808	31799.29
696.155	31856.46
696.501	31595
696.847	31579.86
697.193	31324.28
697.539	31411.5
697.885	31204.5
698.231	31122.02
698.577	31182.81
698.923	31081.57
699.269	30882.03
699.614	30841.58
699.96	30721.35
700.306	30765.87
700.651	30581.92
700.997	30435.26
701.342	30504.86
701.688	30421.93
702.033	30261.93
702.379	30282.04
702.724	30158.43
703.069	30219.9
703.415	29947.36
703.76	29801.83
704.105	29913.24
704.45	29717.54
704.795	29597.31
705.14	29550.54
705.485	29523.64
705.83	29282.75
706.175	29555.06
706.52	29525.23
706.865	29375.63
707.209	29302.41
707.554	29094.5
707.899	29198.46
708.243	29029.65
708.588	29115.75
708.932	28785.13
709.277	28800.27
709.621	28847.05
709.966	28608.19
710.31	28689.09
710.654	28488.87
710.998	28483.22
711.342	28454.07
711.687	28330.46
712.031	28228.76
712.375	28268.54
712.719	28281.19
713.063	28162.55
713.407	28196
713.75	28004.36
714.094	27976.57
714.438	27902.44
714.782	27908.09
715.125	27783.35
715.469	27869.22
715.812	27753.75
716.156	27539.29
716.499	27490.7
716.843	27555.79
717.186	27382.68
717.53	27398.5
717.873	27473.76
718.216	27232.63
718.559	27271.95
718.902	27084.16
719.246	27278.73
719.589	27097.27
719.932	26932.53
720.275	26938.63
720.617	26966.88
720.96	26777.05
721.303	26953.32
721.646	26885.07
721.989	26626.09
722.331	26733.44
722.674	26648.24
723.016	26584.06
723.359	26500
723.701	26592.87
724.044	26313.79
724.386	26203.73
724.729	26485.08
725.071	26451.86
725.413	26334.58
725.755	26238.08
726.097	26111.08
726.439	26104.75
726.782	26064.53
727.124	26171.87
727.465	26074.24
727.807	25936.85
728.149	25868.6
728.491	25755.83
728.833	25929.61
729.175	25754.03
729.516	25670.86
729.858	25815.27
730.199	25747.7
730.541	25674.48
730.882	25581.6
731.224	25695.5
731.565	25452.11
731.906	25506.58
732.248	25544.54
732.589	25345.22
732.93	25306.81
733.271	25296.41
733.612	25306.58
733.953	25289.18
734.294	25187.26
734.635	25191.1
734.976	25241.72
735.317	25138.68
735.658	25138.45
735.999	25181.16
736.339	25071.11
736.68	25036.53
737.021	24962.63
737.361	24871.34
737.702	24994.27
738.042	24795.41
738.383	24789.98
738.723	24817.33
739.063	24695.97
739.404	24748.85
739.744	24631.34
740.084	24548.86
740.424	24625.47
740.764	24593.38
741.104	24571.01
741.444	24596.54
741.784	24446.26
742.124	24434.96
742.464	24404.46
742.804	24270.9
743.143	24334.63
743.483	24364.68
743.823	24141.19
744.162	24161.53
744.502	24191.81
744.841	23987.74
745.181	24155.65
745.52	23965.6
745.86	24040.62
746.199	23829.78
746.538	23960.18
746.877	23932.15
747.216	23858.26
747.556	23802.67
747.895	23773.97
748.234	23580.07
748.573	23685.38
748.911	23657.36
749.25	23625.49
749.589	23410.59
749.928	23421.88
750.267	23408.78
750.605	23273.19
750.944	23255.11
751.283	23220.31
751.621	23356.35
751.96	23092.63
752.298	23118.39
752.636	23179.18
752.975	22980.54
753.313	22951.84
753.651	23063.93
753.989	22883.14
754.327	22779.19
754.666	22684.28
755.004	22794.78
755.342	22784.16
755.679	22690.83
756.017	22590.04
756.355	22664.39
756.693	22515.92
757.031	22546.43
757.368	22410.39
757.706	22323.38
758.044	22220.11
758.381	22224.63
758.719	22159.54
759.056	22213.33
759.394	22177.4
759.731	21989.83
760.068	22019.44
760.405	21809.27
760.743	21917.06
761.08	21969.27
761.417	21711.42
761.754	21762.72
762.091	21575.61
762.428	21457.42
762.765	21411.09
763.102	21447.92
763.438	21218.1
763.775	21315.72
764.112	21281.83
764.449	21287.93
764.785	21156.63
765.122	21022.85
765.458	20915.74
765.795	20999.35
766.131	20891.56
766.467	20757.1
766.804	20680.94
767.14	20477.55
767.476	20594.39
767.812	20456.76
768.148	20410.89
768.485	20324.56
768.821	20219.93
769.157	20243.89
769.492	20171.8
769.828	20088.19
770.164	19956.66
770.5	19948.3
770.836	19907.17
771.171	19774.97
771.507	19667.63
771.842	19600.29
772.178	19639.84
772.513	19544.47
772.849	19411.37
773.184	19291.82
773.519	19280.3
773.855	19198.27
774.19	19245.95
774.525	19140.87
774.86	19008.89
775.195	18946.52
775.53	18907.88
775.865	18822.23
776.2	18713.76
776.535	18606.87
776.87	18603.48
777.205	18482.58
777.539	18468.57
777.874	18483.03
778.209	18393.54
778.543	18147.45
778.878	18180.44
779.212	18065.64
779.547	17999.65
779.881	18061.35
780.215	17882.59
780.55	17979.77
780.884	17853.44
781.218	17779.77
781.552	17734.58
781.886	17664.97
782.22	17547.69
782.554	17511.76
782.888	17277.64
783.222	17397.18
783.556	17269.73
783.889	17300.92
784.223	17113.35
784.557	17051.66
784.89	17054.59
785.224	17013.69
785.557	16864.77
785.891	16843.75
786.224	16809.4
786.558	16772.34
786.891	16573.25
787.224	16589.3
787.557	16484.21
787.891	16492.35
788.224	16462.07
788.557	16405.8
788.89	16385.01
789.223	16315.63
789.556	16283.31
789.888	16191.34
790.221	16109.53
790.554	15907.51
790.887	15948.86
791.219	15872.93
791.552	15891.69
791.884	15862.08
792.217	15841.52
792.549	15707.51
792.882	15626.61
793.214	15518.14
793.546	15504.35
793.879	15399.27
794.211	15284.02
794.543	15381.87
794.875	15395.2
795.207	15294.64
795.539	15258.71
795.871	15216.68
796.203	15147.53
796.535	15061.43
796.867	15051.03
797.198	15023.69
797.53	14964.71
797.862	14846.06
798.193	14904.82
798.525	14778.72
798.856	14820.98
799.188	14648.78
799.519	14572.17
799.85	14582.12
800.182	14505.96
800.513	14594.77
800.844	14440.2
801.175	14516.81
801.506	14504.15
801.837	14368.11
802.168	14345.51
802.499	14224.61
802.83	14187.1
803.161	14103.26
803.491	14207.44
803.822	14086.76
804.153	14146.87
804.483	13875.47
804.814	13842.48
805.145	13893.77
805.475	13839.76
805.805	13866.66
806.136	13788.47
806.466	13728.81
806.796	13729.94
807.126	13668.24
807.457	13528.36
807.787	13490.39
808.117	13540.56
808.447	13486.33
808.777	13534.91
809.107	13449.04
809.436	13448.81
809.766	13432.32
810.096	13369.95
810.426	13246.33
810.755	13197.97
811.085	13222.38
811.414	13190.06
811.744	13091.08
812.073	12978.09
812.403	13055.6
812.732	12931.31
813.061	12999.79
813.39	12899.67
813.719	12879.11
814.049	12932.89
814.378	12830.52
814.707	12771.99
815.036	12799.79
815.365	12748.49
815.693	12656.07
816.022	12620.13
816.351	12564.54
816.68	12581.94
817.008	12587.82
817.337	12541.27
817.665	12495.17
817.994	12468.73
818.322	12436.64
818.651	12449.74
818.979	12392.34
819.307	12454.71
819.636	12375.62
819.964	12274.83
820.292	12332.91
820.62	12280.03
820.948	12286.13
821.276	12260.6
821.604	12195.96
821.932	12246.13
822.259	12215.17
822.587	12212.46
822.915	12210.2
823.243	12192.57
823.57	12147.15
823.898	12100.15
824.225	12171.33
824.553	12104.44
824.88	12130.88
825.207	12201.61
825.535	12165
825.862	12130.2
826.189	12082.07
826.516	12168.39
826.843	12131.79
827.17	12131.33
827.497	12193.03
827.824	12223.31
828.151	12203.65
828.478	12039.13
828.805	12123.2
829.131	12101.28
829.458	12091.79
829.785	12028.51
830.111	12099.92
830.438	12139.47
830.764	12066.48
831.09	12066.02
831.417	11963.65
831.743	12022.18
832.069	12078.91
832.395	12037.32
832.722	11968.63
833.048	12022.64
833.374	12015.86
833.7	12018.12
834.026	12009.08
834.351	11953.71
834.677	12037.1
835.003	11972.92
835.329	11966.82
835.654	11903.77
835.98	11827.39
836.306	11879.36
836.631	11919.59
836.956	11840.49
837.282	11911.68
837.607	11809.31
837.932	11746.71
838.258	11779.25
838.583	11748.07
838.908	11682.98
839.233	11733.83
839.558	11703.32
839.883	11588.75
840.208	11624.45
840.533	11634.85
840.858	11579.26
841.182	11603.89
841.507	11582.42
841.832	11475.53
842.156	11487.28
842.481	11467.4
842.805	11429.43
843.13	11469.2
843.454	11392.6
843.778	11304.24
844.103	11380.62
844.427	11370.45
844.751	11378.36
845.075	11238.02
845.399	11211.13
845.723	11239.38
846.047	11196.67
846.371	11114.19
846.695	11108.08
847.019	10988.09
847.343	10948.54
847.666	10890.46
847.99	10919.61
848.313	10840.75
848.637	10834.19
848.96	10702.44
849.284	10731.14
849.607	10661.77
849.931	10587.87
850.254	10585.61
850.577	10583.13
850.9	10354.66
851.223	10451.83
851.546	10406.63
851.869	10314.43
852.192	10304.71
852.515	10236.47
852.838	10231.04
853.161	10198.05
853.483	10172.29
853.806	10056.59
854.129	10059.3
854.451	10019.98
854.774	9992.41
855.096	9974.33
855.419	9968
855.741	9994.67
856.063	9932.3
856.385	9981.11
856.708	9833.31
857.03	9804.84
857.352	9755.8
857.674	9716.03
857.996	9688.46
858.318	9612.08
858.64	9631.74
858.961	9631.51
859.283	9577.5
859.605	9524.62
859.926	9593.32
860.248	9525.75
860.57	9514.91
860.891	9463.38
861.212	9456.15
861.534	9357.62
861.855	9423.61
862.176	9473.32
862.498	9401.01
862.819	9382.93
863.14	9409.15
863.461	9392.87
863.782	9267.23
864.103	9321.46
864.424	9303.61
864.745	9243.5
865.065	9162.15
865.386	9174.12
865.707	9196.95
866.027	9211.64
866.348	9169.38
866.668	9170.96
866.989	9165.31
867.309	9013.45
867.63	9004.41
867.95	9119.66
868.27	9004.18
868.59	9066.56
868.91	9036.27
869.23	9040.34
869.55	9024.97
869.87	8996.5
870.19	9005.99
870.51	9014.13
870.83	8913.34
871.15	8890.74
871.469	8929.84
871.789	8919.44
872.109	8924.86
872.428	8854.81
872.748	8933.23
873.067	8845.32
873.386	8800.57
873.706	8783.4
874.025	8718.77
874.344	8799.9
874.663	8783.4
874.982	8758.77
875.301	8758.09
875.62	8688.03
875.939	8667.24
876.258	8723.97
876.577	8658.43
876.896	8685.55
877.214	8667.02
877.533	8557.19
877.852	8552.67
878.17	8585.21
878.489	8614.82
878.807	8613.01
879.125	8627.47
879.444	8530.07
879.762	8458.44
880.08	8518.77
880.398	8480.36
880.716	8454.37
881.034	8418.44
881.352	8425.89
881.67	8391.77
881.988	8411.88
882.306	8409.62
882.624	8406.23
882.941	8335.95
883.259	8288.04
883.577	8312.45
883.894	8281.27
884.212	8225.45
884.529	8228.16
884.846	8288.27
885.164	8261.15
885.481	8162.4
885.798	8212.57
886.115	8098.22
886.432	8161.04
886.75	8126.02
887.067	8042.63
887.383	8046.47
887.7	8104.32
888.017	8020.71
888.334	8002.85
888.651	7983.42
888.967	7937.32
889.284	7938
889.6	7939.81
889.917	7863.88
890.233	7889.64
890.55	7880.37
890.866	7890.54
891.182	7772.35
891.498	7834.72
891.815	7705.01
892.131	7772.13
892.447	7728.96
892.763	7694.16
893.079	7723.09
893.395	7635.63
893.71	7574.84
894.026	7599.02
894.342	7513.38
894.657	7584.11
894.973	7548.18
895.289	7519.25
895.604	7539.14
895.92	7458.24
896.235	7435.64
896.55	7365.13
896.865	7345.24
897.181	7345.92
897.496	7295.53
897.811	7260.95
898.126	7183.44
898.441	7234.29
898.756	7248.98
899.071	7189.77
899.386	7166.94
899.7	7124.01
900.015	7077.23
900.33	7068.64
900.644	7053.95
900.959	7099.38
901.273	7056.89
901.588	7060.51
901.902	6957.46
902.216	6944.58
902.531	6923.11
902.845	6907.97
903.159	6816.67
903.473	6842.43
903.787	6781.87
904.101	6800.63
904.415	6778.71
904.729	6775.77
905.042	6702.1
905.356	6685.83
905.67	6679.05
905.984	6647.64
906.297	6638.14
906.611	6638.82
906.924	6575.77
907.237	6568.77
907.551	6526.96
907.864	6548.66
908.177	6484.93
908.491	6537.13
908.804	6415.78
909.117	6429.56
909.43	6352.95
909.743	6347.3
910.056	6349.34
910.368	6267.31
910.681	6227.76
910.994	6237.93
911.307	6261.66
911.619	6113.19
911.932	6206.07
912.244	6068.44
912.557	6146.86
912.869	6071.61
913.181	6060.76
913.494	6065.5
913.806	5977.37
914.118	6027.31
914.43	5982.12
914.742	5904.6
915.054	5910.25
915.366	5891.72
915.678	5924.94
915.99	5818.96
916.302	5804.49
916.613	5790.03
916.925	5821.67
917.236	5762.01
917.548	5761.11
917.859	5682.46
918.171	5668.45
918.482	5676.59
918.794	5626.87
919.105	5601.11
919.416	5592.07
919.727	5585.74
920.038	5486.54
920.349	5473.43
920.66	5489.93
920.971	5493.32
921.282	5437.5
921.593	5408.8
921.903	5387.56
922.214	5375.35
922.525	5311.63
922.835	5351.4
923.146	5299.87
923.456	5335.81
923.767	5297.16
924.077	5350.95
924.387	5242.93
924.697	5224.85
925.008	5168.8
925.318	5176.49
925.628	5106.89
925.938	5146.66
926.248	5098.3
926.558	5007.45
926.867	5038.86
927.177	5064.63
927.487	4979.43
927.796	4975.82
928.106	4914.12
928.416	4924.52
928.725	4911.18
929.034	4896.5
929.344	4884.07
929.653	4893.56
929.962	4878.19
930.271	4807.46
930.581	4817.63
930.89	4802.71
931.199	4762.71
931.508	4714.13
931.817	4717.29
932.125	4686.11
932.434	4714.58
932.743	4651.3
933.051	4637.29
933.36	4579.44
933.669	4583.28
933.977	4555.71
934.286	4564.53
934.594	4543.96
934.902	4481.82
935.21	4463.96
935.519	4480.46
935.827	4445.21
936.135	4437.3
936.443	4470.97
936.751	4386.68
937.059	4344.19
937.367	4346.68
937.674	4340.35
937.982	4328.6
938.29	4287.92
938.597	4341.26
938.905	4244.31
939.213	4278.43
939.52	4243.18
939.827	4260.35
940.135	4192.11
940.442	4199.11
940.749	4153.92
941.056	4197.08
941.363	4164.54
941.67	4096.97
941.977	4105.56
942.284	4095.61
942.591	4087.7
942.898	4022.17
943.205	3974.71
943.511	4035.5
943.818	3995.5
944.125	3954.37
944.431	3957.76
944.738	3905.79
945.044	3943.53
945.35	3901.95
945.657	3908.5
945.963	3885.22
946.269	3865.79
946.575	3889.06
946.881	3890.19
947.187	3847.48
947.493	3761.61
947.799	3806.58
948.105	3756.19
948.41	3742.4
948.716	3753.02
949.022	3704.66
949.327	3716.87
949.633	3661.73
949.938	3673.02
950.244	3687.04
950.549	3642.52
950.854	3618.56
951.16	3626.25
951.465	3569.52
951.77	3574.27
952.075	3528.85
952.38	3542.63
952.685	3544.44
952.99	3516.42
953.294	3478.45
953.599	3477.1
953.904	3493.59
954.209	3449.08
954.513	3421.96
954.818	3406.14
955.122	3448.85
955.426	3376.54
955.731	3386.25
956.035	3370.66
956.339	3349.64
956.643	3344.67
956.948	3297.67
957.252	3294.73
957.556	3284.79
957.86	3285.24
958.163	3239.59
958.467	3222.64
958.771	3236.43
959.075	3218.8
959.378	3229.87
959.682	3193.04
959.985	3181.96
960.289	3122.3
960.592	3114.85
960.896	3155.75
961.199	3134.96
961.502	3123.89
961.805	3084.57
962.108	3051.12
962.411	3055.41
962.714	3059.48
963.017	3022.65
963.32	3049.99
963.623	3033.04
963.926	3043.89
964.228	2986.04
964.531	2975.19
964.833	2969.54
965.136	2930.45
965.438	2932.93
965.741	2918.47
966.043	2924.8
966.345	2894.06
966.648	2926.38
966.95	2881.86
967.252	2839.83
967.554	2858.36
967.856	2857
968.158	2812.71
968.46	2823.78
968.761	2765.03
969.063	2782.2
969.365	2767.74
969.666	2746.27
969.968	2714.63
970.269	2783.1
970.571	2773.84
970.872	2703.56
971.174	2688.87
971.475	2698.59
971.776	2668.08
972.077	2674.18
972.378	2652.26
972.679	2652.94
972.98	2642.32
973.281	2595.09
973.582	2606.16
973.883	2565.03
974.183	2618.59
974.484	2608.87
974.785	2612.94
975.085	2544.02
975.386	2583.34
975.686	2553.05
975.986	2539.27
976.287	2537.24
976.587	2515.99
976.887	2474.19
977.187	2507.63
977.487	2481.64
977.787	2444.58
978.087	2459.05
978.387	2438.71
978.687	2424.24
978.987	2407.52
979.286	2445.03
979.586	2430.57
979.885	2411.59
980.185	2390.8
980.484	2365.26
980.784	2351.7
981.083	2363
981.382	2339.05
981.682	2343.12
981.981	2344.7
982.28	2345.15
982.579	2325.72
982.878	2290.24
983.177	2308.32
983.475	2278.03
983.774	2266.06
984.073	2258.6
984.372	2238.94
984.67	2241.65
984.969	2224.7
985.267	2238.26
985.566	2223.35
985.864	2187.64
986.162	2184.48
986.461	2173.63
986.759	2136.57
987.057	2159.84
987.355	2122.78
987.653	2133.63
987.951	2138.83
988.249	2147.87
988.547	2116.91
988.844	2133.63
989.142	2106.51
989.44	2107.42
989.737	2080.75
990.035	2073.52
990.332	2087.98
990.63	2085.5
990.927	2059.96
991.224	2041.66
991.521	2045.72
991.819	2003.01
992.116	1983.13
992.413	1985.61
992.71	1995.1
993.006	1996.01
993.303	1948.55
993.6	1935.67
993.897	1951.49
994.193	1911.26
994.49	1931.15
994.787	1939.29
995.083	1911.94
995.379	1919.85
995.676	1894.99
995.972	1881.21
996.268	1887.99
996.565	1855.9
996.861	1856.8
997.157	1846.18
997.453	1832.85
997.749	1847.08
998.044	1829.68
998.34	1804.83
998.636	1828.55
998.932	1771.83
999.227	1776.58
999.523	1785.62
999.818	1777.71
1000.114	1786.52
1000.409	1740.42
1000.704	1768.44
1001	1728.9
1001.295	1707.2
1001.59	1710.59
1001.885	1725.28
1002.18	1709.46
1002.475	1674.66
1002.77	1692.51
1003.065	1696.13
1003.359	1680.99
1003.654	1687.09
1003.949	1663.81
1004.243	1650.93
1004.538	1629.69
1004.832	1640.76
1005.127	1648.9
1005.421	1596.02
1005.715	1611.61
1006.009	1589.69
1006.304	1584.72
1006.598	1540.88
1006.892	1566.64
1007.186	1565.51
1007.48	1566.41
1007.773	1546.08
1008.067	1557.15
1008.361	1492.97
1008.655	1508.79
1008.948	1488.22
1009.242	1488.68
1009.535	1484.61
1009.829	1477.6
1010.122	1459.52
1010.415	1461.11
1010.708	1448.45
1011.001	1450.94
1011.295	1436.93
1011.588	1424.5
1011.881	1389.7
1012.173	1421.33
1012.466	1393.54
1012.759	1413.42
1013.052	1412.29
1013.344	1390.83
1013.637	1359.41
1013.93	1369.81
1014.222	1345.4
1014.514	1362.13
1014.807	1344.5
1015.099	1331.84
1015.391	1317.83
1015.683	1328.23
1015.976	1306.08
1016.268	1314.67
1016.56	1275.8
1016.851	1295.91
1017.143	1295.23
1017.435	1304.05
1017.727	1293.43
1018.018	1274.67
1018.31	1260.88
1018.602	1228.8
1018.893	1245.97
1019.185	1235.12
1019.476	1242.13
1019.767	1254.33
1020.058	1211.17
1020.35	1225.86
1020.641	1184.95
1020.932	1172.98
1021.223	1181.56
1021.514	1186.99
1021.804	1149.48
1022.095	1163.03
1022.386	1156.25
1022.677	1156.25
1022.967	1176.59
1023.258	1127.56
1023.548	1126.88
1023.839	1128.46
1024.129	1128.01
1024.419	1111.28
1024.709	1075.13
1025	1090.72
1025.29	1086.43
1025.58	1082.13
1025.87	1059.76
1026.16	1052.53
1026.449	1082.58
1026.739	1035.13
1027.029	1062.47
1027.319	1062.02
1027.608	1023.38
1027.898	1032.19
1028.187	1019.31
1028.477	1008.01
1028.766	1012.98
1029.055	997.62
1029.344	967.33
1029.634	1001.91
1029.923	979.54
1030.212	979.76
1030.501	963.72
1030.79	982.93
1031.078	970.05
1031.367	953.55
1031.656	964.62
1031.945	951.74
1032.233	921.91
1032.522	937.96
1032.81	925.75
1033.099	909.71
1033.387	921.23
1033.675	897.5
1033.963	871.52
1034.251	907.67
1034.54	876.71
1034.828	898.18
1035.116	863.16
1035.403	866.55
1035.691	840.78
1035.979	873.1
1036.267	857.51
1036.554	841.01
1036.842	865.87
1037.129	859.54
1037.417	855.47
1037.704	842.36
1037.992	853.21
1038.279	817.51
1038.566	850.73
1038.853	850.73
1039.14	850.73
