Data from plate_ceramic_FLMS001491_028.txt Node
Date: Tue Feb 07 11:16:32 GMT 2017
User: dcchb
Spectrometer: FLMS00149
Trigger mode: 0
Integration Time (sec): 2.000000E-2
Scans to average: 10
Electric dark correction enabled: true
Nonlinearity correction enabled: false
Boxcar width: 0
XAxis mode: Wavelengths
Number of Pixels in Spectrum: 2048
>>>>>Begin Spectral Data<<<<<
341.393	-10.64
341.776	-10.64
342.16	-10.64
342.543	-48.6
342.927	-63.52
343.31	-60.35
343.693	-64.42
344.077	-57.64
344.46	-63.97
344.843	-63.74
345.226	-42.95
345.61	-55.15
345.993	-26.68
346.376	4.28
346.759	23.04
347.142	23.94
347.525	47.22
347.908	53.32
348.291	86.54
348.674	101.45
349.057	95.12
349.44	126.54
349.823	138.74
350.206	157.04
350.588	218.29
350.971	199.75
351.354	247.44
351.737	258.28
352.119	259.41
352.502	276.59
352.884	268
353.267	282.24
353.65	309.36
354.032	308.45
354.414	326.76
354.797	315.68
355.179	308.68
355.562	319.53
355.944	352.07
356.326	339.41
356.709	343.71
357.091	349.81
357.473	337.83
357.855	359.52
358.238	359.07
358.62	346.19
359.002	352.07
359.384	359.3
359.766	350.71
360.148	343.71
360.53	334.89
360.912	342.35
361.294	338.73
361.676	364.5
362.057	343.25
362.439	351.84
362.821	340.09
363.203	342.58
363.584	355.46
363.966	342.58
364.348	341.45
364.729	362.46
365.111	331.5
365.493	330.82
365.874	344.61
366.256	340.77
366.637	345.51
367.019	331.95
367.4	348.68
367.781	325.63
368.163	338.51
368.544	347.77
368.925	330.82
369.306	346.42
369.688	339.41
370.069	348.68
370.45	322.24
370.831	341.67
371.212	346.19
371.593	356.36
371.974	347.55
372.355	352.29
372.736	354.1
373.117	347.32
373.498	349.58
373.879	359.98
374.26	345.97
374.641	361.33
375.021	343.71
375.402	348
375.783	386.19
376.163	378.28
376.544	394.78
376.925	378.28
377.305	373.08
377.686	379.41
378.066	363.14
378.447	385.29
378.827	366.76
379.208	367.89
379.588	375.8
379.968	380.31
380.349	383.25
380.729	387.55
381.109	380.54
381.489	391.61
381.87	386.42
382.25	379.18
382.63	399.98
383.01	404.5
383.39	416.25
383.77	402.46
384.15	398.17
384.53	437.71
384.91	424.16
385.29	414.66
385.67	437.26
386.049	431.61
386.429	429.13
386.809	426.64
387.189	452.4
387.568	452.63
387.948	438.84
388.328	430.26
388.707	448.34
389.087	435.23
389.466	448.11
389.846	463.48
390.225	454.44
390.605	478.62
390.984	470.71
391.363	479.97
391.743	496.24
392.122	483.36
392.501	493.53
392.881	501.89
393.26	489.01
393.639	500.09
394.018	493.98
394.397	486.53
394.776	508.9
395.155	504.61
395.534	520.2
395.913	505.28
396.292	503.48
396.671	524.72
397.05	527.2
397.429	542.8
397.808	556.13
398.186	535.79
398.565	555.68
398.944	551.61
399.323	547.32
399.701	563.81
400.08	574.89
400.458	561.33
400.837	583.93
401.215	565.62
401.594	579.18
401.972	613.08
402.351	585.96
402.729	603.13
403.107	591.38
403.486	623.47
403.864	624.83
404.242	606.98
404.62	629.35
404.999	607.43
405.377	645.17
405.755	646.3
406.133	668.67
406.511	660.31
406.889	670.48
407.267	677.48
407.645	668.22
408.023	683.36
408.401	705.73
408.779	712.74
409.156	735.11
409.534	735.56
409.912	748.21
410.29	762.23
410.667	752.51
411.045	776.91
411.422	782.34
411.8	792.28
412.178	773.75
412.555	799.74
412.933	787.31
413.31	807.42
413.687	838.16
414.065	815.56
414.442	836.8
414.819	854.88
415.197	853.97
415.574	858.04
415.951	880.19
416.328	872.05
416.705	884.71
417.082	902.34
417.46	907.31
417.837	933.29
418.214	930.81
418.591	925.16
418.967	918.61
419.344	959.28
419.721	948.89
420.098	964.03
420.475	974.42
420.852	985.04
421.228	988.89
421.605	1021.65
421.982	1002.45
422.358	1013.52
422.735	1039.51
423.111	1035.44
423.488	1048.09
423.864	1052.16
424.241	1069.79
424.617	1072.05
424.994	1105.49
425.37	1075.66
425.746	1110.01
426.123	1146.85
426.499	1138.04
426.875	1152.27
427.251	1152.72
427.627	1184.14
428.003	1185.27
428.379	1179.39
428.756	1234.53
429.132	1244.25
429.507	1263.23
429.883	1238.6
430.259	1286.05
430.635	1303.23
431.011	1311.82
431.387	1336
431.763	1333.51
432.138	1378.93
432.514	1362.66
432.89	1401.08
433.265	1437.69
433.641	1396.11
434.016	1438.14
434.392	1488.53
434.767	1490.12
435.143	1475.43
435.518	1483.34
435.894	1525.37
436.269	1535.76
436.644	1589.1
437.02	1569.44
437.395	1566.72
437.77	1602.88
438.145	1631.58
438.52	1632.26
438.895	1671.58
439.271	1661.41
439.646	1660.28
440.021	1702.54
440.395	1703.22
440.77	1703.44
441.145	1691.47
441.52	1749.09
441.895	1767.62
442.27	1764.91
442.645	1770.56
443.019	1826.83
443.394	1784.57
443.769	1823.44
444.143	1786.61
444.518	1838.36
444.892	1825.93
445.267	1864.57
445.641	1890.78
446.016	1912.48
446.39	1899.82
446.764	1911.8
447.139	1935.75
447.513	1939.82
447.887	1939.82
448.262	1968.52
448.636	1954.06
449.01	1993.83
449.384	2012.81
449.758	2019.14
450.132	2049.65
450.506	2030.89
450.88	2077.45
451.254	2072.25
451.628	2136.65
452.002	2140.49
452.376	2146.82
452.75	2168.97
453.123	2214.84
453.497	2208.97
453.871	2250.77
454.244	2276.76
454.618	2314.95
454.992	2360.83
455.365	2342.3
455.739	2377.1
456.112	2430.66
456.486	2456.19
456.859	2483.76
457.232	2516.3
457.606	2504.33
457.979	2546.36
458.352	2570.99
458.725	2608.28
459.099	2628.17
459.472	2706.81
459.845	2734.38
460.218	2731.44
460.591	2778.22
460.964	2806.01
461.337	2865.22
461.71	2868.84
462.083	2912
462.456	2923.3
462.829	2959.23
463.201	2991.32
463.574	3010.53
463.947	3038.78
464.32	3123.75
464.692	3139.34
465.065	3145.21
465.438	3225.44
465.81	3282.39
466.183	3329.39
466.555	3391.54
466.928	3384.76
467.3	3414.13
467.672	3442.83
468.045	3540.23
468.417	3547.69
468.789	3582.72
469.161	3621.81
469.534	3663.62
469.906	3742.94
470.278	3763.28
470.65	3854.57
471.022	3881.01
471.394	3994.68
471.766	4041.91
472.138	4097.51
472.51	4144.96
472.882	4254.34
473.253	4223.83
473.625	4338.85
473.997	4402.36
474.369	4452.07
474.74	4570.94
475.112	4571.84
475.484	4627.43
475.855	4720.99
476.227	4790.37
476.598	4907.65
476.97	4958.73
477.341	5046.86
477.713	5085.73
478.084	5117.37
478.455	5366.17
478.827	5312.61
479.198	5506.51
479.569	5530.69
479.94	5697.24
480.311	5713.73
480.682	5838.7
481.053	5959.6
481.424	6127.96
481.795	6111.92
482.166	6226.94
482.537	6296.77
482.908	6465.58
483.279	6478.46
483.65	6624.9
484.021	6718.91
484.391	6847.04
484.762	6873.48
485.133	6966.13
485.503	7080.7
485.874	7254.48
486.244	7314.14
486.615	7409.73
486.985	7541.03
487.356	7664.87
487.726	7722.27
488.097	7870.51
488.467	7972.88
488.837	8092.65
489.207	8214.69
489.578	8311.41
489.948	8365.64
490.318	8484.51
490.688	8552.3
491.058	8654.45
491.428	8805.86
491.798	8897.83
492.168	9108.67
492.538	9133.98
492.908	9202.91
493.278	9338.05
493.648	9376.91
494.017	9533.29
494.387	9601.09
494.757	9691.03
495.126	9764.25
495.496	9753.85
495.866	9879.27
496.235	10038.14
496.605	10077.24
496.974	10189.77
497.344	10290.11
497.713	10340.05
498.082	10356.32
498.452	10572.82
498.821	10542.53
499.19	10648.75
499.559	10756.31
499.928	10833.37
500.298	10918.57
500.667	11109.75
501.036	10932.58
501.405	11099.58
501.774	11160.14
502.143	11267.49
502.512	11365.56
502.88	11467.25
503.249	11542.28
503.618	11575.73
503.987	11557.42
504.356	11738.89
504.724	11790.64
505.093	11856.85
505.462	11923.51
505.83	12018.43
506.199	12146.33
506.567	12239.89
506.936	12269.95
507.304	12407.8
507.672	12462.48
508.041	12543.61
508.409	12695.7
508.777	12824.06
509.145	12817.05
509.514	12789.93
509.882	12954
510.25	13043.26
510.618	13142.01
510.986	13198.96
511.354	13330.71
511.722	13467.2
512.09	13607.09
512.458	13602.79
512.826	13736.8
513.193	13803.24
513.561	13876.46
513.929	14011.37
514.297	14183.79
514.664	14251.36
515.032	14257.01
515.4	14465.37
515.767	14517.34
516.135	14630.34
516.502	14541.07
516.869	14791.46
517.237	14928.86
517.604	14941.29
517.972	15093.15
518.339	15215.63
518.706	15295.85
519.073	15410.2
519.44	15508.73
519.808	15659.46
520.175	15670.08
520.542	15888.38
520.909	15992.56
521.276	16033.46
521.643	16222.61
522.009	16292.66
522.376	16462.83
522.743	16472.55
523.11	16814.23
523.477	16979.88
523.843	17015.81
524.21	17180.1
524.577	17264.84
524.943	17391.84
525.31	17448.79
525.676	17710.93
526.043	17794.55
526.409	17874.54
526.776	18073.86
527.142	18134.42
527.508	18292.16
527.874	18366.73
528.241	18561.76
528.607	18551.81
528.973	18825.71
529.339	18813.95
529.705	19009.88
530.071	19118.58
530.437	19284.9
530.803	19287.61
531.169	19530.32
531.535	19563.31
531.901	19680.37
532.267	19714.95
532.632	19904.32
532.998	19980.93
533.364	20050.76
533.73	20196.52
534.095	20369.17
534.461	20461.37
534.826	20466.34
535.192	20623.17
535.557	20716.73
535.923	20781.36
536.288	20720.57
536.653	20928.93
537.019	20931.19
537.384	21086.44
537.749	21175.25
538.114	21104.52
538.479	21300.22
538.845	21492.98
539.21	21489.14
539.575	21550.15
539.94	21676.25
540.305	21695.46
540.67	21793.54
541.034	21869.24
541.399	21939.3
541.764	22058.84
542.129	22142.68
542.494	22174.54
542.858	22326.63
543.223	22274.65
543.587	22508.77
543.952	22535.44
544.316	22574.08
544.681	22528.43
545.045	22745.83
545.41	22945.15
545.774	22893.4
546.138	22987.63
546.503	23119.38
546.867	23081.41
547.231	23343.1
547.595	23310.11
547.959	23384.46
548.324	23428.3
548.688	23551.23
549.052	23633.71
549.416	23663.32
549.779	23740.38
550.143	23906.7
550.507	24082.29
550.871	24163.19
551.235	24156.19
551.599	24335.39
551.962	24388.05
552.326	24454.26
552.689	24581.71
553.053	24597.98
553.417	24534.03
553.78	24985.77
554.143	24818.32
554.507	25037.29
554.87	25152.32
555.234	25404.74
555.597	25184.41
555.96	25410.17
556.323	25515.93
556.686	25576.94
557.05	25685.86
557.413	25889.93
557.776	25989.58
558.139	26079.75
558.502	26140.32
558.865	26302.35
559.228	26467.09
559.59	26600.42
559.953	26614.2
560.316	26853.74
560.679	26871.14
561.041	27129.44
561.404	27157.46
561.767	27338.48
562.129	27387.51
562.492	27666.83
562.854	27637
563.217	27678.58
563.579	27731.91
563.941	28087.61
564.304	28160.15
564.666	28333.93
565.028	28369.86
565.39	28553.59
565.753	28543.42
566.115	28713.13
566.477	28824.99
566.839	28929.39
567.201	29132.78
567.563	29060.92
567.925	29449.61
568.287	29439.44
568.648	29508.81
569.01	29732.54
569.372	29815.25
569.734	29893.44
570.095	30082.81
570.457	30110.38
570.819	30054.56
571.18	30273.09
571.542	30296.59
571.903	30563.25
572.265	30608.22
572.626	30633.3
572.987	30843.69
573.349	30869
573.71	30933.18
574.071	30941.77
574.432	31171.82
574.794	31342.89
575.155	31297.47
575.516	31441.42
575.877	31444.58
576.238	31592.15
576.599	31610.91
576.96	31702.2
577.32	31602.54
577.681	31884.35
578.042	31876.66
578.403	31967.05
578.763	31902.2
579.124	32144.68
579.485	32148.29
579.845	32115.53
580.206	32320.72
580.566	32228.74
580.927	32261.06
581.287	32409.98
581.648	32153.94
582.008	32406.82
582.368	32474.16
582.728	32452.69
583.089	32465.12
583.449	32514.16
583.809	32481.84
584.169	32553.71
584.529	32554.16
584.889	32843.87
585.249	32547.83
585.609	32511.22
585.969	32767.49
586.329	32700.82
586.688	32817.43
587.048	32651.78
587.408	32750.31
587.768	32735.4
588.127	32746.92
588.487	32692.91
588.846	32875.96
589.206	32630.77
589.565	32622.63
589.925	32798.45
590.284	32792.8
590.643	32777.43
591.003	32836.64
591.362	32900.59
591.721	32970.64
592.08	32925.67
592.44	33047.03
592.799	32970.42
593.158	33017.42
593.517	32864.21
593.876	32963.64
594.235	32970.64
594.593	32986.92
594.952	33110.08
595.311	33024.88
595.67	33072.34
596.029	33314.14
596.387	33297.64
596.746	33404.76
597.104	33194.59
597.463	33258.55
597.822	33348.94
598.18	33164.99
598.538	33191.2
598.897	33406.34
599.255	33210.19
599.613	33732.66
599.972	33431.88
600.33	33491.53
600.688	33459.67
601.046	33446.34
601.404	33748.03
601.762	33601.81
602.12	33812.66
602.478	33720.46
602.836	33755.93
603.194	33545.77
603.552	33781.7
603.91	33548.71
604.268	33746.22
604.625	33589.84
604.983	33847.01
605.341	33585.77
605.698	33954.12
606.056	33855.14
606.413	33946.66
606.771	34024.4
607.128	34148.69
607.485	34041.58
607.843	33970.84
608.2	34268.69
608.557	34201.57
608.914	34203.38
609.272	34380.78
609.629	34391.62
609.986	34483.37
610.343	34207.45
610.7	34658.06
611.057	34505.97
611.414	34396.14
611.771	34591.39
612.127	34659.64
612.484	34698.96
612.841	34746.64
613.198	34677.04
613.554	34621.45
613.911	34836.58
614.267	34865.28
614.624	34815.12
614.98	34754.1
615.337	34961.33
615.693	34976.92
616.05	34957.48
616.406	35193.18
616.762	35010.36
617.118	35066.63
617.475	35144.6
617.831	35156.8
618.187	35239.51
618.543	35182.11
618.899	35411.03
619.255	35297.81
619.611	35234.09
619.967	35343.69
620.323	35503.69
620.678	35385.95
621.034	35321.32
621.39	35184.37
621.746	35171.94
622.101	35589.78
622.457	35329
622.812	35445.61
623.168	35399.51
623.523	35438.6
623.879	35599.5
624.234	35317.48
624.589	35487.87
624.945	35473.63
625.3	35509.79
625.655	35539.84
626.01	35416.23
626.365	35409.22
626.72	35397.7
627.075	35405.16
627.43	35398.83
627.785	35305.27
628.14	35392.73
628.495	35448.09
628.85	35282.45
629.205	35275.67
629.559	35470.01
629.914	35389.34
630.269	35340.98
630.623	35123.81
630.978	35091.04
631.332	35305.95
631.687	35273.41
632.041	34995
632.396	35169.68
632.75	34988.67
633.104	35062.34
633.459	34792.29
633.813	34916.13
634.167	34819.64
634.521	34944.83
634.875	34952.51
635.229	34922.91
635.583	34752.74
635.937	34623.93
636.291	34562.69
636.645	34651.05
636.999	34625.97
637.352	34650.6
637.706	34394.34
638.06	34529.93
638.413	34367.9
638.767	34367.44
639.121	34495.58
639.474	34222.81
639.828	34290.84
640.181	34390.72
640.534	34294.23
640.888	34173.55
641.241	33974.69
641.594	33986.21
641.947	34109.82
642.301	33942.37
642.654	33995.25
643.007	34057.62
643.36	33948.92
643.713	33873.45
644.066	34034.8
644.419	33737.4
644.771	33530.63
645.124	33032.56
645.477	33106.91
645.83	32922.74
646.182	32770.88
646.535	32737.88
646.888	32865.11
647.24	32651.33
647.593	32872.12
647.945	32663.08
648.298	32592.12
648.65	32428.29
649.002	32438.68
649.355	32603.2
649.707	32489.53
650.059	32663.31
650.411	32978.55
650.763	32953.47
651.115	33156.85
651.467	33047.03
651.819	33110.3
652.171	33121.37
652.523	32922.74
652.875	33061.94
653.227	32872.34
653.578	33114.6
653.93	33030.08
654.282	32822.85
654.633	32603.65
654.985	32860.36
655.337	32876.86
655.688	32748.96
656.039	33008.84
656.391	32616.53
656.742	32663.76
657.094	32629.41
657.445	32796.64
657.796	32675.74
658.147	32568.4
658.498	32476.65
658.849	32733.59
659.2	32563.88
659.551	32557.77
659.902	32629.41
660.253	32630.99
660.604	32574.95
660.955	32402.3
661.306	32521.39
661.656	32453.6
662.007	32435.52
662.358	32275.07
662.708	32412.92
663.059	32260.15
663.409	32161.63
663.76	32395.74
664.11	32359.81
664.461	32261.06
664.811	32315.29
665.161	32413.82
665.511	32269.19
665.862	32246.37
666.212	32235.97
666.562	32458.79
666.912	32131.57
667.262	32158.01
667.612	32180.16
667.962	32154.39
668.312	32094.51
668.662	32265.58
669.011	32112.81
669.361	32103.32
669.711	31979.94
670.06	32080.95
670.41	31932.25
670.76	31896.55
671.109	32082.76
671.459	32072.81
671.808	31909.88
672.157	31963.44
672.507	31766.38
672.856	31777.91
673.205	31800.73
673.554	31881.41
673.904	31761.64
674.253	32029.2
674.602	31754.63
674.951	31333.17
675.3	31214.76
675.649	31736.78
675.998	31621.53
676.346	31632.15
676.695	31708.98
677.044	31481.42
677.393	31593.28
677.741	31684.8
678.09	31535.65
678.438	31537.01
678.787	31492.49
679.135	31570.23
679.484	31214.76
679.832	31375.43
680.181	31116.91
680.529	31193.74
680.877	31221.31
681.225	31136.12
681.573	31266.06
681.922	31103.57
682.27	31099.06
682.618	31049.11
682.966	30867.87
683.314	31026.29
683.661	30924.82
684.009	30727.54
684.357	30666.52
684.705	30657.71
685.053	30661.78
685.4	30635.34
685.748	30317.83
686.095	30469.02
686.443	30369.58
686.79	30175.69
687.138	30239.64
687.485	30382.92
687.832	30126.65
688.18	30321.67
688.527	30123.04
688.874	30094.79
689.221	29887.56
689.568	30023.38
689.915	29850.05
690.262	29887.56
690.609	29863.83
690.956	29737.96
691.303	29577.06
691.65	29521.7
691.997	29520.11
692.344	29370.97
692.69	29350.4
693.037	29457.29
693.383	29278.76
693.73	29266.79
694.077	29157.64
694.423	29206.22
694.769	29054.82
695.116	29043.06
695.462	28878.55
695.808	28829.74
696.155	28736.41
696.501	28502.06
696.847	28627.71
697.193	28279.69
697.539	28377.77
697.885	28178.68
698.231	28142.97
698.577	28100.49
698.923	28067.5
699.269	27756.54
699.614	27763.32
699.96	27720.39
700.306	27742.99
700.651	27641.29
700.997	27582.99
701.342	27510.22
701.688	27365.14
702.033	27470.22
702.379	27455.99
702.724	27280.4
703.069	27322.66
703.415	26942.1
703.76	26959.05
704.105	26941.2
704.45	26967.41
704.795	26785.95
705.14	26791.15
705.485	26683.35
705.83	26601.09
706.175	26625.5
706.52	26575.56
706.865	26535.79
707.209	26366.3
707.554	26362.23
707.899	26375.34
708.243	26155.23
708.588	26196.36
708.932	26034.56
709.277	25986.65
709.621	26034.33
709.966	25747.11
710.31	26061.45
710.654	25623.94
710.998	25879.08
711.342	25800.44
711.687	25709.14
712.031	25542.82
712.375	25417.17
712.719	25427.11
713.063	25451.29
713.407	25504.85
713.75	25270.96
714.094	25246.55
714.438	25120.91
714.782	25167.46
715.125	25128.82
715.469	25114.81
715.812	24891.99
716.156	24816.06
716.499	24995.49
716.843	24951.19
717.186	24765.21
717.53	24809.28
717.873	24863.29
718.216	24774.93
718.559	24637.08
718.902	24516.18
719.246	24548.72
719.589	24414.26
719.932	24410.64
720.275	24408.84
720.617	24249.52
720.96	24200.48
721.303	24332.68
721.646	24240.7
721.989	24068.28
722.331	24198.67
722.674	24140.59
723.016	24070.09
723.359	23927.72
723.701	24027.83
724.044	23763.43
724.386	23821.28
724.729	23886.14
725.071	23776.99
725.413	23818.79
725.755	23668.74
726.097	23626.03
726.439	23465.58
726.782	23582.42
727.124	23572.25
727.465	23499.25
727.807	23385.81
728.149	23436.88
728.491	23287.06
728.833	23462.19
729.175	23238.02
729.516	23186.95
729.858	23257.91
730.199	23241.63
730.541	23164.57
730.882	23159.83
731.224	23194.18
731.565	23021.53
731.906	23095.65
732.248	23015.65
732.589	22830.12
732.93	22809.56
733.271	22880.74
733.612	22895.2
733.953	22933.39
734.294	22798.48
734.635	22730.24
734.976	22710.12
735.317	22671.03
735.658	22674.87
735.999	22527.53
736.339	22577.47
736.68	22544.03
737.021	22480.98
737.361	22404.37
737.702	22397.14
738.042	22355.33
738.383	22358.27
738.723	22406.18
739.063	22292.51
739.404	22294.09
739.744	22330.25
740.084	22166.41
740.424	22221.77
740.764	22162.79
741.104	22168.44
741.444	22008.9
741.784	21839.86
742.124	22058.16
742.464	21888.22
742.804	21990.82
743.143	21859.07
743.483	21862.91
743.823	21650.49
744.162	21718.96
744.502	21814.1
744.841	21552.41
745.181	21769.36
745.52	21602.13
745.86	21646.87
746.199	21495.92
746.538	21564.16
746.877	21551.96
747.216	21553.32
747.556	21488.23
747.895	21391.06
748.234	21274.23
748.573	21274.68
748.911	21183.61
749.25	21186.55
749.589	21143.38
749.928	21102.71
750.267	21144.29
750.605	21091.63
750.944	21053.9
751.283	20943.16
751.621	20955.82
751.96	20865.43
752.298	20859.55
752.636	20745.88
752.975	20817.52
753.313	20647.58
753.651	20748.82
753.989	20501.14
754.327	20537.75
754.666	20442.39
755.004	20444.19
755.342	20540.01
755.679	20273.58
756.017	20355.38
756.355	20325.78
756.693	20102.06
757.031	20167.37
757.368	20133.24
757.706	20042.62
758.044	20021.38
758.381	20031.1
758.719	19942.06
759.056	19944.09
759.394	19928.95
759.731	19710.65
760.068	19719.92
760.405	19654.16
760.743	19595.85
761.08	19607.38
761.417	19562.86
761.754	19482.86
762.091	19443.54
762.428	19308.86
762.765	19147.96
763.102	19303.66
763.438	19196.09
763.775	19047.17
764.112	19010.79
764.449	19018.69
764.785	18986.61
765.122	18804.24
765.458	18761.07
765.795	18737.57
766.131	18707.97
766.467	18660.74
766.804	18478.6
767.14	18413.06
767.476	18477.69
767.812	18304.59
768.148	18404.93
768.485	18240.41
768.821	18150.92
769.157	18089
769.492	18129.9
769.828	18145.95
770.164	17889.23
770.5	17881.32
770.836	17898.05
771.171	17735.11
771.507	17707.09
771.842	17579.86
772.178	17649.69
772.513	17552.07
772.849	17443.14
773.184	17320.66
773.519	17360.43
773.855	17264.16
774.19	17202.25
774.525	17151.4
774.86	17080.67
775.195	17073.89
775.53	16959.54
775.865	16867.34
776.2	16804.06
776.535	16673.45
776.87	16725.2
777.205	16596.61
777.539	16565.43
777.874	16535.6
778.209	16455.82
778.543	16378.76
778.878	16291.31
779.212	16321.36
779.547	16086.79
779.881	16180.8
780.215	16137.64
780.55	16072.33
780.884	15915.05
781.218	15905.1
781.552	15971.09
781.886	15849.29
782.22	15637.09
782.554	15746.01
782.888	15560.48
783.222	15567.03
783.556	15400.26
783.889	15381.73
784.223	15254.95
784.557	15262.41
784.89	15280.04
785.224	15271.67
785.557	15197.1
785.891	15116.42
786.224	15036.65
786.558	15009.08
786.891	14842.99
787.224	14891.57
787.557	14740.62
787.891	14725.93
788.224	14770.22
788.557	14666.94
788.89	14731.8
789.223	14670.56
789.556	14439.83
789.888	14387.4
790.221	14383.34
790.554	14295.66
790.887	14327.74
791.219	14163
791.552	14237.13
791.884	14127.52
792.217	14197.13
792.549	14108.09
792.882	13959.17
793.214	13879.85
793.546	13986.51
793.879	13869.9
794.211	13764.6
794.543	13819.74
794.875	13696.8
795.207	13742
795.539	13631.04
795.871	13601.44
796.203	13535.45
796.535	13457.03
796.867	13407.77
797.198	13453.19
797.53	13452.51
797.862	13314.44
798.193	13335.23
798.525	13249.13
798.856	13206.64
799.188	13037.84
799.519	13047.1
799.85	12991.06
800.182	12975.69
800.513	12967.78
800.844	12851.63
801.175	12942.24
801.506	12892.3
801.837	12843.94
802.168	12744.96
802.499	12792.42
802.83	12767.79
803.161	12742.25
803.491	12626.55
803.822	12564.18
804.153	12463.61
804.483	12440.79
804.814	12374.8
805.145	12389.04
805.475	12352.2
805.805	12279.44
806.136	12306.78
806.466	12337.29
806.796	12266.33
807.126	12151.08
807.457	12102.94
807.787	12116.5
808.117	12030.18
808.447	12032.21
808.777	12076.05
809.107	11998.31
809.436	11974.59
809.766	11958.54
810.096	11862.95
810.426	11800.81
810.755	11747.93
811.085	11717.42
811.414	11769.85
811.744	11654.82
812.073	11645.33
812.403	11677.87
812.732	11567.59
813.061	11571.66
813.39	11538.21
813.719	11422.06
814.049	11555.39
814.378	11398.78
814.707	11345.45
815.036	11359.01
815.365	11330.08
815.693	11327.82
816.022	11286.24
816.351	11208.5
816.68	11195.85
817.008	11255.28
817.337	11120.82
817.665	11112.69
817.994	11160.82
818.322	11067.72
818.651	11035.4
818.979	11016.19
819.307	11072.92
819.636	10995.18
819.964	10950.66
820.292	10939.81
820.62	10914.05
820.948	10918.57
821.276	11032.92
821.604	10854.62
821.932	10881.28
822.259	10883.09
822.587	10856.2
822.915	10813.71
823.243	10850.32
823.57	10834.05
823.898	10893.26
824.225	10765.58
824.553	10788.85
824.88	10854.84
825.207	10797.44
825.535	10813.49
825.862	10826.82
826.189	10827.72
826.516	10846.03
826.843	10846.25
827.17	10835.86
827.497	10837.44
827.824	10822.53
828.151	10849.42
828.478	10868.85
828.805	10799.48
829.131	10780.04
829.458	10858.68
829.785	10680.16
830.111	10715.41
830.438	10799.93
830.764	10747.73
831.09	10796.09
831.417	10684.22
831.743	10683.09
832.069	10706.6
832.395	10720.38
832.722	10723.09
833.048	10690.78
833.374	10687.16
833.7	10599.03
834.026	10653.27
834.351	10684.45
834.677	10716.54
835.003	10717.22
835.329	10594.51
835.654	10572.14
835.98	10580.5
836.306	10587.96
836.631	10629.54
836.956	10563.32
837.282	10531.23
837.607	10410.11
837.932	10508.41
838.258	10514.29
838.583	10498.24
838.908	10380.73
839.233	10431.8
839.558	10388.87
839.883	10333.95
840.208	10368.07
840.533	10347.51
840.858	10333.5
841.182	10287.62
841.507	10336.44
841.832	10237.91
842.156	10291.47
842.481	10145.71
842.805	10241.3
843.13	10168.53
843.454	10131.02
843.778	10072.49
844.103	10073.39
844.427	10082.21
844.751	10066.39
845.075	10074.07
845.399	9924.92
845.723	9931.93
846.047	9952.94
846.371	9844.47
846.695	9823.91
847.019	9719.28
847.343	9728.54
847.666	9688.09
847.99	9714.98
848.313	9663.01
848.637	9633.4
848.96	9580.07
849.284	9580.52
849.607	9481.32
849.931	9429.12
850.254	9373.3
850.577	9292.17
850.9	9250.14
851.223	9253.75
851.546	9266.18
851.869	9170.59
852.192	9221.21
852.515	9156.81
852.838	9114.55
853.161	9112.97
853.483	9046.08
853.806	9000.43
854.129	9003.14
854.451	8920.66
854.774	8875.01
855.096	8959.07
855.419	8869.36
855.741	8851.28
856.063	8769.7
856.385	8795.01
856.708	8744.84
857.03	8760.89
857.352	8683.37
857.674	8689.25
857.996	8577.39
858.318	8602.92
858.64	8604.73
858.961	8581
859.283	8605.41
859.605	8481.12
859.926	8444.51
860.248	8481.8
860.57	8489.25
860.891	8382.36
861.212	8380.33
861.534	8330.84
861.855	8282.03
862.176	8384.62
862.498	8320.9
862.819	8348.47
863.14	8307.56
863.461	8284.29
863.782	8238.64
864.103	8282.48
864.424	8209.94
864.745	8224.4
865.065	8138.08
865.386	8138.53
865.707	8153.44
866.027	8130.39
866.348	8144.18
866.668	8151.86
866.989	8124.07
867.309	8031.64
867.63	8022.83
867.95	8101.24
868.27	7977.86
868.59	7993.67
868.91	7963.17
869.23	7940.34
869.55	7921.59
869.87	7992.54
870.19	7991.87
870.51	7939.66
870.83	7947.35
871.15	7922.26
871.469	7934.47
871.789	7944.86
872.109	7878.42
872.428	7816.28
872.748	7879.1
873.067	7829.84
873.386	7858.99
873.706	7783.06
874.025	7738.99
874.344	7779.67
874.663	7764.08
874.982	7755.04
875.301	7781.93
875.62	7662.84
875.939	7676.85
876.258	7743.96
876.577	7653.34
876.896	7627.81
877.214	7663.06
877.533	7667.58
877.852	7606.57
878.17	7573.57
878.489	7605.44
878.807	7618.09
879.125	7590.29
879.444	7579.22
879.762	7528.6
880.08	7569.73
880.398	7466.68
880.716	7542.61
881.034	7433.01
881.352	7487.02
881.67	7465.1
881.988	7433.69
882.306	7385.55
882.624	7379.23
882.941	7393.24
883.259	7315.05
883.577	7355.72
883.894	7315.73
884.212	7282.05
884.529	7259.68
884.846	7280.7
885.164	7225.11
885.481	7250.64
885.798	7231.21
886.115	7187.59
886.432	7154.15
886.75	7150.08
887.067	7127.71
887.383	7127.48
887.7	7116.63
888.017	7115.05
888.334	7103.53
888.651	7085.22
888.967	7005.68
889.284	7067.14
889.6	6968.84
889.917	6957.77
890.233	6951.22
890.55	6954.38
890.866	6923.87
891.182	6939.92
891.498	6885
891.815	6856.53
892.131	6806.59
892.447	6833.25
892.763	6774.72
893.079	6802.97
893.395	6758
893.71	6734.95
894.026	6694.73
894.342	6705.35
894.657	6707.61
894.973	6625.8
895.289	6599.13
895.604	6636.87
895.92	6560.27
896.235	6572.69
896.55	6502.64
896.865	6561.62
897.181	6467.84
897.496	6477.1
897.811	6451.34
898.126	6457.67
898.441	6389.65
898.756	6406.15
899.071	6381.74
899.386	6387.39
899.7	6334.73
900.015	6264.68
900.33	6271.69
900.644	6256.09
900.959	6311.46
901.273	6207.51
901.588	6178.58
901.902	6163.67
902.216	6121.41
902.531	6100.39
902.845	6161.18
903.159	6095.42
903.473	6083.89
903.787	6038.25
904.101	5994.86
904.415	6013.61
904.729	5958.25
905.042	5887.51
905.356	5917.34
905.67	5883.67
905.984	5903.56
906.297	5874.63
906.611	5810.45
906.924	5824.01
907.237	5786.5
907.551	5743.11
907.864	5694.98
908.177	5752.15
908.491	5724.81
908.804	5620.63
909.117	5682.32
909.43	5617.47
909.743	5630.8
910.056	5609.1
910.368	5596.45
910.681	5541.08
910.994	5532.27
911.307	5570.69
911.619	5509.45
911.932	5455.89
912.244	5396.91
912.557	5375.66
912.869	5336.12
913.181	5380.41
913.494	5335.44
913.806	5371.6
914.118	5336.34
914.43	5231.03
914.742	5250.7
915.054	5273.97
915.366	5242.56
915.678	5204.59
915.99	5184.26
916.302	5138.61
916.613	5120.53
916.925	5157.36
917.236	5156.69
917.548	5057.25
917.859	5028.55
918.171	5070.14
918.482	5031.72
918.794	4982
919.105	5010.25
919.416	4926.86
919.727	4913.75
920.038	4939.74
920.349	4875.34
920.66	4819.97
920.971	4879.63
921.282	4855
921.593	4815.45
921.903	4768.22
922.214	4782.91
922.525	4767.77
922.835	4714.21
923.146	4740.65
923.456	4619.53
923.767	4676.25
924.077	4620.88
924.387	4594.67
924.697	4599.64
925.008	4664.04
925.318	4556.48
925.628	4524.61
925.938	4521.22
926.248	4481.22
926.558	4444.16
926.867	4489.36
927.177	4455.01
927.487	4443.03
927.796	4399.42
928.106	4397.16
928.416	4342.47
928.725	4381.57
929.034	4332.75
929.344	4340.89
929.653	4340.89
929.962	4286.2
930.271	4290.95
930.581	4209.59
930.89	4257.05
931.199	4217.28
931.508	4218.86
931.817	4203.49
932.125	4176.83
932.434	4177.05
932.743	4058.64
933.051	4113.55
933.36	4092.53
933.669	4039.43
933.977	4024.29
934.286	4046.21
934.594	4046.43
934.902	3977.28
935.21	3982.48
935.519	3957.62
935.827	3948.13
936.135	3957.62
936.443	3931.63
936.751	3938.41
937.059	3900.67
937.367	3845.08
937.674	3833.78
937.982	3855.25
938.29	3836.5
938.597	3849.6
938.905	3780.45
939.213	3742.94
939.52	3746.1
939.827	3772.99
940.135	3751.75
940.442	3692.77
940.749	3697.29
941.056	3698.65
941.363	3624.52
941.67	3643.73
941.977	3601.25
942.284	3591.08
942.591	3564.86
942.898	3589.95
943.205	3570.29
943.511	3543.17
943.818	3532.1
944.125	3509.72
944.431	3520.57
944.738	3489.84
945.044	3484.19
945.35	3447.58
945.657	3461.36
945.963	3419.56
946.269	3469.27
946.575	3407.13
946.881	3364.64
947.187	3379.78
947.493	3386.79
947.799	3369.16
948.105	3373
948.41	3291.42
948.716	3316.28
949.022	3229.28
949.327	3294.59
949.633	3282.16
949.938	3248.71
950.244	3230.64
950.549	3192.67
950.854	3214.82
951.16	3147.47
951.465	3178.89
951.77	3159.9
952.075	3159
952.38	3166.91
952.685	3107.7
952.99	3122.16
953.294	3065.22
953.599	3095.27
953.904	3073.35
954.209	3056.63
954.513	3013.69
954.818	3029.51
955.122	3020.02
955.426	3007.82
955.731	2971.66
956.035	2969.85
956.339	2967.37
956.643	2986.12
956.948	2924.43
957.252	2922.39
957.556	2953.13
957.86	2907.03
958.163	2948.83
958.467	2891.44
958.771	2879.23
959.075	2837.2
959.378	2808.27
959.682	2884.2
959.985	2853.24
960.289	2836.75
960.592	2806.69
960.896	2778.22
961.199	2763.98
961.502	2764.21
961.805	2748.84
962.108	2723.08
962.411	2732.57
962.714	2736.64
963.017	2684.89
963.32	2691.44
963.623	2670.42
963.926	2704.32
964.228	2617.77
964.531	2660.03
964.833	2652.8
965.136	2632.01
965.438	2648.73
965.741	2591.1
966.043	2586.13
966.345	2584.32
966.648	2560.14
966.95	2545.46
967.252	2555.62
967.554	2518.34
967.856	2537.32
968.158	2496.64
968.46	2513.37
968.761	2468.85
969.063	2509.3
969.365	2466.81
969.666	2477.43
969.968	2445.57
970.269	2408.74
970.571	2447.83
970.872	2430.66
971.174	2430.2
971.475	2393.6
971.776	2377.1
972.077	2368.29
972.378	2363.99
972.679	2369.42
972.98	2362.64
973.281	2325.57
973.582	2340.26
973.883	2308.4
974.183	2324.67
974.484	2283.32
974.785	2305.69
975.085	2314.05
975.386	2238.8
975.686	2274.28
975.986	2272.47
976.287	2264.33
976.587	2268.85
976.887	2240.15
977.187	2207.61
977.487	2246.71
977.787	2204.9
978.087	2170.32
978.387	2191.34
978.687	2184.79
978.987	2151.12
979.286	2140.95
979.586	2157.44
979.885	2123.77
980.185	2118.57
980.484	2114.28
980.784	2126.48
981.083	2100.72
981.382	2096.65
981.682	2081.51
981.981	2064.79
982.28	2060.72
982.579	2046.94
982.878	2058.01
983.177	2049.65
983.475	2008.75
983.774	2032.25
984.073	2017.11
984.372	2027.5
984.67	2018.24
984.969	2000.61
985.267	1979.37
985.566	1977.56
985.864	1958.58
986.162	1933.72
986.461	1923.78
986.759	1934.17
987.057	1934.62
987.355	1897.79
987.653	1915.19
987.951	1904.12
988.249	1901.18
988.547	1872.7
988.844	1851.01
989.142	1864.12
989.44	1848.07
989.737	1856.43
990.035	1837.9
990.332	1866.15
990.63	1811.46
990.927	1838.81
991.224	1818.7
991.521	1829.32
991.819	1804.91
992.116	1784.35
992.413	1761.3
992.71	1769.43
993.006	1799.26
993.303	1732.82
993.6	1751.8
993.897	1751.58
994.193	1721.07
994.49	1729.88
994.787	1723.56
995.083	1715.2
995.379	1697.34
995.676	1677.23
995.972	1692.82
996.268	1660.06
996.565	1634.75
996.861	1653.28
997.157	1664.35
997.453	1675.87
997.749	1633.39
998.044	1625.93
998.34	1645.14
998.636	1622.99
998.932	1613.73
999.227	1599.27
999.523	1591.81
999.818	1551.58
1000.114	1570.11
1000.409	1569.89
1000.704	1559.27
1001	1566.27
1001.295	1558.81
1001.59	1539.38
1001.885	1533.5
1002.18	1524.24
1002.475	1503.45
1002.77	1485.37
1003.065	1493.73
1003.359	1473.17
1003.654	1522.43
1003.949	1481.53
1004.243	1457.57
1004.538	1462.55
1004.832	1476.56
1005.127	1438.14
1005.421	1415.99
1005.715	1430.23
1006.009	1398.37
1006.304	1379.61
1006.598	1398.14
1006.892	1401.76
1007.186	1419.16
1007.48	1436.11
1007.773	1369.67
1008.067	1388.42
1008.361	1369.22
1008.655	1337.13
1008.948	1373.74
1009.242	1369.67
1009.535	1345.26
1009.829	1335.54
1010.122	1350.91
1010.415	1335.09
1010.708	1291.03
1011.001	1304.13
1011.295	1326.96
1011.588	1295.32
1011.881	1272.27
1012.173	1268.43
1012.466	1270.91
1012.759	1260.29
1013.052	1256.9
1013.344	1279.27
1013.637	1239.95
1013.93	1251.93
1014.222	1237.02
1014.514	1241.08
1014.807	1207.19
1015.099	1214.87
1015.391	1214.19
1015.683	1213.51
1015.976	1172.38
1016.268	1182.1
1016.56	1199.28
1016.851	1180.29
1017.143	1158.15
1017.435	1158.15
1017.727	1135.32
1018.018	1155.44
1018.31	1156.79
1018.602	1107.98
1018.893	1126.28
1019.185	1109.79
1019.476	1112.05
1019.767	1092.61
1020.058	1112.72
1020.35	1088.77
1020.641	1070.47
1020.932	1086.28
1021.223	1086.06
1021.514	1083.8
1021.804	1057.36
1022.095	1067.53
1022.386	1047.64
1022.677	1038.15
1022.967	1026.63
1023.258	1037.92
1023.548	1010.58
1023.839	1019.17
1024.129	1017.13
1024.419	1004.71
1024.709	996.12
1025	976.91
1025.29	987.76
1025.58	974.88
1025.87	962.67
1026.16	941.66
1026.449	960.19
1026.739	945.27
1027.029	956.34
1027.319	957.93
1027.608	954.54
1027.898	920.41
1028.187	945.5
1028.477	932.39
1028.766	920.64
1029.055	908.21
1029.344	901.43
1029.634	925.39
1029.923	906.63
1030.212	918.15
1030.501	862.79
1030.79	859.62
1031.078	879.96
1031.367	876.8
1031.656	849.91
1031.945	855.1
1032.233	845.39
1032.522	846.97
1032.81	838.61
1033.099	839.06
1033.387	835.9
1033.675	859.17
1033.963	838.16
1034.251	832.73
1034.54	837.7
1034.828	806.74
1035.116	801.55
1035.403	808.78
1035.691	791.6
1035.979	795.67
1036.267	797.48
1036.554	788.67
1036.842	799.29
1037.129	774.2
1037.417	773.52
1037.704	762.9
1037.992	773.98
1038.279	757.93
1038.566	750.93
1038.853	750.93
1039.14	750.93
