Data from plate_ceramic_FLMS001491_007.txt Node
Date: Tue Feb 07 11:16:14 GMT 2017
User: dcchb
Spectrometer: FLMS00149
Trigger mode: 0
Integration Time (sec): 2.000000E-2
Scans to average: 10
Electric dark correction enabled: true
Nonlinearity correction enabled: false
Boxcar width: 0
XAxis mode: Wavelengths
Number of Pixels in Spectrum: 2048
>>>>>Begin Spectral Data<<<<<
341.393	-21.6
341.776	-21.6
342.16	-21.6
342.543	-42.61
342.927	-56.17
343.31	-76.06
343.693	-49.17
344.077	-50.97
344.46	-57.98
344.843	-50.3
345.226	-49.62
345.61	-37.64
345.993	-20.24
346.376	0.1
346.759	9.36
347.142	18.4
347.525	40.32
347.908	63.15
348.291	67.67
348.674	89.36
349.057	103.6
349.44	117.84
349.823	159.64
350.206	167.1
350.588	225.86
350.971	222.69
351.354	245.74
351.737	264.05
352.119	266.98
352.502	290.49
352.884	299.75
353.267	291.84
353.65	326.42
354.032	306.53
354.414	331.16
354.797	347.21
355.179	368.45
355.562	339.3
355.944	355.34
356.326	349.92
356.709	365.29
357.091	354.21
357.473	372.74
357.855	365.29
358.238	376.81
358.62	349.69
359.002	339.52
359.384	370.94
359.766	383.82
360.148	351.05
360.53	383.37
360.912	374.78
361.294	365.74
361.676	362.58
362.057	367.77
362.439	362.12
362.821	349.02
363.203	363.03
363.584	358.96
363.966	373.87
364.348	358.96
364.729	356.7
365.111	365.51
365.493	370.03
365.874	371.84
366.256	372.07
366.637	357.15
367.019	330.94
367.4	352.63
367.781	337.27
368.163	355.57
368.544	354.21
368.925	349.69
369.306	383.37
369.688	378.17
370.069	355.8
370.45	355.12
370.831	367.55
371.212	383.82
371.593	383.59
371.974	363.48
372.355	372.52
372.736	373.42
373.117	368
373.498	379.07
373.879	370.94
374.26	389.02
374.641	357.38
375.021	379.07
375.402	389.92
375.783	413.65
376.163	412.29
376.544	410.26
376.925	412.97
377.305	422.91
377.686	398.05
378.066	398.73
378.447	403.93
378.827	406.19
379.208	420.65
379.588	418.17
379.968	417.26
380.349	418.17
380.729	423.14
381.109	433.31
381.489	436.25
381.87	430.14
382.25	418.84
382.63	436.47
383.01	436.25
383.39	442.57
383.77	431.27
384.15	469.92
384.53	467.21
384.91	463.36
385.29	464.95
385.67	462.69
386.049	477.37
386.429	480.31
386.809	490.48
387.189	463.82
387.568	486.64
387.948	486.19
388.328	494.78
388.707	524.15
389.087	503.59
389.466	504.72
389.846	537.03
390.225	519.18
390.605	487.77
390.984	540.88
391.363	544.49
391.743	529.12
392.122	559.41
392.501	547.2
392.881	551.72
393.26	544.27
393.639	575.45
394.018	571.84
394.397	581.78
394.776	569.58
395.155	589.24
395.534	581.33
395.913	593.08
396.292	607.31
396.671	611.38
397.05	625.17
397.429	605.05
397.808	627.88
398.186	614.55
398.565	639.86
398.944	642.57
399.323	622.23
399.701	643.25
400.08	660.65
400.458	659.06
400.837	661.78
401.215	675.79
401.594	689.12
401.972	680.98
402.351	685.5
402.729	688.44
403.107	710.59
403.486	745.16
403.864	695.67
404.242	720.08
404.62	736.35
404.999	763.24
405.377	763.92
405.755	763.02
406.133	788.55
406.511	786.29
406.889	782
407.267	791.72
407.645	808.21
408.023	837.36
408.401	821.32
408.779	853.64
409.156	843.01
409.534	841.88
409.912	861.32
410.29	869.45
410.667	896.57
411.045	895.22
411.422	889.79
411.8	909.45
412.178	922.56
412.555	946.97
412.933	959.4
413.31	968.89
413.687	978.6
414.065	982.67
414.442	990.81
414.819	1019.96
415.197	1043.69
415.574	1034.2
415.951	1045.27
416.328	1055.21
416.705	1056.12
417.082	1081.88
417.46	1127.53
417.837	1124.82
418.214	1101.99
418.591	1115.78
418.967	1151.71
419.344	1157.58
419.721	1128.2
420.098	1162.78
420.475	1185.38
420.852	1169.56
421.228	1217.02
421.605	1226.51
421.982	1219.05
422.358	1216.56
422.735	1282.55
423.111	1254.98
423.488	1277.81
423.864	1280.52
424.241	1324.36
424.617	1313.74
424.994	1367.52
425.37	1364.13
425.746	1344.7
426.123	1391.25
426.499	1390.57
426.875	1404.81
427.251	1419.95
427.627	1469.44
428.003	1471.02
428.379	1499.04
428.756	1528.87
429.132	1539.27
429.507	1542.66
429.883	1565.26
430.259	1623.33
430.635	1619.94
431.011	1593.73
431.387	1673.95
431.763	1680.28
432.138	1715.08
432.514	1687.96
432.89	1734.52
433.265	1802.31
433.641	1770.45
434.016	1787.85
434.392	1841.18
434.767	1889.09
435.143	1876.21
435.518	1881.41
435.894	1938.35
436.269	1950.56
436.644	1934.96
437.02	2012.48
437.395	1995.98
437.77	2036.43
438.145	2062.19
438.52	2049.31
438.895	2086.82
439.271	2119.82
439.646	2144.22
440.021	2140.38
440.395	2171.12
440.77	2161.85
441.145	2218.8
441.52	2212.02
441.895	2223.09
442.27	2243.2
442.645	2262.19
443.019	2311.68
443.394	2312.13
443.769	2343.54
444.143	2329.08
444.518	2374.5
444.892	2354.61
445.267	2380.15
445.641	2388.51
446.016	2413.37
446.39	2456.08
446.764	2473.71
447.139	2463.08
447.513	2523.2
447.887	2509.86
448.262	2492.01
448.636	2548.96
449.01	2564.55
449.384	2642.52
449.758	2623.08
450.132	2654.72
450.506	2682.06
450.88	2678.9
451.254	2707.37
451.628	2725.22
452.002	2776.07
452.376	2802.96
452.75	2828.05
453.123	2845.9
453.497	2888.61
453.871	2918.44
454.244	2987.14
454.618	2950.98
454.992	3047.02
455.365	3052.22
455.739	3116.18
456.112	3146.23
456.486	3200.92
456.859	3187.36
457.232	3274.14
457.606	3262.39
457.979	3323.85
458.352	3383.29
458.725	3426.22
459.099	3458.76
459.472	3521.59
459.845	3546.45
460.218	3600
460.591	3649.95
460.964	3622.38
461.337	3722.71
461.71	3830.28
462.083	3854.01
462.456	3848.36
462.829	3855.82
463.201	3931.97
463.574	3962.93
463.947	4026.89
464.32	4117.73
464.692	4164.96
465.065	4194.11
465.438	4224.62
465.81	4321.79
466.183	4372.41
466.555	4415.12
466.928	4485.18
467.3	4478.4
467.672	4557.72
468.045	4685.17
468.417	4671.84
468.789	4748.45
469.161	4809.92
469.534	4929.91
469.906	5011.04
470.278	5036.12
470.65	5086.07
471.022	5167.65
471.394	5245.84
471.766	5303.69
472.138	5367.42
472.51	5515.89
472.882	5575.09
473.253	5645.6
473.625	5766.5
473.997	5859.38
474.369	5872.26
474.74	5980.73
475.112	6038.13
475.484	6203.55
475.855	6272.25
476.227	6316.99
476.598	6564.45
476.97	6634.5
477.341	6692.8
477.713	6862.74
478.084	6878.11
478.455	7079.46
478.827	7143.64
479.198	7351.09
479.569	7409.17
479.94	7589.28
480.311	7712.89
480.682	7874.47
481.053	8007.8
481.424	8144.74
481.795	8184.97
482.166	8344.74
482.537	8503.15
482.908	8605.97
483.279	8737.72
483.65	8910.6
484.021	9024.95
484.391	9204.38
484.762	9279.63
485.133	9307.2
485.503	9469
485.874	9678.04
486.244	9818.15
486.615	9968.88
486.985	10041.64
487.356	10275.76
487.726	10451.58
488.097	10530.44
488.467	10589.88
488.837	10907.61
489.207	11059.7
489.578	11121.39
489.948	11253.59
490.318	11407.48
490.688	11451.1
491.058	11644.76
491.428	11802.5
491.798	11934.02
492.168	12258.31
492.538	12174.47
492.908	12368.36
493.278	12562.71
493.648	12609.71
494.017	12741.68
494.387	12868.69
494.757	13006.76
495.126	13056.7
495.496	13261.45
495.866	13376.92
496.235	13565.17
496.605	13582.57
496.974	13704.6
497.344	13876.34
497.713	13907.53
498.082	14006.28
498.452	14092.61
498.821	14272.94
499.19	14319.04
499.559	14437.23
499.928	14597.46
500.298	14734.85
500.667	14839.48
501.036	14760.39
501.405	14979.82
501.774	15014.85
502.143	15199.25
502.512	15250.77
502.88	15396.08
503.249	15374.61
503.618	15631.78
503.987	15625.45
504.356	15832.45
504.724	15843.52
505.093	16018.66
505.462	16054.14
505.83	16243.74
506.199	16261.59
506.567	16530.06
506.936	16540
507.304	16765.76
507.672	16842.82
508.041	17017.5
508.409	17095.24
508.777	17183.83
509.145	17403.71
509.514	17370.94
509.882	17533.2
510.25	17652.52
510.618	17723.25
510.986	17857.03
511.354	18078.27
511.722	18183.12
512.09	18417.02
512.458	18338.15
512.826	18573.85
513.193	18637.8
513.561	18724.35
513.929	18916.89
514.297	19071.46
514.664	19261.51
515.032	19390.1
515.4	19472.36
515.767	19606.36
516.135	19721.84
516.502	19624.44
516.869	19982.62
517.237	20120.93
517.604	20104.88
517.972	20376.51
518.339	20522.72
518.706	20509.16
519.073	20705.32
519.44	20846.1
519.808	21133.33
520.175	21235.25
520.542	21508.69
520.909	21567.67
521.276	21527.44
521.643	21822.12
522.009	21942.12
522.376	22168.33
522.743	22329.68
523.11	22569.9
523.477	22828.88
523.843	22897.58
524.21	23053.05
524.577	23278.36
524.943	23400.84
525.31	23514.96
525.676	23853.93
526.043	23950.43
526.409	23956.53
526.776	24448.95
527.142	24434.03
527.508	24578.66
527.874	24843.29
528.241	24897.75
528.607	24963.96
528.973	25241.47
529.339	25290.51
529.705	25558.07
530.071	25834.22
530.437	25993.54
530.803	26077.15
531.169	26301.33
531.535	26264.94
531.901	26353.98
532.267	26489.35
532.632	26717.36
532.998	26885.95
533.364	26993.74
533.73	27011.14
534.095	27305.14
534.461	27346.27
534.826	27581.07
535.192	27722.76
535.557	27875.3
535.923	27925.92
536.288	28040.94
536.653	28267.15
537.019	28302.18
537.384	28219.02
537.749	28547.82
538.114	28528.84
538.479	28615.62
538.845	28812.67
539.21	28792.34
539.575	29023.74
539.94	29133.57
540.305	29333.56
540.67	29213.79
541.034	29395.03
541.399	29534.69
541.764	29598.42
542.129	29710.73
542.494	29832.99
542.858	29848.81
543.223	30032.76
543.587	30127.89
543.952	30242.92
544.316	30339.19
544.681	30326.99
545.045	30530.6
545.41	30801.1
545.774	30759.06
546.138	30861.43
546.503	31002.45
546.867	30874.77
547.231	31180.3
547.595	31241.31
547.959	31342.55
548.324	31383.45
548.688	31505.03
549.052	31704.8
549.416	31779.15
549.779	31779.15
550.143	31983.66
550.507	32155.19
550.871	32308.85
551.235	32292.81
551.599	32498
551.962	32555.63
552.326	32731.44
552.689	32943.19
553.053	32736.64
553.417	33026.58
553.78	33458.2
554.143	33315.38
554.507	33530.29
554.87	33623.17
555.234	33894.57
555.597	33776.16
555.96	33915.59
556.323	34159.88
556.686	34066.32
557.05	34401.68
557.413	34639.41
557.776	34644.39
558.139	34925.28
558.502	34928.9
558.865	35060.42
559.228	35434.65
559.59	35422.67
559.953	35545.38
560.316	35824.92
560.679	35817.01
561.041	36127.28
561.404	36317.79
561.767	36543.54
562.129	36402.53
562.492	36932.69
562.854	36863.76
563.217	36759.58
563.579	37174.26
563.941	37461.26
564.304	37580.13
564.666	37674.59
565.028	37743.51
565.39	37929.95
565.753	38123.84
566.115	38271.41
566.477	38430.95
566.839	38489.71
567.201	38757.95
567.563	38722.92
567.925	39032.29
568.287	39064.16
568.648	39315
569.01	39380.98
569.372	39687.42
569.734	39535.1
570.095	39734.65
570.457	40002.44
570.819	40089.67
571.18	40161.75
571.542	40444.46
571.903	40552.25
572.265	40617.11
572.626	40695.98
572.987	40813.71
573.349	40963.54
573.71	41127.61
574.071	41066.59
574.432	41048.29
574.794	41469.97
575.155	41402.17
575.516	41578.21
575.877	41591.55
576.238	41756.06
576.599	41956.06
576.96	41872.22
577.32	41950.63
577.681	41996.28
578.042	42162.83
578.403	42221.36
578.763	42227.69
579.124	42398.98
579.485	42435.59
579.845	42577.74
580.206	42585.42
580.566	42510.85
580.927	42649.6
581.287	42749.03
581.648	42615.93
582.008	42815.47
582.368	42701.57
582.728	42778.41
583.089	42706.55
583.449	42851.18
583.809	42878.97
584.169	43044.84
584.529	42730.73
584.889	43126.65
585.249	42938.86
585.609	42791.29
585.969	42973.43
586.329	42927.78
586.688	43022.7
587.048	42948.8
587.408	42914.22
587.768	43054.56
588.127	42952.42
588.487	42894.11
588.846	43381.56
589.206	43123.48
589.565	43090.27
589.925	43313.31
590.284	43282.58
590.643	43351.95
591.003	43372.52
591.362	43334.55
591.721	43293.2
592.08	43293.2
592.44	43486.19
592.799	43409.13
593.158	43457.71
593.517	43371.61
593.876	43393.31
594.235	43330.26
594.593	43423.59
594.952	43544.04
595.311	43431.73
595.67	43412.52
596.029	43700.64
596.387	43687.31
596.746	43700.87
597.104	43671.94
597.463	43652.28
597.822	43745.39
598.18	43732.73
598.538	43652.74
598.897	43999.85
599.255	43559.18
599.613	44177.92
599.972	43757.37
600.33	43958.04
600.688	43906.06
601.046	44087.53
601.404	44211.59
601.762	44097.02
602.12	44326.62
602.478	44232.16
602.836	44287.52
603.194	44068.32
603.552	44159.16
603.91	44044.82
604.268	44348.99
604.625	44226.28
604.983	44542.88
605.341	44267.18
605.698	44426.73
606.056	44660.85
606.413	44482.55
606.771	44572.49
607.128	44701.75
607.485	44652.03
607.843	44616.55
608.2	44798.24
608.557	44789.66
608.914	44753.5
609.272	44950.78
609.629	45075.3
609.986	45163.21
610.343	45110.55
610.7	45239.81
611.057	45099.25
611.414	45222.64
611.771	45298.79
612.127	45380.15
612.484	45462.18
612.841	45419.02
613.198	45221.51
613.554	45313.94
613.911	45434.38
614.267	45559.35
614.624	45552.12
614.98	45644.32
615.337	45836.18
615.693	45627.15
616.05	45715.28
616.406	45912.79
616.762	45856.07
617.118	45839.57
617.475	45890.87
617.831	46013.13
618.187	45998.21
618.543	45997.08
618.899	46181.26
619.255	46123.18
619.611	46027.14
619.967	46257.64
620.323	46412.89
620.678	46026.91
621.034	46001.6
621.39	46016.97
621.746	46179.22
622.101	46578.54
622.457	46126.8
622.812	46345.77
623.168	46334.93
623.523	46333.34
623.879	46498.76
624.234	46174.93
624.589	46436.17
624.945	46377.18
625.3	46351.2
625.655	46316.85
626.01	46342.84
626.365	46270.52
626.72	46242.5
627.075	46268.94
627.43	46177.19
627.785	46071.66
628.14	46113.24
628.495	46246.34
628.85	46264.87
629.205	46155.72
629.559	46322.04
629.914	45989.17
630.269	46161.15
630.623	46009.51
630.978	46024.65
631.332	46035.95
631.687	46122.05
632.041	45957.76
632.396	45890.64
632.75	45707.37
633.104	45782.85
633.459	45640.03
633.813	45646.81
634.167	45580.6
634.521	45565.68
634.875	45723.87
635.229	45464.89
635.583	45290.66
635.937	45395.29
636.291	45354.39
636.645	45415.18
636.999	45216.54
637.352	45446.81
637.706	45133.83
638.06	45294.28
638.413	45096.54
638.767	44974.06
639.121	44979.71
639.474	44727.96
639.828	44749.2
640.181	44958.24
640.534	44926.15
640.888	44803.89
641.241	44652.71
641.594	44677.79
641.947	44775.19
642.301	44678.47
642.654	44613.84
643.007	44668.75
643.36	44602.99
643.713	44433.73
644.066	44567.74
644.419	44325.94
644.771	44000.07
645.124	43658.39
645.477	43633.98
645.83	43313.31
646.182	43105.41
646.535	43110.6
646.888	43214.33
647.24	42979.08
647.593	43243.93
647.945	43055.46
648.298	42928.46
648.65	42739.31
649.002	42620
649.355	42836.26
649.707	42777.96
650.059	42854.11
650.411	43342.91
650.763	43363.25
651.115	43716.01
651.467	43548.56
651.819	43577.03
652.171	43468.33
652.523	43395.34
652.875	43419.97
653.227	43212.52
653.578	43446.41
653.93	43408
654.282	43168.68
654.633	43170.49
654.985	43272.86
655.337	43124.84
655.688	43151.73
656.039	43166.87
656.391	42844.4
656.742	43068.57
657.094	42923.72
657.445	43078.06
657.796	42926.43
658.147	42883.94
658.498	42821.57
658.849	43019.08
659.2	42834.68
659.551	42794.91
659.902	42786.77
660.253	42715.36
660.604	42732.31
660.955	42517.85
661.306	42781.35
661.656	42614.35
662.007	42667.9
662.358	42416.38
662.708	42538.64
663.059	42690.5
663.409	42206.67
663.76	42636.49
664.11	42436.72
664.461	42543.16
664.811	42510.62
665.161	42538.19
665.511	42386.55
665.862	42427.01
666.212	42581.8
666.562	42559.43
666.912	42543.61
667.262	42378.65
667.612	42352.43
667.962	42434.69
668.312	42196.28
668.662	42416.61
669.011	42415.71
669.361	42281.47
669.711	42405.31
670.06	42225.66
670.41	42231.53
670.76	42005.77
671.109	42245.77
671.459	42099.1
671.808	41988.37
672.157	42310.17
672.507	41874.03
672.856	41913.35
673.205	41935.04
673.554	41988.15
673.904	41907.47
674.253	41893.46
674.602	41947.92
674.951	41404.43
675.3	41091.45
675.649	41890.07
675.998	41758.32
676.346	41686.23
676.695	41761.26
677.044	41607.37
677.393	41706.12
677.741	41596.07
678.09	41568.95
678.438	41482.85
678.787	41706.35
679.135	41569.18
679.484	41420.25
679.832	41560.81
680.181	41233.36
680.529	41351.33
680.877	41175.97
681.225	41138.68
681.573	41272.69
681.922	40960.83
682.27	40989.3
682.618	40938.68
682.966	40908.18
683.314	40953.15
683.661	40615.53
684.009	40622.31
684.357	40465.93
684.705	40659.82
685.053	40594.29
685.4	40729.65
685.748	40397.23
686.095	40306.38
686.443	40131.47
686.79	40020.97
687.138	40032.27
687.485	40081.3
687.832	39883.8
688.18	39988.88
688.527	39827.53
688.874	39737.13
689.221	39662.78
689.568	39533.07
689.915	39379.63
690.262	39445.84
690.609	39434.32
690.956	39148.45
691.303	39140.76
691.65	38853.54
691.997	38818.51
692.344	38782.36
692.69	38796.82
693.037	38838.63
693.383	38581.23
693.73	38639.53
694.077	38449.48
694.423	38312.54
694.769	38364.06
695.116	38271.63
695.462	38256.49
695.808	38011.75
696.155	38053.56
696.501	37709.62
696.847	37716.4
697.193	37443.41
697.539	37731.08
697.885	37409.28
698.231	37257.2
698.577	37208.84
698.923	37157.54
699.269	36881.39
699.614	36750.32
699.96	36753.93
700.306	36755.06
700.651	36702.64
700.997	36607.05
701.342	36464.22
701.688	36339.93
702.033	36243.89
702.379	36206.38
702.724	36064.01
703.069	36238.24
703.415	35706.05
703.76	35711.02
704.105	35846.84
704.45	35539.73
704.795	35330.24
705.14	35347.64
705.485	35468.77
705.83	35234.88
706.175	35297.02
706.52	35149.91
706.865	35013.19
707.209	35001.44
707.554	34923.93
707.899	34925.51
708.243	34673.76
708.588	34771.61
708.932	34482.13
709.277	34542.69
709.621	34481.23
709.966	34338.41
710.31	34243.94
710.654	34030.16
710.998	34214.34
711.342	34168.69
711.687	34039.88
712.031	33873.56
712.375	33754.01
712.719	33719.21
713.063	33774.13
713.407	33817.51
713.75	33594.24
714.094	33463.4
714.438	33484.19
714.782	33417.53
715.125	33344.76
715.469	33338.43
715.812	33273.8
716.156	32961.04
716.499	32882.4
716.843	32969.63
717.186	32808.95
717.53	32885.56
717.873	33000.81
718.216	32863.42
718.559	32770.08
718.902	32644.44
719.246	32504.78
719.589	32384.33
719.932	32341.62
720.275	32451
720.617	32411
720.96	32271.11
721.303	32235.41
721.646	32240.83
721.989	32053.27
722.331	32186.37
722.674	31888.75
723.016	31975.53
723.359	31818.92
723.701	31827.51
724.044	31636.33
724.386	31479.05
724.729	31688.98
725.071	31525.6
725.413	31525.6
725.755	31387.97
726.097	31274.08
726.439	31259.62
726.782	31210.8
727.124	31330.57
727.465	31159.51
727.807	31055.1
728.149	31013.07
728.491	31011.26
728.833	31086.29
729.175	30946.4
729.516	30963.35
729.858	30717.26
730.199	30877.03
730.541	30682.23
730.882	30737.82
731.224	30813.53
731.565	30566.3
731.906	30456.7
732.248	30490.37
732.589	30523.59
732.93	30261.9
733.271	30242.92
733.612	30376.02
733.953	30411.73
734.294	30238.85
734.635	30040.89
734.976	30175.8
735.317	30085.86
735.658	30015.35
735.999	30066.2
736.339	29908.47
736.68	30030.72
737.021	29841.12
737.361	29825.98
737.702	29849.03
738.042	29862.36
738.383	29641.13
738.723	29766.77
739.063	29566.55
739.404	29597.96
739.744	29568.59
740.084	29409.27
740.424	29485.88
740.764	29420.57
741.104	29524.97
741.444	29225.32
741.784	29215.6
742.124	29216.28
742.464	29246.79
742.804	29111.88
743.143	28996.62
743.483	29036.4
743.823	28940.58
744.162	28908.72
744.502	28906.01
744.841	28780.13
745.181	28804.31
745.52	28773.58
745.86	28775.84
746.199	28580.59
746.538	28415.4
746.877	28535.62
747.216	28398.22
747.556	28401.61
747.895	28442.29
748.234	28351.67
748.573	28258.34
748.911	28340.37
749.25	28301.5
749.589	28018.35
749.928	28036.2
750.267	28166.36
750.605	28039.14
750.944	28027.16
751.283	27931.12
751.621	27959.82
751.96	27728.41
752.298	27849.76
752.636	27639.15
752.975	27561.41
753.313	27497.91
753.651	27540.17
753.989	27423.78
754.327	27464.91
754.666	27266.95
755.004	27248.42
755.342	27344.24
755.679	27222.89
756.017	27045.26
756.355	27134.98
756.693	26834.2
757.031	26998.71
757.368	26746.06
757.706	26722.56
758.044	26756.91
758.381	26632.17
758.719	26670.81
759.056	26618.38
759.394	26545.84
759.731	26381.33
760.068	26262.69
760.405	26207.09
760.743	25921.9
761.08	26108.34
761.417	26021.79
761.754	25958.74
762.091	25826.09
762.428	25837.61
762.765	25587.22
763.102	25688.24
763.438	25558.07
763.775	25466.1
764.112	25377.06
764.449	25332.31
764.785	25262.03
765.122	24970.74
765.458	24929.61
765.795	24897.98
766.131	24918.09
766.467	24802.84
766.804	24752.89
767.14	24665.44
767.476	24482.62
767.812	24533.01
768.148	24473.81
768.485	24378.44
768.821	24088.96
769.157	24173.7
769.492	24175.06
769.828	24144.32
770.164	23828.62
770.5	23763.99
770.836	23885.35
771.171	23579.14
771.507	23580.72
771.842	23371.01
772.178	23462.76
772.513	23404.23
772.849	23218.92
773.184	23163.11
773.519	23102.99
773.855	23037.01
774.19	22971.25
774.525	22808.54
774.86	22785.71
775.195	22776.22
775.53	22648.54
775.865	22479.73
776.2	22373.07
776.535	22238.16
776.87	22286.07
777.205	22128.1
777.539	22063.02
777.874	22088.78
778.209	21855.8
778.543	21867.09
778.878	21802.24
779.212	21745.97
779.547	21698.74
779.881	21624.62
780.215	21276.15
780.55	21367.67
780.884	21342.14
781.218	21251.29
781.552	21234.57
781.886	21033.9
782.22	21002.94
782.554	20943.95
782.888	20790.96
783.222	20693.34
783.556	20622.38
783.889	20628.71
784.223	20449.96
784.557	20482.27
784.89	20399.79
785.224	20295.84
785.557	20170.19
785.891	20167.93
786.224	20114.82
786.558	20156.41
786.891	19847.94
787.224	19779.92
787.557	19792.8
787.891	19678.9
788.224	19677.32
788.557	19703.99
788.89	19653.14
789.223	19529.08
789.556	19462.86
789.888	19388.06
790.221	19297.9
790.554	19154.4
790.887	19148.75
791.219	19155.75
791.552	18992.82
791.884	18947.85
792.217	18826.5
792.549	18717.8
792.882	18676.44
793.214	18658.59
793.546	18652.04
793.879	18477.13
794.211	18407.3
794.543	18490.91
794.875	18345.15
795.207	18463.34
795.539	18218.38
795.871	18351.48
796.203	18081.88
796.535	17934.99
796.867	17960.53
797.198	17908.1
797.53	17934.32
797.862	17781.55
798.193	17776.13
798.525	17673.98
798.856	17681.67
799.188	17506.76
799.519	17404.16
799.85	17453.88
800.182	17300.21
800.513	17420.43
800.844	17237.84
801.175	17328.91
801.506	17339.3
801.837	17218.86
802.168	17109.25
802.499	17073.1
802.83	16915.36
803.161	16873.78
803.491	16923.5
803.822	16857.06
804.153	16835.36
804.483	16617.74
804.814	16591.98
805.145	16702.03
805.475	16685.31
805.805	16535.71
806.136	16549.72
806.466	16480.12
806.796	16430.85
807.126	16349.5
807.457	16286.22
807.787	16267.24
808.117	16234.7
808.447	16062.73
808.777	16050.98
809.107	16020.92
809.436	15953.58
809.766	15981.15
810.096	15917.19
810.426	15803.98
810.755	15802.62
811.085	15854.6
811.414	15708.61
811.744	15597.2
812.073	15642.4
812.403	15582.97
812.732	15397.89
813.061	15499.13
813.39	15460.48
813.719	15338
814.049	15455.06
814.378	15331.22
814.707	15306.36
815.036	15356.53
815.365	15218.68
815.693	15100.04
816.022	15119.02
816.351	15102.53
816.68	14982.08
817.008	15032.7
817.337	14816.66
817.665	14785.25
817.994	14848.52
818.322	14889.88
818.651	14719.71
818.979	14772.82
819.307	14792.25
819.636	14728.75
819.964	14484.69
820.292	14644.23
820.62	14637.91
820.948	14524.69
821.276	14678.36
821.604	14626.61
821.932	14617.12
822.259	14528.53
822.587	14556.55
822.915	14481.3
823.243	14638.58
823.57	14506.38
823.898	14587.74
824.225	14574.18
824.553	14437.46
824.88	14531.47
825.207	14540.51
825.535	14430.45
825.862	14619.38
826.189	14553.61
826.516	14585.93
826.843	14657.34
827.17	14639.94
827.497	14580.73
827.824	14528.98
828.151	14510.23
828.478	14479.94
828.805	14510.9
829.131	14521.98
829.458	14407.18
829.785	14379.83
830.111	14472.71
830.438	14503.45
830.764	14445.82
831.09	14456.89
831.417	14417.12
831.743	14376.9
832.069	14417.57
832.395	14225.04
832.722	14393.17
833.048	14382.77
833.374	14243.34
833.7	14307.07
834.026	14355.88
834.351	14349.55
834.677	14375.99
835.003	14261.87
835.329	14261.42
835.654	14249.22
835.98	14178.71
836.306	14209.89
836.631	14090.12
836.956	14153.85
837.282	14213.06
837.607	14130.8
837.932	14098.71
838.258	14093.29
838.583	14037.24
838.908	13981.88
839.233	14006.51
839.558	13945.95
839.883	13886.74
840.208	13893.07
840.533	13896
840.858	13875.67
841.182	13928.09
841.507	13846.51
841.832	13775.33
842.156	13738.95
842.481	13831.6
842.805	13700.3
843.13	13672.96
843.454	13536.01
843.778	13564.94
844.103	13599.74
844.427	13506.64
844.751	13557.71
845.075	13490.82
845.399	13502.12
845.723	13410.82
846.047	13374.89
846.371	13309.13
846.695	13216.47
847.019	13079.75
847.343	12989.14
847.666	12961.34
847.99	12922.02
848.313	12826.65
848.637	12832.98
848.96	12811.06
849.284	12799.08
849.607	12741.01
849.931	12665.53
850.254	12624.85
850.577	12508.24
850.9	12514.35
851.223	12430.96
851.546	12337.85
851.869	12302.6
852.192	12374.01
852.515	12224.86
852.838	12278.65
853.161	12207.91
853.483	12087.92
853.806	12117.75
854.129	12140.34
854.451	12026.9
854.774	11942.61
855.096	11969.95
855.419	11898.32
855.741	11904.87
856.063	11834.59
856.385	11824.42
856.708	11700.36
857.03	11657.65
857.352	11720.24
857.674	11706.91
857.996	11571.55
858.318	11466.92
858.64	11531.55
858.961	11480.25
859.283	11393.7
859.605	11463.75
859.926	11362.96
860.248	11365.9
860.57	11269.86
860.891	11326.81
861.212	11282.74
861.534	11298.33
861.855	11238.45
862.176	11190.31
862.498	11336.98
862.819	11260.59
863.14	11101.05
863.461	11159.81
863.782	11068.96
864.103	11073.03
864.424	10990.32
864.745	11105.12
865.065	10988.06
865.386	10989.87
865.707	11002.3
866.027	10987.38
866.348	10952.13
866.668	11007.72
866.989	10893.15
867.309	10786.03
867.63	10859.02
867.95	10777.67
868.27	10740.61
868.59	10764.56
868.91	10711.46
869.23	10733.6
869.55	10722.3
869.87	10732.02
870.19	10709.65
870.51	10722.53
870.83	10685.92
871.15	10545.36
871.469	10590.1
871.789	10630.33
872.109	10600.95
872.428	10519.6
872.748	10515.3
873.067	10471.01
873.386	10493.61
873.706	10440.5
874.025	10487.28
874.344	10410.9
874.663	10419.26
874.982	10408.19
875.301	10389.66
875.62	10305.82
875.939	10342.2
876.258	10320.51
876.577	10295.65
876.896	10243.67
877.214	10204.12
877.533	10302.88
877.852	10219.49
878.17	10273.5
878.489	10283.67
878.807	10231.69
879.125	10219.49
879.444	10176.1
879.762	10164.58
880.08	10201.19
880.398	10026.28
880.716	10161.41
881.034	10126.39
881.352	10085.71
881.67	10074.86
881.988	10085.71
882.306	10026.05
882.624	9997.12
882.941	9914.87
883.259	9866.05
883.577	9833.29
883.894	9880.07
884.212	9897.92
884.529	9930.69
884.846	9791.25
885.164	9830.12
885.481	9661.99
885.798	9805.94
886.115	9690.92
886.432	9634.2
886.75	9591.03
887.067	9642.56
887.383	9658.38
887.7	9634.2
888.017	9644.82
888.334	9609.56
888.651	9602.33
888.967	9469.68
889.284	9477.36
889.6	9489.57
889.917	9383.81
890.233	9358.95
890.55	9341.55
890.866	9389.68
891.182	9294.09
891.498	9234.43
891.815	9207.77
892.131	9171.84
892.447	9146.75
892.763	9136.81
893.079	9175.9
893.395	9155.34
893.71	9103.36
894.026	9062.01
894.342	9132.74
894.657	8997.15
894.973	8925.06
895.289	8986.53
895.604	8935.23
895.92	8853.43
896.235	8849.81
896.55	8809.13
896.865	8789.47
897.181	8780.43
897.496	8794.67
897.811	8704.05
898.126	8749.02
898.441	8623.15
898.756	8575.92
899.071	8586.77
899.386	8615.92
899.7	8483.94
900.015	8463.61
900.33	8440.1
900.644	8478.07
900.959	8417.05
901.273	8366.88
901.588	8314.91
901.902	8374.57
902.216	8264.97
902.531	8294.12
902.845	8219.77
903.159	8185.42
903.473	8153.56
903.787	8021.81
904.101	8061.13
904.415	8069.94
904.729	8044.63
905.042	8002.83
905.356	7978.42
905.67	8011.87
905.984	7957.4
906.297	7932.09
906.611	7935.48
906.924	7912.89
907.237	7907.69
907.551	7837.18
907.864	7745.88
908.177	7787.92
908.491	7707.92
908.804	7657.75
909.117	7597.87
909.43	7568.26
909.743	7478.55
910.056	7543.4
910.368	7462.95
910.681	7399.68
910.994	7404.65
911.307	7450.3
911.619	7309.06
911.932	7286.23
912.244	7313.13
912.557	7285.11
912.869	7173.02
913.181	7207.37
913.494	7203.98
913.806	7168.95
914.118	7160.14
914.43	7087.14
914.742	7124.21
915.054	7047.15
915.366	7035.39
915.678	6988.84
915.99	6970.09
916.302	6925.57
916.613	6914.49
916.925	6848.96
917.236	6850.99
917.548	6815.51
917.859	6818.9
918.171	6794.95
918.482	6747.72
918.794	6751.56
919.105	6704.33
919.416	6627.27
919.727	6679.92
920.038	6626.37
920.349	6546.59
920.66	6549.53
920.971	6532.13
921.282	6509.53
921.593	6428.4
921.903	6392.25
922.214	6399.25
922.525	6392.02
922.835	6358.12
923.146	6321.74
923.456	6309.31
923.767	6273.83
924.077	6291.46
924.387	6217.79
924.697	6192.7
925.008	6153.16
925.318	6130.56
925.628	6125.14
925.938	6098.24
926.248	6058.02
926.558	6059.37
926.867	5972.6
927.177	5999.26
927.487	5932.37
927.796	5870.9
928.106	5923.56
928.416	5887.4
928.725	5863.22
929.034	5757.24
929.344	5801.3
929.653	5802.66
929.962	5698.25
930.271	5721.08
930.581	5723.56
930.89	5658.26
931.199	5687.41
931.508	5643.57
931.817	5641.98
932.125	5622.1
932.434	5541.42
932.743	5488.09
933.051	5483.12
933.36	5482.67
933.669	5427.3
933.977	5393.86
934.286	5403.8
934.594	5410.13
934.902	5369.22
935.21	5372.39
935.519	5317.02
935.827	5316.57
936.135	5311.37
936.443	5213.52
936.751	5225.95
937.059	5239.06
937.367	5201.77
937.674	5228.66
937.982	5161.32
938.29	5143.01
938.597	5138.04
938.905	5079.97
939.213	5034.99
939.52	5052.85
939.827	5067.31
940.135	4990.25
940.442	5005.39
940.749	5000.87
941.056	4942.12
941.363	4870.93
941.67	4850.82
941.977	4849.91
942.284	4851.5
942.591	4870.71
942.898	4763.82
943.205	4750.71
943.511	4751.84
943.818	4691.5
944.125	4686.53
944.431	4666.64
944.738	4693.31
945.044	4666.19
945.35	4597.27
945.657	4555.91
945.963	4592.97
946.269	4566.98
946.575	4529.7
946.881	4532.86
947.187	4514.33
947.493	4493.09
947.799	4449.02
948.105	4407.89
948.41	4421.23
948.716	4390.49
949.022	4434.78
949.327	4400.89
949.633	4345.52
949.938	4351.62
950.244	4349.82
950.549	4313.66
950.854	4286.99
951.16	4267.33
951.465	4216.49
951.77	4251.74
952.075	4190.95
952.38	4201.12
952.685	4226.43
952.99	4181.68
953.294	4141.46
953.599	4141.46
953.904	4106.88
954.209	4082.7
954.513	4097.39
954.818	4020.11
955.122	4037.96
955.426	4033.67
955.731	3967.68
956.035	3986.43
956.339	3977.17
956.643	3984.17
956.948	3887.45
957.252	3905.31
957.556	3908.24
957.86	3892.65
958.163	3844.97
958.467	3841.35
958.771	3827.79
959.075	3791.19
959.378	3794.8
959.682	3805.42
959.985	3745.09
960.289	3713.45
960.592	3714.58
960.896	3699.44
961.199	3707.35
961.502	3690.4
961.805	3688.14
962.108	3632.55
962.411	3640.23
962.714	3576.95
963.017	3566.56
963.32	3600.23
963.623	3605.88
963.926	3602.72
964.228	3579.21
964.531	3520.68
964.833	3543.73
965.136	3491.98
965.438	3459.67
965.741	3479.33
966.043	3473.91
966.345	3450.63
966.648	3460.8
966.95	3450.4
967.252	3405.21
967.554	3379.9
967.856	3351.2
968.158	3327.69
968.46	3327.47
968.761	3297.41
969.063	3319.79
969.365	3299.9
969.666	3295.83
969.968	3257.19
970.269	3261.03
970.571	3268.26
970.872	3229.17
971.174	3203.4
971.475	3194.82
971.776	3170.19
972.077	3141.26
972.378	3113.46
972.679	3111.43
972.98	3140.81
973.281	3144.87
973.582	3082.96
973.883	3100.36
974.183	3050.87
974.484	3079.57
974.785	3069.62
975.085	3030.98
975.386	3018.78
975.686	3018.55
975.986	2998.44
976.287	2984.65
976.587	2964.31
976.887	2950.98
977.187	2981.26
977.487	2899.91
977.787	2921.83
978.087	2887.93
978.387	2910.98
978.687	2867.14
978.987	2853.36
979.286	2840.25
979.586	2856.97
979.885	2813.36
980.185	2824.43
980.484	2801.61
980.784	2775.62
981.083	2752.79
981.382	2761.16
981.682	2780.14
981.981	2739.69
982.28	2729.97
982.579	2753.02
982.878	2715.28
983.177	2682.51
983.475	2683.87
983.774	2664.21
984.073	2699.01
984.372	2608.17
984.67	2627.15
984.969	2613.59
985.267	2629.18
985.566	2606.36
985.864	2588.28
986.162	2578.34
986.461	2564.33
986.759	2546.47
987.057	2510.54
987.355	2560.71
987.653	2534.04
987.951	2482.07
988.249	2499.47
988.547	2503.08
988.844	2490.88
989.142	2485.01
989.44	2468.28
989.737	2431.67
990.035	2438.9
990.332	2452.01
990.63	2441.39
990.927	2416.53
991.224	2387.83
991.521	2367.95
991.819	2346.93
992.116	2322.75
992.413	2331.79
992.71	2362.3
993.006	2329.98
993.303	2303.99
993.6	2297.44
993.897	2290.21
994.193	2286.82
994.49	2237.33
994.787	2256.08
995.083	2255.18
995.379	2211.79
995.676	2208.4
995.972	2203.43
996.268	2188.97
996.565	2196.2
996.861	2195.75
997.157	2172.47
997.453	2176.09
997.749	2184.9
998.044	2140.83
998.34	2106.26
998.636	2104
998.932	2073.72
999.227	2062.42
999.523	2066.03
999.818	2060.38
1000.114	2074.85
1000.409	2064.68
1000.704	2075.52
1001	2028.52
1001.295	2021.97
1001.59	2001.4
1001.885	2029.65
1002.18	1998.01
1002.475	1979.03
1002.77	1992.59
1003.065	1928.64
1003.359	1939.48
1003.654	1920.73
1003.949	1977.22
1004.243	1939.03
1004.538	1914.17
1004.832	1901.74
1005.127	1906.49
1005.421	1861.52
1005.715	1901.97
1006.009	1850.9
1006.304	1854.29
1006.598	1806.38
1006.892	1810.67
1007.186	1768.87
1007.48	1794.63
1007.773	1801.86
1008.067	1777.23
1008.361	1758.92
1008.655	1755.53
1008.948	1767.96
1009.242	1758.24
1009.535	1744.91
1009.829	1745.82
1010.122	1741.97
1010.415	1724.57
1010.708	1670.11
1011.001	1703.78
1011.295	1672.82
1011.588	1665.14
1011.881	1649.1
1012.173	1636.89
1012.466	1612.71
1012.759	1607.29
1013.052	1616.1
1013.344	1607.74
1013.637	1635.31
1013.93	1575.65
1014.222	1584.01
1014.514	1593.96
1014.807	1563.45
1015.099	1541.98
1015.391	1573.16
1015.683	1533.84
1015.976	1530.23
1016.268	1528.19
1016.56	1486.61
1016.851	1507.4
1017.143	1495.43
1017.435	1491.36
1017.727	1453.39
1018.018	1455.43
1018.31	1467.63
1018.602	1438.48
1018.893	1422.43
1019.185	1433.06
1019.476	1439.61
1019.767	1389.44
1020.058	1399.38
1020.35	1361.19
1020.641	1377.92
1020.932	1391.93
1021.223	1347.41
1021.514	1350.57
1021.804	1337.01
1022.095	1353.51
1022.386	1334.3
1022.677	1325.04
1022.967	1287.52
1023.258	1322.32
1023.548	1293.4
1023.839	1275.32
1024.129	1307.86
1024.419	1288.43
1024.709	1269.9
1025	1258.82
1025.29	1239.84
1025.58	1237.35
1025.87	1226.96
1026.16	1204.14
1026.449	1231.48
1026.739	1228.32
1027.029	1220.63
1027.319	1213.4
1027.608	1187.64
1027.898	1178.15
1028.187	1170.46
1028.477	1169.11
1028.766	1154.87
1029.055	1155.1
1029.344	1123.69
1029.634	1152.38
1029.923	1113.74
1030.212	1121.88
1030.501	1110.58
1030.79	1101.54
1031.078	1082.1
1031.367	1094.53
1031.656	1060.64
1031.945	1054.08
1032.233	1038.94
1032.522	1047.3
1032.81	1050.01
1033.099	1018.38
1033.387	1042.56
1033.675	1044.14
1033.963	1050.47
1034.251	1013.41
1034.54	1019.28
1034.828	1012.5
1035.116	1009.56
1035.403	979.06
1035.691	989.68
1035.979	988.32
1036.267	981.99
1036.554	983.12
1036.842	940.87
1037.129	971.37
1037.417	945.61
1037.704	949.45
1037.992	956.23
1038.279	926.63
1038.566	932.05
1038.853	932.05
1039.14	932.05
