Data from plate_ceramic_FLMS001491_025.txt Node
Date: Tue Feb 07 11:16:31 GMT 2017
User: dcchb
Spectrometer: FLMS00149
Trigger mode: 0
Integration Time (sec): 2.000000E-2
Scans to average: 10
Electric dark correction enabled: true
Nonlinearity correction enabled: false
Boxcar width: 0
XAxis mode: Wavelengths
Number of Pixels in Spectrum: 2048
>>>>>Begin Spectral Data<<<<<
341.393	-5.95
341.776	-5.95
342.16	-5.95
342.543	-60.86
342.927	-37.58
343.31	-91.14
343.693	-73.52
344.077	-53.85
344.46	-48.66
344.843	-78.49
345.226	-35.1
345.61	-33.06
345.993	-28.32
346.376	-8.66
346.759	18.91
347.142	20.72
347.525	47.16
347.908	74.5
348.291	72.92
348.674	100.04
349.057	116.54
349.44	135.75
349.823	143.43
350.206	160.38
350.588	220.26
350.971	204.9
351.354	223.43
351.737	253.93
352.119	280.15
352.502	272.46
352.884	295.97
353.267	310.43
353.65	290.77
354.032	301.16
354.414	330.32
354.797	351.33
355.179	327.15
355.562	343.65
355.944	343.65
356.326	358.79
356.709	349.98
357.091	355.63
357.473	340.71
357.855	348.39
358.238	375.96
358.62	371.45
359.002	367.38
359.384	368.73
359.766	359.47
360.148	353.14
360.53	362.63
360.912	344.1
361.294	374.61
361.676	357.89
362.057	361.28
362.439	369.41
362.821	341.16
363.203	326.25
363.584	360.82
363.966	341.39
364.348	360.15
364.729	359.69
365.111	367.83
365.493	333.71
365.874	332.58
366.256	341.84
366.637	333.03
367.019	375.06
367.4	376.87
367.781	339.36
368.163	343.2
368.544	360.37
368.925	361.73
369.306	369.64
369.688	347.26
370.069	349.52
370.45	368.28
370.831	361.73
371.212	342.07
371.593	366.25
371.974	337.55
372.355	355.4
372.736	346.13
373.117	365.34
373.498	365.34
373.879	356.76
374.26	365.12
374.641	335.97
375.021	346.81
375.402	368.73
375.783	354.95
376.163	392.24
376.544	398.34
376.925	374.83
377.305	356.76
377.686	384.33
378.066	385.91
378.447	381.84
378.827	370.99
379.208	371.45
379.588	379.35
379.968	403.31
380.349	404.66
380.729	409.64
381.109	402.86
381.489	409.64
381.87	410.31
382.25	401.05
382.63	400.6
383.01	403.99
383.39	432.01
383.77	425.68
384.15	421.16
384.53	414.61
384.91	424.55
385.29	430.2
385.67	420.48
386.049	449.18
386.429	436.3
386.809	472.01
387.189	455.74
387.568	447.83
387.948	436.3
388.328	436.75
388.707	458.9
389.087	450.54
389.466	479.01
389.846	485.34
390.225	484.21
390.605	465.91
390.984	477.2
391.363	486.7
391.743	480.59
392.122	487.83
392.501	493.02
392.881	509.52
393.26	510.88
393.639	514.72
394.018	512.46
394.397	497.77
394.776	523.53
395.155	525.57
395.534	510.42
395.913	535.28
396.292	535.51
396.671	541.38
397.05	531.67
397.429	531.21
397.808	519.92
398.186	575.96
398.565	550.65
398.944	580.25
399.323	554.49
399.701	534.38
400.08	569.18
400.458	596.3
400.837	581.61
401.215	600.59
401.594	595.17
401.972	597.43
402.351	608.05
402.729	612.34
403.107	598.56
403.486	615.96
403.864	623.19
404.242	628.16
404.62	648.05
404.999	648.27
405.377	639.91
405.755	650.99
406.133	646.92
406.511	690.53
406.889	701.83
407.267	688.95
407.645	704.32
408.023	711.78
408.401	717.88
408.779	698.89
409.156	725.11
409.534	728.27
409.912	738.67
410.29	740.25
410.667	744.99
411.045	780.47
411.422	773.92
411.8	779.8
412.178	803.98
412.555	784.32
412.933	823.41
413.31	804.65
413.687	856.86
414.065	867.03
414.442	841.04
414.819	841.94
415.197	875.16
415.574	861.38
415.951	903.63
416.328	892.56
416.705	872.67
417.082	896.18
417.46	935.72
417.837	921.04
418.214	936.4
418.591	937.53
418.967	931.88
419.344	928.04
419.721	956.97
420.098	973.92
420.475	943.18
420.852	966.68
421.228	985.89
421.605	1019.79
421.982	1005.33
422.358	1025.21
422.735	1048.72
423.111	1054.82
423.488	1060.24
423.864	1062.5
424.241	1081.26
424.617	1091.65
424.994	1095.04
425.37	1104.31
425.746	1131.43
426.123	1147.02
426.499	1138.88
426.875	1180.92
427.251	1165.1
427.627	1194.7
428.003	1201.25
428.379	1205.77
428.756	1212.78
429.132	1257.07
429.507	1293.23
429.883	1269.27
430.259	1271.99
430.635	1314.7
431.011	1312.44
431.387	1370.51
431.763	1347.01
432.138	1395.37
432.514	1372.32
432.89	1389.5
433.265	1432.66
433.641	1448.48
434.016	1462.94
434.392	1485.99
434.767	1504.75
435.143	1535.48
435.518	1500.45
435.894	1553.56
436.269	1573.22
436.644	1555.14
437.02	1559.21
437.395	1602.37
437.77	1601.47
438.145	1663.61
438.52	1666.78
438.895	1673.78
439.271	1665.2
439.646	1704.29
440.021	1707.68
440.395	1740.67
440.77	1717.85
441.145	1754.46
441.52	1796.72
441.895	1780.9
442.27	1750.62
442.645	1772.54
443.019	1800.79
443.394	1782.71
443.769	1801.01
444.143	1814.57
444.518	1869.94
444.892	1856.15
445.267	1859.54
445.641	1892.53
446.016	1897.96
446.39	1894.57
446.764	1913.33
447.139	1933.44
447.513	1927.34
447.887	1951.06
448.262	1972.76
448.636	1996.26
449.01	2003.94
449.384	2029.93
449.758	2045.98
450.132	2087.78
450.506	2048.92
450.88	2125.75
451.254	2093.89
451.628	2093.89
452.002	2149.03
452.376	2140.66
452.75	2203.71
453.123	2196.03
453.497	2196.26
453.871	2281.9
454.244	2311.51
454.618	2271.28
454.992	2343.37
455.365	2310.15
455.739	2405.06
456.112	2413.65
456.486	2455.46
456.859	2462.01
457.232	2505.63
457.606	2498.62
457.979	2535.91
458.352	2603.02
458.725	2657.03
459.099	2694.77
459.472	2697.03
459.845	2725.06
460.218	2720.54
460.591	2776.58
460.964	2788.56
461.337	2870.36
461.71	2911.04
462.083	2975.22
462.456	2943.81
462.829	2979.74
463.201	3027.65
463.574	3047.53
463.947	3033.07
464.32	3139.96
464.692	3177.47
465.065	3179.96
465.438	3239.84
465.81	3297.24
466.183	3299.96
466.555	3379.05
466.928	3374.98
467.3	3400.29
467.672	3470.12
468.045	3573.39
468.417	3593.06
468.789	3588.08
469.161	3670.57
469.534	3671.92
469.906	3776.78
470.278	3761.64
470.65	3827.85
471.022	3925.7
471.394	4017
471.766	3998.69
472.138	4088.86
472.51	4179.93
472.882	4217.45
473.253	4246.6
473.625	4306.71
473.997	4434.16
474.369	4407.27
474.74	4500.6
475.112	4565.23
475.484	4675.06
475.855	4710.54
476.227	4796.19
476.598	4892.68
476.97	4952.12
477.341	5072.34
477.713	5128.61
478.084	5133.13
478.455	5312.11
478.827	5341.71
479.198	5552.55
479.569	5517.07
479.94	5684.75
480.311	5741.7
480.682	5888.81
481.053	5980.34
481.424	6088.81
481.795	6155.93
482.166	6286.54
482.537	6333.1
482.908	6443.6
483.279	6499.65
483.65	6635.91
484.021	6750.26
484.391	6870.26
484.762	6908.45
485.133	6986.19
485.503	7075.9
485.874	7219.63
486.244	7289
486.615	7467.98
486.985	7496.91
487.356	7681.08
487.726	7766.73
488.097	7885.82
488.467	7917.69
488.837	8122.88
489.207	8204.46
489.578	8336.43
489.948	8415.53
490.318	8543.21
490.688	8546.37
491.058	8699.59
491.428	8803.54
491.798	8836.31
492.168	9035.4
492.538	9124.66
492.908	9223.19
493.278	9314.03
493.648	9342.06
494.017	9452.11
494.387	9575.72
494.757	9631.54
495.126	9787.47
495.496	9840.8
495.866	9911.53
496.235	10008.48
496.605	10128.25
496.974	10192.2
497.344	10338.64
497.713	10310.39
498.082	10447.34
498.452	10524.62
498.821	10610.5
499.19	10577.05
499.559	10749.48
499.928	10830.61
500.298	10915.8
500.667	11058.85
501.036	11000.32
501.405	11138.85
501.774	11141.78
502.143	11314.21
502.512	11341.55
502.88	11372.06
503.249	11507.88
503.618	11545.61
503.987	11634.2
504.356	11724.37
504.724	11746.97
505.093	11862.22
505.462	11923.46
505.83	12068.31
506.199	12110.12
506.567	12254.75
506.936	12337.68
507.304	12441.18
507.672	12471.24
508.041	12601.18
508.409	12663.78
508.777	12803.43
509.145	12923.21
509.514	12925.47
509.882	13106.7
510.25	13078.23
510.618	13129.3
510.986	13195.74
511.354	13391.89
511.722	13489.07
512.09	13609.97
512.458	13617.2
512.826	13766.57
513.193	13828.49
513.561	13948.72
513.929	13927.7
514.297	14200.46
514.664	14270.29
515.032	14402.71
515.4	14443.62
515.767	14507.57
516.135	14682.48
516.502	14562.48
516.869	14827.11
517.237	14920.44
517.604	14821.69
517.972	15162.02
518.339	15290.83
518.706	15305.29
519.073	15364.05
519.44	15439.98
519.808	15635.22
520.175	15659.86
520.542	15869.57
520.909	16000.41
521.276	16100.52
521.643	16189.56
522.009	16352.72
522.376	16380.06
522.743	16574.63
523.11	16670.68
523.477	16884.91
523.843	17012.82
524.21	17196.77
524.577	17330.1
524.943	17473.82
525.31	17535.06
525.676	17704.1
526.043	17815.05
526.409	17822.96
526.776	18095.27
527.142	18200.58
527.508	18294.14
527.874	18447.35
528.241	18479.67
528.607	18583.62
528.973	18790.4
529.339	18833.33
529.705	18909.26
530.071	19187
530.437	19323.94
530.803	19402.36
531.169	19516.93
531.535	19588.11
531.901	19612.75
532.267	19718.28
532.632	19865.17
532.998	19894.55
533.364	20115.33
533.73	20157.82
534.095	20353.29
534.461	20410.24
534.826	20466.51
535.192	20601.42
535.557	20860.62
535.923	20793.05
536.288	20803.22
536.653	20986.27
537.019	20974.75
537.384	21122.31
537.749	21149.43
538.114	21237.56
538.479	21255.64
538.845	21461.06
539.21	21409.99
539.575	21597.78
539.94	21600.04
540.305	21800.26
540.67	21753.48
541.034	21877.09
541.399	21967.94
541.764	22094.94
542.129	22224.43
542.494	22286.12
542.858	22298.55
543.223	22331.55
543.587	22409.51
543.952	22540.58
544.316	22489.51
544.681	22626.23
545.045	22784.87
545.41	22854.92
545.774	23015.82
546.138	23063.96
546.503	22921.36
546.867	23155.25
547.231	23345.53
547.595	23360.22
547.959	23376.72
548.324	23399.31
548.688	23537.16
549.052	23700.1
549.416	23650.38
549.779	23764.95
550.143	23873.88
550.507	24077.04
550.871	24163.59
551.235	24017.38
551.599	24301.66
551.962	24425.73
552.326	24333.98
552.689	24635.44
553.053	24530.58
553.417	24570.36
553.78	24945.26
554.143	24935.54
554.507	24937.13
554.87	25151.13
555.234	25427.96
555.597	25248.53
555.96	25295.54
556.323	25517.9
556.686	25581.86
557.05	25797.44
557.413	25805.58
557.776	25887.61
558.139	26210.54
558.502	26169.18
558.865	26322.4
559.228	26453.25
559.59	26579.57
559.953	26591.77
560.316	26859.11
560.679	26856.85
561.041	27117.41
561.404	27202.38
561.767	27454.8
562.129	27329.38
562.492	27641.46
562.854	27691.18
563.217	27669.94
563.579	27841.46
563.941	27991.28
564.304	28118.96
564.666	28275.57
565.028	28369.13
565.39	28500.65
565.753	28607.31
566.115	28652.28
566.477	28929.11
566.839	28961.88
567.201	29115.1
567.563	29215.43
567.925	29346.95
568.287	29458.59
568.648	29480.51
569.01	29593.28
569.372	29867.39
569.734	29872.14
570.095	30117.56
570.457	30072.13
570.819	30239.13
571.18	30347.83
571.542	30527.26
571.903	30516.19
572.265	30696.3
572.626	30694.49
572.987	30705.56
573.349	30880.7
573.71	31008.38
574.071	31017.64
574.432	31142.16
574.794	31456.5
575.155	31446.79
575.516	31416.28
575.877	31523.17
576.238	31452.21
576.599	31585.31
576.96	31639.78
577.32	31724.97
577.681	31825.31
578.042	31967.45
578.403	32052.42
578.763	31944.85
579.124	32036.83
579.485	32173.09
579.845	32281.11
580.206	32231.4
580.566	32250.38
580.927	32355.24
581.287	32346.65
581.648	32278.18
582.008	32512.29
582.368	32369.47
582.728	32496.02
583.089	32501
583.449	32411.51
583.809	32520.88
584.169	32564.04
584.529	32463.71
584.889	32696.92
585.249	32679.52
585.609	32620.54
585.969	32726.75
586.329	32775.34
586.688	32786.64
587.048	32729.69
587.408	32770.59
587.768	32643.14
588.127	32774.89
588.487	32551.39
588.846	32848.78
589.206	32665.29
589.565	32714.32
589.925	32907.76
590.284	32722.01
590.643	32843.81
591.003	32911.61
591.362	32870.03
591.721	32931.04
592.08	32925.39
592.44	32866.64
592.799	32939.85
593.158	32884.26
593.517	32977.59
593.876	33075.22
594.235	32814.43
594.593	33063.24
594.952	33083.13
595.311	32939.4
595.67	33091.71
596.029	33301.65
596.387	33238.83
596.746	33345.49
597.104	33195.21
597.463	33126.06
597.822	33340.3
598.18	33338.94
598.538	33271.6
598.897	33353.4
599.255	33208.32
599.613	33654.19
599.972	33442.44
600.33	33533.28
600.688	33371.93
601.046	33467.07
601.404	33600.18
601.762	33629.1
602.12	33687.41
602.478	33770.57
602.836	33649.44
603.194	33622.32
603.552	33649.67
603.91	33446.51
604.268	33830.68
604.625	33691.47
604.983	33776.89
605.341	33754.3
605.698	33875.87
606.056	33954.74
606.413	33922.65
606.771	34080.39
607.128	34027.06
607.485	33785.48
607.843	34099.37
608.2	34147.28
608.557	34327.39
608.914	34110.44
609.272	34368.74
609.629	34406.26
609.986	34522.64
610.343	34268.41
610.7	34705.46
611.057	34493.94
611.414	34534.84
611.771	34463.66
612.127	34669.3
612.484	34602.18
612.841	34759.24
613.198	34655.74
613.554	34628.62
613.911	34883.31
614.267	34814.61
614.624	34697.1
614.98	34930.99
615.337	35017.54
615.693	35077.88
616.05	35056.18
616.406	35119.01
616.762	35061.83
617.118	35075.62
617.475	35116.52
617.831	35113.13
618.187	35208.95
618.543	35218.89
618.899	35492.56
619.255	35272.9
619.611	35290.75
619.967	35304.76
620.323	35590.41
620.678	35335.05
621.034	35226.12
621.39	35280.58
621.746	35117.42
622.101	35571.65
622.457	35374.14
622.812	35355.61
623.168	35470.64
623.523	35503.4
623.879	35486.45
624.234	35370.07
624.589	35518.77
624.945	35575.94
625.3	35461.37
625.655	35471.31
626.01	35524.42
626.365	35532.78
626.72	35386.8
627.075	35492.1
627.43	35475.61
627.785	35341.15
628.14	35386.34
628.495	35463.4
628.85	35452.56
629.205	35257.53
629.559	35398.55
629.914	35192.45
630.269	35435.38
630.623	35263.63
630.978	35106.12
631.332	35239.68
631.687	35249.85
632.041	35016.18
632.396	35387.47
632.75	35092.79
633.104	34987.94
633.459	34952.23
633.813	34904.77
634.167	34895.74
634.521	34850.09
634.875	35036.97
635.229	34956.52
635.583	34583.88
635.937	34705.01
636.291	34687.83
636.645	34624.33
636.999	34549.08
637.352	34718.79
637.706	34473.37
638.06	34651.9
638.413	34516.76
638.767	34330.78
639.121	34435.18
639.474	34260.5
639.828	34205.13
640.181	34361.96
640.534	34175.53
640.888	34214.4
641.241	34010.79
641.594	34004.01
641.947	33978.7
642.301	33994.97
642.654	34107.28
643.007	34058.92
643.36	33956.55
643.713	33973.5
644.066	33920.17
644.419	33843.33
644.771	33423.23
645.124	33145.5
645.477	33038.16
645.83	32929.91
646.182	32810.37
646.535	32782.12
646.888	32723.36
647.24	32644.49
647.593	32830.7
647.945	32822.57
648.298	32565.4
648.65	32545.29
649.002	32296.03
649.355	32572.86
649.707	32581.9
650.059	32503.93
650.411	32904.6
650.763	32982.79
651.115	33376.68
651.467	33216.68
651.819	33159.74
652.171	33153.18
652.523	33029.8
652.875	33017.82
653.227	32867.99
653.578	33042.45
653.93	32965.16
654.282	32874.77
654.633	32757.03
654.985	32827.99
655.337	32720.65
655.688	32916.8
656.039	32902.12
656.391	32650.14
656.742	32662.57
657.094	32777.15
657.445	32719.97
657.796	32780.54
658.147	32529.24
658.498	32683.36
658.849	32751.61
659.2	32595.46
659.551	32632.07
659.902	32702.12
660.253	32441.79
660.604	32628.22
660.955	32402.24
661.306	32372.86
661.656	32439.98
662.007	32278.85
662.358	32422.81
662.708	32453.09
663.059	32262.13
663.409	32168.35
663.76	32413.99
664.11	32291.06
664.461	32308.91
664.811	32358.17
665.161	32310.72
665.511	32145.98
665.862	32254.22
666.212	32350.27
666.562	32296.93
666.912	32125.41
667.262	32165.19
667.612	32163.83
667.962	32101.68
668.312	32047.22
668.662	32253.77
669.011	32207.22
669.361	32027.34
669.711	32138.29
670.06	32113.21
670.41	32006.32
670.76	31911.86
671.109	32033.44
671.459	31993.44
671.808	31990.95
672.157	32072.76
672.507	31697.4
672.856	31786.89
673.205	31882.25
673.554	31996.38
673.904	31880.9
674.253	31955.25
674.602	31982.37
674.951	31287.02
675.3	31264.87
675.649	31597.97
675.998	31705.76
676.346	31665.99
676.695	31802.26
677.044	31465.77
677.393	31540.57
677.741	31675.48
678.09	31513.45
678.438	31473
678.787	31676.61
679.135	31593
679.484	31286.79
679.832	31378.99
680.181	31127.25
680.529	31489.04
680.877	31188.49
681.225	31139.22
681.573	31423.28
681.922	31063.75
682.27	30924.31
682.618	31098.32
682.966	31024.42
683.314	31020.81
683.661	30912.79
684.009	30714.38
684.357	30718.22
684.705	30646.81
685.053	30661.95
685.4	30583.76
685.748	30559.8
686.095	30501.5
686.443	30296.76
686.79	30391.45
687.138	30380.15
687.485	30362.29
687.832	30200.04
688.18	30216.76
688.527	30116.43
688.874	30038.69
689.221	29997.11
689.568	30034.39
689.915	29843.44
690.262	29839.6
690.609	29814.74
690.956	29634.63
691.303	29639.15
691.65	29468.08
691.997	29513.5
692.344	29396.9
692.69	29482.54
693.037	29387.41
693.383	29208.88
693.73	29264.24
694.077	29080.29
694.423	29179.05
694.769	29034.87
695.116	29011.14
695.462	28909.23
695.808	28752.39
696.155	28757.14
696.501	28592.17
696.847	28544.26
697.193	28264.72
697.539	28376.13
697.885	28273.31
698.231	28043.49
698.577	28196.7
698.923	28073.99
699.269	28019.98
699.614	27833.32
699.96	27680.11
700.306	27748.35
700.651	27688.24
700.997	27522.82
701.342	27511.07
701.688	27488.7
702.033	27420.68
702.379	27356.27
702.724	27263.39
703.069	27323.05
703.415	27104.75
703.76	26987.69
704.105	27028.6
704.45	26937.75
704.795	26853.69
705.14	26826.34
705.485	26759.23
705.83	26666.12
706.175	26684.88
706.52	26513.13
706.865	26389.29
707.209	26354.49
707.554	26296.41
707.899	26308.39
708.243	26225.23
708.588	26155.63
708.932	26149.3
709.277	25971.9
709.621	26111.79
709.966	25873.83
710.31	25959.7
710.654	25713.6
710.998	25780.27
711.342	25674.28
711.687	25752.7
712.031	25529.88
712.375	25417.79
712.719	25520.84
713.063	25349.77
713.407	25459.6
713.75	25344.8
714.094	25205.37
714.438	25147.06
714.782	25156.33
715.125	25047.18
715.469	25130.12
715.812	25027.97
716.156	24873.63
716.499	24922.66
716.843	24973.06
717.186	24814.19
717.53	24869.11
717.873	24877.02
718.216	24799.73
718.559	24666.85
718.902	24479.51
719.246	24536.01
719.589	24444.03
719.932	24391.83
720.275	24328.33
720.617	24275.22
720.96	24336.24
721.303	24248.11
721.646	24231.38
721.989	24118.84
722.331	24099.63
722.674	24123.59
723.016	23998.62
723.359	24010.15
723.701	23976.25
724.044	23749.81
724.386	23819.19
724.729	23914.55
725.071	23731.51
725.413	23730.6
725.755	23654.9
726.097	23610.38
726.439	23566.99
726.782	23546.2
727.124	23590.72
727.465	23494.45
727.807	23486.54
728.149	23465.3
728.491	23366.09
728.833	23326.1
729.175	23306.89
729.516	23226.89
729.858	23195.93
730.199	23228.47
730.541	23163.16
730.882	23114.35
731.224	23133.78
731.565	23130.39
731.906	22997.97
732.248	22863.28
732.589	22937.41
732.93	22839.1
733.271	22826.22
733.612	22839.55
733.953	22791.19
734.294	22811.76
734.635	22645.89
734.976	22770.18
735.317	22667.81
735.658	22608.83
735.999	22586.91
736.339	22440.47
736.68	22604.31
737.021	22443.18
737.361	22237.99
737.702	22450.64
738.042	22360.92
738.383	22414.48
738.723	22346.69
739.063	22325.44
739.404	22343.52
739.744	22270.76
740.084	22066.24
740.424	22197.99
740.764	22174.26
741.104	22243.19
741.444	22015.62
741.784	22048.16
742.124	21962.97
742.464	21904.66
742.804	21847.72
743.143	21848.85
743.483	21853.14
743.823	21558.23
744.162	21618.8
744.502	21739.02
744.841	21611.56
745.181	21705.12
745.52	21617.44
745.86	21624.9
746.199	21513.94
746.538	21497.44
746.877	21537.44
747.216	21537.44
747.556	21487.05
747.895	21471.91
748.234	21313.95
748.573	21344.68
748.911	21232.14
749.25	21229.65
749.589	21151.46
749.928	21127.28
750.267	21183.78
750.605	21059.49
750.944	21025.82
751.283	20954.63
751.621	20953.05
751.96	20970.45
752.298	20853.62
752.636	20841.42
752.975	20619.5
753.313	20740.4
753.651	20850
753.989	20580.41
754.327	20508.54
754.666	20412.05
755.004	20514.19
755.342	20486.17
755.679	20472.39
756.017	20310.36
756.355	20334.54
756.693	20273.07
757.031	20285.27
757.368	20153.98
757.706	20116.24
758.044	20065.62
758.381	20020.42
758.719	19828.11
759.056	19967.99
759.394	19815.23
759.731	19701.33
760.068	19621.56
760.405	19597.38
760.743	19563.48
761.08	19615.68
761.417	19560.77
761.754	19505.86
762.091	19430.83
762.428	19360.55
762.765	19130.05
763.102	19292.76
763.438	19117.62
763.775	19011.63
764.112	19097.28
764.449	19051.86
764.785	18889.15
765.122	18727.57
765.458	18788.59
765.795	18799.21
766.131	18738.19
766.467	18604.19
766.804	18600.57
767.14	18452.55
767.476	18490.97
767.812	18331.2
768.148	18349.73
768.485	18282.39
768.821	18142.73
769.157	18179.56
769.492	18093.92
769.828	18041.94
770.164	17893.02
770.5	17811.21
770.836	17950.87
771.171	17807.82
771.507	17697.32
771.842	17604.66
772.178	17575.51
772.513	17556.98
772.849	17550.43
773.184	17285.35
773.519	17397.66
773.855	17367.16
774.19	17267.95
774.525	17124.45
774.86	17191.57
775.195	17073.38
775.53	17005.36
775.865	16857.57
776.2	16792.71
776.535	16663.22
776.87	16717.23
777.205	16651.24
777.539	16524.69
777.874	16618.48
778.209	16420.51
778.543	16302.55
778.878	16308.2
779.212	16254.42
779.547	16173.97
779.881	16237.02
780.215	16062.78
780.55	16121.54
780.884	15947.76
781.218	15842.45
781.552	15922
781.886	15803.58
782.22	15713.64
782.554	15754.77
782.888	15601.1
783.222	15532.18
783.556	15470.26
783.889	15397.49
784.223	15281.56
784.557	15258.29
784.89	15353.42
785.224	15221
785.557	15178.06
785.891	15078.63
786.224	15067.78
786.558	14995.92
786.891	14849.03
787.224	14864.4
787.557	14828.47
787.891	14746.66
788.224	14751.18
788.557	14772.2
788.89	14618.08
789.223	14670.73
789.556	14555.03
789.888	14549.15
790.221	14429.83
790.554	14300.34
790.887	14318.42
791.219	14265.54
791.552	14190.52
791.884	14139.67
792.217	14142.61
792.549	14056.06
792.882	13981.71
793.214	13926.34
793.546	13959.34
793.879	13799.34
794.211	13776.29
794.543	13803.41
794.875	13726.35
795.207	13665.33
795.539	13661.72
795.871	13683.41
796.203	13585.33
796.535	13508.27
796.867	13426.24
797.198	13437.54
797.53	13353.25
797.862	13208.85
798.193	13263.08
798.525	13199.81
798.856	13289.07
799.188	13070.09
799.519	13063.54
799.85	13029.42
800.182	13022.64
800.513	13004.11
800.844	12837.11
801.175	12953.49
801.506	12890.44
801.837	12776.09
802.168	12817.9
802.499	12799.37
802.83	12676.88
803.161	12631.91
803.491	12652.25
803.822	12604.12
804.153	12532.48
804.483	12439.83
804.814	12440.73
805.145	12363.45
805.475	12318.7
805.805	12238.03
806.136	12335.65
806.466	12281.19
806.796	12232.15
807.126	12167.07
807.457	12085.94
807.787	12066.28
808.117	11998.94
808.447	12083.23
808.777	12032.38
809.107	11973.4
809.436	11985.15
809.766	11992.61
810.096	11847.98
810.426	11856.11
810.755	11799.62
811.085	11761.88
811.414	11709.45
811.744	11661.54
812.073	11639.62
812.403	11679.62
812.732	11549.46
813.061	11621.09
813.39	11560.53
813.719	11478.05
814.049	11597.82
814.378	11507.42
814.707	11422.91
815.036	11440.98
815.365	11370.93
815.693	11287.32
816.022	11313.98
816.351	11211.16
816.68	11207.77
817.008	11195.57
817.337	11145.17
817.665	11098.17
817.994	11141.78
818.322	11125.29
818.651	11035.8
818.979	11063.82
819.307	11039.87
819.636	10973.2
819.964	10961.45
820.292	10932.07
820.62	10935.91
820.948	10899.53
821.276	10948.12
821.604	10857.27
821.932	10911.73
822.259	10842.13
822.587	10873.32
822.915	10824.96
823.243	10927.1
823.57	10841
823.898	10915.8
824.225	10867.44
824.553	10865.63
824.88	10793.54
825.207	10824.5
825.535	10808.68
825.862	10871.96
826.189	10796.26
826.516	10802.36
826.843	10869.47
827.17	10833.32
827.497	10868.57
827.824	10806.65
828.151	10861.56
828.478	10861.79
828.805	10875.12
829.131	10808.68
829.458	10823.83
829.785	10723.04
830.111	10744.51
830.438	10840.77
830.764	10794.45
831.09	10819.98
831.417	10789.25
831.743	10734.34
832.069	10727.1
832.395	10674.9
832.722	10752.19
833.048	10705.86
833.374	10704.05
833.7	10590.39
834.026	10684.62
834.351	10680.78
834.677	10636.71
835.003	10659.08
835.329	10684.62
835.654	10618.86
835.98	10510.61
836.306	10594
836.631	10539.31
836.956	10585.19
837.282	10654.11
837.607	10496.6
837.932	10507.22
838.258	10487.79
838.583	10520.78
838.908	10443.95
839.233	10534.57
839.558	10406.44
839.883	10371.86
840.208	10325.99
840.533	10349.26
840.858	10302.48
841.182	10351.3
841.507	10375.02
841.832	10261.13
842.156	10318.53
842.481	10210.96
842.805	10201.02
843.13	10153.11
843.454	10114.69
843.778	10133.9
844.103	10056.16
844.427	10060.68
844.751	10048.25
845.075	10045.54
845.399	10026.33
845.723	9920.8
846.047	9974.81
846.371	9842.61
846.695	9881.7
847.019	9834.47
847.343	9751.76
847.666	9703.4
847.99	9688.49
848.313	9668.83
848.637	9601.94
848.96	9521.26
849.284	9489.17
849.607	9443.3
849.931	9465.44
850.254	9366.46
850.577	9384.99
850.9	9356.29
851.223	9256.41
851.546	9219.35
851.869	9196.3
852.192	9250.08
852.515	9101.16
852.838	9151.33
853.161	9109.52
853.483	9026.36
853.806	9058.9
854.129	9021.84
854.451	8961.5
854.774	8954.5
855.096	8835.4
855.419	8876.76
855.741	8860.94
856.063	8808.29
856.385	8792.69
856.708	8726.48
857.03	8640.38
857.352	8779.59
857.674	8669.53
857.996	8672.47
858.318	8625.01
858.64	8611
858.961	8538.46
859.283	8576.43
859.605	8488.52
859.926	8523.77
860.248	8405.58
860.57	8478.58
860.891	8439.26
861.212	8387.51
861.534	8388.64
861.855	8355.87
862.176	8353.38
862.498	8309.54
862.819	8332.82
863.14	8301.18
863.461	8266.83
863.782	8248.07
864.103	8269.77
864.424	8228.87
864.745	8267.73
865.065	8179.6
865.386	8157.91
865.707	8160.39
866.027	8114.74
866.348	8197.91
866.668	8150.68
866.989	8145.93
867.309	8029.1
867.63	8024.13
867.95	8082.88
868.27	7972.15
868.59	8029.1
868.91	7999.95
869.23	7977.35
869.55	7953.62
869.87	8020.51
870.19	8029.32
870.51	7910
870.83	7952.94
871.15	7894.19
871.469	7870.46
871.789	7963.34
872.109	7919.04
872.428	7832.04
872.748	7870.68
873.067	7850.34
873.386	7856.22
873.706	7871.13
874.025	7799.5
874.344	7762.66
874.663	7801.76
874.982	7793.4
875.301	7738.48
875.62	7747.07
875.939	7742.32
876.258	7743.23
876.577	7686.96
876.896	7628.88
877.214	7618.26
877.533	7684.02
877.852	7703.91
878.17	7625.49
878.489	7618.94
878.807	7573.97
879.125	7523.8
879.444	7642.21
879.762	7535.55
880.08	7597.47
880.398	7505.04
880.716	7525.61
881.034	7428.21
881.352	7463.69
881.67	7441.32
881.988	7444.93
882.306	7411.49
882.624	7381.43
882.941	7425.72
883.259	7364.03
883.577	7311.83
883.894	7358.83
884.212	7352.28
884.529	7300.75
884.846	7317.7
885.164	7255.33
885.481	7239.06
885.798	7235.22
886.115	7157.71
886.432	7160.19
886.75	7179.4
887.067	7083.13
887.383	7118.16
887.7	7130.14
888.017	7132.17
888.334	7116.8
888.651	7089.23
888.967	7065.96
889.284	6980.76
889.6	7043.13
889.917	6980.76
890.233	6981.89
890.55	6968.33
890.866	6943.48
891.182	6952.97
891.498	6920.2
891.815	6826.87
892.131	6791.39
892.447	6751.62
892.763	6790.03
893.079	6792.97
893.395	6749.81
893.71	6762.01
894.026	6746.87
894.342	6685.86
894.657	6681.34
894.973	6632.75
895.289	6646.08
895.604	6652.18
895.92	6582.58
896.235	6599.08
896.55	6538.06
896.865	6512.98
897.181	6546.42
897.496	6478.63
897.811	6460.55
898.126	6412.42
898.441	6395.02
898.756	6451.74
899.071	6384.17
899.386	6347.33
899.7	6347.11
900.015	6275.7
900.33	6218.52
900.644	6263.72
900.959	6245.64
901.273	6240.9
901.588	6186.21
901.902	6169.94
902.216	6166.55
902.531	6149.15
902.845	6157.06
903.159	6044.52
903.473	6085.42
903.787	6047.23
904.101	5985.53
904.415	6051.52
904.729	5983.5
905.042	5948.02
905.356	5901.7
905.67	5949.83
905.984	5865.76
906.297	5830.51
906.611	5871.19
906.924	5883.16
907.237	5850.62
907.551	5833.22
907.864	5760.91
908.177	5773.56
908.491	5735.15
908.804	5654.7
909.117	5671.87
909.43	5644.07
909.743	5598.2
910.056	5584.87
910.368	5569.95
910.681	5573.12
910.994	5528.15
911.307	5470.97
911.619	5509.84
911.932	5511.2
912.244	5437.3
912.557	5493.34
912.869	5409.05
913.181	5395.27
913.494	5370.18
913.806	5320.69
914.118	5289.51
914.43	5302.39
914.742	5265.55
915.054	5272.79
915.366	5218.78
915.678	5191.66
915.99	5183.97
916.302	5136.74
916.613	5155.95
916.925	5162.05
917.236	5136.52
917.548	5061.27
917.859	5069.4
918.171	5006.35
918.482	5028.05
918.794	4994.37
919.105	4971.78
919.416	4944.66
919.727	4920.03
920.038	4920.03
920.349	4899.01
920.66	4841.61
920.971	4876.19
921.282	4829.63
921.593	4814.27
921.903	4807.94
922.214	4785.34
922.525	4745.34
922.835	4755.74
923.146	4676.64
923.456	4698.56
923.767	4663.08
924.077	4604.33
924.387	4668.96
924.697	4631.67
925.008	4633.48
925.318	4589.87
925.628	4591.45
925.938	4480.94
926.248	4536.08
926.558	4522.07
926.867	4480.94
927.177	4470.77
927.487	4421.28
927.796	4394.39
928.106	4388.29
928.416	4356.2
928.725	4377.67
929.034	4310.32
929.344	4320.49
929.653	4308.29
929.962	4267.61
930.271	4277.11
930.581	4290.89
930.89	4204.11
931.199	4224.68
931.508	4212.93
931.817	4173.15
932.125	4159.37
932.434	4172.93
932.743	4082.31
933.051	4137.22
933.36	4108.97
933.669	4048.64
933.977	4045.7
934.286	4037.79
934.594	4015.42
934.902	3972.48
935.21	3978.13
935.519	3974.06
935.827	3953.95
936.135	3918.47
936.443	3959.37
936.751	3907.4
937.059	3916.66
937.367	3874.86
937.674	3866.27
937.982	3838.92
938.29	3816.1
938.597	3808.42
938.905	3760.06
939.213	3756.44
939.52	3745.82
939.827	3752.6
940.135	3712.6
940.442	3726.16
940.749	3723
941.056	3733.84
941.363	3685.03
941.67	3661.3
941.977	3593.96
942.284	3626.73
942.591	3617.01
942.898	3575.43
943.205	3608.65
943.511	3593.06
943.818	3498.59
944.125	3508.54
944.431	3542.44
944.738	3497.24
945.044	3439.39
945.35	3457.92
945.657	3478.03
945.963	3447.52
946.269	3403.46
946.575	3426.96
946.881	3378.82
947.187	3405.26
947.493	3369.11
947.799	3382.44
948.105	3352.61
948.41	3308.54
948.716	3343.8
949.022	3307.87
949.327	3313.74
949.633	3274.42
949.938	3266.28
950.244	3255.89
950.549	3223.8
950.854	3158.04
951.16	3245.49
951.465	3192.16
951.77	3137.02
952.075	3150.13
952.38	3113.75
952.685	3123.46
952.99	3089.79
953.294	3106.74
953.599	3105.84
953.904	3077.36
954.209	3042.56
954.513	3080.07
954.818	3001.21
955.122	3019.96
955.426	2997.14
955.731	3022.22
956.035	2987.2
956.339	3000.3
956.643	2940.42
956.948	2930.02
957.252	2938.61
957.556	2906.29
957.86	2900.19
958.163	2902
958.467	2892.28
958.771	2883.02
959.075	2866.52
959.378	2801.66
959.682	2829.91
959.985	2845.28
960.289	2819.74
960.592	2791.49
960.896	2842.34
961.199	2759.18
961.502	2779.74
961.805	2781.33
962.108	2751.72
962.411	2755.79
962.714	2690.25
963.017	2717.15
963.32	2686.86
963.623	2684.38
963.926	2706.98
964.228	2644.15
964.531	2641.67
964.833	2669.69
965.136	2643.93
965.438	2637.6
965.741	2608.45
966.043	2583.14
966.345	2607.09
966.648	2561.67
966.95	2573.87
967.252	2577.94
967.554	2518.96
967.856	2552.63
968.158	2525.51
968.46	2505.63
968.761	2519.41
969.063	2483.03
969.365	2481.45
969.666	2448.9
969.968	2442.58
970.269	2459.53
970.571	2442.58
970.872	2409.58
971.174	2417.72
971.475	2422.24
971.776	2391.96
972.077	2364.16
972.378	2358.51
972.679	2376.14
972.98	2398.28
973.281	2341.34
973.582	2328.68
973.883	2309.25
974.183	2319.19
974.484	2293.65
974.785	2292.75
975.085	2292.52
975.386	2304.28
975.686	2285.97
975.986	2262.24
976.287	2278.29
976.587	2248.23
976.887	2247.78
977.187	2237.61
977.487	2177.95
977.787	2191.28
978.087	2205.07
978.387	2166.2
978.687	2183.15
978.987	2177.05
979.286	2171.17
979.586	2142.02
979.885	2148.57
980.185	2154.9
980.484	2142.25
980.784	2092.08
981.083	2143.83
981.382	2104.05
981.682	2059.54
981.981	2080.1
982.28	2079.42
982.579	2047.79
982.878	2040.78
983.177	2023.6
983.475	2059.54
983.774	2036.03
984.073	2005.98
984.372	1992.19
984.67	2022.93
984.969	1994.45
985.267	1977.28
985.566	1976.83
985.864	1963.72
986.162	1979.09
986.461	1961.91
986.759	1913.1
987.057	1917.39
987.355	1929.37
987.653	1917.85
987.951	1922.36
988.249	1904.06
988.547	1886.43
988.844	1865.87
989.142	1870.16
989.44	1897.73
989.737	1860.45
990.035	1861.12
990.332	1866.77
990.63	1828.58
990.927	1812.76
991.224	1796.04
991.521	1818.41
991.819	1828.58
992.116	1808.24
992.413	1781.58
992.71	1784.29
993.006	1775.25
993.303	1749.04
993.6	1759.66
993.897	1738.64
994.193	1761.01
994.49	1725.99
994.787	1740.45
995.083	1704.07
995.379	1694.8
995.676	1699.32
995.972	1697.96
996.268	1685.31
996.565	1671.3
996.861	1681.02
997.157	1661.13
997.453	1676.72
997.749	1647.12
998.044	1646.67
998.34	1611.64
998.636	1625.65
998.932	1628.59
999.227	1614.35
999.523	1620.68
999.818	1582.71
1000.114	1554.46
1000.409	1552.43
1000.704	1544.97
1001	1580.23
1001.295	1528.02
1001.59	1537.52
1001.885	1538.42
1002.18	1518.99
1002.475	1530.96
1002.77	1507.69
1003.065	1496.84
1003.359	1507.46
1003.654	1506.1
1003.949	1484.64
1004.243	1493.68
1004.538	1477.4
1004.832	1458.87
1005.127	1450.96
1005.421	1454.35
1005.715	1422.72
1006.009	1431.76
1006.304	1444.19
1006.598	1391.31
1006.892	1413.68
1007.186	1395.37
1007.48	1388.37
1007.773	1388.82
1008.067	1389.5
1008.361	1397.63
1008.655	1364.87
1008.948	1352.89
1009.242	1311.53
1009.535	1337.3
1009.829	1338.65
1010.122	1328.03
1010.415	1335.94
1010.708	1328.93
1011.001	1316.28
1011.295	1295.71
1011.588	1316.28
1011.881	1301.59
1012.173	1276.28
1012.466	1282.83
1012.759	1262.95
1013.052	1267.47
1013.344	1235.15
1013.637	1247.81
1013.93	1234.47
1014.222	1235.15
1014.514	1247.35
1014.807	1219.11
1015.099	1203.97
1015.391	1216.62
1015.683	1196.06
1015.976	1180.46
1016.268	1170.75
1016.56	1207.36
1016.851	1170.52
1017.143	1161.71
1017.435	1163.29
1017.727	1150.63
1018.018	1150.63
1018.31	1154.02
1018.602	1141.59
1018.893	1120.35
1019.185	1121.48
1019.476	1119.22
1019.767	1097.53
1020.058	1082.61
1020.35	1082.39
1020.641	1090.07
1020.932	1087.36
1021.223	1073.35
1021.514	1062.5
1021.804	1073.35
1022.095	1043.97
1022.386	1026.34
1022.677	1061.37
1022.967	1030.86
1023.258	1040.35
1023.548	1025.89
1023.839	1042.84
1024.129	1011.88
1024.419	1002.61
1024.709	1027.47
1025	1026.8
1025.29	991.99
1025.58	994.25
1025.87	973.69
1026.16	976.4
1026.449	986.12
1026.739	958.32
1027.029	963.75
1027.319	942.96
1027.608	982.05
1027.898	952.67
1028.187	949.96
1028.477	926.46
1028.766	941.37
1029.055	902.73
1029.344	919.68
1029.634	883.97
1029.923	891.88
1030.212	877.87
1030.501	903.41
1030.79	885.1
1031.078	886.69
1031.367	874.93
1031.656	865.67
1031.945	872
1032.233	854.37
1032.522	862.51
1032.81	873.58
1033.099	855.5
1033.387	855.5
1033.675	848.95
1033.963	829.06
1034.251	815.95
1034.54	841.72
1034.828	798.1
1035.116	775.95
1035.403	802.39
1035.691	804.43
1035.979	807.14
1036.267	777.76
1036.554	791.55
1036.842	773.69
1037.129	788.61
1037.417	797.42
1037.704	762.4
1037.992	770.53
1038.279	763.07
1038.566	783.86
1038.853	783.86
1039.14	783.86
