Data from plate_ceramic_FLMS001491_022.txt Node
Date: Tue Feb 07 11:16:31 GMT 2017
User: dcchb
Spectrometer: FLMS00149
Trigger mode: 0
Integration Time (sec): 2.000000E-2
Scans to average: 10
Electric dark correction enabled: true
Nonlinearity correction enabled: false
Boxcar width: 0
XAxis mode: Wavelengths
Number of Pixels in Spectrum: 2048
>>>>>Begin Spectral Data<<<<<
341.393	-5.16
341.776	-5.16
342.16	-5.16
342.543	-48.77
342.927	-84.48
343.31	-73.63
343.693	-73.85
344.077	-80.63
344.46	-61.42
344.843	-46.51
345.226	-48.32
345.61	-27.08
345.993	-5.38
346.376	-1.09
346.759	14.73
347.142	20.83
347.525	34.17
347.908	51.57
348.291	72.13
348.674	109.19
349.057	115.29
349.44	129.76
349.823	147.61
350.206	165.46
350.588	200.04
350.971	233.03
351.354	231.67
351.737	252.69
352.119	254.72
352.502	283.2
352.884	273.48
353.267	285.01
353.65	317.1
354.032	321.84
354.414	310.09
354.797	338.79
355.179	335.63
355.562	330.43
355.944	318.68
356.326	357.32
356.709	333.82
357.091	354.84
357.473	353.93
357.855	358.23
358.238	347.15
358.62	353.93
359.002	346.47
359.384	341.28
359.766	343.31
360.148	344.21
360.53	348.51
360.912	335.85
361.294	350.32
361.676	354.38
362.057	338.11
362.439	341.73
362.821	351.9
363.203	331.33
363.584	351.45
363.966	340.37
364.348	335.17
364.729	353.03
365.111	311.67
365.493	348.51
365.874	350.99
366.256	334.95
366.637	320.49
367.019	339.47
367.4	358.45
367.781	346.25
368.163	336.53
368.544	362.52
368.925	340.82
369.306	338.34
369.688	366.36
370.069	348.51
370.45	358
370.831	331.79
371.212	328.85
371.593	337.66
371.974	341.05
372.355	343.76
372.736	363.2
373.117	336.08
373.498	367.72
373.879	343.31
374.26	355.06
374.641	350.99
375.021	343.54
375.402	359.58
375.783	364.78
376.163	378.34
376.544	374.04
376.925	382.41
377.305	376.98
377.686	396.42
378.066	385.79
378.447	398.22
378.827	372.69
379.208	380.37
379.588	378.56
379.968	395.96
380.349	391.67
380.729	378.79
381.109	381.28
381.489	397.77
381.87	405.91
382.25	395.96
382.63	384.21
383.01	379.24
383.39	402.07
383.77	395.96
384.15	401.16
384.53	441.61
384.91	427.6
385.29	439.35
385.67	404.1
386.049	407.49
386.429	430.54
386.809	459.69
387.189	443.19
387.568	426.7
387.948	422.4
388.328	434.16
388.707	452.91
389.087	460.82
389.466	463.53
389.846	469.41
390.225	462.4
390.605	477.09
390.984	460.6
391.363	466.02
391.743	474.83
392.122	470.09
392.501	475.74
392.881	492.46
393.26	502.18
393.639	502.4
394.018	513.02
394.397	510.09
394.776	514.15
395.155	532.46
395.534	514.38
395.913	530.88
396.292	533.14
396.671	523.42
397.05	542.85
397.429	547.82
397.808	526.13
398.186	563.42
398.565	557.99
398.944	536.07
399.323	583.3
399.701	562.74
400.08	566.36
400.458	587.15
400.837	575.62
401.215	604.32
401.594	591.21
401.972	585.34
402.351	586.92
402.729	587.82
403.107	622.4
403.486	624.66
403.864	610.87
404.242	634.15
404.62	629.86
404.999	634.6
405.377	652.91
405.755	652.45
406.133	652.68
406.511	685.9
406.889	674.6
407.267	683.87
407.645	686.58
408.023	683.19
408.401	692.45
408.779	695.84
409.156	694.94
409.534	715.5
409.912	734.94
410.29	746.92
410.667	745.11
411.045	766.35
411.422	771.55
411.8	754.15
412.178	787.82
412.555	798.67
412.933	791.66
413.31	797.99
413.687	804.77
414.065	828.5
414.442	847.48
414.819	839.79
415.197	849.74
415.574	853.81
415.951	878.89
416.328	893.13
416.705	891.77
417.082	880.7
417.46	902.62
417.837	922.96
418.214	934.48
418.591	951.88
418.967	938.1
419.344	955.27
419.721	967.02
420.098	976.74
420.475	974.71
420.852	987.14
421.228	995.27
421.605	990.07
421.982	993.69
422.358	1026.68
422.735	1051.99
423.111	1042.5
423.488	1059.9
423.864	1071.65
424.241	1052.9
424.617	1062.16
424.994	1114.59
425.37	1104.19
425.746	1112.33
426.123	1147.13
426.499	1134.48
426.875	1137.19
427.251	1167.7
427.627	1202.27
428.003	1202.04
428.379	1211.54
428.756	1204.08
429.132	1236.39
429.507	1250.18
429.883	1248.37
430.259	1293.79
430.635	1269.39
431.011	1334.24
431.387	1321.14
431.763	1357.52
432.138	1392.32
432.514	1398.42
432.89	1377.63
433.265	1429.61
433.641	1465.54
434.016	1440.91
434.392	1454.47
434.767	1466.22
435.143	1482.94
435.518	1492.21
435.894	1518.65
436.269	1553.22
436.644	1565.65
437.02	1598.19
437.395	1601.36
437.77	1595.71
438.145	1621.24
438.52	1643.39
438.895	1651.3
439.271	1651.98
439.646	1705.99
440.021	1708.02
440.395	1680.68
440.77	1685.42
441.145	1715.03
441.52	1771.97
441.895	1773.33
442.27	1738.3
442.645	1799.32
443.019	1800.9
443.394	1818.75
443.769	1826.66
444.143	1807.45
444.518	1874.57
444.892	1861.46
445.267	1850.39
445.641	1879.54
446.016	1876.38
446.39	1882.48
446.764	1914.12
447.139	1977.84
447.513	1960.22
447.887	1942.82
448.262	1986.66
448.636	1971.29
449.01	2001.12
449.384	2010.16
449.758	2013.55
450.132	2057.16
450.506	2104.17
450.88	2059.42
451.254	2065.07
451.628	2079.54
452.002	2142.58
452.376	2179.19
452.75	2201.34
453.123	2221.45
453.497	2217.39
453.871	2258.51
454.244	2276.14
454.618	2330.38
454.992	2348.68
455.365	2381.22
455.739	2412.18
456.112	2470.26
456.486	2433.65
456.859	2497.83
457.232	2471.84
457.606	2493.99
457.979	2505.06
458.352	2634.1
458.725	2630.03
459.099	2651.95
459.472	2723.81
459.845	2752.29
460.218	2734.89
460.591	2734.21
460.964	2775.79
461.337	2872.96
461.71	2903.69
462.083	2928.1
462.456	2934.2
462.829	2954.09
463.201	3006.29
463.574	3023.92
463.947	3089.68
464.32	3140.75
464.692	3171.48
465.065	3161.32
465.438	3211.48
465.81	3262.56
466.183	3299.84
466.555	3372.61
466.928	3387.98
467.3	3417.35
467.672	3467.3
468.045	3567.18
468.417	3562.21
468.789	3577.35
469.161	3621.64
469.534	3730.79
469.906	3764.46
470.278	3846.27
470.65	3851.01
471.022	3907.51
471.394	3949.77
471.766	4015.98
472.138	4078.13
472.51	4150.22
472.882	4210.33
473.253	4286.71
473.625	4302.98
473.997	4414.16
474.369	4432.24
474.74	4533.48
475.112	4578.23
475.484	4620.03
475.855	4700.71
476.227	4785.23
476.598	4931.66
476.97	4956.07
477.341	5026.58
477.713	5117.2
478.084	5165.56
478.455	5332.33
478.827	5318.32
479.198	5484.87
479.569	5490.52
479.94	5659.55
480.311	5704.53
480.682	5881.7
481.053	5964.18
481.424	6068.36
481.795	6172.54
482.166	6234.45
482.537	6286.88
482.908	6464.96
483.279	6455.47
483.65	6648.68
484.021	6761.9
484.391	6795.8
484.762	6891.84
485.133	6935.91
485.503	7094.09
485.874	7235.78
486.244	7301.77
486.615	7365.05
486.985	7528.88
487.356	7654.3
487.726	7701.08
488.097	7919.38
488.467	7916.22
488.837	8109.43
489.207	8153.5
489.578	8276.43
489.948	8358.01
490.318	8539.93
490.688	8554.17
491.058	8682.3
491.428	8807.49
491.798	8865.57
492.168	9050.2
492.538	9099.01
492.908	9193.02
493.278	9331.32
493.648	9422.17
494.017	9530.64
494.387	9589.62
494.757	9613.57
495.126	9714.36
495.496	9846.11
495.866	9870.74
496.235	10006.11
496.605	10117.06
496.974	10216.95
497.344	10303.95
497.713	10371.75
498.082	10391.63
498.452	10505.53
498.821	10563.15
499.19	10624.62
499.559	10806.54
499.928	10838.63
500.298	10873.88
500.667	11039.3
501.036	11004.27
501.405	11158.17
501.774	11143.25
502.143	11189.8
502.512	11305.28
502.88	11538.5
503.249	11487.88
503.618	11581.43
503.987	11525.62
504.356	11721.54
504.724	11786.63
505.093	11836.57
505.462	11954.53
505.83	12087.63
506.199	12077.69
506.567	12279.04
506.936	12314.97
507.304	12342.09
507.672	12524.91
508.041	12504.35
508.409	12687.39
508.777	12769.42
509.145	12811.23
509.514	12858.46
509.882	12978.23
510.25	13086.93
510.618	13217.1
510.986	13220.26
511.354	13384.32
511.722	13520.14
512.09	13613.92
512.458	13522.4
512.826	13764.65
513.193	13810.75
513.561	13859.79
513.929	13976.17
514.297	14143.17
514.664	14221.59
515.032	14351.76
515.4	14425.43
515.767	14457.06
516.135	14644.18
516.502	14584.07
516.869	14773.89
517.237	14821.8
517.604	14892.08
517.972	15116.03
518.339	15265.18
518.706	15273.99
519.073	15350.83
519.44	15480.31
519.808	15724.6
520.175	15676.01
520.542	15876.91
520.909	15990.13
521.276	16111.94
521.643	16197.81
522.009	16290.69
522.376	16489.33
522.743	16515.99
523.11	16785.59
523.477	16918.24
523.843	17090.21
524.21	17231.23
524.577	17343.32
524.943	17335.18
525.31	17491.56
525.676	17645.45
526.043	17801.16
526.409	17892.45
526.776	17996.41
527.142	18098.78
527.508	18294.7
527.874	18508.03
528.241	18498.31
528.607	18529.95
528.973	18847.23
529.339	18797.97
529.705	19004.74
530.071	19135.81
530.437	19188.69
530.803	19406.09
531.169	19572.41
531.535	19528.57
531.901	19668.45
532.267	19766.3
532.632	19803.14
532.998	19854.89
533.364	20054.66
533.73	20157.48
534.095	20289.23
534.461	20357.93
534.826	20481.99
535.192	20695.77
535.557	20751.14
535.923	20729.44
536.288	20795.88
536.653	21041.52
537.019	20965.14
537.384	21035.42
537.749	21197
538.114	21239.48
538.479	21166.72
538.845	21356.77
539.21	21427.73
539.575	21452.59
539.94	21595.63
540.305	21736.42
540.67	21713.6
541.034	21888.96
541.399	21973.7
541.764	22086.24
542.129	22101.61
542.494	22201.04
542.858	22306.8
543.223	22330.53
543.587	22529.17
543.952	22497.3
544.316	22511.31
544.681	22684.87
545.045	22747.69
545.41	22877.63
545.774	22882.6
546.138	23052.09
546.503	23151.75
546.867	23159.43
547.231	23261.13
547.595	23211.41
547.959	23446.88
548.324	23477.39
548.688	23526.43
549.052	23513.1
549.416	23746.31
549.779	23874.89
550.143	23987.89
550.507	24064.04
550.871	24100.2
551.235	24198.5
551.599	24308.1
551.962	24330.48
552.326	24417.03
552.689	24621.09
553.053	24558.04
553.417	24636.46
553.78	24917.13
554.143	24860.18
554.507	25091.13
554.87	25131.36
555.234	25381.75
555.597	25198.02
555.96	25370.22
556.323	25536.32
556.686	25512.14
557.05	25762.3
557.413	25779.25
557.776	25978.12
558.139	26164.55
558.502	26136.3
558.865	26255.4
559.228	26459.01
559.59	26628.04
559.953	26562.28
560.316	26763.41
560.679	26901.26
561.041	27040.01
561.404	27174.7
561.767	27343.05
562.129	27284.97
562.492	27651.74
562.854	27545.08
563.217	27743.49
563.579	27858.97
563.941	27968.8
564.304	28117.72
564.666	28371.27
565.028	28424.83
565.39	28439.29
565.753	28653.3
566.115	28693.98
566.477	28912.28
566.839	28953.18
567.201	29114.53
567.563	29092.16
567.925	29381.87
568.287	29435.43
568.648	29476.1
569.01	29639.49
569.372	29877.67
569.734	29873.38
570.095	30050.33
570.457	30173.94
570.819	30278.12
571.18	30276.08
571.542	30496.64
571.903	30507.04
572.265	30560.14
572.626	30712.23
572.987	30761.27
573.349	30921.94
573.71	30936.63
574.071	31123.97
574.432	31059.34
574.794	31396.5
575.155	31444.41
575.516	31332.1
575.877	31386.11
576.238	31554.92
576.599	31619.32
576.96	31684.63
577.32	31636.5
577.681	31782.26
578.042	31967.11
578.403	31911.75
578.763	32016.15
579.124	32042.82
579.485	32228.8
579.845	32273.32
580.206	32291.85
580.566	32236.93
580.927	32403.03
581.287	32249.36
581.648	32285.52
582.008	32408.46
582.368	32424.5
582.728	32448.23
583.089	32461.11
583.449	32424.73
583.809	32423.6
584.169	32526.42
584.529	32485.29
584.889	32693.65
585.249	32618.62
585.609	32615.91
585.969	32810.48
586.329	32671.73
586.688	32741.1
587.048	32823.36
587.408	32756.47
587.768	32641.44
588.127	32616.13
588.487	32670.82
588.846	32844.38
589.206	32705.17
589.565	32638.05
589.925	32825.39
590.284	32643.03
590.643	32886.41
591.003	32771.84
591.362	32974.32
591.721	32801.67
592.08	32901.1
592.44	33080.75
592.799	33073.3
593.158	32920.76
593.517	32941.55
593.876	33047.08
594.235	33026.74
594.593	32958.72
594.952	33043.92
595.311	32981.1
595.67	33036.24
596.029	33160.53
596.387	33292.5
596.746	33134.99
597.104	33106.52
597.463	33130.7
597.822	33262.44
598.18	33234.2
598.538	33181.32
598.897	33425.38
599.255	33232.61
599.613	33709.21
599.972	33469.44
600.33	33539.73
600.688	33412.95
601.046	33577.69
601.404	33701.3
601.762	33594.64
602.12	33654.07
602.478	33699.04
602.836	33786.72
603.194	33530.91
603.552	33678.48
603.91	33574.3
604.268	33822.43
604.625	33641.42
604.983	33819.04
605.341	33617.24
605.698	33959.38
606.056	33969.09
606.413	33965.7
606.771	33988.08
607.128	34203.21
607.485	33912.82
607.843	34081.63
608.2	34115.08
608.557	34350.1
608.914	34120.5
609.272	34201.85
609.629	34286.15
609.986	34457.89
610.343	34316.88
610.7	34584.9
611.057	34545.35
611.414	34431.91
611.771	34521.17
612.127	34610.66
612.484	34771.11
612.841	34669.64
613.198	34577.66
613.554	34763.2
613.911	34866.92
614.267	34900.82
614.624	34804.78
614.98	34900.37
615.337	35060.36
615.693	34989.4
616.05	34988.95
616.406	35141.04
616.762	35021.04
617.118	35083.87
617.475	35101.72
617.831	35178.1
618.187	35268.04
618.543	35273.69
618.899	35397.3
619.255	35271.21
619.611	35162.96
619.967	35407.7
620.323	35493.57
620.678	35446.57
621.034	35313.01
621.39	35269.4
621.746	35253.13
622.101	35535.38
622.457	35226.23
622.812	35369.96
623.168	35408.38
623.523	35331.32
623.879	35482.95
624.234	35295.16
624.589	35373.58
624.945	35504.65
625.3	35454.48
625.655	35471.43
626.01	35507.13
626.365	35534.7
626.72	35506.45
627.075	35469.84
627.43	35445.89
627.785	35280.47
628.14	35432.33
628.495	35604.76
628.85	35380.13
629.205	35279.11
629.559	35480.69
629.914	35266.46
630.269	35185.33
630.623	35137.42
630.978	35134.03
631.332	35232.79
631.687	35214.03
632.041	35099.46
632.396	35210.64
632.75	35154.82
633.104	35099.91
633.459	35055.62
633.813	34848.62
634.167	34780.37
634.521	34909.63
634.875	34796.19
635.229	34847.26
635.583	34683.88
635.937	34672.13
636.291	34516.87
636.645	34754.61
636.999	34606.59
637.352	34704.89
637.706	34494.28
638.06	34648.85
638.413	34463.54
638.767	34321.85
639.121	34536.99
639.474	34304.45
639.828	34389.42
640.181	34243.66
640.534	34324.11
640.888	34113.04
641.241	34100.84
641.594	33994.85
641.947	34208.86
642.301	34057.45
642.654	34024.46
643.007	33880.73
643.36	33975.87
643.713	33952.37
644.066	33866.72
644.419	33664.47
644.771	33463.12
645.124	33133.18
645.477	33194.65
645.83	32868.1
646.182	32712.4
646.535	32757.37
646.888	32915.56
647.24	32638.28
647.593	32855
647.945	32709.69
648.298	32518.74
648.65	32465.86
649.002	32334.56
649.355	32611.39
649.707	32615.23
650.059	32442.13
650.411	32985.16
650.763	32978.61
651.115	33272.61
651.467	33132.96
651.819	33091.15
652.171	33073.07
652.523	32886.18
652.875	32960.98
653.227	32806.19
653.578	33010.93
653.93	32970.93
654.282	32855.45
654.633	32758.5
654.985	32884.15
655.337	32878.27
655.688	32812.96
656.039	32892.51
656.391	32609.81
656.742	32690.26
657.094	32784.72
657.445	32735.23
657.796	32724.61
658.147	32702.01
658.498	32666.3
658.849	32699.97
659.2	32699.75
659.551	32576.36
659.902	32664.72
660.253	32528.9
660.604	32682.57
660.955	32355.12
661.306	32339.98
661.656	32444.39
662.007	32411.85
662.358	32490.26
662.708	32386.99
663.059	32384.5
663.409	32262.47
663.76	32478.51
664.11	32368
664.461	32306.31
664.811	32344.73
665.161	32241.23
665.511	32113.55
665.862	32189.93
666.212	32374.11
666.562	32187.44
666.912	32141.57
667.262	32149.71
667.612	32142.02
667.962	32297.05
668.312	32017.28
668.662	32255.92
669.011	32123.49
669.361	32000.1
669.711	31953.78
670.06	31947
670.41	32040.33
670.76	31884.63
671.109	32099.09
671.459	32085.3
671.808	31968.24
672.157	31991.52
672.507	31778.64
672.856	31762.15
673.205	31868.81
673.554	31858.41
673.904	31828.81
674.253	32118.29
674.602	31809.38
674.951	31412.78
675.3	31258.2
675.649	31935.47
675.998	31778.19
676.346	31747.91
676.695	31745.65
677.044	31564.41
677.393	31635.59
677.741	31672.2
678.09	31629.95
678.438	31521.47
678.787	31528.93
679.135	31533.9
679.484	31355.6
679.832	31304.08
680.181	31303.4
680.529	31324.87
680.877	31189.5
681.225	31144.31
681.573	31370.74
681.922	31068.15
682.27	31109.51
682.618	31097.76
682.966	30921.26
683.314	31049.62
683.661	30949.51
684.009	30751.55
684.357	30619.35
684.705	30707.94
685.053	30802.62
685.4	30613.7
685.748	30514.04
686.095	30394.05
686.443	30387.49
686.79	30272.47
687.138	30365.8
687.485	30411.67
687.832	30260.04
688.18	30244.67
688.527	30144.11
688.874	29992.93
689.221	30002.64
689.568	29833.16
689.915	29793.61
690.262	29823.89
690.609	29748.86
690.956	29685.82
691.303	29687.4
691.65	29467.97
691.997	29474.52
692.344	29425.03
692.69	29428.42
693.037	29362.66
693.383	29201.08
693.73	29324.02
694.077	29101.88
694.423	29164.25
694.769	29017.36
695.116	29008.32
695.462	28785.95
695.808	28759.06
696.155	28769.91
696.501	28564.72
696.847	28380.99
697.193	28279.98
697.539	28331.95
697.885	28147.32
698.231	28073.65
698.577	28029.36
698.923	28015.58
699.269	27956.6
699.614	27846.32
699.96	27787.56
700.306	27815.13
700.651	27779.42
700.997	27569.71
701.342	27467.79
701.688	27461.02
702.033	27436.84
702.379	27378.98
702.724	27174.02
703.069	27308.25
703.415	27030.52
703.76	27020.12
704.105	26957.75
704.45	26987.58
704.795	26764.08
705.14	26625.33
705.485	26741.49
705.83	26533.81
706.175	26669.85
706.52	26452.45
706.865	26449.06
707.209	26438.67
707.554	26289.29
707.899	26424.66
708.243	26255.17
708.588	26185.12
708.932	26061.05
709.277	25885.24
709.621	26068.51
709.966	25913.71
710.31	25879.14
710.654	25618.58
710.998	25806.82
711.342	25723.89
711.687	25611.8
712.031	25503.1
712.375	25432.37
712.719	25525.92
713.063	25454.51
713.407	25509.2
713.75	25359.6
714.094	25219.94
714.438	25200.51
714.782	25160.28
715.125	25024.02
715.469	25103.56
715.812	24974.75
716.156	24951.02
716.499	24874.64
716.843	24850.24
717.186	24784.02
717.53	24889.33
717.873	24843
718.216	24715.1
718.559	24562.79
718.902	24431.72
719.246	24524.6
719.589	24388.1
719.932	24275.56
720.275	24307.65
720.617	24369.8
720.96	24233.53
721.303	24206.86
721.646	24212.29
721.989	24082.12
722.331	24075.34
722.674	24029.02
723.016	24023.14
723.359	23986.08
723.701	24009.13
724.044	23782.69
724.386	23749.25
724.729	23972.97
725.071	23678.29
725.413	23782.47
725.755	23677.84
726.097	23662.92
726.439	23504.96
726.782	23463.61
727.124	23680.55
727.465	23431.06
727.807	23502.7
728.149	23323.95
728.491	23352.2
728.833	23471.52
729.175	23213.22
729.516	23222.03
729.858	23198.53
730.199	23248.47
730.541	23114.24
730.882	23003.05
731.224	23210.28
731.565	23015.03
731.906	23042.15
732.248	23076.95
732.589	22921.02
732.93	22730.07
733.271	22849.16
733.612	22857.75
733.953	22886.67
734.294	22770.07
734.635	22728.94
734.976	22739.11
735.317	22599
735.658	22582.5
735.999	22608.04
736.339	22499.34
736.68	22562.61
737.021	22453.24
737.361	22326.23
737.702	22432.45
738.042	22413.24
738.383	22381.6
738.723	22420.02
739.063	22219.35
739.404	22333.69
739.744	22207.37
740.084	22102.96
740.424	22208.95
740.764	22113.81
741.104	22146.8
741.444	21966.7
741.784	22065.9
742.124	22128.73
742.464	21911.1
742.804	21967.6
743.143	21877.89
743.483	21891.44
743.823	21720.38
744.162	21666.37
744.502	21765.12
744.841	21687.16
745.181	21688.06
745.52	21575.29
745.86	21570.32
746.199	21582.98
746.538	21469.31
746.877	21518.57
747.216	21583.88
747.556	21418.91
747.895	21397.9
748.234	21370.78
748.573	21235.19
748.911	21257.34
749.25	21146.15
749.589	21112.71
749.928	21135.76
750.267	21098.47
750.605	21104.57
750.944	20973.28
751.283	21006.5
751.621	20936.89
751.96	20905.03
752.298	20806.05
752.636	20805.37
752.975	20752.04
753.313	20595.89
753.651	20707.97
753.989	20585.94
754.327	20635.21
754.666	20439.73
755.004	20439.5
755.342	20465.04
755.679	20324.25
756.017	20369.9
756.355	20296.01
756.693	20209.68
757.031	20238.61
757.368	20038.84
757.706	20081.55
758.044	19990.93
758.381	19998.84
758.719	19956.35
759.056	19986.41
759.394	19907.32
759.731	19779.64
760.068	19698.06
760.405	19663.48
760.743	19527.21
761.08	19597.95
761.417	19516.14
761.754	19446.76
762.091	19494.9
762.428	19393.43
762.765	19268.46
763.102	19202.48
763.438	19155.24
763.775	19110.05
764.112	19164.06
764.449	19026.66
764.785	18931.52
765.122	18838.19
765.458	18761.13
765.795	18769.94
766.131	18804.07
766.467	18656.27
766.804	18475.26
767.14	18527.92
767.476	18492.66
767.812	18415.15
768.148	18329.28
768.485	18253.35
768.821	18152.33
769.157	18163.63
769.492	18047.03
769.828	18087.02
770.164	17821.27
770.5	17823.3
770.836	17863.98
771.171	17757.09
771.507	17722.97
771.842	17617.43
772.178	17595.51
772.513	17565.23
772.849	17435.74
773.184	17407.27
773.519	17432.13
773.855	17229.42
774.19	17260.61
774.525	17148.07
774.86	17119.14
775.195	16988.97
775.53	16904.23
775.865	16826.04
776.2	16712.6
776.535	16711.69
776.87	16704.91
777.205	16598.7
777.539	16558.93
777.874	16524.35
778.209	16357.8
778.543	16355.32
778.878	16280.74
779.212	16309.44
779.547	16219.5
779.881	16195.32
780.215	15959.4
780.55	16122.78
780.884	15956.01
781.218	15905.39
781.552	15872.39
781.886	15839.4
782.22	15687.31
782.554	15715.34
782.888	15631.5
783.222	15502.69
783.556	15513.53
783.889	15410.26
784.223	15295.01
784.557	15301.33
784.89	15316.7
785.224	15169.14
785.557	15062.7
785.891	15107.67
786.224	15019.76
786.558	15011.17
786.891	14877.62
787.224	14857.5
787.557	14803.49
787.891	14796.49
788.224	14823.83
788.557	14718.53
788.89	14573.22
789.223	14649.15
789.556	14577.96
789.888	14435.6
790.221	14424.97
790.554	14253.9
790.887	14259.33
791.219	14271.53
791.552	14271.53
791.884	14160.35
792.217	14109.05
792.549	14032.44
792.882	13948.15
793.214	13895.04
793.546	13940.24
793.879	13817.98
794.211	13702.73
794.543	13759.23
794.875	13717.42
795.207	13781.6
795.539	13692.11
795.871	13633.58
796.203	13504.32
796.535	13529.4
796.867	13454.15
797.198	13347.26
797.53	13339.35
797.862	13299.13
798.193	13344.78
798.525	13226.59
798.856	13198.34
799.188	13103.88
799.519	13109.08
799.85	12953.37
800.182	13047.16
800.513	13006.48
800.844	12884.68
801.175	12862.98
801.506	12942.3
801.837	12836.09
802.168	12756.09
802.499	12754.74
802.83	12665.25
803.161	12697.34
803.491	12651.69
803.822	12522.2
804.153	12505.02
804.483	12455.99
804.814	12324.46
805.145	12383.45
805.475	12411.24
805.805	12309.55
806.136	12332.37
806.466	12284.01
806.796	12218.03
807.126	12128.99
807.457	12156.33
807.787	12138.48
808.117	12061.65
808.447	12037.92
808.777	11975.77
809.107	11961.54
809.436	12023.91
809.766	11988.43
810.096	11889.9
810.426	11854.65
810.755	11808.09
811.085	11811.94
811.414	11742.33
811.744	11740.3
812.073	11589.57
812.403	11628.66
812.732	11623.69
813.061	11592.96
813.39	11529.23
813.719	11489.23
814.049	11587.76
814.378	11463.24
814.707	11402.45
815.036	11333.08
815.365	11409.91
815.693	11240.88
816.022	11249.01
816.351	11273.64
816.68	11089.92
817.008	11226.87
817.337	11103.25
817.665	11101.9
817.994	11202.01
818.322	11165.17
818.651	11060.77
818.979	10982.35
819.307	11094.89
819.636	10961.34
819.964	10932.64
820.292	10961.34
820.62	10956.14
820.948	10941.45
821.276	10976.25
821.604	10869.36
821.932	10947.55
822.259	10957.27
822.587	10875.69
822.915	10834.79
823.243	10849.93
823.57	10882.69
823.898	10848.57
824.225	10873.88
824.553	10861.23
824.88	10810.38
825.207	10838.63
825.535	10776.71
825.862	10849.47
826.189	10783.04
826.516	10889.47
826.843	10826.88
827.17	10867.55
827.497	10870.04
827.824	10854.67
828.151	10846.08
828.478	10812.41
828.805	10844.95
829.131	10795.01
829.458	10808.8
829.785	10708.01
830.111	10745.3
830.438	10771.06
830.764	10737.16
831.09	10732.19
831.417	10754.56
831.743	10705.07
832.069	10729.48
832.395	10709.82
832.722	10683.6
833.048	10709.59
833.374	10748.23
833.7	10678.86
834.026	10673.21
834.351	10709.37
834.677	10656.49
835.003	10632.31
835.329	10651.74
835.654	10632.76
835.98	10578.52
836.306	10609.93
836.631	10519.54
836.956	10584.17
837.282	10534.91
837.607	10496.72
837.932	10539.2
838.258	10523.61
838.583	10485.42
838.908	10440.45
839.233	10482.03
839.558	10479.31
839.883	10352.09
840.208	10291.3
840.533	10355.48
840.858	10297.4
841.182	10397.74
841.507	10246.55
841.832	10153.22
842.156	10227.34
842.481	10259.43
842.805	10170.85
843.13	10151.19
843.454	10100.79
843.778	10114.35
844.103	10042.49
844.427	10031.87
844.751	10054.24
845.075	10058.31
845.399	10029.16
845.723	9931.53
846.047	9947.58
846.371	9869.61
846.695	9814.25
847.019	9776.73
847.343	9778.32
847.666	9708.71
847.99	9689.28
848.313	9681.82
848.637	9614.25
848.96	9526.12
849.284	9611.99
849.607	9501.94
849.931	9452.45
850.254	9413.35
850.577	9330.42
850.9	9274.37
851.223	9256.52
851.546	9233.47
851.869	9142.85
852.192	9206.13
852.515	9158.67
852.838	9130.42
853.161	9089.52
853.483	9016.3
853.806	9041.39
854.129	8986.02
854.451	9032.12
854.774	8938.79
855.096	8818.57
855.419	8862.86
855.741	8828.28
856.063	8823.77
856.385	8776.08
856.708	8698.34
857.03	8667.39
857.352	8688.85
857.674	8667.61
857.996	8684.11
858.318	8623.54
858.64	8551.46
858.961	8534.06
859.283	8525.24
859.605	8471.46
859.926	8498.58
860.248	8434.17
860.57	8455.41
860.891	8446.83
861.212	8367.28
861.534	8340.16
861.855	8372.25
862.176	8414.96
862.498	8325.47
862.819	8335.87
863.14	8326.83
863.461	8253.38
863.782	8267.17
864.103	8324.8
864.424	8235.31
864.745	8240.28
865.065	8247.06
865.386	8132.03
865.707	8152.6
866.027	8184.69
866.348	8132.48
866.668	8104.69
866.989	8107.17
867.309	8052.94
867.63	8087.29
867.95	8024.01
868.27	7944.69
868.59	8004.8
868.91	8017.46
869.23	7915.09
869.55	7985.14
869.87	7994.63
870.19	7920.29
870.51	7970.68
870.83	7975.88
871.15	7916.44
871.469	7895.43
871.789	7904.24
872.109	7895.88
872.428	7787.18
872.748	7838.03
873.067	7815.43
873.386	7871.93
873.706	7747.64
874.025	7678.26
874.344	7766.62
874.663	7669.22
874.982	7701.53
875.301	7683.68
875.62	7707.18
875.939	7654.3
876.258	7718.03
876.577	7688.65
876.896	7652.95
877.214	7640.29
877.533	7638.71
877.852	7569.79
878.17	7644.81
878.489	7564.82
878.807	7576.57
879.125	7571.14
879.444	7575.66
879.762	7541.31
880.08	7508.09
880.398	7476.23
880.716	7561.43
881.034	7412.95
881.352	7406.4
881.67	7418.38
881.988	7417.02
882.306	7432.84
882.624	7420.41
882.941	7346.06
883.259	7366.18
883.577	7320.08
883.894	7324.14
884.212	7292.96
884.529	7252.51
884.846	7281.66
885.164	7262.22
885.481	7257.93
885.798	7291.15
886.115	7139.29
886.432	7179.51
886.75	7136.13
887.067	7146.3
887.383	7147.88
887.7	7157.59
888.017	7089.8
888.334	7112.85
888.651	6998.05
888.967	7035.34
889.284	7003.93
889.6	6978.16
889.917	6947.2
890.233	6964.61
890.55	6916.92
890.866	6960.54
891.182	6913.31
891.498	6899.97
891.815	6917.37
892.131	6858.17
892.447	6815.68
892.763	6747.89
893.079	6774.1
893.395	6758.96
893.71	6714.89
894.026	6718.28
894.342	6713.09
894.657	6668.57
894.973	6726.65
895.289	6644.61
895.604	6640.77
895.92	6626.99
896.235	6515.58
896.55	6545.86
896.865	6544.5
897.181	6491.17
897.496	6445.75
897.811	6476.48
898.126	6441.23
898.441	6406.43
898.756	6422.7
899.071	6375.47
899.386	6360.33
899.7	6359.65
900.015	6290.95
900.33	6274.91
900.644	6227.68
900.959	6243.27
901.273	6198.07
901.588	6214.34
901.902	6187.22
902.216	6183.61
902.531	6128.92
902.845	6160.11
903.159	6081.01
903.473	6064.52
903.787	6038.98
904.101	6026.1
904.415	5970.28
904.729	5969.83
905.042	5940.9
905.356	5937.97
905.67	5939.32
905.984	5922.82
906.297	5867.01
906.611	5795.82
906.924	5828.14
907.237	5869.72
907.551	5812.32
907.864	5770.96
908.177	5775.71
908.491	5718.08
908.804	5659.55
909.117	5655.49
909.43	5609.39
909.743	5597.64
910.056	5583.17
910.368	5582.95
910.681	5514.02
910.994	5532.78
911.307	5526.45
911.619	5432.22
911.932	5495.72
912.244	5422.05
912.557	5397.19
912.869	5380.69
913.181	5342.27
913.494	5364.2
913.806	5269.28
914.118	5302.95
914.43	5296.85
914.742	5228.61
915.054	5203.52
915.366	5277.87
915.678	5174.37
915.99	5167.36
916.302	5127.82
916.613	5096.86
916.925	5126.69
917.236	5081.26
917.548	5092.79
917.859	5081.72
918.171	5033.13
918.482	5021.38
918.794	5034.03
919.105	4968.5
919.416	4895.51
919.727	4878.33
920.038	4876.07
920.349	4843.3
920.66	4872.46
920.971	4814.38
921.282	4794.94
921.593	4803.08
921.903	4783.19
922.214	4754.27
922.525	4729.41
922.835	4720.82
923.146	4722.18
923.456	4681.28
923.767	4686.47
924.077	4641.28
924.387	4639.47
924.697	4633.37
925.008	4605.8
925.318	4578
925.628	4564.22
925.938	4524.67
926.248	4450.32
926.558	4528.51
926.867	4502.75
927.177	4429.08
927.487	4457.33
927.796	4349.08
928.106	4419.81
928.416	4354.96
928.725	4334.84
929.034	4333.04
929.344	4337.1
929.653	4286.03
929.962	4258.91
930.271	4274.05
930.581	4251.23
930.89	4282.87
931.199	4209.88
931.508	4191.34
931.817	4216.65
932.125	4188.86
932.434	4128.3
932.743	4115.41
933.051	4116.32
933.36	4071.8
933.669	4116.77
933.977	4042.42
934.286	4054.4
934.594	4024.8
934.902	4000.62
935.21	3994.74
935.519	3978.47
935.827	3977.34
936.135	3932.82
936.443	3904.12
936.751	3875.19
937.059	3906.61
937.367	3858.02
937.674	3847.17
937.982	3796.1
938.29	3798.13
938.597	3773.28
938.905	3779.15
939.213	3766.05
939.52	3759.49
939.827	3813.05
940.135	3724.69
940.442	3717.91
940.749	3687.86
941.056	3708.65
941.363	3641.3
941.67	3653.51
941.977	3668.19
942.284	3646.27
942.591	3590.23
942.898	3590.91
943.205	3576.67
943.511	3542.1
943.818	3561.98
944.125	3539.84
944.431	3535.32
944.738	3496.22
945.044	3466.84
945.35	3442.44
945.657	3438.82
945.963	3406.96
946.269	3392.27
946.575	3440.4
946.881	3420.29
947.187	3392.5
947.493	3378.94
947.799	3359.73
948.105	3344.36
948.41	3363.57
948.716	3327.19
949.022	3320.63
949.327	3292.61
949.633	3245.61
949.938	3292.16
950.244	3245.38
950.549	3228.43
950.854	3208.32
951.16	3199.51
951.465	3165.38
951.77	3150.47
952.075	3086.74
952.38	3147.98
952.685	3148.21
952.99	3133.07
953.294	3083.58
953.599	3090.81
953.904	3075.89
954.209	3053.07
954.513	3080.19
954.818	3025.27
955.122	3005.16
955.426	2998.83
955.731	3004.94
956.035	2985.27
956.339	2971.04
956.643	2959.51
956.948	2926.75
957.252	2950.47
957.556	2938.5
957.86	2906.41
958.163	2885.16
958.467	2875
958.771	2847.2
959.075	2863.02
959.378	2868.67
959.682	2839.52
959.985	2835.45
960.289	2815.34
960.592	2753.19
960.896	2785.73
961.199	2741.44
961.502	2785.51
961.805	2771.95
962.108	2708.22
962.411	2722.68
962.714	2706.86
963.017	2663.7
963.32	2694.89
963.623	2679.52
963.926	2665.96
964.228	2656.92
964.531	2664.83
964.833	2644.27
965.136	2642.01
965.438	2618.73
965.741	2604.72
966.043	2583.93
966.345	2592.52
966.648	2580.77
966.95	2590.26
967.252	2586.19
967.554	2548.22
967.856	2549.81
968.158	2483.37
968.46	2475.68
968.761	2510.03
969.063	2488.56
969.365	2488.56
969.666	2441.33
969.968	2452.63
970.269	2454.44
970.571	2458.28
970.872	2440.2
971.174	2407.44
971.475	2366.08
971.776	2396.36
972.077	2404.05
972.378	2379.41
972.679	2358.17
972.98	2353.43
973.281	2346.65
973.582	2379.19
973.883	2367.89
974.183	2300.55
974.484	2313.88
974.785	2275.01
975.085	2284.95
975.386	2314.11
975.686	2275.46
975.986	2266.42
976.287	2244.96
976.587	2223.49
976.887	2225.29
977.187	2203.15
977.487	2174.22
977.787	2207.44
978.087	2165.41
978.387	2193.43
978.687	2173.32
978.987	2173.32
979.286	2143.49
979.586	2135.13
979.885	2163.38
980.185	2105.98
980.484	2114.79
980.784	2097.61
981.083	2103.72
981.382	2086.09
981.682	2089.25
981.981	2058.52
982.28	2073.21
982.579	2073.21
982.878	2046.54
983.177	2046.09
983.475	2030.72
983.774	2002.02
984.073	2018.52
984.372	2032.76
984.67	2007.45
984.969	1986.66
985.267	1978.07
985.566	1968.58
985.864	1961.35
986.162	1966.32
986.461	1932.65
986.759	1946.21
987.057	1923.61
987.355	1937.39
987.653	1883.83
987.951	1843.84
988.249	1900.33
988.547	1886.55
988.844	1893.55
989.142	1874.57
989.44	1864.17
989.737	1840.45
990.035	1834.57
990.332	1850.16
990.63	1835.93
990.927	1814.91
991.224	1812.88
991.521	1794.57
991.819	1814.68
992.116	1783.95
992.413	1769.04
992.71	1760.9
993.006	1734.91
993.303	1763.39
993.6	1747.12
993.897	1757.06
994.193	1716.16
994.49	1727.68
994.787	1697.62
995.083	1710.28
995.379	1717.51
995.676	1709.83
995.972	1695.59
996.268	1673.44
996.565	1665.31
996.861	1659.66
997.157	1669.6
997.453	1656.72
997.749	1653.56
998.044	1645.87
998.34	1616.05
998.636	1624.41
998.932	1572.66
999.227	1614.46
999.523	1597.51
999.818	1586.22
1000.114	1569.49
1000.409	1541.24
1000.704	1545.54
1001	1585.99
1001.295	1565.42
1001.59	1560.23
1001.885	1540.57
1002.18	1558.42
1002.475	1521.13
1002.77	1516.16
1003.065	1503.96
1003.359	1508.03
1003.654	1474.58
1003.949	1473.45
1004.243	1460.12
1004.538	1472.77
1004.832	1460.34
1005.127	1440.23
1005.421	1422.83
1005.715	1414.02
1006.009	1444.3
1006.304	1416.95
1006.598	1393.23
1006.892	1409.95
1007.186	1383.51
1007.48	1392.32
1007.773	1385.09
1008.067	1368.37
1008.361	1339.44
1008.655	1388.25
1008.948	1338.09
1009.242	1348.71
1009.535	1322.27
1009.829	1316.62
1010.122	1289.95
1010.415	1324.53
1010.708	1311.65
1011.001	1322.04
1011.295	1281.82
1011.588	1279.56
1011.881	1296.51
1012.173	1251.76
1012.466	1287.69
1012.759	1255.6
1013.052	1243.85
1013.344	1231.65
1013.637	1241.14
1013.93	1258.31
1014.222	1230.74
1014.514	1220.58
1014.807	1194.59
1015.099	1204.08
1015.391	1195.94
1015.683	1193.01
1015.976	1171.09
1016.268	1194.81
1016.56	1185.55
1016.851	1162.05
1017.143	1154.81
1017.435	1152.55
1017.727	1139.22
1018.018	1137.64
1018.31	1130.63
1018.602	1114.36
1018.893	1127.24
1019.185	1092.22
1019.476	1096.28
1019.767	1109.62
1020.058	1083.4
1020.35	1069.84
1020.641	1099.67
1020.932	1068.26
1021.223	1079.79
1021.514	1060.81
1021.804	1047.92
1022.095	1063.29
1022.386	1064.42
1022.677	1044.31
1022.967	1018.09
1023.258	1011.99
1023.548	1021.26
1023.839	1008.83
1024.129	1018.55
1024.419	1002.95
1024.709	1010.41
1025	969.96
1025.29	1004.76
1025.58	976.74
1025.87	994.82
1026.16	983.97
1026.449	966.57
1026.739	964.31
1027.029	950.07
1027.319	949.85
1027.608	918.89
1027.898	929.28
1028.187	916.18
1028.477	914.59
1028.766	910.3
1029.055	929.74
1029.344	926.57
1029.634	898.1
1029.923	901.71
1030.212	878.44
1030.501	909.62
1030.79	881.15
1031.078	878.44
1031.367	869.85
1031.656	852
1031.945	865.78
1032.233	847.03
1032.522	863.75
1032.81	841.38
1033.099	849.06
1033.387	839.34
1033.675	828.95
1033.963	827.37
1034.251	840.25
1034.54	816.07
1034.828	801.6
1035.116	800.47
1035.403	814.94
1035.691	801.6
1035.979	783.3
1036.267	787.82
1036.554	786.69
1036.842	774.94
1037.129	779.91
1037.417	772.45
1037.704	787.82
1037.992	753.69
1038.279	749.4
1038.566	757.76
1038.853	757.76
1039.14	757.76
