Data from plate_ceramic_FLMS001491_057.txt Node
Date: Tue Feb 07 11:16:59 GMT 2017
User: dcchb
Spectrometer: FLMS00149
Trigger mode: 0
Integration Time (sec): 2.000000E-2
Scans to average: 10
Electric dark correction enabled: true
Nonlinearity correction enabled: false
Boxcar width: 0
XAxis mode: Wavelengths
Number of Pixels in Spectrum: 2048
>>>>>Begin Spectral Data<<<<<
341.393	7.84
341.776	7.84
342.16	7.84
342.543	-56.11
342.927	-57.92
343.31	-54.08
343.693	-71.26
344.077	-54.98
344.46	-55.89
344.843	-42.33
345.226	-62.22
345.61	-24.7
345.993	-17.02
346.376	-5.72
346.759	-4.36
347.142	23.21
347.525	26.37
347.908	37.44
348.291	102.98
348.674	97.33
349.057	105.24
349.44	119.25
349.823	133.26
350.206	171.45
350.588	210.32
350.971	208.74
351.354	247.38
351.737	248.74
352.119	264.78
352.502	271.56
352.884	306.59
353.267	307.49
353.65	319.24
354.032	299.36
354.414	345.46
354.797	347.72
355.179	342.29
355.562	336.42
355.944	324.21
356.326	349.75
356.709	339.81
357.091	359.02
357.473	383.42
357.855	375.74
358.238	372.35
358.62	353.37
359.002	387.26
359.384	386.59
359.766	375.74
360.148	369.86
360.53	368.06
360.912	347.04
361.294	363.99
361.676	366.02
362.057	352.46
362.439	369.41
362.821	356.3
363.203	369.86
363.584	355.4
363.966	356.3
364.348	361.73
364.729	351.56
365.111	359.69
365.493	358.56
365.874	347.94
366.256	386.36
366.637	357.89
367.019	352.91
367.4	355.63
367.781	354.27
368.163	362.41
368.544	345.68
368.925	352.69
369.306	368.73
369.688	375.29
370.069	350.2
370.45	369.86
370.831	373.93
371.212	371.9
371.593	363.31
371.974	357.66
372.355	377.09
372.736	392.01
373.117	367.38
373.498	374.16
373.879	370.77
374.26	348.17
374.641	357.66
375.021	360.6
375.402	380.26
375.783	389.75
376.163	393.82
376.544	403.76
376.925	388.39
377.305	387.72
377.686	378
378.066	389.98
378.447	419.81
378.827	412.12
379.208	396.08
379.588	396.98
379.968	408.51
380.349	409.64
380.729	422.52
381.109	413.03
381.489	442.86
381.87	429.75
382.25	413.25
382.63	418.45
383.01	427.04
383.39	435.17
383.77	446.7
384.15	448.96
384.53	435.17
384.91	431.33
385.29	440.37
385.67	470.43
386.049	476.53
386.429	443.76
386.809	479.69
387.189	472.69
387.568	473.59
387.948	468.17
388.328	491.89
388.707	506.36
389.087	502.06
389.466	506.81
389.846	514.27
390.225	500.93
390.605	526.92
390.984	508.16
391.363	516.3
391.743	540.48
392.122	522.4
392.501	519.69
392.881	562.85
393.26	532.12
393.639	534.83
394.018	565.11
394.397	550.65
394.776	563.98
395.155	553.59
395.534	582.06
395.913	601.27
396.292	592
396.671	607.82
397.05	591.1
397.429	607.6
397.808	612.57
398.186	607.82
398.565	625.45
398.944	615.05
399.323	638.56
399.701	646.92
400.08	640.59
400.458	633.59
400.837	664.32
401.215	650.31
401.594	683.75
401.972	658.9
402.351	681.72
402.729	656.41
403.107	680.59
403.486	709.97
403.864	703.64
404.242	687.37
404.62	708.84
404.999	734.6
405.377	723.07
405.755	743.86
406.133	736.18
406.511	755.39
406.889	786.35
407.267	770.53
407.645	796.52
408.023	795.84
408.401	815.28
408.779	819.57
409.156	841.94
409.534	846.91
409.912	817.76
410.29	852.11
410.667	864.99
411.045	883.97
411.422	879.68
411.8	891.21
412.178	919.23
412.555	933.92
412.933	961.26
413.31	943.63
413.687	971.88
414.065	948.61
414.442	963.52
414.819	989.28
415.197	988.15
415.574	979.56
415.951	1032.44
416.328	1015.72
416.705	1009.85
417.082	1035.61
417.46	1048.26
417.837	1060.47
418.214	1053.69
418.591	1087.81
418.967	1086.68
419.344	1123.06
419.721	1125.1
420.098	1120.13
420.475	1166.68
420.852	1165.32
421.228	1181.59
421.605	1139.11
421.982	1174.81
422.358	1204.64
422.735	1198.77
423.111	1225.66
423.488	1241.93
423.864	1250.07
424.241	1266.79
424.617	1272.44
424.994	1286.9
425.37	1287.35
425.746	1286.9
426.123	1325.32
426.499	1338.88
426.875	1350.85
427.251	1412.55
427.627	1390.18
428.003	1432.66
428.379	1426.56
428.756	1448.03
429.132	1485.31
429.507	1492.55
429.883	1525.99
430.259	1537.74
430.635	1559.44
431.011	1581.13
431.387	1581.36
431.763	1644.18
432.138	1629.27
432.514	1631.75
432.89	1656.83
433.265	1733.67
433.641	1708.36
434.016	1724.4
434.392	1750.62
434.767	1813.89
435.143	1760.79
435.518	1800.33
435.894	1806.44
436.269	1841.46
436.644	1861.35
437.02	1878.07
437.395	1913.55
437.77	1955.81
438.145	1964.17
438.52	1992.87
438.895	1995.58
439.271	2015.92
439.646	2027.9
440.021	2045.53
440.395	2063.6
440.77	2069.93
441.145	2065.64
441.52	2130.72
441.895	2143.6
442.27	2156.71
442.645	2177.5
443.019	2172.98
443.394	2189.7
443.769	2216.59
444.143	2202.81
444.518	2237.61
444.892	2258.18
445.267	2239.42
445.641	2283.71
446.016	2269.02
446.39	2305.41
446.764	2313.99
447.139	2304.28
447.513	2380.88
447.887	2395.35
448.262	2385.4
448.636	2411.17
449.01	2450.26
449.384	2451.84
449.758	2433.76
450.132	2526.19
450.506	2504.27
450.88	2551.27
451.254	2542.01
451.628	2596.25
452.002	2613.65
452.376	2653.64
452.75	2666.75
453.123	2673.53
453.497	2701.55
453.871	2753.53
454.244	2778.39
454.618	2865.62
454.992	2849.8
455.365	2869.23
455.739	2946.07
456.112	2996.69
456.486	3029
456.859	3061.77
457.232	3121.66
457.606	3069.91
457.979	3100.19
458.352	3177.02
458.725	3238.49
459.099	3220.41
459.472	3299.96
459.845	3367.07
460.218	3422.44
460.591	3432.38
460.964	3419.73
461.337	3482.32
461.71	3567.07
462.083	3620.85
462.456	3644.81
462.829	3658.36
463.201	3737.01
463.574	3748.31
463.947	3791.69
464.32	3872.14
464.692	3910.34
465.065	3934.52
465.438	3991.69
465.81	4017.45
466.183	4089.54
466.555	4146.71
466.928	4217.45
467.3	4200.27
467.672	4298.8
468.045	4365.46
468.417	4355.75
468.789	4396.88
469.161	4482.98
469.534	4605.46
469.906	4654.95
470.278	4705.12
470.65	4758.22
471.022	4845.68
471.394	4911.21
471.766	4935.62
472.138	5019.23
472.51	5113.24
472.882	5242.73
473.253	5316.17
473.625	5298.77
473.997	5471.65
474.369	5534.47
474.74	5579.67
475.112	5682.04
475.484	5783.51
475.855	5849.27
476.227	5924.75
476.598	6144.63
476.97	6137.85
477.341	6256.26
477.713	6384.39
478.084	6443.83
478.455	6609.93
478.827	6668.91
479.198	6887.66
479.569	6908
479.94	7083.13
480.311	7184.15
480.682	7288.1
481.053	7415.78
481.424	7532.16
481.795	7585.72
482.166	7746.17
482.537	7854.86
482.908	8055.76
483.279	8125.37
483.65	8290.56
484.021	8464.34
484.391	8571.68
484.762	8650.32
485.133	8680.83
485.503	8821.39
485.874	9021.61
486.244	9126.24
486.615	9342.06
486.985	9429.29
487.356	9570.07
487.726	9676.06
488.097	9837.41
488.467	9890.97
488.837	10147.69
489.207	10159.44
489.578	10345.19
489.948	10471.07
490.318	10616.83
490.688	10646.66
491.058	10824.28
491.428	11044.84
491.798	11142.46
492.168	11331.83
492.538	11356.92
492.908	11512.17
493.278	11684.82
493.648	11719.4
494.017	11904.25
494.387	12009.56
494.757	12100.18
495.126	12266.5
495.496	12323
495.866	12402.09
496.235	12509.2
496.605	12646.6
496.974	12717.34
497.344	12867.39
497.713	12957.55
498.082	12955.07
498.452	13267.15
498.821	13259.47
499.19	13327.94
499.559	13458.78
499.928	13528.84
500.298	13590.76
500.667	13808.38
501.036	13867.36
501.405	13917.08
501.774	13996.17
502.143	14181.7
502.512	14272.55
502.88	14366.11
503.249	14390.51
503.618	14464.18
503.987	14591.86
504.356	14713.44
504.724	14802.93
505.093	14873.66
505.462	14974.9
505.83	15148.68
506.199	15152.3
506.567	15369.92
506.936	15336.7
507.304	15559.97
507.672	15660.76
508.041	15714.54
508.409	15883.35
508.777	15986.4
509.145	16082.9
509.514	16182.33
509.882	16322.66
510.25	16331.7
510.618	16505.71
510.986	16592.04
511.354	16883.78
511.722	17016.21
512.09	17089.65
512.458	17083.32
512.826	17258.68
513.193	17357.67
513.561	17585.91
513.929	17629.97
514.297	17864.77
514.664	17965.78
515.032	18129.85
515.4	18193.58
515.767	18253.01
516.135	18379.79
516.502	18298.66
516.869	18675.14
517.237	18774.8
517.604	18697.74
517.972	19030.16
518.339	19095.02
518.706	19247.33
519.073	19372.3
519.44	19388.8
519.808	19758.51
520.175	19769.58
520.542	19980.87
520.909	20179.74
521.276	20104.94
521.643	20258.15
522.009	20514.19
522.376	20615.66
522.743	20842.32
523.11	21134.97
523.477	21201.18
523.843	21348.52
524.21	21704.9
524.577	21748.96
524.943	21840.49
525.31	21925
525.676	22119.35
526.043	22215.39
526.409	22402.05
526.776	22704.19
527.142	22757.52
527.508	22946.9
527.874	23110.06
528.241	23304.4
528.607	23429.14
528.973	23692.64
529.339	23632.53
529.705	23862.8
530.071	24119.3
530.437	24305.96
530.803	24463.92
531.169	24714.76
531.535	24413.75
531.901	24662.11
532.267	24697.81
532.632	24866.39
532.998	25054.64
533.364	25393.39
533.73	25412.59
534.095	25451.01
534.461	25543.21
534.826	25686.71
535.192	25906.14
535.557	26166.92
535.923	26154.95
536.288	26194.72
536.653	26367.82
537.019	26312.68
537.384	26496.18
537.749	26629.29
538.114	26582.51
538.479	26753.8
538.845	26925.1
539.21	26918.09
539.575	27084.41
539.94	27170.74
540.305	27291.42
540.67	27323.96
541.034	27520.11
541.399	27536.15
541.764	27747.9
542.129	27910.38
542.494	27958.06
542.858	28119.87
543.223	28032.41
543.587	28237.15
543.952	28333.42
544.316	28404.15
544.681	28564.15
545.045	28627.2
545.41	28688.21
545.774	28795.1
546.138	28938.6
546.503	28952.61
546.867	28902.22
547.231	29309.89
547.595	29347.86
547.959	29332.94
548.324	29457.91
548.688	29423.11
549.052	29721.41
549.416	29833.27
549.779	29839.82
550.143	30028.52
550.507	30294.27
550.871	30289.08
551.235	30297.66
551.599	30613.36
551.962	30551.44
552.326	30664.89
552.689	30781.94
553.053	30912.79
553.417	30936.97
553.78	31319.56
554.143	31181.26
554.507	31390.97
554.87	31447.46
555.234	31917.28
555.597	31672.77
555.96	31902.14
556.323	32040.67
556.686	32134.23
557.05	32308.23
557.413	32419.87
557.776	32421.45
558.139	32739.86
558.502	32807.88
558.865	33025.28
559.228	33205.84
559.59	33270.24
559.953	33395.21
560.316	33757.23
560.679	33770.57
561.041	33962.88
561.404	34169.2
561.767	34245.81
562.129	34284.45
562.492	34775.51
562.854	34625.23
563.217	34810.77
563.579	34922.4
563.941	35057.76
564.304	35268.83
564.666	35452.33
565.028	35593.57
565.39	35734.81
565.753	35956.5
566.115	35973.9
566.477	36139.09
566.839	36149.71
567.201	36474.68
567.563	36557.39
567.925	36734.33
568.287	36809.58
568.648	36811.39
569.01	37145.85
569.372	37190.36
569.734	37326.86
570.095	37603.01
570.457	37708.77
570.819	37812.72
571.18	37847.07
571.542	37980.63
571.903	38118.93
572.265	38309.88
572.626	38351.46
572.987	38445.47
573.349	38536.54
573.71	38665.58
574.071	38891.11
574.432	38816.08
574.794	39047.94
575.155	39118.22
575.516	39028.51
575.877	39153.7
576.238	39291.78
576.599	39619.45
576.96	39586.69
577.32	39610.64
577.681	39666.68
578.042	39937.86
578.403	39715.72
578.763	39960.23
579.124	39906
579.485	40131.3
579.845	40250.17
580.206	40086.78
580.566	40110.97
580.927	40351.86
581.287	40421.47
581.648	40343.5
582.008	40465.98
582.368	40411.07
582.728	40480.9
583.089	40392.99
583.449	40476.83
583.809	40525.19
584.169	40507.56
584.529	40537.17
584.889	40732.64
585.249	40486.1
585.609	40346.44
585.969	40738.97
586.329	40577.85
586.688	40599.09
587.048	40738.29
587.408	40688.13
587.768	40628.01
588.127	40554.57
588.487	40648.13
588.846	40931.51
589.206	40528.58
589.565	40712.08
589.925	40823.71
590.284	40761.57
590.643	41000.21
591.003	40790.27
591.362	41104.39
591.721	40822.13
592.08	40861.68
592.44	41172.18
592.799	41014.67
593.158	41052.86
593.517	41029.13
593.876	41030.94
594.235	40885.41
594.593	41059.87
594.952	41189.35
595.311	41136.25
595.67	41139.86
596.029	41196.59
596.387	41322.68
596.746	41425.73
597.104	41239.52
597.463	41232.74
597.822	41385.06
598.18	41198.85
598.538	41320.42
598.897	41436.81
599.255	41241.78
599.613	41649.23
599.972	41543.92
600.33	41716.57
600.688	41559.29
601.046	41640.19
601.404	41725.39
601.762	41546.18
602.12	41905.72
602.478	41890.13
602.836	41906.17
603.194	41684.48
603.552	41831.82
603.91	41677.25
604.268	41997.47
604.625	41794.54
604.983	42029.78
605.341	41752.73
605.698	42104.81
606.056	42124.7
606.413	42000.86
606.771	42338.7
607.128	42233.17
607.485	42102.78
607.843	42205.6
608.2	42431.81
608.557	42465.93
608.914	42404.01
609.272	42533.5
609.629	42672.03
609.986	42754.96
610.343	42600.84
610.7	42829.54
611.057	42670.9
611.414	42709.09
611.771	42851.68
612.127	43003.09
612.484	42870.67
612.841	42932.81
613.198	42913.15
613.554	42992.25
613.911	43156.53
614.267	43156.53
614.624	43101.17
614.98	43231.56
615.337	43457.32
615.693	43354.27
616.05	43460.93
616.406	43441.05
616.762	43447.6
617.118	43521.27
617.475	43445.34
617.831	43389.52
618.187	43562.4
618.543	43650.76
618.899	43701.15
619.255	43737.08
619.611	43632.45
619.967	43761.72
620.323	43974.82
620.678	43636.75
621.034	43781.6
621.39	43678.1
621.746	43744.09
622.101	44132.55
622.457	43766.24
622.812	43877.87
623.168	43829.74
623.523	43884.2
623.879	43998.77
624.234	43839.91
624.589	44044.42
624.945	44127.13
625.3	43932.33
625.655	43909.28
626.01	43949.73
626.365	43883.07
626.72	43856.4
627.075	43968.49
627.43	43800.81
627.785	43665.45
628.14	43765.33
628.495	43832.9
628.85	43743.64
629.205	43634.04
629.559	43834.26
629.914	43643.53
630.269	43780.25
630.623	43571.89
630.978	43522.63
631.332	43484.21
631.687	43610.99
632.041	43578.9
632.396	43568.05
632.75	43333.71
633.104	43426.13
633.459	43405.57
633.813	43294.61
634.167	43391.56
634.521	43270.88
634.875	43146.82
635.229	43219.36
635.583	43038.8
635.937	43011.23
636.291	42932.36
636.645	43022.3
636.999	42744.57
637.352	42993.38
637.706	42734.62
638.06	42947.95
638.413	42760.84
638.767	42740.95
639.121	42762.87
639.474	42425.03
639.828	42573.73
640.181	42652.37
640.534	42583.67
640.888	42437.91
641.241	42184.13
641.594	42271.36
641.947	42369.89
642.301	42163.57
642.654	42247.18
643.007	42088.99
643.36	42184.58
643.713	42112.49
644.066	42253.51
644.419	41919.73
644.771	41672.28
645.124	41287.21
645.477	41178.51
645.83	40906.65
646.182	40684.51
646.535	40595.7
646.888	40808.8
647.24	40672.08
647.593	41041.34
647.945	40792.53
648.298	40532.42
648.65	40559.31
649.002	40316.38
649.355	40529.71
649.707	40285.42
650.059	40691.29
650.411	41197.49
650.763	40936.71
651.115	41377.37
651.467	41120.88
651.819	41157.49
652.171	41095.57
652.523	41137.6
652.875	41060.77
653.227	40948.23
653.578	41181.45
653.93	41109.36
654.282	40990.94
654.633	40737.84
654.985	40846.76
655.337	40863.26
655.688	40879.08
656.039	40910.27
656.391	40542.14
656.742	40649.71
657.094	40499.88
657.445	40718.18
657.796	40630.73
658.147	40604.96
658.498	40546.43
658.849	40651.29
659.2	40561.12
659.551	40374.46
659.902	40434.57
660.253	40592.08
660.604	40602.93
660.955	40400.9
661.306	40326.33
661.656	40305.31
662.007	40350.96
662.358	40280.9
662.708	40156.39
663.059	40167.01
663.409	39914.81
663.76	40215.37
664.11	40148.93
664.461	40082.94
664.811	40134.69
665.161	40134.92
665.511	40162.72
665.862	40131.3
666.212	40334.01
666.562	40233.9
666.912	40070.06
667.262	40072.55
667.612	40062.6
667.962	40144.86
668.312	39979.9
668.662	40172.88
669.011	40140.57
669.361	39998.88
669.711	40124.07
670.06	39972.66
670.41	39887.69
670.76	39740.58
671.109	39832.33
671.459	39782.39
671.808	39774.02
672.157	39973.34
672.507	39561.38
672.856	39664.2
673.205	39695.61
673.554	39814.93
673.904	39499
674.253	39711.88
674.602	39645.89
674.951	39138.79
675.3	38913.93
675.649	39400.02
675.998	39388.05
676.346	39502.39
676.695	39577.19
677.044	39341.49
677.393	39571.54
677.741	39401.83
678.09	39291.78
678.438	39165.45
678.787	39204.32
679.135	39319.8
679.484	39077.09
679.832	39113.25
680.181	38961.84
680.529	39146.7
680.877	38844.56
681.225	38925.69
681.573	39021.28
681.922	38909.41
682.27	38765.69
682.618	38781.51
682.966	38615.41
683.314	38751.68
683.661	38536.77
684.009	38344.01
684.357	38251.8
684.705	38291.58
685.053	38221.98
685.4	38242.77
685.748	38043
686.095	38001.19
686.443	37766.85
686.79	37751.93
687.138	37787.41
687.485	37897.69
687.832	37764.59
688.18	37873.51
688.527	37577.25
688.874	37659.73
689.221	37349.91
689.568	37182.23
689.915	37125.96
690.262	37038.05
690.609	37072.85
690.956	36993.53
691.303	36941.78
691.65	36722.13
691.997	36756.25
692.344	36516.48
692.69	36650.49
693.037	36613.43
693.383	36420.44
693.73	36541.79
694.077	36283.95
694.423	36305.19
694.769	36245.98
695.116	36031.07
695.462	36127.12
695.808	35957.4
696.155	35817.52
696.501	35563.97
696.847	35684.41
697.193	35330.75
697.539	35598.32
697.885	35288.27
698.231	35245.78
698.577	35194.71
698.923	35150.87
699.269	34928.95
699.614	34668.17
699.96	34670.88
700.306	34786.36
700.651	34554.28
700.997	34589.75
701.342	34493.49
701.688	34418.69
702.033	34285.81
702.379	34336.65
702.724	34221.4
703.069	34203.1
703.415	33783.45
703.76	33717.46
704.105	33655.77
704.45	33457.81
704.795	33337.13
705.14	33383.68
705.485	33351.37
705.83	33341.65
706.175	33232.73
706.52	33180.3
706.865	33091.71
707.209	32852.17
707.554	32850.82
707.899	33036.8
708.243	32911.38
708.588	32658.96
708.932	32500.09
709.277	32545.29
709.621	32521.11
709.966	32303.49
710.31	32480.88
710.654	32060.33
710.998	32331.51
711.342	32139.42
711.687	31992.53
712.031	31967
712.375	31814.69
712.719	31914.8
713.063	31801.58
713.407	31841.13
713.75	31618.76
714.094	31628.48
714.438	31463.73
714.782	31522.94
715.125	31488.59
715.469	31546.22
715.812	31391.87
716.156	31061.26
716.499	31110.07
716.843	31215.61
717.186	30907.37
717.53	31019.45
717.873	31118.66
718.216	30877.31
718.559	30913.69
718.902	30663.98
719.246	30720.25
719.589	30701.04
719.932	30515.29
720.275	30572.01
720.617	30486.59
720.96	30509.86
721.303	30370.43
721.646	30517.77
721.989	30216.31
722.331	30220.83
722.674	30162.3
723.016	30209.3
723.359	30114.17
723.701	30277.1
724.044	29955.53
724.386	29861.52
724.729	29900.61
725.071	29769.09
725.413	29722.99
725.755	29726.15
726.097	29500.4
726.439	29375.65
726.782	29555.76
727.124	29421.53
727.465	29330.46
727.807	29424.47
728.149	29327.52
728.491	29170.01
728.833	29289.33
729.175	29108.54
729.516	29022.44
729.858	29022.67
730.199	29067.19
730.541	29011.6
730.882	28877.14
731.224	29052.05
731.565	28836.69
731.906	28794.88
732.248	28856.8
732.589	28645.96
732.93	28481.89
733.271	28471.72
733.612	28593.08
733.953	28654.09
734.294	28459.52
734.635	28429.01
734.976	28506.52
735.317	28444.38
735.658	28328.9
735.999	28370.03
736.339	28288.68
736.68	28357.15
737.021	28064.73
737.361	28078.51
737.702	28311.95
738.042	28025.63
738.383	28054.56
738.723	27937.73
739.063	27956.03
739.404	27975.46
739.744	27970.04
740.084	27774.34
740.424	27900.21
740.764	27783.83
741.104	27797.39
741.444	27619.77
741.784	27434.01
742.124	27644.17
742.464	27570.28
742.804	27562.59
743.143	27521.47
743.483	27356.27
743.823	27336.16
744.162	27245.31
744.502	27129.61
744.841	27128.03
745.181	27232.43
745.52	27016.17
745.86	27162.83
746.199	26949.05
746.538	26922.39
746.877	26986.56
747.216	26984.98
747.556	26858.21
747.895	26835.38
748.234	26756.97
748.573	26569.4
748.911	26657.76
749.25	26565.78
749.589	26479.46
749.928	26575.05
750.267	26608.95
750.605	26393.36
750.944	26407.82
751.283	26403.53
751.621	26346.13
751.96	26130.32
752.298	26040.83
752.636	26173.7
752.975	26088.51
753.313	25903.66
753.651	26014.84
753.989	25799.48
754.327	25870.66
754.666	25625.92
755.004	25661.4
755.342	25800.83
755.679	25527.85
756.017	25534.85
756.355	25488.3
756.693	25316.55
757.031	25418.7
757.368	25196.78
757.706	25174.41
758.044	25121.53
758.381	25272.71
758.719	25051.47
759.056	25144.58
759.394	25053.06
759.731	24815.1
760.068	24743.69
760.405	24638.83
760.743	24529.91
761.08	24621.65
761.417	24492.39
761.754	24618.27
762.091	24458.95
762.428	24345.05
762.765	24164.27
763.102	24267.99
763.438	24099.86
763.775	23978.51
764.112	24030.48
764.449	23791.62
764.785	23802.02
765.122	23608.35
765.458	23554.11
765.795	23480.22
766.131	23487
766.467	23385.3
766.804	23234.35
767.14	23264.63
767.476	23245.19
767.812	23102.15
768.148	23150.73
768.485	22931.53
768.821	22812.66
769.157	22839.55
769.492	22737.18
769.828	22700.58
770.164	22526.79
770.5	22499.68
770.836	22433.24
771.171	22214.71
771.507	22375.39
771.842	22110.31
772.178	22225.33
772.513	22127.94
772.849	21917.09
773.184	21802.07
773.519	21889.07
773.855	21828.96
774.19	21619.02
774.525	21596.88
774.86	21627.61
775.195	21436.65
775.53	21446.37
775.865	21260.61
776.2	21070.56
776.535	20977.46
776.87	20955.54
777.205	20895.88
777.539	20798.25
777.874	20831.92
778.209	20542.67
778.543	20715.32
778.878	20495.89
779.212	20587.86
779.547	20259.28
779.881	20402.56
780.215	20180.64
780.55	20314.42
780.884	20081.66
781.218	20144.71
781.552	20038.5
781.886	19914.43
782.22	19773.87
782.554	19762.57
782.888	19588.79
783.222	19553.54
783.556	19481.23
783.889	19442.58
784.223	19389.48
784.557	19205.75
784.89	19303.38
785.224	19257.28
785.557	19038.98
785.891	19010.5
786.224	18954.46
786.558	18885.08
786.891	18897.29
787.224	18732.54
787.557	18781.58
787.891	18659.1
788.224	18662.72
788.557	18639.44
788.89	18422.04
789.223	18490.06
789.556	18287.81
789.888	18273.8
790.221	18238.55
790.554	18030.19
790.887	18083.97
791.219	17969.17
791.552	17910.19
791.884	17864.32
792.217	17792.23
792.549	17787.48
792.882	17693.25
793.214	17528.28
793.546	17611.9
793.879	17483.76
794.211	17460.26
794.543	17547.26
794.875	17386.36
795.207	17404.44
795.539	17335.07
795.871	17227.95
796.203	17107.73
796.535	16952.03
796.867	16987.28
797.198	16852.14
797.53	16884.46
797.862	16767.17
798.193	16817.34
798.525	16712.48
798.856	16716.33
799.188	16527.63
799.519	16489.44
799.85	16404.47
800.182	16453.73
800.513	16340.52
800.844	16236.79
801.175	16332.16
801.506	16235.89
801.837	16242.89
802.168	16170.35
802.499	16143.69
802.83	16046.06
803.161	16019.85
803.491	15950.7
803.822	15994.99
804.153	15846.29
804.483	15783.47
804.814	15706.18
805.145	15744.83
805.475	15697.37
805.805	15643.36
806.136	15610.82
806.466	15645.85
806.796	15557.49
807.126	15407.66
807.457	15351.84
807.787	15435
808.117	15303.71
808.447	15221
808.777	15242.47
809.107	15124.5
809.436	15086.31
809.766	15120.21
810.096	15026.88
810.426	14980.1
810.755	14996.37
811.085	14858.52
811.414	14866.21
811.744	14839.54
812.073	14725.19
812.403	14743.04
812.732	14677.96
813.061	14658.3
813.39	14513.45
813.719	14545.76
814.049	14630.28
814.378	14551.86
814.707	14455.14
815.036	14459.89
815.365	14467.12
815.693	14284.75
816.022	14318.87
816.351	14202.49
816.68	14120.01
817.008	14191.19
817.337	14073.91
817.665	14016.51
817.994	14057.64
818.322	14025.32
818.651	14069.84
818.979	13914.37
819.307	14023.74
819.636	13818.78
819.964	13800.24
820.292	13882.28
820.62	13814.93
820.948	13723.86
821.276	13890.41
821.604	13734.03
821.932	13873.01
822.259	13815.84
822.587	13781.71
822.915	13769.74
823.243	13754.37
823.57	13705.33
823.898	13812
824.225	13657.88
824.553	13635.28
824.88	13736.29
825.207	13760.02
825.535	13685.9
825.862	13739
826.189	13748.04
826.516	13770.41
826.843	13838.66
827.17	13794.82
827.497	13812.67
827.824	13835.05
828.151	13728.61
828.478	13784.2
828.805	13736.74
829.131	13685.67
829.458	13620.14
829.785	13507.82
830.111	13668.27
830.438	13749.4
830.764	13747.14
831.09	13744.2
831.417	13624.88
831.743	13706.01
832.069	13613.58
832.395	13513.47
832.722	13628.27
833.048	13572.68
833.374	13667.82
833.7	13528.84
834.026	13430.54
834.351	13473.93
834.677	13523.64
835.003	13574.04
835.329	13497.88
835.654	13427.15
835.98	13454.04
836.306	13443.42
836.631	13412.68
836.956	13422.4
837.282	13472.57
837.607	13385.11
837.932	13344.21
838.258	13309.64
838.583	13325.68
838.908	13219.69
839.233	13212.92
839.558	13141.28
839.883	13146.02
840.208	13134.95
840.533	13120.04
840.858	13142.86
841.182	13074.39
841.507	13162.75
841.832	13022.41
842.156	12969.08
842.481	12974.28
842.805	12934.28
843.13	12929.31
843.454	12861.51
843.778	12761.4
844.103	12773.6
844.427	12790.1
844.751	12794.4
845.075	12842.3
845.399	12685.7
845.723	12656.32
846.047	12624.68
846.371	12557.57
846.695	12456.33
847.019	12359.15
847.343	12305.14
847.666	12313.96
847.99	12196.44
848.313	12234.86
848.637	12172.26
848.96	12180.85
849.284	12150.34
849.607	12017.47
849.931	12022.89
850.254	11894.98
850.577	11827.42
850.9	11749.22
851.223	11800.75
851.546	11664.03
851.869	11587.2
852.192	11728.21
852.515	11564.6
852.838	11558.04
853.161	11542.22
853.483	11490.7
853.806	11399.86
854.129	11389.91
854.451	11327.09
854.774	11369.35
855.096	11289.8
855.419	11245.74
855.741	11237.6
856.063	11157.15
856.385	11138.39
856.708	11144.95
857.03	11050.94
857.352	11029.47
857.674	11043.25
857.996	10899.08
858.318	10920.77
858.64	10848.01
858.961	10783.83
859.283	10784.73
859.605	10796.71
859.926	10797.84
860.248	10772.53
860.57	10659.54
860.891	10719.42
861.212	10658.41
861.534	10624.06
861.855	10641.91
862.176	10688.91
862.498	10559.88
862.819	10683.49
863.14	10589.03
863.461	10580.89
863.782	10455.02
864.103	10476.26
864.424	10482.14
864.745	10441.46
865.065	10378.64
865.386	10371.18
865.707	10390.84
866.027	10449.15
866.348	10412.99
866.668	10360.79
866.989	10375.48
867.309	10264.29
867.63	10305.2
867.95	10268.59
868.27	10230.17
868.59	10166.44
868.91	10172.77
869.23	10164.18
869.55	10170.74
869.87	10159.89
870.19	10138.19
870.51	10113.56
870.83	10132.54
871.15	10042.6
871.469	10024.52
871.789	10042.38
872.109	9990.4
872.428	9920.12
872.748	9979.55
873.067	10039.67
873.386	9942.72
873.706	9973.45
874.025	9929.39
874.344	9815.94
874.663	9866.11
874.982	9847.81
875.301	9841.03
875.62	9796.51
875.939	9840.35
876.258	9768.03
876.577	9722.16
876.896	9742.5
877.214	9705.89
877.533	9692.33
877.852	9708.6
878.17	9737.98
878.489	9703.86
878.807	9693.69
879.125	9661.6
879.444	9635.16
879.762	9633.35
880.08	9675.38
880.398	9598.1
880.716	9636.29
881.034	9567.36
881.352	9506.57
881.67	9548.15
881.988	9549.06
882.306	9501.15
882.624	9473.35
882.941	9394.48
883.259	9359.68
883.577	9359.68
883.894	9358.33
884.212	9274.71
884.529	9309.74
884.846	9309.74
885.164	9303.41
885.481	9200.59
885.798	9234.71
886.115	9167.82
886.432	9123.08
886.75	9140.48
887.067	9210.53
887.383	9143.42
887.7	9172.12
888.017	9096.87
888.334	9152.23
888.651	9116.75
888.967	9034.72
889.284	8980.71
889.6	9036.53
889.917	8875.85
890.233	8889.41
890.55	8867.94
890.866	8865.46
891.182	8827.95
891.498	8816.42
891.815	8753.6
892.131	8687.61
892.447	8682.64
892.763	8645.35
893.079	8720.38
893.395	8678.57
893.71	8659.14
894.026	8631.11
894.342	8605.58
894.657	8546.82
894.973	8503.21
895.289	8507.28
895.604	8459.37
895.92	8397.45
896.235	8352.7
896.55	8370.33
896.865	8294.4
897.181	8324
897.496	8372.36
897.811	8313.61
898.126	8249.88
898.441	8225.02
898.756	8168.75
899.071	8173.73
899.386	8179.38
899.7	8102.32
900.015	8100.96
900.33	7981.41
900.644	7975.31
900.959	8022.77
901.273	7938.7
901.588	7914.3
901.902	7908.65
902.216	7847.41
902.531	7840.63
902.845	7831.81
903.159	7759.95
903.473	7737.81
903.787	7735.55
904.101	7576.68
904.415	7600.63
904.729	7594.76
905.042	7548.43
905.356	7591.37
905.67	7564.93
905.984	7545.49
906.297	7557.47
906.611	7459.85
906.924	7450.35
907.237	7461.2
907.551	7400.64
907.864	7378.94
908.177	7397.25
908.491	7347.76
908.804	7305.95
909.117	7243.81
909.43	7155.67
909.743	7135.33
910.056	7142.79
910.368	7107.54
910.681	7057.14
910.994	7103.92
911.307	7093.08
911.619	6976.47
911.932	7010.37
912.244	6923.14
912.557	6941.44
912.869	6876.13
913.181	6855.12
913.494	6855.79
913.806	6789.36
914.118	6803.14
914.43	6754.78
914.742	6693.76
915.054	6655.12
915.366	6634.11
915.678	6619.42
915.99	6569.7
916.302	6527.89
916.613	6599.98
916.925	6545.75
917.236	6529.02
917.548	6475.01
917.859	6434.79
918.171	6427.56
918.482	6402.02
918.794	6418.07
919.105	6430.72
919.416	6307.56
919.727	6273.44
920.038	6299.88
920.349	6187.79
920.66	6236.83
920.971	6204.74
921.282	6153.89
921.593	6085.19
921.903	6058.08
922.214	6077.28
922.525	6040
922.835	6014.46
923.146	6027.12
923.456	6032.09
923.767	5879.32
924.077	5910.28
924.387	5908.02
924.697	5923.39
925.008	5855.59
925.318	5800
925.628	5812.88
925.938	5801.13
926.248	5771.3
926.558	5742.83
926.867	5701.93
927.177	5703.51
927.487	5639.78
927.796	5573.12
928.106	5579.22
928.416	5604.3
928.725	5515.72
929.034	5489.95
929.344	5483.4
929.653	5477.3
929.962	5458.54
930.271	5409.96
930.581	5409.28
930.89	5404.53
931.199	5375.61
931.508	5382.84
931.817	5352.78
932.125	5310.3
932.434	5300.58
932.743	5213.35
933.051	5215.61
933.36	5213.58
933.669	5111.21
933.977	5137.65
934.286	5179.68
934.594	5133.13
934.902	5096.07
935.21	5085.9
935.519	5063.53
935.827	5055.16
936.135	5019.91
936.443	5008.84
936.751	4972.91
937.059	4952.57
937.367	4948.05
937.674	4864.89
937.982	4863.3
938.29	4881.61
938.597	4885.68
938.905	4802.97
939.213	4830.31
939.52	4812.91
939.827	4817.43
940.135	4741.5
940.442	4728.62
940.749	4751.89
941.056	4712.35
941.363	4653.82
941.67	4631.9
941.977	4587.38
942.284	4609.75
942.591	4594.61
942.898	4556.87
943.205	4590.32
943.511	4569.53
943.818	4529.3
944.125	4515.06
944.431	4452.92
944.738	4463.09
945.044	4431.23
945.35	4394.16
945.657	4364.11
945.963	4332.02
946.269	4320.95
946.575	4345.35
946.881	4317.1
947.187	4330.21
947.493	4278.01
947.799	4280.49
948.105	4183.32
948.41	4210.89
948.716	4198.24
949.022	4189.65
949.327	4163.89
949.633	4113.72
949.938	4131.57
950.244	4167.96
950.549	4085.92
950.854	4082.99
951.16	4038.92
951.465	4054.51
951.77	4010.67
952.075	3993.72
952.38	4003.67
952.685	4016.09
952.99	3976.1
953.294	3950.11
953.599	3885.7
953.904	3927.51
954.209	3864.46
954.513	3900.62
954.818	3894.29
955.122	3810.9
955.426	3811.13
955.731	3832.37
956.035	3795.31
956.339	3768.64
956.643	3762.99
956.948	3743.79
957.252	3748.08
957.556	3723.22
957.86	3676.22
958.163	3706.95
958.467	3675.09
958.771	3667.4
959.075	3623.79
959.378	3601.42
959.682	3586.5
959.985	3580.4
960.289	3570.46
960.592	3544.24
960.896	3560.97
961.199	3576.56
961.502	3540.63
961.805	3466.5
962.108	3468.54
962.411	3464.47
962.714	3384.7
963.017	3426.96
963.32	3416.79
963.623	3378.15
963.926	3426.73
964.228	3437.81
964.531	3375.66
964.833	3370.91
965.136	3334.08
965.438	3332.72
965.741	3324.81
966.043	3289.11
966.345	3273.74
966.648	3298.6
966.95	3268.09
967.252	3237.81
967.554	3221.77
967.856	3209.79
968.158	3157.13
968.46	3148.1
968.761	3164.37
969.063	3133.86
969.365	3133.18
969.666	3093.86
969.968	3104.03
970.269	3113.07
970.571	3123.46
970.872	3080.53
971.174	3062
971.475	3051.6
971.776	3042.11
972.077	3009.34
972.378	3020.19
972.679	2981.09
972.98	2964.82
973.281	2973.64
973.582	2974.31
973.883	2963.02
974.183	2920.76
974.484	2916.69
974.785	2887.99
975.085	2875.11
975.386	2919.63
975.686	2838.27
975.986	2835.34
976.287	2856.58
976.587	2843.47
976.887	2795.79
977.187	2836.46
977.487	2783.36
977.787	2791.49
978.087	2750.37
978.387	2755.34
978.687	2782.23
978.987	2730.71
979.286	2697.03
979.586	2723.47
979.885	2692.97
980.185	2656.81
980.484	2650.93
980.784	2680.76
981.083	2630.82
981.382	2631.05
981.682	2656.81
981.981	2624.04
982.28	2619.3
982.579	2581.33
982.878	2575.23
983.177	2552.63
983.475	2593.76
983.774	2559.41
984.073	2552.86
984.372	2521.9
984.67	2522.8
984.969	2494.1
985.267	2493.88
985.566	2493.42
985.864	2492.29
986.162	2470.15
986.461	2428.34
986.759	2433.99
987.057	2424.72
987.355	2410.49
987.653	2402.58
987.951	2389.7
988.249	2364.39
988.547	2361.22
988.844	2376.14
989.142	2377.95
989.44	2332.3
989.737	2358.29
990.035	2330.72
990.332	2325.52
990.63	2308.12
990.927	2302.47
991.224	2288
991.521	2266.76
991.819	2277.61
992.116	2262.69
992.413	2229.7
992.71	2205.07
993.006	2229.25
993.303	2197.16
993.6	2219.08
993.897	2186.54
994.193	2186.09
994.49	2175.69
994.787	2136.14
995.083	2165.3
995.379	2132.53
995.676	2150.16
995.972	2121.68
996.268	2104.28
996.565	2062.25
996.861	2077.84
997.157	2074.68
997.453	2039.2
997.749	2065.19
998.044	2011.18
998.34	2026.32
998.636	2045.75
998.932	2010.95
999.227	1995.36
999.523	1990.61
999.818	1999.2
1000.114	1972.08
1000.409	1959.2
1000.704	1970.05
1001	1934.57
1001.295	1894.57
1001.59	1923.27
1001.885	1917.62
1002.18	1902.48
1002.475	1895.92
1002.77	1899.09
1003.065	1876.94
1003.359	1873.1
1003.654	1827.68
1003.949	1839.2
1004.243	1833.78
1004.538	1833.55
1004.832	1832.65
1005.127	1804.85
1005.421	1795.14
1005.715	1780.22
1006.009	1814.8
1006.304	1789.03
1006.598	1760.79
1006.892	1740.45
1007.186	1734.12
1007.48	1712.65
1007.773	1714.91
1008.067	1726.44
1008.361	1711.97
1008.655	1679.43
1008.948	1668.13
1009.242	1684.18
1009.535	1655.93
1009.829	1645.99
1010.122	1619.1
1010.415	1636.5
1010.708	1635.82
1011.001	1606.44
1011.295	1590.85
1011.588	1610.51
1011.881	1576.16
1012.173	1584.29
1012.466	1581.13
1012.759	1533.45
1013.052	1511.08
1013.344	1505.43
1013.637	1550.17
1013.93	1547.01
1014.222	1537.52
1014.514	1504.75
1014.807	1483.73
1015.099	1518.53
1015.391	1463.62
1015.683	1440.8
1015.976	1452.77
1016.268	1438.31
1016.56	1452.77
1016.851	1452.77
1017.143	1415.03
1017.435	1447.35
1017.727	1419.33
1018.018	1401.7
1018.31	1398.08
1018.602	1406.9
1018.893	1374.58
1019.185	1351.76
1019.476	1376.39
1019.767	1343.17
1020.058	1352.44
1020.35	1331.87
1020.641	1348.37
1020.932	1332.78
1021.223	1315.83
1021.514	1317.18
1021.804	1287.81
1022.095	1305.43
1022.386	1270.4
1022.677	1229.05
1022.967	1268.14
1023.258	1234.02
1023.548	1220.24
1023.839	1246.68
1024.129	1231.31
1024.419	1220.69
1024.709	1195.6
1025	1190.41
1025.29	1214.59
1025.58	1212.55
1025.87	1168.71
1026.16	1162.84
1026.449	1181.82
1026.739	1139.79
1027.029	1146.57
1027.319	1147.92
1027.608	1143.4
1027.898	1139.56
1028.187	1148.83
1028.477	1113.8
1028.766	1114.48
1029.055	1116.51
1029.344	1113.57
1029.634	1113.57
1029.923	1104.08
1030.212	1081.93
1030.501	1059.11
1030.79	1054.14
1031.078	1068.6
1031.367	1047.13
1031.656	1058.43
1031.945	1021.82
1032.233	1017.08
1032.522	996.06
1032.81	1021.6
1033.099	1046.91
1033.387	996.29
1033.675	995.84
1033.963	999.9
1034.251	978.89
1034.54	952.9
1034.828	984.31
1035.116	947.7
1035.403	966.68
1035.691	966.23
1035.979	952.45
1036.267	930.07
1036.554	924.42
1036.842	939.57
1037.129	934.59
1037.417	919.68
1037.704	911.09
1037.992	893.01
1038.279	902.5
1038.566	910.64
1038.853	910.64
1039.14	910.64
