Data from plate_ceramic_FLMS001491_062.txt Node
Date: Tue Feb 07 11:17:07 GMT 2017
User: dcchb
Spectrometer: FLMS00149
Trigger mode: 0
Integration Time (sec): 2.000000E-2
Scans to average: 10
Electric dark correction enabled: true
Nonlinearity correction enabled: false
Boxcar width: 0
XAxis mode: Wavelengths
Number of Pixels in Spectrum: 2048
>>>>>Begin Spectral Data<<<<<
341.393	-14.99
341.776	-14.99
342.16	-14.99
342.543	-69.67
342.927	-67.87
343.31	-64.7
343.693	-73.06
344.077	-64.02
344.46	-64.93
344.843	-62.44
345.226	-45.95
345.61	-42.33
345.993	-9.56
346.376	9.19
346.759	25.92
347.142	33.37
347.525	29.99
347.908	66.82
348.291	73.15
348.674	82.64
349.057	105.92
349.44	121.28
349.823	116.08
350.206	176.65
350.588	209.42
350.971	215.06
351.354	249.87
351.737	251.9
352.119	266.82
352.502	263.2
352.884	304.33
353.267	298.9
353.65	331.22
354.032	309.53
354.414	322.18
354.797	319.92
355.179	351.56
355.562	340.26
355.944	343.42
356.326	348.62
356.709	361.05
357.091	349.98
357.473	378.9
357.855	378
358.238	340.71
358.62	379.35
359.002	352.91
359.384	379.13
359.766	362.41
360.148	367.83
360.53	368.51
360.912	381.61
361.294	365.57
361.676	362.41
362.057	387.04
362.439	359.02
362.821	367.6
363.203	348.39
363.584	351.56
363.966	362.86
364.348	380.03
364.729	372.12
365.111	370.09
365.493	368.06
365.874	348.85
366.256	374.83
366.637	368.06
367.019	358.79
367.4	368.51
367.781	331.67
368.163	359.47
368.544	359.24
368.925	368.06
369.306	406.92
369.688	364.67
370.069	377.09
370.45	347.94
370.831	355.4
371.212	367.6
371.593	371.67
371.974	380.26
372.355	345.91
372.736	373.25
373.117	390.65
373.498	355.63
373.879	360.82
374.26	363.99
374.641	366.25
375.021	350.65
375.402	374.16
375.783	404.89
376.163	397.89
376.544	400.6
376.925	381.16
377.305	387.49
377.686	393.14
378.066	408.05
378.447	415.74
378.827	417.77
379.208	407.38
379.588	424.33
379.968	441.73
380.349	418.45
380.729	436.53
381.109	420.94
381.489	417.09
381.87	420.03
382.25	435.4
382.63	435.17
383.01	445.79
383.39	443.99
383.77	430.88
384.15	436.3
384.53	430.88
384.91	473.36
385.29	453.48
385.67	452.35
386.049	482.85
386.429	462.06
386.809	470.2
387.189	484.21
387.568	490.54
387.948	464.1
388.328	498
388.707	497.77
389.087	504.32
389.466	509.29
389.846	495.74
390.225	491.89
390.605	511.55
390.984	545.45
391.363	527.83
391.743	552.23
392.122	552.01
392.501	550.88
392.881	560.82
393.26	562.63
393.639	597.88
394.018	580.03
394.397	573.02
394.776	552.68
395.155	588.16
395.534	576.19
395.913	587.94
396.292	602.63
396.671	620.25
397.05	601.95
397.429	628.61
397.808	611.89
398.186	639.69
398.565	630.65
398.944	648.05
399.323	631.33
399.701	640.59
400.08	643.08
400.458	674.94
400.837	679.69
401.215	685.11
401.594	679.01
401.972	684.21
402.351	703.41
402.729	710.87
403.107	700.02
403.486	704.09
403.864	708.16
404.242	717.65
404.62	742.51
404.999	754.49
405.377	760.59
405.755	746.8
406.133	769.85
406.511	774.82
406.889	770.76
407.267	765.11
407.645	811.89
408.023	817.54
408.401	828.83
408.779	817.76
409.156	881.49
409.534	816.18
409.912	857.31
410.29	861.83
410.667	881.04
411.045	902.73
411.422	920.58
411.8	926.68
412.178	949.06
412.555	966.23
412.933	953.58
413.31	951.99
413.687	968.04
414.065	982.73
414.442	988.83
414.819	999.9
415.197	997.87
415.574	1045.1
415.951	1045.78
416.328	1051.43
416.705	1061.6
417.082	1077.42
417.46	1071.77
417.837	1101.37
418.214	1126.91
418.591	1138.2
418.967	1114.7
419.344	1164.87
419.721	1167.36
420.098	1152.89
420.475	1182.05
420.852	1186.34
421.228	1192.44
421.605	1191.54
421.982	1208.94
422.358	1237.18
422.735	1249.84
423.111	1274.7
423.488	1276.51
423.864	1271.08
424.241	1311.31
424.617	1328.48
424.994	1323.51
425.37	1338.65
425.746	1345.43
426.123	1384.3
426.499	1380.01
426.875	1396.95
427.251	1424.3
427.627	1447.57
428.003	1478.08
428.379	1480.79
428.756	1502.71
429.132	1507.23
429.507	1541.81
429.883	1570.96
430.259	1565.99
430.635	1599.44
431.011	1615.25
431.387	1650.28
431.763	1678.98
432.138	1646.44
432.514	1704.29
432.89	1726.44
433.265	1743.61
433.641	1790.39
434.016	1803.95
434.392	1805.76
434.767	1833.33
435.143	1852.08
435.518	1890.28
435.894	1901.57
436.269	1884.85
436.644	1930.73
437.02	1986.77
437.395	1949.48
437.77	1979.99
438.145	2026.99
438.52	2052.3
438.895	2074.68
439.271	2071.74
439.646	2128.91
440.021	2130.49
440.395	2133.66
440.77	2115.81
441.145	2164.39
441.52	2186.99
441.895	2196.26
442.27	2223.37
442.645	2223.83
443.019	2251.17
443.394	2258.63
443.769	2293.2
444.143	2282.36
444.518	2331.85
444.892	2318.29
445.267	2340.43
445.641	2364.61
446.016	2369.58
446.39	2406.65
446.764	2426.31
447.139	2439.41
447.513	2454.1
447.887	2485.06
448.262	2463.37
448.636	2478.51
449.01	2532.29
449.384	2530.03
449.758	2557.6
450.132	2569.81
450.506	2560.54
450.88	2623.82
451.254	2642.35
451.628	2654.32
452.002	2686.19
452.376	2685.06
452.75	2765.51
453.123	2783.81
453.497	2853.41
453.871	2825.84
454.244	2902.68
454.618	2905.84
454.992	2971.83
455.365	2974.54
455.739	3057.02
456.112	3057.02
456.486	3104.03
456.859	3117.59
457.232	3168.89
457.606	3196
457.979	3230.13
458.352	3314.19
458.725	3333.4
459.099	3358.26
459.472	3431.93
459.845	3480.29
460.218	3488.2
460.591	3538.14
460.964	3550.57
461.337	3611.59
461.71	3708.53
462.083	3755.08
462.456	3772.49
462.829	3769.77
463.201	3777.46
463.574	3874.18
463.947	3954.4
464.32	3989.65
464.692	4044.79
465.065	4063.55
465.438	4125.7
465.81	4212.93
466.183	4202.3
466.555	4341.74
466.928	4352.36
467.3	4344.45
467.672	4470.09
468.045	4557.1
468.417	4558.23
468.789	4600.49
469.161	4651.78
469.534	4740.6
469.906	4817.88
470.278	4907.14
470.65	4909.63
471.022	4991.66
471.394	5100.59
471.766	5174.93
472.138	5255.16
472.51	5346.46
472.882	5388.04
473.253	5473.91
473.625	5547.35
473.997	5649.05
474.369	5705.09
474.74	5812.66
475.112	5874.8
475.484	5987.79
475.855	6096.04
476.227	6120.9
476.598	6309.82
476.97	6370.16
477.341	6494.45
477.713	6688.34
478.084	6648.34
478.455	6875.23
478.827	6923.59
479.198	7097.82
479.569	7141.44
479.94	7300.98
480.311	7422.56
480.682	7586.17
481.053	7785.26
481.424	7824.81
481.795	7889.67
482.166	8097.57
482.537	8163.56
482.908	8380.73
483.279	8445.58
483.65	8606.48
484.021	8790.21
484.391	8898
484.762	8958.11
485.133	9051.22
485.503	9134.83
485.874	9341.38
486.244	9527.14
486.615	9667.7
486.985	9783.4
487.356	10009.38
487.726	10028.14
488.097	10210.28
488.467	10210.51
488.837	10492.31
489.207	10681
489.578	10765.75
489.948	10926.42
490.318	11062.69
490.688	11093.2
491.058	11255.9
491.428	11392.17
491.798	11562.11
492.168	11759.62
492.538	11821.99
492.908	11920.52
493.278	12102.44
493.648	12147.41
494.017	12313.73
494.387	12480.96
494.757	12559.15
495.126	12681.63
495.496	12799.59
495.866	12823.32
496.235	13019.02
496.605	13170.2
496.974	13226.7
497.344	13345.79
497.713	13443.87
498.082	13520.7
498.452	13643.64
498.821	13730.87
499.19	13801.15
499.559	13981.93
499.928	14036.4
500.298	14079.33
500.667	14246.33
501.036	14265.77
501.405	14531.3
501.774	14466.89
502.143	14670.28
502.512	14735.14
502.88	14763.83
503.249	14945.53
503.618	15025.97
503.987	15112.98
504.356	15173.09
504.724	15355.46
505.093	15373.31
505.462	15475.23
505.83	15656.24
506.199	15708.22
506.567	15935.78
506.936	16018.94
507.304	16097.36
507.672	16123.12
508.041	16234.53
508.409	16414.19
508.777	16597.01
509.145	16688.53
509.514	16719.04
509.882	16903.44
510.25	16921.97
510.618	17098.24
510.986	17164.68
511.354	17387.49
511.722	17543.65
512.09	17719.01
512.458	17666.13
512.826	17860.7
513.193	17927.14
513.561	17994.71
513.929	18199
514.297	18342.05
514.664	18472.21
515.032	18586.79
515.4	18775.48
515.767	18921.24
516.135	18984.29
516.502	18908.81
516.869	19285.52
517.237	19375.47
517.604	19397.61
517.972	19680.32
518.339	19805.28
518.706	19843.93
519.073	19974.09
519.44	20080.76
519.808	20360.3
520.175	20334.54
520.542	20659.5
520.909	20848.87
521.276	20833.05
521.643	21041.64
522.009	21223.1
522.376	21314.17
522.743	21521.4
523.11	21785.12
523.477	21878.22
523.843	22143.3
524.21	22349.85
524.577	22355.5
524.943	22566.12
525.31	22655.83
525.676	22919.78
526.043	23016.5
526.409	23221.01
526.776	23392.53
527.142	23521.12
527.508	23672.3
527.874	24037.49
528.241	24112.52
528.607	24223.25
528.973	24342.34
529.339	24386.18
529.705	24682.9
530.071	24763.12
530.437	24991.59
530.803	25089.21
531.169	25301.19
531.535	25250.34
531.901	25380.05
532.267	25517.68
532.632	25864.56
532.998	25932.13
533.364	26067.04
533.73	26182.52
534.095	26339.8
534.461	26498.44
534.826	26592.68
535.192	26818.89
535.557	26894.36
535.923	26941.14
536.288	27073.34
536.653	27265.65
537.019	27139.78
537.384	27324.18
537.749	27488.02
538.114	27540.9
538.479	27699.77
538.845	27925.07
539.21	27758.07
539.575	27941.12
539.94	27945.64
540.305	28229.24
540.67	28136.14
541.034	28359.64
541.399	28469.46
541.764	28590.14
542.129	28631.04
542.494	28794.88
542.858	28862.22
543.223	29004.36
543.587	29116
543.952	29184.25
544.316	29228.09
544.681	29178.15
545.045	29467.86
545.41	29724.35
545.774	29697.23
546.138	29658.13
546.503	29926.83
546.867	29895.19
547.231	30228.51
547.595	30225.12
547.959	30317.55
548.324	30338.34
548.688	30595.96
549.052	30701.04
549.416	30734.26
549.779	30931.32
550.143	31008.15
550.507	31051.77
550.871	31282.27
551.235	31189.17
551.599	31487.24
551.962	31641.36
552.326	31592.32
552.689	31817.62
553.053	31759.77
553.417	31819.66
553.78	32355.91
554.143	32218.29
554.507	32348.01
554.87	32529.24
555.234	32881.32
555.597	32714.55
555.96	32970.59
556.323	33113.63
556.686	33111.15
557.05	33438.82
557.413	33450.35
557.776	33593.17
558.139	33882.65
558.502	33826.16
558.865	34067.06
559.228	34270.44
559.59	34312.93
559.953	34568.74
560.316	34757.89
560.679	34869.52
561.041	35106.35
561.404	35210.75
561.767	35450.3
562.129	35461.37
562.492	35789.27
562.854	35895.26
563.217	35990.4
563.579	36112.88
563.941	36352.19
564.304	36502.02
564.666	36571.85
565.028	36799.87
565.39	36939.98
565.753	37070.37
566.115	37208.89
566.477	37408.89
566.839	37513.29
567.201	37697.92
567.563	37689.79
567.925	37921.64
568.287	37998.7
568.648	38063.79
569.01	38357.11
569.372	38575.19
569.734	38420.61
570.095	38871
570.457	38829.64
570.819	38847.95
571.18	38971.79
571.542	39356.18
571.903	39466.01
572.265	39574.03
572.626	39680.92
572.987	39797.53
573.349	39943.74
573.71	39943.29
574.071	40034.13
574.432	40165.43
574.794	40318.87
575.155	40494.23
575.516	40333.56
575.877	40738.52
576.238	40621.46
576.599	40822.13
576.96	40792.3
577.32	40849.7
577.681	41130.83
578.042	41311.39
578.403	41136.93
578.763	41256.47
579.124	41420.76
579.485	41474.55
579.845	41607.2
580.206	41514.54
580.566	41319.29
580.927	41412.4
581.287	41708.21
581.648	41610.36
582.008	41803.35
582.368	41694.43
582.728	41865.5
583.089	41893.52
583.449	41854.65
583.809	41929.9
584.169	41987.3
584.529	41860.98
584.889	42102.78
585.249	42000.63
585.609	41770.13
585.969	42033.4
586.329	41914.08
586.688	42102.33
587.048	41985.72
587.408	42092.38
587.768	41958.15
588.127	41929.45
588.487	42066.39
588.846	42335.99
589.206	42119.73
589.565	42081.53
589.925	42334.64
590.284	42144.13
590.643	42358.36
591.003	42328.53
591.362	42416.22
591.721	42198.37
592.08	42254.41
592.44	42419.15
592.799	42421.64
593.158	42390.45
593.517	42326.95
593.876	42351.58
594.235	42387.29
594.593	42388.87
594.952	42459.6
595.311	42451.02
595.67	42499.15
596.029	42648.53
596.387	42752.48
596.746	42775.75
597.104	42354.07
597.463	42693.72
597.822	42845.36
598.18	42729.2
598.538	42708.18
598.897	42875.41
599.255	42599.49
599.613	43178
599.972	42880.16
600.33	42987.05
600.688	43015.3
601.046	43254.39
601.404	43121.06
601.762	43080.38
602.12	43239.02
602.478	43210.09
602.836	43408.05
603.194	43062.75
603.552	43226.82
603.91	43068.18
604.268	43420.26
604.625	43272.01
604.983	43371.22
605.341	43258.9
605.698	43486.24
606.056	43570.76
606.413	43525.11
606.771	43603.53
607.128	43794.48
607.485	43692.11
607.843	43732.34
608.2	43894.14
608.557	43908.83
608.914	43704.99
609.272	43845.78
609.629	44189.5
609.986	44201.71
610.343	44009.62
610.7	44220.24
611.057	44182.72
611.414	44198.09
611.771	44245.09
612.127	44515.37
612.484	44396.95
612.841	44427.91
613.198	44400.57
613.554	44342.27
613.911	44710.39
614.267	44520.34
614.624	44628.59
614.98	44767.11
615.337	44925.53
615.693	44825.42
616.05	44911.06
616.406	45066.54
616.762	44817.06
617.118	44822.71
617.475	44912.19
617.831	45050.04
618.187	45022.25
618.543	45040.55
618.899	45282.35
619.255	45110.61
619.611	45080.78
619.967	45327.1
620.323	45393.54
620.678	45121.68
621.034	45230.83
621.39	45231.73
621.746	45158.97
622.101	45641.67
622.457	45189.93
622.812	45367.55
623.168	45358.96
623.523	45349.47
623.879	45586.3
624.234	45280.09
624.589	45346.76
624.945	45498.17
625.3	45329.58
625.655	45267.21
626.01	45361.22
626.365	45455.01
626.72	45423.82
627.075	45335.46
627.43	45352.41
627.785	45278.29
628.14	45351.51
628.495	45314.67
628.85	45311.73
629.205	45187.44
629.559	45398.28
629.914	45159.42
630.269	45150.15
630.623	45148.8
630.978	44890.27
631.332	45163.49
631.687	45295.91
632.041	44953.1
632.396	45043.26
632.75	44907.22
633.104	44998.75
633.459	44824.51
633.813	44773.89
634.167	44700
634.521	44717.17
634.875	44796.49
635.229	44775.7
635.583	44356.73
635.937	44528.7
636.291	44474.92
636.645	44408.71
636.999	44261.82
637.352	44356.28
637.706	44249.61
638.06	44300.46
638.413	44257.3
638.767	44145.89
639.121	44121.03
639.474	43827.25
639.828	43932.79
640.181	43980.24
640.534	43914.25
640.888	43822.96
641.241	43647.14
641.594	43810.3
641.947	43755.62
642.301	43658.22
642.654	43681.49
643.007	43738.21
643.36	43691.21
643.713	43552.91
644.066	43628.84
644.419	43368.28
644.771	43109.08
645.124	42708.18
645.477	42533.05
645.83	42232.27
646.182	42243.34
646.535	42207.86
646.888	42284.47
647.24	42151.82
647.593	42318.59
647.945	42283.34
648.298	42166.73
648.65	41954.98
649.002	41934.19
649.355	42138.93
649.707	41891.26
650.059	42139.61
650.411	42436.33
650.763	42462.32
651.115	42707.96
651.467	42664.34
651.819	42853.94
652.171	42413.5
652.523	42497.8
652.875	42552.48
653.227	42451.69
653.578	42535.31
653.93	42545.03
654.282	42421.19
654.633	42338.48
654.985	42438.36
655.337	42347.74
655.688	42387.29
656.039	42394.75
656.391	42007.19
656.742	42139.61
657.094	42069.11
657.445	42219.38
657.796	42127.86
658.147	42115.43
658.498	41947.08
658.849	42098.03
659.2	41996.79
659.551	41978.71
659.902	42147.75
660.253	41969.67
660.604	42030.01
660.955	41758.15
661.306	41983.01
661.656	41860.75
662.007	41880.64
662.358	41795.21
662.708	41846.51
663.059	41711.15
663.409	41456.01
663.76	41752.28
664.11	41745.95
664.461	41660.75
664.811	41637.48
665.161	41618.04
665.511	41535.56
665.862	41625.28
666.212	41719.28
666.562	41655.78
666.912	41720.19
667.262	41471.83
667.612	41464.15
667.962	41627.76
668.312	41420.54
668.662	41644.03
669.011	41554.77
669.361	41444.49
669.711	41446.52
670.06	41384.83
670.41	41260.09
670.76	41150.94
671.109	41385.73
671.459	41187.77
671.808	41144.16
672.157	41325.4
672.507	40960.21
672.856	40932.64
673.205	41002.24
673.554	41193.87
673.904	40951.62
674.253	41302.8
674.602	41165.85
674.951	40578.52
675.3	40412.43
675.649	41063.03
675.998	40866.88
676.346	40868.46
676.695	41053.54
677.044	40811.51
677.393	40790.27
677.741	40876.14
678.09	40741.01
678.438	40529.94
678.787	40786.2
679.135	40695.81
679.484	40717.5
679.832	40753.43
680.181	40517.51
680.529	40567.9
680.877	40209.04
681.225	40311.64
681.573	40432.76
681.922	40253.79
682.27	40220.34
682.618	40220.11
682.966	40021.02
683.314	40182.6
683.661	40079.78
684.009	39849.28
684.357	39671.2
684.705	39582.39
685.053	39620.13
685.4	39750.07
685.748	39565.44
686.095	39508.04
686.443	39366.13
686.79	39290.2
687.138	39271.21
687.485	39319.35
687.832	39068.05
688.18	39222.85
688.527	38955.97
688.874	38969.98
689.221	38735.18
689.568	38682.3
689.915	38613.6
690.262	38616.54
690.609	38713.49
690.956	38581.74
691.303	38503.55
691.65	38151.24
691.997	38181.3
692.344	38057.91
692.69	38037.35
693.037	38125.25
693.383	37756
693.73	37923
694.077	37710.8
694.423	37589.45
694.769	37611.14
695.116	37608.21
695.462	37510.13
695.808	37202.57
696.155	37198.05
696.501	37038.5
696.847	37008.22
697.193	36753.54
697.539	37010.71
697.885	36732.3
698.231	36485.75
698.577	36563.26
698.923	36585.18
699.269	36205.53
699.614	36022.94
699.96	36075.37
700.306	36110.17
700.651	36079.43
700.997	35835.37
701.342	35817.74
701.688	35728.71
702.033	35594.7
702.379	35514.48
702.724	35416.4
703.069	35522.84
703.415	35063.87
703.76	35145.45
704.105	34955.62
704.45	34951.33
704.795	34877.88
705.14	34715.63
705.485	34618.45
705.83	34542.07
706.175	34647.61
706.52	34467.5
706.865	34436.54
707.209	34258.24
707.554	34166.26
707.899	34310.89
708.243	34160.39
708.588	34203.32
708.932	33877.46
709.277	33891.92
709.621	33840.62
709.966	33557.01
710.31	33717.46
710.654	33408.32
710.998	33591.36
711.342	33445.15
711.687	33430.01
712.031	33246.96
712.375	33156.57
712.719	33306.62
713.063	33105.27
713.407	33147.98
713.75	32998.16
714.094	32877.71
714.438	32798.39
714.782	32832.74
715.125	32614.44
715.469	32691.05
715.812	32556.59
716.156	32351.62
716.499	32351.17
716.843	32394.11
717.186	32293.54
717.53	32379.19
717.873	32363.82
718.216	32134.9
718.559	32076.37
718.902	31884.97
719.246	32051.97
719.589	31943.95
719.932	31649.04
720.275	31692.66
720.617	31691.07
720.96	31553.45
721.303	31647.23
721.646	31584.86
721.989	31322.72
722.331	31490.63
722.674	31389.61
723.016	31432.55
723.359	31321.14
723.701	31245.89
724.044	31087.02
724.386	30951.66
724.729	31134.7
725.071	30993.46
725.413	31099.22
725.755	30997.08
726.097	30870.53
726.439	30582.85
726.782	30666.02
727.124	30797.31
727.465	30616.98
727.807	30557.32
728.149	30495.62
728.491	30462.63
728.833	30444.1
729.175	30395.97
729.516	30340.6
729.858	30346.48
730.199	30347.61
730.541	30174.5
730.882	30212.92
731.224	30304.22
731.565	30054.51
731.906	29978.12
732.248	29971.12
732.589	29849.54
732.93	29785.13
733.271	29758.92
733.612	29858.13
733.953	29872.82
734.294	29593.05
734.635	29645.7
734.976	29826.26
735.317	29554.63
735.658	29602.09
735.999	29451.58
736.339	29407.74
736.68	29524.35
737.021	29390.8
737.361	29294.07
737.702	29388.99
738.042	29185.38
738.383	29105.38
738.723	29236.22
739.063	29133.85
739.404	29287.07
739.744	28908.55
740.084	28933.63
740.424	28927.53
740.764	28897.93
741.104	29002.1
741.444	28769.79
741.784	28730.47
742.124	28709.68
742.464	28565.05
742.804	28658.16
743.143	28550.37
743.483	28549.69
743.823	28382.01
744.162	28283.03
744.502	28472.63
744.841	28265.63
745.181	28379.97
745.52	28128.68
745.86	28168
746.199	28129.81
746.538	28063.82
746.877	28231.96
747.216	28057.95
747.556	28024.96
747.895	27991.28
748.234	27882.81
748.573	27883.26
748.911	27736.6
749.25	27866.54
749.589	27698.64
749.928	27746.09
750.267	27720.78
750.605	27503.16
750.944	27461.81
751.283	27455.48
751.621	27499.09
751.96	27344.07
752.298	27302.04
752.636	27282.15
752.975	26993.57
753.313	27049.61
753.651	27229.72
753.989	27016.85
754.327	26889.39
754.666	26795.16
755.004	26821.37
755.342	26767.81
755.679	26749.28
756.017	26571.66
756.355	26694.14
756.693	26463.87
757.031	26488.05
757.368	26269.07
757.706	26409.4
758.044	26289.18
758.381	26393.81
758.719	26201.73
759.056	26142.07
759.394	26055.06
759.731	25837.67
760.068	25902.98
760.405	25789.76
760.743	25707.05
761.08	25760.16
761.417	25511.8
761.754	25506.83
762.091	25431.35
762.428	25350.45
762.765	25205.14
763.102	25338.25
763.438	25261.86
763.775	25014.41
764.112	25100.96
764.449	25097.57
764.785	24979.84
765.122	24683.8
765.458	24737.36
765.795	24610.81
766.131	24644.03
766.467	24514.77
766.804	24206.52
767.14	24080.43
767.476	24237.94
767.812	24130.82
768.148	24129.92
768.485	24012.41
768.821	23882.69
769.157	23843.82
769.492	23817.83
769.828	23660.78
770.164	23490.61
770.5	23400.44
770.836	23462.82
771.171	23366.09
771.507	23300.56
771.842	23083.84
772.178	23120.45
772.513	23047.46
772.849	22888.37
773.184	22715.49
773.519	22764.53
773.855	22718.2
774.19	22578.09
774.525	22438.21
774.86	22400.47
775.195	22428.94
775.53	22310.08
775.865	22135.84
776.2	22075.73
776.535	21881.39
776.87	21977.88
777.205	21790.54
777.539	21685.46
777.874	21791.22
778.209	21547.84
778.543	21507.39
778.878	21408.63
779.212	21387.16
779.547	21229.88
779.881	21250.44
780.215	21106.95
780.55	21168.19
780.884	21019.49
781.218	20973.16
781.552	20860.4
781.886	20877.57
782.22	20760.51
782.554	20657.92
782.888	20499.5
783.222	20333.63
783.556	20402.78
783.889	20274.88
784.223	20160.53
784.557	20108.33
784.89	20141.55
785.224	19991.72
785.557	19945.17
785.891	19854.32
786.224	19859.07
786.558	19799.86
786.891	19611.17
787.224	19557.83
787.557	19600.32
787.891	19535.01
788.224	19471.96
788.557	19440.77
788.89	19280.33
789.223	19311.06
789.556	19183.83
789.888	19252.76
790.221	18936.15
790.554	18871.07
790.887	18881.01
791.219	18793.56
791.552	18818.87
791.884	18673.56
792.217	18700
792.549	18583.62
792.882	18473.57
793.214	18478.31
793.546	18373.01
793.879	18162.39
794.211	18103.86
794.543	18280.8
794.875	18099.57
795.207	18174.14
795.539	17966.46
795.871	18030.19
796.203	17817.99
796.535	17781.16
796.867	17705.9
797.198	17594.95
797.53	17708.62
797.862	17563.31
798.193	17603.31
798.525	17437.44
798.856	17516.53
799.188	17286.71
799.519	17270.89
799.85	17162.19
800.182	17132.36
800.513	17197.44
800.844	17031.8
801.175	17134.62
801.506	17071.34
801.837	16983.44
802.168	16975.3
802.499	16816.44
802.83	16679.49
803.161	16779.38
803.491	16710.45
803.822	16674.29
804.153	16617.57
804.483	16475.2
804.814	16394.3
805.145	16372.61
805.475	16336
805.805	16336.22
806.136	16369.44
806.466	16279.05
806.796	16096.46
807.126	16049.22
807.457	16098.72
807.787	16003.35
808.117	15946.85
808.447	15929
808.777	15910.92
809.107	15828.67
809.436	15790.93
809.766	15741.44
810.096	15735.79
810.426	15650.82
810.755	15603.36
811.085	15648.11
811.414	15498.73
811.744	15294.22
812.073	15370.15
812.403	15386.19
812.732	15248.79
813.061	15328.11
813.39	15209.92
813.719	15181.45
814.049	15182.13
814.378	15145.52
814.707	15112.75
815.036	15101
815.365	14973.32
815.693	14925.86
816.022	14985.07
816.351	14899.2
816.68	14807
817.008	14854.68
817.337	14694.46
817.665	14658.98
817.994	14747.79
818.322	14647.23
818.651	14656.49
818.979	14588.92
819.307	14664.85
819.636	14498.53
819.964	14455.37
820.292	14493.56
820.62	14432.09
820.948	14468.25
821.276	14413.56
821.604	14405.2
821.932	14442.94
822.259	14356.84
822.587	14402.71
822.915	14318.87
823.243	14440.45
823.57	14386.44
823.898	14347.57
824.225	14352.32
824.553	14233.68
824.88	14261.93
825.207	14370.4
825.535	14308.48
825.862	14307.12
826.189	14328.37
826.516	14415.82
826.843	14487.01
827.17	14365.43
827.497	14459.21
827.824	14359.33
828.151	14437.29
828.478	14328.14
828.805	14367.69
829.131	14311.87
829.458	14175.15
829.785	14252.44
830.111	14264.19
830.438	14385.54
830.764	14310.97
831.09	14365.43
831.417	14213.79
831.743	14205.21
832.069	14217.18
832.395	14148.71
832.722	14218.09
833.048	14213.79
833.374	14214.24
833.7	14093.8
834.026	14134.25
834.351	14191.19
834.677	14186.22
835.003	14169.27
835.329	14073.23
835.654	14112.55
835.98	13964.99
836.306	14054.93
836.631	13932.9
836.956	13986
837.282	14016.06
837.607	13931.99
837.932	13934.25
838.258	13997.3
838.583	13898.32
838.908	13800.24
839.233	13815.61
839.558	13906
839.883	13753.47
840.208	13683.86
840.533	13609.97
840.858	13663.75
841.182	13758.21
841.507	13724.31
841.832	13684.32
842.156	13649.51
842.481	13628.05
842.805	13586.01
843.13	13521.38
843.454	13430.76
843.778	13389.63
844.103	13399.13
844.427	13388.5
844.751	13304.89
845.075	13332.69
845.399	13322.74
845.723	13235.51
846.047	13183.54
846.371	13114.16
846.695	13112.8
847.019	12942.64
847.343	12946.71
847.666	12852.02
847.99	12776.77
848.313	12785.36
848.637	12701.52
848.96	12668.75
849.284	12688.18
849.607	12602.54
849.931	12568.41
850.254	12492.48
850.577	12380.39
850.9	12325.26
851.223	12318.93
851.546	12209.1
851.869	12182.43
852.192	12212.94
852.515	12172.49
852.838	12033.74
853.161	12066.5
853.483	12012.95
853.806	11984.47
854.129	11967.98
854.451	11870.58
854.774	11847.75
855.096	11852.73
855.419	11792.61
855.741	11753.74
856.063	11699.96
856.385	11622.67
856.708	11601.43
857.03	11580.64
857.352	11596.46
857.674	11459.29
857.996	11506.52
858.318	11343.81
858.64	11360.99
858.961	11354.21
859.283	11335.9
859.605	11215.45
859.926	11275.11
860.248	11231.27
860.57	11239.86
860.891	11181.1
861.212	11143.14
861.534	11130.94
861.855	11128
862.176	11144.95
862.498	11154.21
862.819	11102.46
863.14	11043.71
863.461	11068.56
863.782	10989.47
864.103	10945.63
864.424	10868.8
864.745	11001
865.065	10844.84
865.386	10832.19
865.707	10835.58
866.027	10844.39
866.348	10831.96
866.668	10827.22
866.989	10768.46
867.309	10781.79
867.63	10780.21
867.95	10738.63
868.27	10683.04
868.59	10659.08
868.91	10692.3
869.23	10674
869.55	10562.14
869.87	10642.59
870.19	10600.33
870.51	10577.05
870.83	10610.27
871.15	10515.81
871.469	10514.91
871.789	10481.24
872.109	10537.51
872.428	10410.5
872.748	10431.75
873.067	10446.21
873.386	10426.1
873.706	10372.76
874.025	10296.16
874.344	10282.6
874.663	10383.84
874.982	10368.92
875.301	10307.23
875.62	10219.32
875.939	10252.54
876.258	10300.68
876.577	10185.2
876.896	10153.79
877.214	10181.81
877.533	10175.48
877.852	10144.52
878.17	10142.94
878.489	10136.39
878.807	10130.51
879.125	10068.82
879.444	10057.97
879.762	9989.5
880.08	10038.08
880.398	10022.04
880.716	10007.12
881.034	9961.7
881.352	9943.4
881.67	9904.98
881.988	9986.11
882.306	9894.13
882.624	9907.01
882.941	9849.39
883.259	9868.37
883.577	9728.71
883.894	9745.89
884.212	9802.16
884.529	9763.97
884.846	9721.03
885.164	9658.43
885.481	9731.88
885.798	9703.63
886.115	9585.67
886.432	9553.8
886.75	9548.15
887.067	9578.89
887.383	9530.3
887.7	9496.63
888.017	9511.54
888.334	9502.05
888.651	9469.06
888.967	9370.53
889.284	9394.94
889.6	9335.5
889.917	9337.31
890.233	9292.34
890.55	9198.11
890.866	9238.1
891.182	9194.04
891.498	9175.28
891.815	9114.72
892.131	9149.97
892.447	9080.82
892.763	9031.78
893.079	9079.46
893.395	9006.25
893.71	9067.71
894.026	9023.87
894.342	8961.5
894.657	8837.66
894.973	8900.03
895.289	8894.84
895.604	8865.23
895.92	8820.49
896.235	8728.29
896.55	8695.07
896.865	8681.06
897.181	8672.24
897.496	8626.6
897.811	8624.11
898.126	8610.1
898.441	8560.83
898.756	8505.47
899.071	8534.17
899.386	8598.12
899.7	8470.89
900.015	8379.82
900.33	8365.36
900.644	8371.91
900.959	8381.18
901.273	8369.88
901.588	8269.09
901.902	8154.74
902.216	8204.69
902.531	8189.09
902.845	8158.81
903.159	8153.16
903.473	8048.76
903.787	8016.67
904.101	8000.62
904.415	7959.72
904.729	7921.98
905.042	7880.17
905.356	7909.1
905.67	7922.66
905.984	7898.93
906.297	7839.95
906.611	7862.1
906.924	7746.39
907.237	7689.67
907.551	7687.41
907.864	7718.6
908.177	7680.63
908.491	7657.81
908.804	7576.23
909.117	7589.56
909.43	7521.54
909.743	7512.05
910.056	7450.13
910.368	7455.33
910.681	7381.66
910.994	7338.72
911.307	7332.17
911.619	7342.34
911.932	7293.97
912.244	7249.91
912.557	7240.64
912.869	7168.33
913.181	7136.01
913.494	7156.35
913.806	7095.11
914.118	7030.48
914.43	6993.42
914.742	7018.28
915.054	6963.81
915.366	6932.4
915.678	6953.42
915.99	6870.03
916.302	6875.45
916.613	6838.17
916.925	6784.61
917.236	6817.15
917.548	6761.56
917.859	6750.71
918.171	6738.51
918.482	6681.34
918.794	6624.39
919.105	6663.26
919.416	6613.54
919.727	6589.59
920.038	6573.32
920.349	6517.95
920.66	6453.09
920.971	6482.24
921.282	6442.92
921.593	6405.18
921.903	6301.01
922.214	6322.48
922.525	6332.19
922.835	6253.1
923.146	6270.95
923.456	6228.01
923.767	6211.74
924.077	6212.65
924.387	6211.07
924.697	6119.99
925.008	6139.43
925.318	6052.88
925.628	6037.06
925.938	6055.59
926.248	5960
926.558	5951.41
926.867	5955.48
927.177	5976.04
927.487	5858.31
927.796	5873.9
928.106	5902.15
928.416	5834.35
928.725	5844.75
929.034	5790.74
929.344	5729.27
929.653	5735.82
929.962	5668.48
930.271	5654.24
930.581	5605.88
930.89	5638.2
931.199	5589.16
931.508	5573.57
931.817	5596.62
932.125	5542.38
932.434	5558.43
932.743	5538.54
933.051	5403.4
933.36	5472.55
933.669	5386.23
933.977	5353.69
934.286	5388.26
934.594	5379
934.902	5314.37
935.21	5278.43
935.519	5303.07
935.827	5262.39
936.135	5211.32
936.443	5178.1
936.751	5190.08
937.059	5157.31
937.367	5082.51
937.674	5113.92
937.982	5072.79
938.29	5075.73
938.597	5095.84
938.905	4977.2
939.213	5018.78
939.52	4945.56
939.827	5013.81
940.135	4903.3
940.442	4918.67
940.749	4873.47
941.056	4860.59
941.363	4854.04
941.67	4864.89
941.977	4795.28
942.284	4783.98
942.591	4786.24
942.898	4789.63
943.205	4742.18
943.511	4709.41
943.818	4706.92
944.125	4649.52
944.431	4613.37
944.738	4657.89
945.044	4631.67
945.35	4612.69
945.657	4618.79
945.963	4579.7
946.269	4551.9
946.575	4491.56
946.881	4510.32
947.187	4497.21
947.493	4409.98
947.799	4447.5
948.105	4439.13
948.41	4395.75
948.716	4393.71
949.022	4369.53
949.327	4349.65
949.633	4318.23
949.938	4327.27
950.244	4312.13
950.549	4294.51
950.854	4310.32
951.16	4283.88
951.465	4219.25
951.77	4208.86
952.075	4168.18
952.38	4159.14
952.685	4140.39
952.99	4115.75
953.294	4126.6
953.599	4072.82
953.904	4029.2
954.209	4049.77
954.513	4024.68
954.818	4007.73
955.122	3964.34
955.426	3938.81
955.731	3955.98
956.035	3954.18
956.339	3925.7
956.643	3930.45
956.948	3893.61
957.252	3875.76
957.556	3886.15
957.86	3814.74
958.163	3824.24
958.467	3849.09
958.771	3791.47
959.075	3759.38
959.378	3719.83
959.682	3733.62
959.985	3728.19
960.289	3711.7
960.592	3697.23
960.896	3681.64
961.199	3647.52
961.502	3624.47
961.805	3608.42
962.108	3620.17
962.411	3587.86
962.714	3573.85
963.017	3587.18
963.32	3520.51
963.623	3527.97
963.926	3522.32
964.228	3533.85
964.531	3512.83
964.833	3487.3
965.136	3443.91
965.438	3454.53
965.741	3417.01
966.043	3414.98
966.345	3407.3
966.648	3346.73
966.95	3400.07
967.252	3374.08
967.554	3335.89
967.856	3367.98
968.158	3255.44
968.46	3262.22
968.761	3289.11
969.063	3261.31
969.365	3253.4
969.666	3249.56
969.968	3227.42
970.269	3197.36
970.571	3203.23
970.872	3182.44
971.174	3132.73
971.475	3193.29
971.776	3114.42
972.077	3124.82
972.378	3123.24
972.679	3118.49
972.98	3111.03
973.281	3108.32
973.582	3087.31
973.883	3035.56
974.183	3064.26
974.484	3042.11
974.785	2982.68
975.085	3017.25
975.386	2969.57
975.686	2947.2
975.986	2999.4
976.287	2972.28
976.587	2936.35
976.887	2967.99
977.187	2937.93
977.487	2921.21
977.787	2889.34
978.087	2870.81
978.387	2875.11
978.687	2879.18
978.987	2848.22
979.286	2793.08
979.586	2772.06
979.885	2808.44
980.185	2746.98
980.484	2746.98
980.784	2762.57
981.083	2746.52
981.382	2730.71
981.682	2717.15
981.981	2730.03
982.28	2698.39
982.579	2690.71
982.878	2678.73
983.177	2647.09
983.475	2672.18
983.774	2596.47
984.073	2616.58
984.372	2588.79
984.67	2634.21
984.969	2603.25
985.267	2565.51
985.566	2599.64
985.864	2543.37
986.162	2572.07
986.461	2515.57
986.759	2493.88
987.057	2470.15
987.355	2511.73
987.653	2466.76
987.951	2459.53
988.249	2484.61
988.547	2442.13
988.844	2423.14
989.142	2463.82
989.44	2375.23
989.737	2392.41
990.035	2400.32
990.332	2417.49
990.63	2410.49
990.927	2356.25
991.224	2365.74
991.521	2318.29
991.819	2346.31
992.116	2308.34
992.413	2323.71
992.71	2288.91
993.006	2291.85
993.303	2301.11
993.6	2259.98
993.897	2253.66
994.193	2247.1
994.49	2253.2
994.787	2199.19
995.083	2209.81
995.379	2239.19
995.676	2206.88
995.972	2197.84
996.268	2160.78
996.565	2165.97
996.861	2190.83
997.157	2140.44
997.453	2137.5
997.749	2131.62
998.044	2135.01
998.34	2095.24
998.636	2115.13
998.932	2073.55
999.227	2095.69
999.523	2096.37
999.818	2001.68
1000.114	2003.49
1000.409	2037.16
1000.704	2013.66
1001	1972.31
1001.295	1992.42
1001.59	1955.81
1001.885	1992.65
1002.18	1971.85
1002.475	1933.66
1002.77	1941.8
1003.065	1923.72
1003.359	1899.77
1003.654	1924.85
1003.949	1919.43
1004.243	1895.92
1004.538	1855.7
1004.832	1901.12
1005.127	1864.51
1005.421	1878.75
1005.715	1834.01
1006.009	1845.08
1006.304	1825.42
1006.598	1811.41
1006.892	1816.38
1007.186	1787.23
1007.48	1777.96
1007.773	1760.34
1008.067	1780.67
1008.361	1775.7
1008.655	1757.4
1008.948	1722.37
1009.242	1728.02
1009.535	1718.08
1009.829	1704.74
1010.122	1676.5
1010.415	1675.59
1010.708	1679.21
1011.001	1677.63
1011.295	1639.43
1011.588	1666.55
1011.881	1611.19
1012.173	1619.1
1012.466	1613.9
1012.759	1602.6
1013.052	1595.82
1013.344	1587.46
1013.637	1592.43
1013.93	1591.3
1014.222	1576.84
1014.514	1574.8
1014.807	1555.14
1015.099	1547.23
1015.391	1554.24
1015.683	1490.74
1015.976	1516.73
1016.268	1515.82
1016.56	1497.74
1016.851	1482.83
1017.143	1500.68
1017.435	1448.7
1017.727	1455.71
1018.018	1419.1
1018.31	1444.41
1018.602	1458.87
1018.893	1409.38
1019.185	1404.64
1019.476	1415.26
1019.767	1417.52
1020.058	1377.29
1020.35	1355.83
1020.641	1348.37
1020.932	1373.9
1021.223	1332.32
1021.514	1346.56
1021.804	1319.44
1022.095	1326.67
1022.386	1323.96
1022.677	1293.45
1022.967	1282.83
1023.258	1307.92
1023.548	1245.77
1023.839	1271.08
1024.129	1270.86
1024.419	1276.05
1024.709	1236.28
1025	1240.12
1025.29	1234.93
1025.58	1229.73
1025.87	1205.55
1026.16	1210.75
1026.449	1211.42
1026.739	1185.66
1027.029	1199.45
1027.319	1166.23
1027.608	1156.51
1027.898	1137.07
1028.187	1163.06
1028.477	1137.75
1028.766	1136.62
1029.055	1124.19
1029.344	1116.28
1029.634	1108.37
1029.923	1105.21
1030.212	1101.82
1030.501	1085.1
1030.79	1088.26
1031.078	1081.48
1031.367	1111.31
1031.656	1073.35
1031.945	1059.11
1032.233	1050.98
1032.522	1035.16
1032.81	1045.55
1033.099	1020.92
1033.387	1014.14
1033.675	1024.99
1033.963	1007.13
1034.251	1025.44
1034.54	980.69
1034.828	984.54
1035.116	998.32
1035.403	980.69
1035.691	977.76
1035.979	966.91
1036.267	945.89
1036.554	950.86
1036.842	971.88
1037.129	943.41
1037.417	928.27
1037.704	930.98
1037.992	930.07
1038.279	942.05
1038.566	901.37
1038.853	901.37
1039.14	901.37
