Data from plate_porcelain_FLMS001491_001.txt Node
Date: Tue Feb 07 11:18:38 GMT 2017
User: dcchb
Spectrometer: FLMS00149
Trigger mode: 0
Integration Time (sec): 2.000000E-2
Scans to average: 10
Electric dark correction enabled: true
Nonlinearity correction enabled: false
Boxcar width: 0
XAxis mode: Wavelengths
Number of Pixels in Spectrum: 2048
>>>>>Begin Spectral Data<<<<<
341.393	6.37
341.776	6.37
342.16	6.37
342.543	-72.27
342.927	-63.23
343.31	-58.26
343.693	-96.68
344.077	-58.49
344.46	-61.42
344.843	-46.51
345.226	-39.05
345.61	-31.82
345.993	-13.29
346.376	-11.93
346.759	5.01
347.142	37.56
347.525	33.94
347.908	68.52
348.291	84.33
348.674	74.16
349.057	113.94
349.44	124.33
349.823	148.51
350.206	165.69
350.588	221.05
350.971	237.78
351.354	263.31
351.737	289.07
352.119	275.74
352.502	306.7
352.884	313.25
353.267	333.14
353.65	316.87
354.032	352.35
354.414	336.98
354.797	334.04
355.179	346.02
355.562	387.15
355.944	364.1
356.326	372.24
356.709	367.72
357.091	404.1
357.473	401.61
357.855	380.82
358.238	400.71
358.62	377.66
359.002	393.7
359.384	408.39
359.766	395.51
360.148	360.48
360.53	393.7
360.912	395.96
361.294	381.28
361.676	396.42
362.057	380.37
362.439	409.3
362.821	416.98
363.203	392.8
363.584	395.51
363.966	410.43
364.348	385.79
364.729	411.78
365.111	381.5
365.493	398.9
365.874	393.7
366.256	387.83
366.637	404.78
367.019	386.47
367.4	403.42
367.781	390.99
368.163	399.81
368.544	409.3
368.925	394.38
369.306	422.63
369.688	402.29
370.069	402.74
370.45	414.72
370.831	400.48
371.212	414.72
371.593	421.95
371.974	439.58
372.355	418.79
372.736	420.14
373.117	443.42
373.498	422.18
373.879	413.14
374.26	417.66
374.641	423.53
375.021	423.08
375.402	444.78
375.783	446.81
376.163	472.12
376.544	465.34
376.925	454.72
377.305	475.28
377.686	467.15
378.066	474.83
378.447	473.48
378.827	497.43
379.208	490.42
379.588	488.84
379.968	478.22
380.349	496.53
380.729	515.28
381.109	499.92
381.489	507.83
381.87	518.22
382.25	505.57
382.63	509.41
383.01	517.09
383.39	518.45
383.77	533.36
384.15	534.49
384.53	564.77
384.91	554.38
385.29	567.49
385.67	559.58
386.049	559.12
386.429	568.84
386.809	558.67
387.189	575.39
387.568	578.78
387.948	576.75
388.328	592.8
388.707	611.78
389.087	612.68
389.466	629.18
389.846	599.35
390.225	641.61
390.605	631.21
390.984	652.91
391.363	668.27
391.743	670.53
392.122	675.28
392.501	679.57
392.881	714.37
393.26	690.42
393.639	700.59
394.018	713.02
394.397	703.98
394.776	707.82
395.155	751.21
395.534	739.46
395.913	751.66
396.292	754.82
396.671	775.84
397.05	791.43
397.429	785.33
397.808	791.21
398.186	792.11
398.565	804.09
398.944	816.97
399.323	823.75
399.701	829.85
400.08	847.48
400.458	821.94
400.837	842.96
401.215	877.76
401.594	879.34
401.972	915.95
402.351	884.99
402.729	876.4
403.107	897.65
403.486	904.2
403.864	919.11
404.242	942.39
404.62	949.62
404.999	958.89
405.377	961.37
405.755	955.72
406.133	1000.24
406.511	987.81
406.889	1009.06
407.267	1028.72
407.645	1061.26
408.023	1087.02
408.401	1066.46
408.779	1092.89
409.156	1101.48
409.534	1141.71
409.912	1113.23
410.29	1123.4
410.667	1176.06
411.045	1208.82
411.422	1195.27
411.8	1209.73
412.178	1222.84
412.555	1266.9
412.933	1291.53
413.31	1289.95
413.687	1297.18
414.065	1331.31
414.442	1314.58
414.819	1338.09
415.197	1353.23
415.574	1373.57
415.951	1408.59
416.328	1400.46
416.705	1416.73
417.082	1432.32
417.46	1444.07
417.837	1497.18
418.214	1481.59
418.591	1493.56
418.967	1502.38
419.344	1531.53
419.721	1559.32
420.098	1579.44
420.475	1598.19
420.852	1601.13
421.228	1637.51
421.605	1657.17
421.982	1689.49
422.358	1670.51
422.735	1696.04
423.111	1705.53
423.488	1746.66
423.864	1740.79
424.241	1773.1
424.617	1778.3
424.994	1815.36
425.37	1823.5
425.746	1852.88
426.123	1886.55
426.499	1903.72
426.875	1911.63
427.251	1932.87
427.627	1990.72
428.003	2025.53
428.379	2055.81
428.756	2063.94
429.132	2079.31
429.507	2134.45
429.883	2119.53
430.259	2214.9
430.635	2215.13
431.011	2211.96
431.387	2270.04
431.763	2299.87
432.138	2301
432.514	2370.38
432.89	2428
433.265	2418.96
433.641	2440.43
434.016	2487.21
434.392	2541.22
434.767	2592.74
435.143	2570.37
435.518	2585.51
435.894	2646.53
436.269	2667.54
436.644	2728.56
437.02	2762.46
437.395	2750.25
437.77	2828.44
438.145	2822.57
438.52	2864.15
438.895	2894.66
439.271	2905.5
439.646	2972.62
440.021	3023.01
440.395	3055.78
440.77	3003.35
441.145	3055.1
441.52	3132.16
441.895	3107.76
442.27	3130.36
442.645	3137.81
443.019	3190.47
443.394	3166.96
443.769	3185.5
444.143	3219.39
444.518	3278.15
444.892	3305.04
445.267	3337.58
445.641	3365.38
446.016	3398.82
446.39	3419.61
446.764	3426.39
447.139	3425.72
447.513	3479.95
447.887	3500.52
448.262	3513.17
448.636	3511.59
449.01	3618.48
449.384	3658.7
449.758	3642.88
450.132	3744.58
450.506	3760.62
450.88	3733.96
451.254	3773.5
451.628	3818.25
452.002	3907.96
452.376	3921.3
452.75	3978.69
453.123	3972.14
453.497	4088.75
453.871	4015.3
454.244	4135.75
454.618	4185.92
454.992	4300.49
455.365	4228.41
455.739	4396.54
456.112	4359.7
456.486	4470.21
456.859	4507.04
457.232	4601.96
457.606	4633.14
457.979	4678.11
458.352	4771.44
458.725	4785.23
459.099	4846.69
459.472	4954.49
459.845	4992.68
460.218	5013.24
460.591	5132.11
460.964	5109.06
461.337	5237.87
461.71	5315.83
462.083	5450.75
462.456	5430.41
462.829	5471.08
463.201	5588.6
463.574	5601.7
463.947	5686.22
464.32	5809.16
464.692	5829.04
465.065	5867.23
465.438	5973.67
465.81	6064.74
466.183	6157.39
466.555	6279.2
466.928	6321.91
467.3	6321.23
467.672	6462.7
468.045	6614.56
468.417	6598.51
468.789	6719.87
469.161	6763.93
469.534	6830.15
469.906	7026.07
470.278	7129.35
470.65	7137.48
471.022	7323.92
471.394	7481.88
471.766	7500.86
472.138	7640.97
472.51	7791.93
472.882	7934.3
473.253	7992.37
473.625	8175.65
473.997	8371.57
474.369	8384
474.74	8477.11
475.112	8652.47
475.484	8749.87
475.855	9005.46
476.227	9005.68
476.598	9230.76
476.97	9359.8
477.341	9607.7
477.713	9685.44
478.084	9799.78
478.455	9980.12
478.827	10138.98
479.198	10394.35
479.569	10499.65
479.94	10693.55
480.311	10774.67
480.682	11154.55
481.053	11351.16
481.424	11471.61
481.795	11649
482.166	11791.14
482.537	12047.86
482.908	12253.73
483.279	12399.04
483.65	12578.92
484.021	12851.23
484.391	13089.64
484.762	13217.77
485.133	13262.07
485.503	13584.77
485.874	13799.91
486.244	13826.8
486.615	14207.58
486.985	14440.57
487.356	14563.5
487.726	14756.49
488.097	15063.15
488.467	15036.26
488.837	15493.42
489.207	15610.48
489.578	15865.84
489.948	16044.82
490.318	16278.26
490.688	16302.44
491.058	16631.02
491.428	16824.91
491.798	16962.76
492.168	17410.21
492.538	17462.63
492.908	17702.85
493.278	17821.95
493.648	17960.02
494.017	18206.57
494.387	18367.7
494.757	18562.72
495.126	18641.59
495.496	18764.75
495.866	18962.03
496.235	19119.77
496.605	19338.74
496.974	19506.65
497.344	19625.74
497.713	19722.69
498.082	20003.58
498.452	20197.7
498.821	20376
499.19	20284.25
499.559	20571.03
499.928	20826.16
500.298	20808.08
500.667	21135.76
501.036	21135.98
501.405	21415.07
501.774	21345.7
502.143	21652.58
502.512	21765.57
502.88	22015.51
503.249	22000.59
503.618	22244.66
503.987	22298.44
504.356	22450.98
504.724	22641.71
505.093	22734.36
505.462	22789.27
505.83	23055.03
506.199	23301.8
506.567	23508.8
506.936	23583.38
507.304	23812.3
507.672	23886.87
508.041	24000.77
508.409	24289.57
508.777	24381.55
509.145	24641.43
509.514	24574.31
509.882	24879.16
510.25	24902.89
510.618	25102.89
510.986	25277.12
511.354	25480.5
511.722	25737.67
512.09	25986.25
512.458	25983.31
512.826	26260.37
513.193	26456.52
513.561	26564.09
513.929	26709.17
514.297	27090.63
514.664	27271.19
515.032	27400
515.4	27736.94
515.767	27820.1
516.135	27910.04
516.502	27898.97
516.869	28376.47
517.237	28511.61
517.604	28505.51
517.972	28877.93
518.339	29084.7
518.706	29084.25
519.073	29263.23
519.44	29577.57
519.808	29845.36
520.175	29978.92
520.542	30346.14
520.909	30493.93
521.276	30530.54
521.643	30954.26
522.009	31173.91
522.376	31259.79
522.743	31462.49
523.11	31826.78
523.477	32122.59
523.843	32297.72
524.21	32726.64
524.577	32974.32
524.943	33188.32
525.31	33291.37
525.676	33601.42
526.043	33814.97
526.409	34011.8
526.776	34388.06
527.142	34478.46
527.508	34808.39
527.874	35035.51
528.241	35274.82
528.607	35275.73
528.973	35642.04
529.339	35665.32
529.705	36090.62
530.071	36334.23
530.437	36583.26
530.803	36773.54
531.169	37053.31
531.535	37016.02
531.901	37155.68
532.267	37281.32
532.632	37547.76
532.998	37752.95
533.364	38069.32
533.73	38165.14
534.095	38503.21
534.461	38615.98
534.826	38850.32
535.192	38944.1
535.557	39202.4
535.923	39132.8
536.288	39413.24
536.653	39559.68
537.019	39551.54
537.384	39747.25
537.749	39939.78
538.114	40014.13
538.479	40136.84
538.845	40535.47
539.21	40314.91
539.575	40616.15
539.94	40788.8
540.305	41106.98
540.67	41003.48
541.034	41192.41
541.399	41357.37
541.764	41473.75
542.129	41622
542.494	41570.25
542.858	41741.32
543.223	41994.64
543.587	42304.24
543.952	42277.35
544.316	42556.21
544.681	42411.36
545.045	42577.23
545.41	42787.62
545.774	42928.18
546.138	43042.75
546.503	43153.26
546.867	43360.26
547.231	43646.58
547.595	43566.13
547.959	43833.24
548.324	43758.21
548.688	43866.91
549.052	44009.73
549.416	44175.6
549.779	44393.23
550.143	44544.18
550.507	44796.6
550.871	44943.49
551.235	44954.11
551.599	45302.35
551.962	45312.75
552.326	45374.89
552.689	45673.42
553.053	45501.44
553.417	45784.6
553.78	46261.65
554.143	46008.32
554.507	46304.36
554.87	46478.82
555.234	46814.18
555.597	46559.04
555.96	46919.26
556.323	47037.9
556.686	47204.45
557.05	47341.4
557.413	47567.83
557.776	47551.11
558.139	47925.79
558.502	47971.66
558.865	47990.42
559.228	48384.76
559.59	48492.33
559.953	48483.29
560.316	49052.76
560.679	48937.06
561.041	49098.64
561.404	49377.5
561.767	49654.1
562.129	49526.65
562.492	49951.72
562.854	49876.92
563.217	49963.47
563.579	50135.9
563.941	50421.99
564.304	50568.2
564.666	50751.25
565.028	50762.55
565.39	50939.04
565.753	51168.87
566.115	51247.96
566.477	51345.36
566.839	51384.45
567.201	51773.82
567.563	51678.68
567.925	51986.7
568.287	52025.34
568.648	52118.45
569.01	52239.35
569.372	52431.43
569.734	52375.84
570.095	52601.15
570.457	52734.7
570.819	52868.26
571.18	52770.86
571.542	52965.66
571.903	53010.17
572.265	53058.53
572.626	53160.45
572.987	53276.16
573.349	53447.45
573.71	53543.95
574.071	53597.28
574.432	53646.99
574.794	53806.99
575.155	53752.53
575.516	53748.91
575.877	53998.4
576.238	53945.06
576.599	54068.23
576.96	54061.45
577.32	54161.1
577.681	54341.89
578.042	54322
578.403	54423.47
578.763	54438.16
579.124	54439.06
579.485	54648.55
579.845	54660.75
580.206	54565.16
580.566	54569.91
580.927	54637.93
581.287	54707.53
581.648	54667.76
582.008	54763.57
582.368	54776.68
582.728	54769.22
583.089	54764.03
583.449	54794.76
583.809	54858.03
584.169	54889.9
584.529	54785.27
584.889	55043.34
585.249	54847.87
585.609	54757.7
585.969	54945.72
586.329	54861.2
586.688	54896.23
587.048	54954.08
587.408	54934.64
587.768	54873.85
588.127	54770.13
588.487	54824.36
588.846	55006.28
589.206	54900.75
589.565	54943.91
589.925	55073.4
590.284	54981.2
590.643	55048.76
591.003	55087.86
591.362	55046.28
591.721	55034.3
592.08	55011.25
592.44	55087.41
592.799	55186.84
593.158	55066.62
593.517	55082.44
593.876	55203.56
594.235	55069.1
594.593	55183
594.952	55169.89
595.311	55150
595.67	55176.22
596.029	55344.58
596.387	55302.54
596.746	55332.82
597.104	55310.23
597.463	55244.47
597.822	55370.56
598.18	55259.15
598.538	55306.16
598.897	55389.77
599.255	55198.59
599.613	55617.56
599.972	55426.61
600.33	55518.13
600.688	55313.16
601.046	55450.56
601.404	55580.95
601.762	55480.62
602.12	55634.96
602.478	55645.36
602.836	55718.58
603.194	55607.17
603.552	55546.6
603.91	55535.08
604.268	55692.82
604.625	55630.44
604.983	55763.1
605.341	55638.58
605.698	55849.65
606.056	55900.04
606.413	55820.27
606.771	55942.75
607.128	55966.48
607.485	55838.12
607.843	55898.46
608.2	56035.18
608.557	56083.77
608.914	55975.07
609.272	56128.28
609.629	56108.62
609.986	56210.99
610.343	56115.86
610.7	56274.49
611.057	56231.56
611.414	56288.96
611.771	56248.51
612.127	56359.92
612.484	56393.36
612.841	56434.94
613.198	56370.99
613.554	56345.68
613.911	56562.62
614.267	56496.64
614.624	56486.24
614.98	56542.28
615.337	56637.42
615.693	56612.79
616.05	56599.23
616.406	56776.63
616.762	56584.09
617.118	56644.88
617.475	56661.15
617.831	56705.44
618.187	56736.4
618.543	56728.49
618.899	56938.43
619.255	56888.94
619.611	56856.63
619.967	56899.34
620.323	56885.33
620.678	56839.9
621.034	56836.29
621.39	56795.16
621.746	56844.42
622.101	57109.5
622.457	56813.92
622.812	56899.34
623.168	57009.84
623.523	57005.55
623.879	57053.01
624.234	56863.63
624.589	56961.03
624.945	57015.94
625.3	56976.4
625.655	56929.84
626.01	56979.11
626.365	56992.89
626.72	56989.05
627.075	56974.59
627.43	56932.1
627.785	56890.98
628.14	56924.2
628.495	56957.64
628.85	56923.07
629.205	56726.46
629.559	56897.08
629.914	56761.71
630.269	56877.42
630.623	56734.6
630.978	56758.55
631.332	56823.86
631.687	56874.93
632.041	56740.47
632.396	56807.36
632.75	56648.04
633.104	56622.06
633.459	56513.36
633.813	56574.6
634.167	56508.16
634.521	56493.47
634.875	56526.01
635.229	56483.3
635.583	56339.8
635.937	56359.92
636.291	56396.53
636.645	56316.75
636.999	56236.08
637.352	56320.82
637.706	56172.58
638.06	56286.47
638.413	56217.55
638.767	56109.3
639.121	56194.95
639.474	55923.77
639.828	55925.8
640.181	56004.67
640.534	55971
640.888	55957.44
641.241	55801.74
641.594	55802.19
641.947	55923.09
642.301	55872.02
642.654	55877.22
643.007	55794.28
643.36	55826.82
643.713	55752.93
644.066	55783.43
644.419	55641.97
644.771	55434.52
645.124	55175.77
645.477	55136.67
645.83	54891.48
646.182	54792.95
646.535	54718.6
646.888	54754.99
647.24	54655.33
647.593	54740.75
647.945	54689.68
648.298	54561.09
648.65	54469.12
649.002	54393.19
649.355	54482.9
649.707	54457.82
650.059	54555.67
650.411	54879.96
650.763	54958.6
651.115	55166.5
651.467	55005.6
651.819	54978.03
652.171	54946.85
652.523	54894.19
652.875	54899.16
653.227	54734.87
653.578	54862.55
653.93	54792.27
654.282	54734.87
654.633	54701.43
654.985	54721.54
655.337	54723.58
655.688	54702.11
656.039	54773.07
656.391	54496.69
656.742	54630.92
657.094	54645.84
657.445	54781.43
657.796	54712.5
658.147	54594.54
658.498	54563.58
658.849	54646.52
659.2	54567.2
659.551	54400.87
659.902	54558.16
660.253	54464.37
660.604	54479.29
660.955	54394.09
661.306	54450.14
661.656	54360.87
662.007	54325.39
662.358	54361.32
662.708	54348.67
663.059	54323.59
663.409	54096.47
663.76	54290.59
664.11	54188.45
664.461	54272.74
664.811	54346.86
665.161	54260.31
665.511	54207.66
665.862	54294.89
666.212	54389.12
666.562	54329.46
666.912	54259.63
667.262	54280.2
667.612	54194.55
667.962	54203.14
668.312	54125.4
668.662	54295.11
669.011	54163.36
669.361	54114.78
669.711	54047.43
670.06	54066.64
670.41	53922.69
670.76	53906.42
671.109	54080.88
671.459	53977.15
671.808	53999.07
672.157	54028.9
672.507	53876.82
672.856	53909.59
673.205	53887.89
673.554	53979.19
673.904	53850.38
674.253	53963.6
674.602	53784.39
674.951	53438.19
675.3	53331.3
675.649	53767.67
675.998	53768.8
676.346	53808.57
676.695	53804.73
677.044	53587.56
677.393	53696.71
677.741	53739.19
678.09	53625.75
678.438	53541.69
678.787	53597.05
679.135	53592.98
679.484	53402.03
679.832	53574.23
680.181	53331.52
680.529	53394.8
680.877	53330.17
681.225	53202.03
681.573	53413.33
681.922	53250.39
682.27	53186.44
682.618	53133.11
682.966	52993.45
683.314	53086.1
683.661	52876.62
684.009	52785.1
684.357	52794.59
684.705	52742.61
685.053	52828.26
685.4	52724.98
685.748	52561.6
686.095	52531.54
686.443	52374.48
686.79	52364.54
687.138	52382.39
687.485	52397.08
687.832	52173.81
688.18	52336.75
688.527	52152.8
688.874	51967.72
689.221	51952.12
689.568	51861.96
689.915	51775.63
690.262	51777.21
690.609	51697.44
690.956	51515.07
691.303	51612.47
691.65	51296.77
691.997	51352.82
692.344	51117.12
692.69	51252.71
693.037	51161.63
693.383	50942.66
693.73	51075.99
694.077	50821.53
694.423	50878.7
694.769	50637.35
695.116	50628.32
695.462	50546.06
695.808	50422.22
696.155	50530.92
696.501	50374.76
696.847	50330.92
697.193	50036.01
697.539	50082.34
697.885	49940.88
698.231	49776.81
698.577	49885.06
698.923	49638.74
699.269	49576.37
699.614	49284.62
699.96	49290.05
700.306	49279.88
700.651	49230.39
700.997	49052.76
701.342	49029.71
701.688	48855.93
702.033	48631.31
702.379	48747.91
702.724	48587.92
703.069	48647.35
703.415	48218.44
703.76	48244.42
704.105	48066.12
704.45	48009.63
704.795	47761.5
705.14	47740.26
705.485	47749.3
705.83	47702.97
706.175	47745.45
706.52	47517.21
706.865	47272.7
707.209	47364.45
707.554	47181.4
707.899	47220.95
708.243	47095.3
708.588	47016.21
708.932	46770.11
709.277	46780.06
709.621	46676.56
709.966	46509.78
710.31	46647.4
710.654	46155.44
710.998	46326.73
711.342	46299.84
711.687	46174.2
712.031	45928.33
712.375	45803.36
712.719	45898.04
713.063	45732.17
713.407	45936.69
713.75	45696.69
714.094	45687.65
714.438	45374.22
714.782	45515.68
715.125	45239.08
715.469	45387.55
715.812	45060.78
716.156	44901.69
716.499	44855.13
716.843	44822.59
717.186	44601.13
717.53	44835.02
717.873	44900.33
718.216	44683.16
718.559	44524.97
718.902	44502.38
719.246	44381.47
719.589	44348.03
719.932	44205.21
720.275	44075.72
720.617	43963.63
720.96	43892.22
721.303	43932.67
721.646	44022.16
721.989	43726.58
722.331	43978.32
722.674	43728.38
723.016	43759.12
723.359	43573.81
723.701	43684.09
724.044	43299.69
724.386	43195.74
724.729	43218.34
725.071	43228.51
725.413	43169.53
725.755	43076.2
726.097	42920.95
726.439	42700.61
726.782	42774.28
727.124	42853.38
727.465	42546.95
727.807	42637.34
728.149	42423.11
728.491	42415.42
728.833	42408.64
729.175	42288.87
729.516	42327.29
729.858	42205.49
730.199	42177.01
730.541	42020.63
730.882	42134.98
731.224	42035.1
731.565	41742.9
731.906	41826.51
732.248	41890.24
732.589	41739.28
732.93	41546.52
733.271	41610.47
733.612	41540.42
733.953	41588.78
734.294	41410.48
734.635	41332.51
734.976	41330.93
735.317	40999.19
735.658	41135.23
735.999	41055.69
736.339	41018.62
736.68	41113.99
737.021	40815.69
737.361	40878.74
737.702	40979.98
738.042	40716.94
738.383	40645.75
738.723	40621.35
739.063	40531.18
739.404	40541.12
739.744	40395.59
740.084	40237.18
740.424	40442.59
740.764	40370.05
741.104	40426.55
741.444	40079.21
741.784	40015.04
742.124	40021.59
742.464	39884.42
742.804	39980.46
743.143	39846.9
743.483	39796.96
743.823	39600.36
744.162	39579.57
744.502	39684.42
744.841	39412.57
745.181	39610.98
745.52	39370.98
745.86	39458.21
746.199	39386.8
746.538	39295.28
746.877	39380.02
747.216	39175.74
747.556	38991.79
747.895	38973.48
748.234	38796.54
748.573	38903.88
748.911	38647.61
749.25	38701.62
749.589	38651.23
749.928	38648.07
750.267	38418.24
750.605	38455.3
750.944	38300.28
751.283	38265.7
751.621	38312.93
751.96	38046.5
752.298	37959.04
752.636	38158.36
752.975	37827.52
753.313	37670.92
753.651	37758.15
753.989	37489.9
754.327	37560.64
754.666	37391.6
755.004	37554.08
755.342	37400.87
755.679	37237.48
756.017	37085.39
756.355	37199.52
756.693	36884.95
757.031	36988.45
757.368	36678.4
757.706	36726.76
758.044	36773.09
758.381	36614.45
758.719	36516.82
759.056	36553.66
759.394	36344.62
759.731	36074.35
760.068	36076.38
760.405	35869.16
760.743	35711.42
761.08	35824.41
761.417	35623.06
761.754	35628.94
762.091	35363.63
762.428	35309.4
762.765	35211.55
763.102	35251.09
763.438	34972.23
763.775	34839.13
764.112	34887.26
764.449	34722.07
764.785	34576.76
765.122	34431.23
765.458	34281.85
765.795	34260.61
766.131	34320.27
766.467	34172.48
766.804	33866.72
767.14	33751.92
767.476	33766.39
767.812	33752.83
768.148	33647.07
768.485	33439.39
768.821	33358.04
769.157	33348.09
769.492	33099.06
769.828	33083.47
770.164	32905.62
770.5	32892.74
770.836	32768.45
771.171	32391.06
771.507	32267.67
771.842	32224.51
772.178	32310.83
772.513	32067.9
772.849	32114.45
773.184	31932.54
773.519	31838.98
773.855	31614.13
774.19	31589.49
774.525	31493.23
774.86	31348.14
775.195	31205.55
775.53	31169.84
775.865	31009.62
776.2	30746.13
776.535	30800.81
776.87	30660.48
777.205	30522.4
777.539	30469.75
777.874	30410.77
778.209	30160.61
778.543	30057.78
778.878	29976.2
779.212	29860.73
779.547	29751.35
779.881	29676.1
780.215	29495.54
780.55	29668.41
780.884	29346.84
781.218	29313.62
781.552	29327.63
781.886	29206.05
782.22	28956.34
782.554	28843.8
782.888	28612.85
783.222	28507.32
783.556	28424.83
783.889	28403.14
784.223	28182.13
784.557	28124.05
784.89	28252.63
785.224	27879.31
785.557	27795.24
785.891	27778.52
786.224	27669.15
786.558	27616.27
786.891	27349.83
787.224	27311.87
787.557	27276.61
787.891	27129.05
788.224	27195.49
788.557	27116.84
788.89	27053.79
789.223	27016.51
789.556	26778.32
789.888	26756.18
790.221	26619.68
790.554	26446.58
790.887	26254.27
791.219	26307.15
791.552	26205.23
791.884	26038
792.217	25988.51
792.549	25913.49
792.882	25870.32
793.214	25748.52
793.546	25694.28
793.879	25489.09
794.211	25346.04
794.543	25427.4
794.875	25348.75
795.207	25248.42
795.539	25126.39
795.871	25226.27
796.203	24884.13
796.535	24820.18
796.867	24808.43
797.198	24548.32
797.53	24650.24
797.862	24494.77
798.193	24464.71
798.525	24353.07
798.856	24423.81
799.188	24188.56
799.519	24028.34
799.85	23859.98
800.182	24048.22
800.513	23917.61
800.844	23748.12
801.175	23906.08
801.506	23893.88
801.837	23709.93
802.168	23605.98
802.499	23448.01
802.83	23440.78
803.161	23357.62
803.491	23347.68
803.822	23272.88
804.153	23046.89
804.483	22996.95
804.814	22958.08
805.145	22903.85
805.475	22866.33
805.805	22705.66
806.136	22789.05
806.466	22715.83
806.796	22697.52
807.126	22439.9
807.457	22404.65
807.787	22468.6
808.117	22293.02
808.447	22143.41
808.777	22264.99
809.107	22190.42
809.436	22152.23
809.766	22137.54
810.096	21936.87
810.426	21886.25
810.755	21939.35
811.085	21757.44
811.414	21784.1
811.744	21539.36
812.073	21480.83
812.403	21663.43
812.732	21419.59
813.061	21312.25
813.39	21252.82
813.719	21227.96
814.049	21370.78
814.378	21299.6
814.707	21029.77
815.036	21090.79
815.365	20996.1
815.693	20765.6
816.022	20862.09
816.351	20835.2
816.68	20731.02
817.008	20719.95
817.337	20524.25
817.665	20435.89
817.994	20592.72
818.322	20541.42
818.651	20390.92
818.979	20265.72
819.307	20460.52
819.636	20324.48
819.964	20258.04
820.292	20189.34
820.62	20138.95
820.948	20055.11
821.276	20165.61
821.604	20118.16
821.932	20166.97
822.259	20154.31
822.587	20170.13
822.915	20170.13
823.243	20102.11
823.57	19942.12
823.898	20029.57
824.225	20012.4
824.553	19998.16
824.88	19940.76
825.207	20160.19
825.535	19944.38
825.862	19915.68
826.189	20059.4
826.516	20104.82
826.843	20178.95
827.17	20154.99
827.497	20122.45
827.824	20002.91
828.151	20063.24
828.478	20085.16
828.805	20021.66
829.131	19951.38
829.458	19978.27
829.785	19929.91
830.111	19914.55
830.438	20129.91
830.764	19945.05
831.09	20037.03
831.417	19916.58
831.743	19972.4
832.069	19897.15
832.395	19756.36
832.722	19890.14
833.048	19785.06
833.374	19910.48
833.7	19813.31
834.026	19816.24
834.351	19730.82
834.677	19780.77
835.003	19721.33
835.329	19717.94
835.654	19750.26
835.98	19535.57
836.306	19694.21
836.631	19591.17
836.956	19602.69
837.282	19721.33
837.607	19545.07
837.932	19502.58
838.258	19468.01
838.583	19423.71
838.908	19310.95
839.233	19378.74
839.558	19312.3
839.883	19265.07
840.208	19173.78
840.533	19156.6
840.858	19199.54
841.182	19195.92
841.507	19143.72
841.832	19044.51
842.156	19039.99
842.481	18932.2
842.805	18891.52
843.13	18842.94
843.454	18809.72
843.778	18682.49
844.103	18695.37
844.427	18630.06
844.751	18655.37
845.075	18705.31
845.399	18431.42
845.723	18535.37
846.047	18451.08
846.371	18242.95
846.695	18311.2
847.019	18092.9
847.343	18067.14
847.666	17973.13
847.99	17829.63
848.313	17823.3
848.637	17696.98
848.96	17748.28
849.284	17656.08
849.607	17553.48
849.931	17557.77
850.254	17391.22
850.577	17276.88
850.9	17169.99
851.223	17203.43
851.546	17055.64
851.869	16968.64
852.192	17156.65
852.515	16901.07
852.838	16928.18
853.161	16864.91
853.483	16862.42
853.806	16646.38
854.129	16770.9
854.451	16614.29
854.774	16565.93
855.096	16422.89
855.419	16461.76
855.741	16408.2
856.063	16252.27
856.385	16293.85
856.708	16275.09
857.03	16255.66
857.352	16117.13
857.674	16035.33
857.996	15974.31
858.318	15913.97
858.64	15909.45
858.961	15902.22
859.283	15800.98
859.605	15772.73
859.926	15753.53
860.248	15640.99
860.57	15659.07
860.891	15639.63
861.212	15563.93
861.534	15497.94
861.855	15407.55
862.176	15389.92
862.498	15472.86
862.819	15350.15
863.14	15336.36
863.461	15406.87
863.782	15301.56
864.103	15324.61
864.424	15153.09
864.745	15285.29
865.065	15145.18
865.386	15154.22
865.707	15199.42
866.027	15140.21
866.348	15155.35
866.668	15104.05
866.989	15086.2
867.309	14956.49
867.63	15035.35
867.95	14992.19
868.27	14897.5
868.59	14905.19
868.91	14876.71
869.23	14892.31
869.55	14784.06
869.87	14824.51
870.19	14889.37
870.51	14791.52
870.83	14827.9
871.15	14589.94
871.469	14594.69
871.789	14636.49
872.109	14597.62
872.428	14546.78
872.748	14597.62
873.067	14421.81
873.386	14553.11
873.706	14505.88
874.025	14439.66
874.344	14426.33
874.663	14414.58
874.982	14409.61
875.301	14300.46
875.62	14274.92
875.939	14253
876.258	14250.29
876.577	14231.53
876.896	14199.67
877.214	14177.07
877.533	14180.69
877.852	14238.99
878.17	14132.78
878.489	14127.81
878.807	14013.46
879.125	14108.15
879.444	14067.92
879.762	14023.18
880.08	14035.38
880.398	13973.01
880.716	13970.3
881.034	13879.23
881.352	13985.89
881.67	13879.9
881.988	13838.55
882.306	13787.02
882.624	13784.54
882.941	13770.75
883.259	13610.53
883.577	13638.55
883.894	13612.34
884.212	13653.02
884.529	13515.39
884.846	13501.61
885.164	13458.67
885.481	13342.06
885.798	13444.66
886.115	13286.25
886.432	13306.59
886.75	13304.78
887.067	13283.31
887.383	13256.19
887.7	13215.51
888.017	13189.53
888.334	13172.35
888.651	13128.28
888.967	13132.35
889.284	13065.91
889.6	13035.63
889.917	13004.45
890.233	12964.9
890.55	12891.45
890.866	12865.01
891.182	12826.82
891.498	12804
891.815	12706.6
892.131	12688.52
892.447	12698.24
892.763	12619.82
893.079	12540.05
893.395	12516.1
893.71	12555.87
894.026	12487.62
894.342	12436.1
894.657	12363.33
894.973	12414.41
895.289	12385.03
895.604	12314.29
895.92	12259.38
896.235	12141.87
896.55	12199.95
896.865	12119.95
897.181	12192.94
897.496	12179.16
897.811	12062.78
898.126	12027.52
898.441	11988.65
898.756	11927.64
899.071	11868.66
899.386	11884.93
899.7	11675.67
900.015	11698.94
900.33	11532.39
900.644	11645.16
900.959	11693.29
901.273	11547.76
901.588	11522.9
901.902	11402.68
902.216	11427.54
902.531	11304.38
902.845	11305.06
903.159	11231.84
903.473	11274.77
903.787	11142.12
904.101	11141.9
904.415	11130.15
904.729	11077.94
905.042	10944.84
905.356	10998.4
905.67	10937.16
905.984	10926.99
906.297	10869.59
906.611	10823.49
906.924	10767.44
907.237	10788.46
907.551	10789.59
907.864	10680.67
908.177	10644.28
908.491	10570.39
908.804	10547.11
909.117	10448.13
909.43	10418.98
909.743	10336.04
910.056	10319.32
910.368	10327.23
910.681	10215.14
910.994	10214.92
911.307	10136.72
911.619	10014.24
911.932	10129.04
912.244	10051.08
912.557	10084.07
912.869	9950.74
913.181	9967.24
913.494	9948.93
913.806	9843.4
914.118	9778.99
914.43	9743.97
914.742	9760.24
915.054	9640.92
915.366	9630.98
915.678	9600.02
915.99	9509.85
916.302	9523.41
916.613	9505.33
916.925	9463.75
917.236	9446.12
917.548	9354.6
917.859	9341.27
918.171	9274.6
918.482	9237.99
918.794	9214.26
919.105	9204.55
919.416	9127.71
919.727	9041.39
920.038	9097.88
920.349	9019.01
920.66	8963.2
920.971	8944.67
921.282	8969.98
921.593	8790.32
921.903	8822.64
922.214	8713.03
922.525	8757.1
922.835	8732.02
923.146	8624.45
923.456	8636.43
923.767	8588.29
924.077	8531.34
924.387	8471.01
924.697	8395.75
925.008	8486.82
925.318	8395.3
925.628	8412.93
925.938	8393.04
926.248	8209.54
926.558	8238.7
926.867	8222.2
927.177	8202.09
927.487	8122.77
927.796	8049.1
928.106	8038.48
928.416	8063.33
928.725	7969.1
929.034	8004.58
929.344	7938.14
929.653	7944.92
929.962	7910.79
930.271	7851.14
930.581	7794.64
930.89	7737.69
931.199	7714.64
931.508	7684.36
931.817	7672.38
932.125	7661.99
932.434	7618.37
932.743	7536.34
933.051	7460.64
933.36	7475.33
933.669	7474.2
933.977	7456.34
934.286	7428.77
934.594	7397.81
934.902	7293.86
935.21	7336.57
935.519	7275.78
935.827	7267.2
936.135	7200.31
936.443	7187.42
936.751	7047.31
937.059	7067.65
937.367	7069.46
937.674	7089.12
937.982	7038.5
938.29	6957.6
938.597	6985.4
938.905	6942.91
939.213	6875.34
939.52	6852.74
939.827	6903.14
940.135	6793.31
940.442	6782.46
940.749	6796.93
941.056	6768.68
941.363	6666.99
941.67	6637.83
941.977	6593.77
942.284	6609.59
942.591	6567.1
942.898	6551.06
943.205	6542.47
943.511	6447.56
943.818	6443.49
944.125	6354.23
944.431	6367.56
944.738	6334.57
945.044	6317.84
945.35	6291.63
945.657	6286.2
945.963	6244.85
946.269	6218.86
946.575	6251.63
946.881	6167.79
947.187	6123.5
947.493	6078.07
947.799	6089.6
948.105	6042.6
948.41	5999.43
948.716	6005.76
949.022	5961.02
949.327	5927.34
949.633	5859.55
949.938	5888.02
950.244	5897.51
950.549	5825.43
950.854	5821.13
951.16	5813.67
951.465	5744.07
951.77	5699.55
952.075	5683.96
952.38	5662.27
952.685	5733
952.99	5634.7
953.294	5619.1
953.599	5578.43
953.904	5558.77
954.209	5509.05
954.513	5509.95
954.818	5492.78
955.122	5428.6
955.426	5411.2
955.731	5439.67
956.035	5361.48
956.339	5373.69
956.643	5367.81
956.948	5301.15
957.252	5294.14
957.556	5315.16
957.86	5225.89
958.163	5206.69
958.467	5225.67
958.771	5197.65
959.075	5200.36
959.378	5152
959.682	5095.95
959.985	5103.86
960.289	5044.88
960.592	5064.77
960.896	5044.66
961.199	5021.61
961.502	4967.6
961.805	4960.82
962.108	4916.75
962.411	4901.83
962.714	4868.84
963.017	4884.89
963.32	4903.42
963.623	4768.96
963.926	4838.33
964.228	4836.3
964.531	4799.24
964.833	4840.82
965.136	4799.01
965.438	4743.65
965.741	4733.93
966.043	4644.44
966.345	4658.45
966.648	4669.52
966.95	4617.77
967.252	4588.4
967.554	4568.51
967.856	4580.03
968.158	4546.36
968.46	4518.57
968.761	4502.52
969.063	4495.07
969.365	4461.62
969.666	4420.04
969.968	4379.81
970.269	4376.42
970.571	4382.3
970.872	4366.26
971.174	4289.2
971.475	4319.25
971.776	4303.88
972.077	4272.02
972.378	4239.25
972.679	4235.86
972.98	4217.56
973.281	4191.8
973.582	4172.59
973.883	4180.27
974.183	4119.48
974.484	4113.61
974.785	4063.21
975.085	4070.67
975.386	4029.99
975.686	4043.55
975.986	3974.18
976.287	4009.2
976.587	3967.85
976.887	3931.92
977.187	3977.56
977.487	3938.02
977.787	3894.63
978.087	3857.79
978.387	3887.4
978.687	3862.99
978.987	3810.56
979.286	3789.55
979.586	3800.39
979.885	3766.27
980.185	3782.09
980.484	3760.62
980.784	3736.89
981.083	3713.17
981.382	3723.79
981.682	3704.35
981.981	3683.56
982.28	3662.54
982.579	3653.96
982.878	3585.03
983.177	3575.77
983.475	3608.76
983.774	3554.3
984.073	3534.41
984.372	3555.88
984.67	3543.45
984.969	3553.85
985.267	3512.72
985.566	3482.21
985.864	3485.83
986.162	3470.46
986.461	3420.97
986.759	3413.06
987.057	3383.91
987.355	3342.78
987.653	3388.65
987.951	3318.6
988.249	3339.16
988.547	3334.87
988.844	3301.42
989.142	3268.88
989.44	3270.01
989.737	3232.05
990.035	3221.65
990.332	3204.93
990.63	3162.67
990.927	3224.36
991.224	3167.87
991.521	3189.56
991.819	3173.07
992.116	3104.82
992.413	3110.7
992.71	3137.36
993.006	3070.92
993.303	3076.57
993.6	3052.39
993.897	3072.05
994.193	3030.92
994.49	2994.54
994.787	2944.6
995.083	2996.12
995.379	2951.38
995.676	2952.06
995.972	2950.7
996.268	2935.78
996.565	2885.16
996.861	2838.39
997.157	2846.75
997.453	2860.08
997.749	2845.17
998.044	2815.11
998.34	2802
998.636	2796.13
998.932	2784.38
999.227	2737.6
999.523	2765.17
999.818	2746.86
1000.114	2691.5
1000.409	2707.54
1000.704	2657.6
1001	2651.27
1001.295	2658.5
1001.59	2662.12
1001.885	2658.73
1002.18	2632.06
1002.475	2632.52
1002.77	2612.63
1003.065	2605.62
1003.359	2569.69
1003.654	2557.26
1003.949	2547.09
1004.243	2567.21
1004.538	2537.83
1004.832	2499.19
1005.127	2449.47
1005.421	2483.14
1005.715	2439.53
1006.009	2458.06
1006.304	2424.39
1006.598	2409.02
1006.892	2413.76
1007.186	2376.7
1007.48	2366.53
1007.773	2374.9
1008.067	2320.43
1008.361	2324.73
1008.655	2294.9
1008.948	2321.11
1009.242	2309.59
1009.535	2284.5
1009.829	2282.47
1010.122	2252.41
1010.415	2248.34
1010.708	2193.21
1011.001	2239.98
1011.295	2163.6
1011.588	2179.65
1011.881	2191.17
1012.173	2129.25
1012.466	2149.59
1012.759	2141.91
1013.052	2123.6
1013.344	2118.4
1013.637	2067.11
1013.93	2079.99
1014.222	2067.78
1014.514	2069.37
1014.807	2051.74
1015.099	2059.2
1015.391	2014.68
1015.683	2010.16
1015.976	2006.77
1016.268	1938.75
1016.56	1958.63
1016.851	1933.55
1017.143	1936.49
1017.435	1909.82
1017.727	1902.14
1018.018	1899.2
1018.31	1894.23
1018.602	1892.42
1018.893	1878.19
1019.185	1828.69
1019.476	1843.38
1019.767	1821.92
1020.058	1782.82
1020.35	1798.19
1020.641	1790.73
1020.932	1788.92
1021.223	1781.01
1021.514	1765.42
1021.804	1712.09
1022.095	1769.94
1022.386	1732.88
1022.677	1695.82
1022.967	1726.1
1023.258	1674.57
1023.548	1668.7
1023.839	1678.64
1024.129	1646.78
1024.419	1632.77
1024.709	1616.95
1025	1635.03
1025.29	1589.83
1025.58	1581.02
1025.87	1569.94
1026.16	1584.86
1026.449	1542.37
1026.739	1548.02
1027.029	1559.32
1027.319	1521.13
1027.608	1537.18
1027.898	1487.46
1028.187	1497.4
1028.477	1476.84
1028.766	1496.05
1029.055	1473.9
1029.344	1455.37
1029.634	1470.74
1029.923	1435.94
1030.212	1420.12
1030.501	1441.13
1030.79	1404.98
1031.078	1415.37
1031.367	1393.9
1031.656	1378.09
1031.945	1371.98
1032.233	1345.09
1032.522	1367.69
1032.81	1356.16
1033.099	1323.62
1033.387	1289.73
1033.675	1297.18
1033.963	1275.49
1034.251	1304.41
1034.54	1297.86
1034.828	1273.91
1035.116	1261.03
1035.403	1255.6
1035.691	1262.16
1035.979	1226.68
1036.267	1239.33
1036.554	1224.42
1036.842	1207.92
1037.129	1194.81
1037.417	1167.24
1037.704	1195.72
1037.992	1140.58
1038.279	1152.55
1038.566	1180.12
1038.853	1180.12
1039.14	1180.12
