Data from plate_porcelain_FLMS001491_095.txt Node
Date: Tue Feb 07 11:20:13 GMT 2017
User: dcchb
Spectrometer: FLMS00149
Trigger mode: 0
Integration Time (sec): 2.000000E-2
Scans to average: 10
Electric dark correction enabled: true
Nonlinearity correction enabled: false
Boxcar width: 0
XAxis mode: Wavelengths
Number of Pixels in Spectrum: 2048
>>>>>Begin Spectral Data<<<<<
341.393	0.3
341.776	0.3
342.16	0.3
342.543	-48.97
342.927	-74.73
343.31	-46.48
343.693	-77.44
344.077	-63.2
344.46	-74.5
344.843	-73.6
345.226	-60.04
345.61	-37.44
345.993	-4.68
346.376	6.17
346.759	1.43
347.142	30.13
347.525	45.04
347.908	44.36
348.291	89.11
348.674	98.6
349.057	122.55
349.44	137.24
349.823	145.15
350.206	165.26
350.588	220.18
350.971	269.67
351.354	267.63
351.737	272.61
352.119	274.19
352.502	320.51
352.884	322.1
353.267	318.71
353.65	341.98
354.032	345.15
354.414	348.54
354.797	363.45
355.179	379.04
355.562	392.15
355.944	361.87
356.326	374.98
356.709	382.43
357.091	392.83
357.473	374.07
357.855	398.25
358.238	406.61
358.62	395.09
359.002	414.07
359.384	431.7
359.766	398.25
360.148	416.1
360.53	389.44
360.912	392.6
361.294	393.28
361.676	400.96
362.057	413.62
362.439	393.51
362.821	404.81
363.203	390.57
363.584	412.94
363.966	402.32
364.348	414.97
364.729	407.52
365.111	412.72
365.493	402.77
365.874	410.68
366.256	410.68
366.637	396.44
367.019	405.48
367.4	409.78
367.781	410.91
368.163	403.45
368.544	428.53
368.925	394.18
369.306	408.65
369.688	397.8
370.069	414.52
370.45	410
370.831	424.47
371.212	411.81
371.593	430.12
371.974	420.62
372.355	426.73
372.736	433.73
373.117	435.54
373.498	431.47
373.879	455.88
374.26	449.1
374.641	397.35
375.021	425.6
375.402	436.22
375.783	458.59
376.163	478.48
376.544	483.22
376.925	457.01
377.305	468.53
377.686	471.47
378.066	458.14
378.447	496.1
378.827	497.46
379.208	496.55
379.588	483.45
379.968	514.41
380.349	490.45
380.729	504.69
381.109	514.63
381.489	500.17
381.87	502.66
382.25	523.22
382.63	519.6
383.01	532.94
383.39	545.82
383.77	550.11
384.15	556.89
384.53	553.5
384.91	564.8
385.29	564.12
385.67	556.21
386.049	589.66
386.429	583.56
386.809	606.83
387.189	589.43
387.568	601.41
387.948	605.03
388.328	621.98
388.707	636.89
389.087	633.95
389.466	644.57
389.846	663.1
390.225	636.44
390.605	668.3
390.984	663.78
391.363	702.65
391.743	680.96
392.122	697
392.501	686.83
392.881	716.66
393.26	734.51
393.639	730.22
394.018	718.47
394.397	744.23
394.776	735.19
395.155	730.67
395.534	766.15
395.913	772.93
396.292	778.13
396.671	764.57
397.05	786.49
397.429	805.25
397.808	788.52
398.186	831.01
398.565	820.84
398.944	836.21
399.323	839.82
399.701	821.74
400.08	862.19
400.458	872.82
400.837	864
401.215	878.92
401.594	912.81
401.972	883.44
402.351	903.32
402.729	925.24
403.107	934.06
403.486	943.1
403.864	944.68
404.242	979.93
404.62	976.54
404.999	982.64
405.377	976.54
405.755	1002.76
406.133	1036.65
406.511	1040.95
406.889	1040.5
407.267	1088.86
407.645	1073.49
408.023	1090.44
408.401	1106.48
408.779	1103.09
409.156	1123.2
409.534	1155.52
409.912	1163.88
410.29	1178.57
410.667	1210.66
411.045	1227.16
411.422	1252.24
411.8	1235.07
412.178	1278
412.555	1290.88
412.933	1309.19
413.31	1338.57
413.687	1355.97
414.065	1351.22
414.442	1376.76
414.819	1414.27
415.197	1438.22
415.574	1437.77
415.951	1471.44
416.328	1448.62
416.705	1504.89
417.082	1487.49
417.46	1509.64
417.837	1552.12
418.214	1540.37
418.591	1553.48
418.967	1560.48
419.344	1591.22
419.721	1605.68
420.098	1621.95
420.475	1650.65
420.852	1628.95
421.228	1690.2
421.605	1687.94
421.982	1736.3
422.358	1747.14
422.735	1759.57
423.111	1759.35
423.488	1786.24
423.864	1805.9
424.241	1845.45
424.617	1852
424.994	1893.81
425.37	1887.93
425.746	1921.6
426.123	1914.14
426.499	1963.18
426.875	1980.36
427.251	2011.77
427.627	2053.35
428.003	2141.48
428.379	2091.54
428.756	2110.75
429.132	2174.02
429.507	2242.5
429.883	2248.15
430.259	2284.3
430.635	2287.24
431.011	2273.91
431.387	2379.44
431.763	2390.97
432.138	2429.84
432.514	2463.73
432.89	2438.42
433.265	2542.83
433.641	2563.39
434.016	2593.67
434.392	2644.75
434.767	2649.49
435.143	2681.36
435.518	2736.95
435.894	2744.86
436.269	2781.92
436.644	2833.44
437.02	2840.45
437.395	2851.75
437.77	2922.71
438.145	2972.87
438.52	2988.69
438.895	2994.57
439.271	3024.85
439.646	3109.14
440.021	3157.5
440.395	3173.55
440.77	3148.01
441.145	3179.87
441.52	3231.4
441.895	3231.17
442.27	3284.5
442.645	3275.92
443.019	3331.06
443.394	3348.01
443.769	3396.82
444.143	3375.58
444.518	3434.1
444.892	3395.69
445.267	3463.93
445.641	3465.74
446.016	3516.81
446.39	3615.12
446.764	3556.81
447.139	3631.39
447.513	3612.41
447.887	3721.55
448.262	3718.39
448.636	3692.85
449.01	3765.62
449.384	3820.99
449.758	3827.99
450.132	3910.25
450.506	3898.27
450.88	3962.45
451.254	3955.9
451.628	3988.21
452.002	4048.33
452.376	4089.45
452.75	4159.51
453.123	4165.84
453.497	4224.59
453.871	4284.48
454.244	4365.38
454.618	4336.68
454.992	4428.43
455.365	4481.31
455.739	4576
456.112	4638.59
456.486	4696.44
456.859	4713.84
457.232	4758.82
457.606	4833.62
457.979	4877
458.352	4995.87
458.725	5084.46
459.099	5092.37
459.472	5216.43
459.845	5273.83
460.218	5292.36
460.591	5301.17
460.964	5396.31
461.337	5521.51
461.71	5568.06
462.083	5677.21
462.456	5646.02
462.829	5712.69
463.201	5855.28
463.574	5844.89
463.947	5963.3
464.32	6049.86
464.692	6114.94
465.065	6201.26
465.438	6302.96
465.81	6366.91
466.183	6428.15
466.555	6586.56
466.928	6684.41
467.3	6644.42
467.672	6701.59
468.045	6946.1
468.417	6945.42
468.789	7031.3
469.161	7083.95
469.534	7280.11
469.906	7409.59
470.278	7440.78
470.65	7588.57
471.022	7642.13
471.394	7852.75
471.766	7911.05
472.138	7998.96
472.51	8199.63
472.882	8352.39
473.253	8453.18
473.625	8549.68
473.997	8730.69
474.369	8789.67
474.74	8927.29
475.112	9086.84
475.484	9277.57
475.855	9411.35
476.227	9482.08
476.598	9768.63
476.97	9829.87
477.341	10087.71
477.713	10203.64
478.084	10320.48
478.455	10634.82
478.827	10689.96
479.198	11006.33
479.569	10993.68
479.94	11343.5
480.311	11415.82
480.682	11737.62
481.053	11910.27
481.424	12149.13
481.795	12262.8
482.166	12461.44
482.537	12653.75
482.908	12925.38
483.279	13124.02
483.65	13324.92
484.021	13589.09
484.391	13740.27
484.762	13959.03
485.133	14048.29
485.503	14197.44
485.874	14591.33
486.244	14644.66
486.615	14919.9
486.985	15229.73
487.356	15368.71
487.726	15520.79
488.097	15925.3
488.467	15902.7
488.837	16348.79
489.207	16452.75
489.578	16729.57
489.948	16961.21
490.318	17232.61
490.688	17252.95
491.058	17567.29
491.428	17703.79
491.798	18003.44
492.168	18295.18
492.538	18439.81
492.908	18634.38
493.278	18858.11
493.648	18951.44
494.017	19219.68
494.387	19466.68
494.757	19450.41
495.126	19731.98
495.496	19918.42
495.866	19881.58
496.235	20325.64
496.605	20414.9
496.974	20533.09
497.344	20712.52
497.713	20976.24
498.082	21067.77
498.452	21316.57
498.821	21330.36
499.19	21488.55
499.559	21673.17
499.928	21966.95
500.298	22093.5
500.667	22283.78
501.036	22248.3
501.405	22596.54
501.774	22569.19
502.143	22888.73
502.512	22903.88
502.88	23114.72
503.249	23234.71
503.618	23438.1
503.987	23502.5
504.356	23721.03
504.724	23883.74
505.093	24041.47
505.462	24105.43
505.83	24311.97
506.199	24467
506.567	24864.5
506.936	24759.65
507.304	25168.45
507.672	25237.15
508.041	25343.13
508.409	25597.59
508.777	25890.24
509.145	26083
509.514	26042.55
509.882	26187.86
510.25	26357.12
510.618	26600.28
510.986	26659.48
511.354	27046.14
511.722	27252.01
512.09	27492.91
512.458	27437.32
512.826	27646.12
513.193	27933.8
513.561	28043.63
513.929	28269.61
514.297	28541.69
514.664	28859.42
515.032	29001.79
515.4	29200.43
515.767	29376.93
516.135	29437.71
516.502	29356.59
516.869	29947.98
517.237	30016.23
517.604	30105.95
517.972	30394.75
518.339	30724.23
518.706	30794.06
519.073	30953.38
519.44	31282.86
519.808	31558.34
520.175	31560.6
520.542	32142.95
520.909	32232.67
521.276	32228.83
521.643	32669.49
522.009	32838.98
522.376	33095.02
522.743	33297.05
523.11	33704.27
523.477	34073.75
523.843	34313.07
524.21	34563.68
524.577	34807.74
524.943	34878.25
525.31	35135.64
525.676	35422.64
526.043	35735.63
526.409	35919.13
526.776	36205.22
527.142	36442.28
527.508	36675.49
527.874	37017.18
528.241	37156.61
528.607	37201.13
528.973	37717.27
529.339	37642.02
529.705	38039.52
530.071	38337.14
530.437	38601.99
530.803	38695.55
531.169	39008.76
531.535	39055.31
531.901	39184.8
532.267	39383.89
532.632	39656.2
532.998	39925.8
533.364	40170.31
533.73	40258
534.095	40496.86
534.461	40731.65
534.826	40849.17
535.192	41052.55
535.557	41365.76
535.923	41298.87
536.288	41565.53
536.653	41843.26
537.019	41719.43
537.384	41879.42
537.749	42004.16
538.114	42134.56
538.479	42286.19
538.845	42494.32
539.21	42436.24
539.575	42821.32
539.94	42856.8
540.305	43286.39
540.67	43108.99
541.034	43353.96
541.399	43560.73
541.764	43615.65
542.129	43758.92
542.494	43812.93
542.858	44158.68
543.223	44175.63
543.587	44353.93
543.952	44400.49
544.316	44664.43
544.681	44592.8
545.045	45028.04
545.41	44994.59
545.774	45118.21
546.138	45203.85
546.503	45384.41
546.867	45560.45
547.231	45709.6
547.595	45773.56
547.959	46017.62
548.324	45951.18
548.688	46074.79
549.052	46254
549.416	46433.88
549.779	46548.23
550.143	46619.18
550.507	46948.21
550.871	47114.31
551.235	47094.2
551.599	47507.75
551.962	47472.95
552.326	47540.06
552.689	47839.72
553.053	47703.22
553.417	47883.56
553.78	48305.24
554.143	48205.13
554.507	48359.03
554.87	48458.91
555.234	48921.04
555.597	48846.02
555.96	49027.48
556.323	49182.51
556.686	49248.04
557.05	49448.94
557.413	49424.53
557.776	49601.03
558.139	49930.28
558.502	50009.83
558.865	50134.35
559.228	50324.85
559.59	50525.52
559.953	50665.41
560.316	50930.71
560.679	50915.34
561.041	51129.57
561.404	51199.85
561.767	51438.94
562.129	51327.08
562.492	51728.2
562.854	51737.69
563.217	51803.68
563.579	52052.04
563.941	52171.58
564.304	52269.88
564.666	52510.33
565.028	52598.46
565.39	52715.97
565.753	52849.53
566.115	52894.73
566.477	53110.76
566.839	53188.5
567.201	53397.31
567.563	53344.43
567.925	53597.98
568.287	53648.38
568.648	53723.4
569.01	53891.31
569.372	54034.36
569.734	53942.16
570.095	54161.13
570.457	54327
570.819	54413.78
571.18	54471.86
571.542	54647.22
571.903	54590.95
572.265	54811.74
572.626	54825.52
572.987	54867.78
573.349	54991.39
573.71	55143.03
574.071	55180.54
574.432	55238.84
574.794	55449.69
575.155	55356.13
575.516	55417.6
575.877	55487.2
576.238	55512.74
576.599	55690.81
576.96	55647.2
577.32	55676.57
577.681	55774.65
578.042	55912.05
578.403	55931.26
578.763	55976
579.124	55991.82
579.485	56037.92
579.845	56137.13
580.206	56136.67
580.566	56074.08
580.927	56079.95
581.287	56144.13
581.648	56110.69
582.008	56224.35
582.368	56147.29
582.728	56306.84
583.089	56241.3
583.449	56253.96
583.809	56340.51
584.169	56336.22
584.529	56220.06
584.889	56421.86
585.249	56303.22
585.609	56255.77
585.969	56409.21
586.329	56342.54
586.688	56394.97
587.048	56403.11
587.408	56354.97
587.768	56289.66
588.127	56328.53
588.487	56338.25
588.846	56517
589.206	56311.36
589.565	56332.37
589.925	56470
590.284	56405.14
590.643	56425.48
591.003	56502.09
591.362	56531.69
591.721	56461.86
592.08	56553.84
592.44	56711.12
592.799	56622.99
593.158	56522.2
593.517	56610.79
593.876	56625.25
594.235	56540.28
594.593	56584.57
594.952	56627.28
595.311	56563.56
595.67	56606.27
596.029	56766.26
596.387	56753.61
596.746	56854.39
597.104	56721.07
597.463	56692.59
597.822	56826.37
598.18	56692.37
598.538	56680.39
598.897	56851.68
599.255	56655.53
599.613	57012.81
599.972	56851.91
600.33	56911.34
600.688	56766.04
601.046	56956.09
601.404	57095.29
601.762	56960.15
602.12	57146.36
602.478	57172.13
602.836	57101.85
603.194	57043.09
603.552	57092.13
603.91	56974.84
604.268	57149.75
604.625	57092.13
604.983	57183.88
605.341	57090.32
605.698	57225.91
606.056	57291.67
606.413	57280.15
606.771	57341.16
607.128	57396.98
607.485	57259.13
607.843	57278.56
608.2	57441.05
608.557	57616.86
608.914	57456.64
609.272	57586.58
609.629	57533.02
609.986	57643.98
610.343	57507.03
610.7	57780.25
611.057	57758.55
611.414	57676.07
611.771	57713.58
612.127	57823.41
612.484	57782.28
612.841	57848.04
613.198	57809.62
613.554	57760.13
613.911	57942.5
614.267	57961.26
614.624	57939.11
614.98	57996.51
615.337	58130.52
615.693	58027.02
616.05	58014.82
616.406	58118.77
616.762	58020.01
617.118	58113.12
617.475	58091.65
617.831	58168.48
618.187	58109.05
618.543	58170.52
618.899	58272.89
619.255	58273.57
619.611	58219.56
619.967	58366.45
620.323	58332.77
620.678	58253
621.034	58173.46
621.39	58231.08
621.746	58236.96
622.101	58484.41
622.457	58297.07
622.812	58327.12
623.168	58425.65
623.523	58370.51
623.879	58480.34
624.234	58255.49
624.589	58405.77
624.945	58414.81
625.3	58426.78
625.655	58376.39
626.01	58358.99
626.365	58339.78
626.72	58402.83
627.075	58318.76
627.43	58309.5
627.785	58251.87
628.14	58346.79
628.495	58358.08
628.85	58249.16
629.205	58198.54
629.559	58359.67
629.914	58226.56
630.269	58246.9
630.623	58189.73
630.978	58103.63
631.332	58228.14
631.687	58254.13
632.041	58155.38
632.396	58170.07
632.75	58006.91
633.104	58040.8
633.459	57976.17
633.813	57953.8
634.167	57951.09
634.521	57934.82
634.875	57968.49
635.229	57840.13
635.583	57821.15
635.937	57757.87
636.291	57737.76
636.645	57741.15
636.999	57650.31
637.352	57742.73
637.706	57580.7
638.06	57633.58
638.413	57638.56
638.767	57563.53
639.121	57611.66
639.474	57492.34
639.828	57465.23
640.181	57482.85
640.534	57452.8
640.888	57422.29
641.241	57287.38
641.594	57298
641.947	57402.86
642.301	57289.41
642.654	57328.73
643.007	57266.81
643.36	57187.72
643.713	57122.41
644.066	57318.79
644.419	57056.88
644.771	56962.41
645.124	56702.53
645.477	56646.04
645.83	56453.95
646.182	56324.92
646.535	56317.91
646.888	56283.79
647.24	56108.88
647.593	56375.09
647.945	56246.05
648.298	56068.2
648.65	56073.4
649.002	55919.5
649.355	56050.12
649.707	56041.31
650.059	56128.76
650.411	56455.31
650.763	56382.99
651.115	56646.49
651.467	56501.18
651.819	56572.82
652.171	56471.35
652.523	56428.19
652.875	56349.32
653.227	56238.82
653.578	56403.33
653.93	56374.63
654.282	56171.02
654.633	56169.89
654.985	56236.11
655.337	56288.31
655.688	56238.14
656.039	56314.3
656.391	56018.03
656.742	56125.6
657.094	56088.31
657.445	56212.15
657.796	56249.67
658.147	56105.71
658.498	56058.48
658.849	56128.76
659.2	56000.86
659.551	55975.32
659.902	56141.87
660.253	56037.92
660.604	56057.81
660.955	55934.87
661.306	55995.66
661.656	55867.3
662.007	55908.88
662.358	55898.71
662.708	55888.32
663.059	55848.55
663.409	55674.31
663.76	55862.78
664.11	55858.26
664.461	55820.75
664.811	55811.71
665.161	55807.87
665.511	55668.21
665.862	55744.59
666.212	55765.16
666.562	55817.36
666.912	55762.45
667.262	55672.96
667.612	55784.14
667.962	55844.7
668.312	55649.23
668.662	55773.29
669.011	55647.87
669.361	55629.79
669.711	55586.41
670.06	55683.13
670.41	55560.19
670.76	55587.31
671.109	55639.74
671.459	55551.6
671.808	55541.21
672.157	55588.89
672.507	55328.56
672.856	55492.4
673.205	55444.49
673.554	55476.58
673.904	55383.02
674.253	55574.43
674.602	55355.9
674.951	54992.3
675.3	54959.08
675.649	55347.09
675.998	55232.97
676.346	55258.05
676.695	55378.5
677.044	55111.62
677.393	55278.62
677.741	55323.14
678.09	55170.82
678.438	55106.64
678.787	55207.88
679.135	55207.43
679.484	55045.18
679.832	55162.01
680.181	54850.61
680.529	54976.48
680.877	54903.94
681.225	54947.33
681.573	55043.37
681.922	54866.88
682.27	54760.89
682.618	54755.24
682.966	54605.19
683.314	54759.76
683.661	54597.05
684.009	54554.12
684.357	54519.77
684.705	54448.81
685.053	54399.09
685.4	54314.57
685.748	54215.37
686.095	54219.21
686.443	54096.95
686.79	53978.09
687.138	53998.42
687.485	54089.5
687.832	53926.34
688.18	53988.93
688.527	53741.71
688.874	53716.4
689.221	53650.86
689.568	53609.73
689.915	53553.46
690.262	53521.83
690.609	53467.82
690.956	53212.23
691.303	53365.22
691.65	53168.62
691.997	53164.55
692.344	52903.31
692.69	52922.75
693.037	52983.76
693.383	52738.12
693.73	52872.58
694.077	52489.09
694.423	52552.14
694.769	52503.55
695.116	52393.72
695.462	52335.87
695.808	52351.01
696.155	52397.79
696.501	52178.13
696.847	52111.02
697.193	51893.62
697.539	51967.07
697.885	51850.46
698.231	51665.38
698.577	51732.72
698.923	51656.57
699.269	51434.42
699.614	51329.34
699.96	51205.28
700.306	51252.28
700.651	51158.73
700.997	50933.42
701.342	50968.45
701.688	50862.91
702.033	50665.86
702.379	50697.49
702.724	50509.7
703.069	50527.1
703.415	50287.11
703.76	50250.27
704.105	50313.1
704.45	50076.27
704.795	49864.52
705.14	49816.84
705.485	49814.35
705.83	49730.51
706.175	49732.1
706.52	49631.53
706.865	49537.53
707.209	49430.64
707.554	49376.4
707.899	49387.92
708.243	49289.62
708.588	49179.34
708.932	48802.18
709.277	48821.39
709.621	48923.3
709.966	48633.82
710.31	48679.92
710.654	48327.16
710.998	48480.38
711.342	48385.47
711.687	48160.61
712.031	48127.62
712.375	47906.16
712.719	47972.37
713.063	47816.21
713.407	47970.33
713.75	47768.76
714.094	47815.31
714.438	47522.66
714.782	47549.33
715.125	47399.05
715.469	47569.67
715.812	47206.29
716.156	47057.14
716.499	47087.42
716.843	47147.08
717.186	46884.26
717.53	47064.6
717.873	47044.48
718.216	46938.27
718.559	46808.78
718.902	46546.64
719.246	46628
719.589	46506.42
719.932	46446.76
720.275	46355.01
720.617	46214.67
720.96	46085.86
721.303	46090.16
721.646	46079.09
721.989	45843.38
722.331	46009.26
722.674	45905.08
723.016	45907.79
723.359	45773.56
723.701	45710.96
724.044	45408.37
724.386	45291.31
724.729	45489.95
725.071	45402.72
725.413	45336.51
725.755	45285.66
726.097	45091.99
726.439	44915.5
726.782	45105.78
727.124	45128.6
727.465	44749.85
727.807	44836.18
728.149	44690.42
728.491	44693.58
728.833	44602.97
729.175	44592.12
729.516	44589.63
729.858	44446.13
730.199	44462.4
730.541	44237.55
730.882	44269.64
731.224	44304.44
731.565	43878.01
731.906	44172.24
732.248	44064.67
732.589	43833.49
732.93	43824.68
733.271	43759.6
733.612	43804.57
733.953	43808.64
734.294	43586.95
734.635	43518.25
734.976	43655.87
735.317	43325.94
735.658	43289.78
735.999	43316.45
736.339	43166.62
736.68	43320.51
737.021	43020.63
737.361	42808.66
737.702	43067.64
738.042	42930.24
738.383	42809.79
738.723	42846.4
739.063	42789.91
739.404	42726.63
739.744	42550.36
740.084	42571.61
740.424	42526.64
740.764	42571.38
741.104	42504.94
741.444	42229.47
741.784	42076.48
742.124	42141.34
742.464	41948.57
742.804	41962.81
743.143	41952.87
743.483	41995.12
743.823	41754.9
744.162	41698.18
744.502	41711.97
744.841	41617.73
745.181	41722.82
745.52	41595.59
745.86	41535.25
746.199	41356.72
746.538	41300.68
746.877	41310.4
747.216	41299.55
747.556	41217.74
747.895	41062.95
748.234	40879.9
748.573	40867.7
748.911	40851.88
749.25	40768.94
749.589	40633.58
749.928	40662.5
750.267	40571.66
750.605	40414.6
750.944	40372.12
751.283	40313.36
751.621	40352
751.96	40076.76
752.298	40130.99
752.636	40003.09
752.975	39855.29
753.313	39867.5
753.651	39851.9
753.989	39590.89
754.327	39563.32
754.666	39391.13
755.004	39459.37
755.342	39503.66
755.679	39450.78
756.017	39109.1
756.355	39173.05
756.693	39042.21
757.031	39046.05
757.368	38757.24
757.706	38788.66
758.044	38559.51
758.381	38630.92
758.719	38498.95
759.056	38458.72
759.394	38296.92
759.731	38085.85
760.068	38151.16
760.405	37930.6
760.743	37701
761.08	37728.34
761.417	37691.96
761.754	37535.13
762.091	37611.29
762.428	37533.77
762.765	37197.51
763.102	37177.17
763.438	36830.51
763.775	36732.66
764.112	36743.74
764.449	36818.54
764.785	36515.04
765.122	36340.58
765.458	36198.89
765.795	36268.5
766.131	36100.14
766.467	35968.16
766.804	35899.01
767.14	35612.92
767.476	35590.55
767.812	35470.32
768.148	35488.85
768.485	35167.06
768.821	35173.16
769.157	35011.81
769.492	34997.79
769.828	34872.15
770.164	34567.98
770.5	34526.17
770.836	34479.39
771.171	34193.97
771.507	34187.42
771.842	33943.58
772.178	33965.28
772.513	34013.41
772.849	33934.77
773.184	33653.42
773.519	33640.54
773.855	33485.29
774.19	33239.87
774.525	33077.39
774.86	33121.01
775.195	33005.3
775.53	32903.61
775.865	32765.08
776.2	32622.94
776.535	32401.48
776.87	32334.14
777.205	32223.18
777.539	32148.15
777.874	32068.38
778.209	31881.94
778.543	31868.61
778.878	31642.18
779.212	31682.85
779.547	31459.81
779.881	31505
780.215	31302.3
780.55	31240.15
780.884	31138.01
781.218	30872.48
781.552	31009.2
781.886	30786.83
782.22	30628.64
782.554	30439.72
782.888	30138.49
783.222	30108.66
783.556	30042.9
783.889	29977.36
784.223	29727.65
784.557	29771.94
784.89	29762.9
785.224	29533.08
785.557	29359.07
785.891	29413.08
786.224	29131.73
786.558	29095.35
786.891	28995.01
787.224	28689.03
787.557	28752.99
787.891	28671.63
788.224	28664.85
788.557	28676.15
788.89	28549.6
789.223	28482.71
789.556	28247.01
789.888	28308.25
790.221	28055.83
790.554	27845.67
790.887	27959.79
791.219	27826.68
791.552	27787.59
791.884	27534.71
792.217	27522.51
792.549	27315.96
792.882	27225.57
793.214	27115.52
793.546	27135.85
793.879	27000.94
794.211	26733.15
794.543	26849.08
794.875	26678.69
795.207	26749.65
795.539	26561.63
795.871	26597.56
796.203	26341.3
796.535	26171.81
796.867	26229.44
797.198	26125.26
797.53	26090.68
797.862	26057.92
798.193	25936.79
798.525	25706.29
798.856	25779.73
799.188	25472.85
799.519	25419.74
799.85	25334.09
800.182	25464.94
800.513	25271.27
800.844	25105.85
801.175	25280.08
801.506	25200.09
801.837	25073.76
802.168	24877.83
802.499	24823.37
802.83	24654.56
803.161	24666.54
803.491	24615.02
803.822	24601.01
804.153	24436.49
804.483	24319.21
804.814	24263.84
805.145	24211.41
805.475	24165.99
805.805	24025.65
806.136	24069.04
806.466	24022.04
806.796	23944.53
807.126	23700.46
807.457	23725.1
807.787	23628.38
808.117	23577.53
808.447	23457.31
808.777	23600.81
809.107	23347.93
809.436	23364.2
809.766	23339.57
810.096	23095.51
810.426	23161.04
810.755	23093.47
811.085	23036.3
811.414	23036.98
811.744	22752.92
812.073	22782.07
812.403	22788.4
812.732	22666.37
813.061	22613.04
813.39	22510.89
813.719	22466.37
814.049	22553.15
814.378	22392.25
814.707	22275.42
815.036	22224.57
815.365	22162.43
815.693	21936.22
816.022	21950
816.351	21970.34
816.68	21884.01
817.008	21909.33
817.337	21706.62
817.665	21604.47
817.994	21682.21
818.322	21647.64
818.651	21583.68
818.979	21497.36
819.307	21542.1
819.636	21418.49
819.964	21262.34
820.292	21330.36
820.62	21357.93
820.948	21364.48
821.276	21338.27
821.604	21293.07
821.932	21384.37
822.259	21364.25
822.587	21259.17
822.915	21221.21
823.243	21315.67
823.57	21236.35
823.898	21210.36
824.225	21075.45
824.553	21071.15
824.88	21169.23
825.207	21229.79
825.535	21273.64
825.862	21180.3
826.189	21264.82
826.516	21222.56
826.843	21333.29
827.17	21334.42
827.497	21264.6
827.824	21219.63
828.151	21220.53
828.478	21188.21
828.805	21293.97
829.131	21082.23
829.458	21136.24
829.785	20932.18
830.111	21041.55
830.438	21199.06
830.764	21151.6
831.09	21107.09
831.417	21009.24
831.743	21033.64
832.069	20966.98
832.395	20960.42
832.722	21047.88
833.048	21002.91
833.374	20919.29
833.7	20820.99
834.026	20863.7
834.351	20919.07
834.677	20877.04
835.003	20867.77
835.329	20984.15
835.654	20759.07
835.98	20729.47
836.306	20771.73
836.631	20700.32
836.956	20733.99
837.282	20750.94
837.607	20635.23
837.932	20616.48
838.258	20465.3
838.583	20541.23
838.908	20470.27
839.233	20368.12
839.558	20409.25
839.883	20203.38
840.208	20274.34
840.533	20284.96
840.858	20227.11
841.182	20236.6
841.507	20270.27
841.832	20123.16
842.156	20008.81
842.481	20100.56
842.805	19916.61
843.13	19952.77
843.454	19881.81
843.778	19913.45
844.103	19739.44
844.427	19794.58
844.751	19766.1
845.075	19692.89
845.399	19644.07
845.723	19536.96
846.047	19522.27
846.371	19285.67
846.695	19262.61
847.019	19124.09
847.343	19033.24
847.666	18958.89
847.99	18864.21
848.313	18827.15
848.637	18707.83
848.96	18751.44
849.284	18735.62
849.607	18566.81
849.931	18529.98
850.254	18333.37
850.577	18299.48
850.9	18181.97
851.223	18259.7
851.546	18101.06
851.869	17969.54
852.192	18026.04
852.515	17960.05
852.838	17847.06
853.161	17746.5
853.483	17733.16
853.806	17615.2
854.129	17639.15
854.451	17599.61
854.774	17457.92
855.096	17342.67
855.419	17338.6
855.741	17354.64
856.063	17240.3
856.385	17232.61
856.708	17010.92
857.03	17040.75
857.352	17039.85
857.674	17033.3
857.996	16845.05
858.318	16730.7
858.64	16798.5
858.961	16635.79
859.283	16646.19
859.605	16534.1
859.926	16666.53
860.248	16663.14
860.57	16582.01
860.891	16443.25
861.212	16308.34
861.534	16472.86
861.855	16334.78
862.176	16314.9
862.498	16473.31
862.819	16342.69
863.14	16223.37
863.461	16218.85
863.782	16181.79
864.103	16156.93
864.424	16101.79
864.745	16170.04
865.065	16000.33
865.386	15953.32
865.707	15971.18
866.027	16032.87
866.348	15964.62
866.668	15994.45
866.989	15984.06
867.309	15865.42
867.63	15805.08
867.95	15822.71
868.27	15696.16
868.59	15746.55
868.91	15677.62
869.23	15624.07
869.55	15627
869.87	15728.02
870.19	15667.46
870.51	15602.15
870.83	15602.15
871.15	15516.27
871.469	15500.91
871.789	15494.13
872.109	15458.65
872.428	15353.79
872.748	15344.53
873.067	15346.79
873.386	15335.94
873.706	15316.73
874.025	15192.21
874.344	15187.92
874.663	15255.49
874.982	15260.46
875.301	15158.09
875.62	15060.47
875.939	15119
876.258	14998.55
876.577	15055.49
876.896	14948.83
877.214	14942.73
877.533	14902.96
877.852	14925.78
878.17	14973.69
878.489	14904.31
878.807	14982.95
879.125	14799.68
879.444	14829.51
879.762	14838.78
880.08	14813.69
880.398	14698.44
880.716	14749.97
881.034	14720.36
881.352	14690.76
881.67	14611.21
881.988	14637.2
882.306	14633.58
882.624	14580.93
882.941	14410.31
883.259	14376.87
883.577	14263.42
883.894	14383.42
884.212	14350.43
884.529	14309.3
884.846	14284.67
885.164	14200.83
885.481	14202.41
885.798	14107.72
886.115	14045.58
886.432	14020.04
886.75	14006.71
887.067	14002.64
887.383	13977.78
887.7	13917.44
888.017	13891.68
888.334	13980.04
888.651	13897.33
888.967	13870.67
889.284	13747.05
889.6	13859.37
889.917	13717
890.233	13704.8
890.55	13620.5
890.866	13583.44
891.182	13604.23
891.498	13483.56
891.815	13415.76
892.131	13417.34
892.447	13291.92
892.763	13310
893.079	13283.79
893.395	13265.71
893.71	13223.68
894.026	13182.77
894.342	13166.73
894.657	13004.47
894.973	13144.13
895.289	13081.53
895.604	12971.48
895.92	12873.86
896.235	12921.31
896.55	12871.82
896.865	12844.7
897.181	12805.61
897.496	12836.8
897.811	12703.92
898.126	12682.22
898.441	12676.57
898.756	12597.48
899.071	12473.41
899.386	12487.65
899.7	12400.87
900.015	12405.62
900.33	12320.88
900.644	12337.6
900.959	12294.89
901.273	12309.58
901.588	12116.14
901.902	12093.76
902.216	12059.87
902.531	12027.1
902.845	11975.12
903.159	11884.05
903.473	11805.41
903.787	11870.04
904.101	11642.93
904.415	11718.18
904.729	11691.06
905.042	11646.09
905.356	11620.56
905.67	11568.58
905.984	11546.21
906.297	11528.13
906.611	11424.18
906.924	11416.95
907.237	11385.76
907.551	11350.96
907.864	11303.95
908.177	11288.14
908.491	11174.24
908.804	11109.61
909.117	11066.9
909.43	10989.39
909.743	10944.87
910.056	10877.75
910.368	10860.8
910.681	10852.67
910.994	10794.82
911.307	10793.69
911.619	10646.34
911.932	10674.82
912.244	10614.71
912.557	10616.51
912.869	10502.62
913.181	10480.25
913.494	10473.02
913.806	10422.62
914.118	10399.57
914.43	10318.22
914.742	10334.49
915.054	10278.44
915.366	10259.91
915.678	10159.13
915.99	10088.84
916.302	10029.41
916.613	10046.36
916.925	9990.77
917.236	9932.01
917.548	9950.32
917.859	9857.89
918.171	9782.86
918.482	9738.57
918.794	9683.88
919.105	9708.52
919.416	9635.75
919.727	9650.21
920.038	9565.92
920.349	9464.68
920.66	9478.01
920.971	9510.78
921.282	9412.7
921.593	9281.86
921.903	9249.32
922.214	9280.5
922.525	9251.58
922.835	9262.65
923.146	9124.58
923.456	9134.75
923.767	9010.68
924.077	9066.05
924.387	8999.61
924.697	8960.06
925.008	8944.69
925.318	8867.18
925.628	8840.29
925.938	8826.96
926.248	8722.1
926.558	8672.84
926.867	8715.77
927.177	8636.68
927.487	8625.61
927.796	8525.27
928.106	8584.48
928.416	8501.32
928.725	8489.79
929.034	8389.45
929.344	8408.66
929.653	8360.08
929.962	8246.86
930.271	8298.16
930.581	8272.85
930.89	8190.14
931.199	8170.93
931.508	8143.81
931.817	8074.43
932.125	8037.6
932.434	7954.44
932.743	7979.97
933.051	7931.84
933.36	7950.14
933.669	7851.39
933.977	7822.46
934.286	7860.65
934.594	7835.8
934.902	7701.11
935.21	7657.5
935.519	7700.66
935.827	7616.59
936.135	7559.42
936.443	7572.53
936.751	7546.09
937.059	7481
937.367	7462.25
937.674	7402.36
937.982	7409.59
938.29	7353.1
938.597	7342.48
938.905	7303.16
939.213	7245.76
939.52	7183.84
939.827	7262.03
940.135	7137.96
940.442	7144.29
940.749	7118.75
941.056	7069.94
941.363	7001.47
941.67	7023.16
941.977	6946.33
942.284	6888.25
942.591	6902.26
942.898	6890.51
943.205	6812.09
943.511	6839.44
943.818	6757.41
944.125	6766.67
944.431	6693.45
944.738	6682.15
945.044	6692.32
945.35	6589.73
945.657	6588.37
945.963	6556.73
946.269	6580.91
946.575	6539.33
946.881	6594.25
947.187	6508.37
947.493	6454.36
947.799	6417.53
948.105	6370.75
948.41	6347.47
948.716	6319.45
949.022	6250.75
949.327	6274.71
949.633	6187.03
949.938	6226.35
950.244	6214.37
950.549	6137.76
950.854	6150.87
951.16	6131.21
951.465	6057.76
951.77	6065.45
952.075	6019.8
952.38	6015.73
952.685	5974.38
952.99	5923.53
953.294	5958.78
953.599	5879.46
953.904	5842.18
954.209	5766.47
954.513	5827.04
954.818	5722.86
955.122	5774.83
955.426	5713.59
955.731	5684.89
956.035	5686.93
956.339	5682.86
956.643	5667.49
956.948	5580.49
957.252	5540.04
957.556	5561.28
957.86	5500.26
958.163	5472.7
958.467	5493.49
958.771	5412.81
959.075	5439.7
959.378	5430.44
959.682	5380.95
959.985	5326.71
960.289	5339.82
960.592	5307.28
960.896	5286.71
961.199	5280.16
961.502	5265.69
961.805	5180.95
962.108	5214.17
962.411	5114.74
962.714	5099.15
963.017	5092.59
963.32	5157
963.623	5094.63
963.926	5081.29
964.228	5073.16
964.531	5053.05
964.833	5041.52
965.136	4977.34
965.438	4975.31
965.741	4946.16
966.043	4913.39
966.345	4894.86
966.648	4836.78
966.95	4845.59
967.252	4791.13
967.554	4791.36
967.856	4777.12
968.158	4731.92
968.46	4760.4
968.761	4712.94
969.063	4698.93
969.365	4707.52
969.666	4670
969.968	4633.17
970.269	4596.33
970.571	4601.31
970.872	4578.93
971.174	4506.84
971.475	4496.45
971.776	4510.01
972.077	4472.95
972.378	4431.82
972.679	4457.35
972.98	4451.7
973.281	4388.88
973.582	4373.51
973.883	4335.78
974.183	4351.14
974.484	4328.54
974.785	4288.09
975.085	4293.29
975.386	4271.82
975.686	4280.86
975.986	4242.9
976.287	4199.51
976.587	4205.61
976.887	4162
977.187	4152.05
977.487	4110.92
977.787	4143.01
978.087	4101.43
978.387	4060.08
978.687	4093.3
978.987	4049
979.286	4032.05
979.586	4006.97
979.885	3950.93
980.185	3922.68
980.484	3944.37
980.784	3908.67
981.083	3900.98
981.382	3906.86
981.682	3858.73
981.981	3895.11
982.28	3887.2
982.579	3830.93
982.878	3783.7
983.177	3782.57
983.475	3771.04
983.774	3734.44
984.073	3731.05
984.372	3708.67
984.67	3723.59
984.969	3689.01
985.267	3686.53
985.566	3661.67
985.864	3653.99
986.162	3610.6
986.461	3591.16
986.759	3546.42
987.057	3584.61
987.355	3524.05
987.653	3509.81
987.951	3534.21
988.249	3506.87
988.547	3516.59
988.844	3491.5
989.142	3465.29
989.44	3394.78
989.737	3405.63
990.035	3423.71
990.332	3357.5
990.63	3378.29
990.927	3386.42
991.224	3355.24
991.521	3333.99
991.819	3341.23
992.116	3257.61
992.413	3297.16
992.71	3259.87
993.006	3230.04
993.303	3236.37
993.6	3203.15
993.897	3196.82
994.193	3197.95
994.49	3171.51
994.787	3144.17
995.083	3075.02
995.379	3139.88
995.676	3106.2
995.972	3091.51
996.268	3071.4
996.565	3031.63
996.861	3020.56
997.157	2997.51
997.453	3028.69
997.749	3004.06
998.044	2966.55
998.34	2931.74
998.636	2884.29
998.932	2899.88
999.227	2893.33
999.523	2891.97
999.818	2875.02
1000.114	2876.83
1000.409	2817.17
1000.704	2814.23
1001	2813.33
1001.295	2807.23
1001.59	2802.93
1001.885	2762.71
1002.18	2756.38
1002.475	2765.65
1002.77	2733.56
1003.065	2727
1003.359	2699.89
1003.654	2697.4
1003.949	2668.48
1004.243	2620.11
1004.538	2632.32
1004.832	2616.05
1005.127	2618.53
1005.421	2544.64
1005.715	2605.43
1006.009	2563.39
1006.304	2553
1006.598	2490.4
1006.892	2542.83
1007.186	2486.78
1007.48	2470.06
1007.773	2484.3
1008.067	2434.13
1008.361	2458.99
1008.655	2427.58
1008.948	2416.28
1009.242	2401.36
1009.535	2403.4
1009.829	2375.6
1010.122	2366.34
1010.415	2353.46
1010.708	2336.73
1011.001	2308.03
1011.295	2292.21
1011.588	2309.16
1011.881	2248.83
1012.173	2245.89
1012.466	2284.08
1012.759	2226
1013.052	2247.7
1013.344	2221.03
1013.637	2181.71
1013.93	2156.17
1014.222	2143.29
1014.514	2169.51
1014.807	2148.26
1015.099	2107.13
1015.391	2112.11
1015.683	2115.27
1015.976	2073.24
1016.268	2085.21
1016.56	2075.5
1016.851	2035.27
1017.143	2008.83
1017.435	2030.07
1017.727	1964.31
1018.018	1983.97
1018.31	1972.67
1018.602	1922.73
1018.893	1931.32
1019.185	1925.9
1019.476	1918.89
1019.767	1873.92
1020.058	1908.95
1020.35	1893.81
1020.641	1867.82
1020.932	1833.92
1021.223	1825.11
1021.514	1868.27
1021.804	1840.25
1022.095	1782.85
1022.386	1798.22
1022.677	1792.11
1022.967	1792.79
1023.258	1746.69
1023.548	1735.39
1023.839	1722.96
1024.129	1710.99
1024.419	1697.43
1024.709	1702.4
1025	1697.43
1025.29	1676.86
1025.58	1632.57
1025.87	1647.48
1026.16	1653.59
1026.449	1626.24
1026.739	1613.14
1027.029	1631.67
1027.319	1585.79
1027.608	1584.89
1027.898	1575.85
1028.187	1580.37
1028.477	1548.96
1028.766	1534.72
1029.055	1540.82
1029.344	1517.09
1029.634	1477.32
1029.923	1506.02
1030.212	1481.16
1030.501	1477.77
1030.79	1475.96
1031.078	1447.72
1031.367	1444.33
1031.656	1434.61
1031.945	1422.41
1032.233	1430.09
1032.522	1406.14
1032.81	1372.46
1033.099	1375.63
1033.387	1368.17
1033.675	1341.5
1033.963	1351.45
1034.251	1350.09
1034.54	1311.45
1034.828	1313.48
1035.116	1318.68
1035.403	1314.39
1035.691	1285.46
1035.979	1310.54
1036.267	1231
1036.554	1289.53
1036.842	1273.94
1037.129	1247.04
1037.417	1238.23
1037.704	1235.52
1037.992	1218.57
1038.279	1226.48
1038.566	1208.17
1038.853	1208.17
1039.14	1208.17
