Data from plate_ceramic_FLMS001491_011.txt Node
Date: Tue Feb 07 11:16:22 GMT 2017
User: dcchb
Spectrometer: FLMS00149
Trigger mode: 0
Integration Time (sec): 2.000000E-2
Scans to average: 10
Electric dark correction enabled: true
Nonlinearity correction enabled: false
Boxcar width: 0
XAxis mode: Wavelengths
Number of Pixels in Spectrum: 2048
>>>>>Begin Spectral Data<<<<<
341.393	-2.97
341.776	-2.97
342.16	-2.97
342.543	-45.9
342.927	-59.91
343.31	-66.02
343.693	-68.05
344.077	-70.08
344.46	-42.96
344.843	-59.46
345.226	-52.46
345.61	-14.94
345.993	-30.31
346.376	-4.55
346.759	19.41
347.142	20.99
347.525	32.51
347.908	52.63
348.291	75.45
348.674	96.01
349.057	111.83
349.44	127.43
349.823	128.78
350.206	179.18
350.588	220.98
350.971	217.59
351.354	226.63
351.737	277.03
352.119	248.78
352.502	273.86
352.884	297.59
353.267	320.19
353.65	323.81
354.032	309.34
354.414	326.29
354.797	307.99
355.179	340.53
355.562	349.79
355.944	367.65
356.326	352.05
356.709	368.32
357.091	366.52
357.473	360.41
357.855	362.67
358.238	352.5
358.62	353.18
359.002	357.7
359.384	376.46
359.766	361.77
360.148	354.99
360.53	381.66
360.912	376.91
361.294	360.64
361.676	343.24
362.057	372.39
362.439	368.1
362.821	362
363.203	365.84
363.584	348.66
363.966	349.57
364.348	367.19
364.729	347.99
365.111	353.18
365.493	345.73
365.874	350.25
366.256	364.26
366.637	361.77
367.019	359.51
367.4	346.86
367.781	360.87
368.163	369.45
368.544	357.7
368.925	360.19
369.306	350.7
369.688	352.5
370.069	364.48
370.45	367.65
370.831	362.9
371.212	353.86
371.593	367.42
371.974	359.96
372.355	401.77
372.736	370.36
373.117	375.56
373.498	398.83
373.879	377.36
374.26	396.57
374.641	357.93
375.021	375.1
375.402	366.06
375.783	390.02
376.163	409.23
376.544	414.65
376.925	406.97
377.305	405.84
377.686	429.34
378.066	425.27
378.447	421.2
378.827	416.68
379.208	399.74
379.588	417.59
379.968	423.92
380.349	417.59
380.729	425.5
381.109	410.36
381.489	418.94
381.87	395.44
382.25	426.63
382.63	444.25
383.01	423.01
383.39	418.27
383.77	441.09
384.15	472.95
384.53	468.21
384.91	444.71
385.29	457.36
385.67	473.18
386.049	460.52
386.429	469.56
386.809	477.93
387.189	480.19
387.568	500.3
387.948	491.48
388.328	486.51
388.707	488.55
389.087	503.46
389.466	500.07
389.846	504.59
390.225	493.07
390.605	529.45
390.984	534.87
391.363	540.3
391.743	534.19
392.122	541.65
392.501	545.95
392.881	555.89
393.26	562.89
393.639	574.42
394.018	594.53
394.397	564.25
394.776	577.81
395.155	597.92
395.534	600.18
395.913	599.5
396.292	565.61
396.671	621.65
397.05	612.16
397.429	612.39
397.808	621.65
398.186	633.63
398.565	618.94
398.944	657.36
399.323	637.02
399.701	639.95
400.08	626.85
400.458	649.67
400.837	662.55
401.215	665.04
401.594	654.64
401.972	687.19
402.351	700.07
402.729	703
403.107	709.11
403.486	711.82
403.864	686.06
404.242	727.41
404.62	733.51
404.999	760.63
405.377	739.61
405.755	754.75
406.133	760.4
406.511	776.9
406.889	796.79
407.267	819.16
407.645	797.24
408.023	833.85
408.401	807.18
408.779	833.62
409.156	836.79
409.534	856.9
409.912	861.64
410.29	875.88
410.667	860.97
411.045	914.07
411.422	905.26
411.8	898.71
412.178	948.65
412.555	929.66
412.933	951.59
413.31	985.48
413.687	997.69
414.065	982.77
414.442	989.32
414.819	1021.87
415.197	1023
415.574	1046.95
415.951	1053.73
416.328	1052.37
416.705	1065.71
417.082	1047.18
417.46	1072.49
417.837	1075.42
418.214	1126.04
418.591	1142.09
418.967	1132.82
419.344	1136.44
419.721	1150.45
420.098	1147.06
420.475	1168.75
420.852	1185.7
421.228	1177.57
421.605	1195.87
421.982	1222.99
422.358	1232.71
422.735	1255.53
423.111	1212.14
423.488	1287.85
423.864	1276.77
424.241	1299.37
424.617	1318.13
424.994	1334.63
425.37	1335.98
425.746	1353.61
426.123	1376.21
426.499	1383.44
426.875	1402.19
427.251	1429.31
427.627	1452.81
428.003	1438.58
428.379	1492.36
428.756	1497.33
429.132	1534.62
429.507	1510.89
429.883	1525.58
430.259	1591.34
430.635	1573.04
431.011	1616.88
431.387	1658.46
431.763	1681.51
432.138	1687.84
432.514	1707.27
432.89	1691
433.265	1760.6
433.641	1764.67
434.016	1792.47
434.392	1794.5
434.767	1842.86
435.143	1872.46
435.518	1843.99
435.894	1872.01
436.269	1922.18
436.644	1935.74
437.02	1971.45
437.395	1924.89
437.77	2011.44
438.145	1994.5
438.52	2044.66
438.895	2073.59
439.271	2053.48
439.646	2109.75
440.021	2094.61
440.395	2133.02
440.77	2113.14
441.145	2147.03
441.52	2208.95
441.895	2210.76
442.27	2194.72
442.645	2210.76
443.019	2240.14
443.394	2263.64
443.769	2282.85
444.143	2276.52
444.518	2309.74
444.892	2331.89
445.267	2344.09
445.641	2359.46
446.016	2352
446.39	2386.58
446.764	2415.95
447.139	2392.23
447.513	2428.83
447.887	2473.81
448.262	2479.45
448.636	2475.61
449.01	2527.81
449.384	2545.22
449.758	2551.09
450.132	2580.92
450.506	2611.43
450.88	2630.64
451.254	2649.17
451.628	2672.9
452.002	2703.18
452.376	2703.63
452.75	2734.59
453.123	2774.59
453.497	2812.55
453.871	2865.21
454.244	2930.52
454.618	2879.22
454.992	2967.35
455.365	2944.3
455.739	3053.45
456.112	3064.52
456.486	3059.1
456.859	3119.89
457.232	3186.33
457.606	3213.9
457.979	3208.7
458.352	3286.66
458.725	3327.79
459.099	3367.79
459.472	3408.47
459.845	3462.71
460.218	3514.91
460.591	3541.57
460.964	3543.38
461.337	3607.33
461.71	3689.14
462.083	3746.09
462.456	3752.87
462.829	3738.18
463.201	3847.78
463.574	3829.02
463.947	3909.02
464.32	4031.73
464.692	3995.57
465.065	4072.86
465.438	4143.59
465.81	4163.93
466.183	4218.17
466.555	4315.56
466.928	4338.16
467.3	4327.77
467.672	4404.83
468.045	4474.88
468.417	4541.32
468.789	4580.64
469.161	4652.05
469.534	4758.72
469.906	4850.01
470.278	4836
470.65	4897.7
471.022	5004.59
471.394	5104.7
471.766	5167.75
472.138	5209.1
472.51	5344.24
472.882	5412.71
473.253	5451.58
473.625	5577.68
473.997	5711.91
474.369	5699.26
474.74	5734.51
475.112	5832.59
475.484	6007.05
475.855	6092.47
476.227	6147.15
476.598	6281.39
476.97	6351.22
477.341	6481.84
477.713	6581.72
478.084	6645.9
478.455	6863.75
478.827	6837.76
479.198	7100.58
479.569	7142.38
479.94	7293.79
480.311	7426.22
480.682	7607.68
481.053	7702.14
481.424	7853.78
481.795	7927.9
482.166	7981
482.537	8139.64
482.908	8298.74
483.279	8466.42
483.65	8594.32
484.021	8731.27
484.391	8867.76
484.762	8947.31
485.133	9013.52
485.503	9132.39
485.874	9381.42
486.244	9476.11
486.615	9632.03
486.985	9855.53
487.356	9924.46
487.726	10014.62
488.097	10187.95
488.467	10274.5
488.837	10457.55
489.207	10646.47
489.578	10769.18
489.948	10899.57
490.318	11036.29
490.688	11016.63
491.058	11237.64
491.428	11417.3
491.798	11543.4
492.168	11699.78
492.538	11782.94
492.908	11940.22
493.278	12106.77
493.648	12087.79
494.017	12368.01
494.387	12430.83
494.757	12518.51
495.126	12733.87
495.496	12748.79
495.866	12871.95
496.235	13046.41
496.605	13085.28
496.974	13186.74
497.344	13260.19
497.713	13390.35
498.082	13449.79
498.452	13641.65
498.821	13793.06
499.19	13838.93
499.559	13880.96
499.928	13990.11
500.298	14155.53
500.667	14280.5
501.036	14147.17
501.405	14452.02
501.774	14428.52
502.143	14660.38
502.512	14660.6
502.88	14760.94
503.249	14763.88
503.618	15036.86
503.987	15121.61
504.356	15229.85
504.724	15351.43
505.093	15299.91
505.462	15457.42
505.83	15623.29
506.199	15747.58
506.567	15866.9
506.936	15917.52
507.304	16132.2
507.672	16154.58
508.041	16249.71
508.409	16364.29
508.777	16517.28
509.145	16697.39
509.514	16710.72
509.882	16828.91
510.25	16923.37
510.618	17022.8
510.986	17093.76
511.354	17349.8
511.722	17501.88
512.09	17753.86
512.458	17621.88
512.826	17858.71
513.193	17933.06
513.561	18011.7
513.929	18146.39
514.297	18386.38
514.664	18585.92
515.032	18589.54
515.4	18818.23
515.767	18934.16
516.135	18986.82
516.502	18913.82
516.869	19275.4
517.237	19277.66
517.604	19397.88
517.972	19629.74
518.339	19789.96
518.706	19791.09
519.073	19915.15
519.44	20012.1
519.808	20343.62
520.175	20329.83
520.542	20682.14
520.909	20775.47
521.276	20750.16
521.643	20925.07
522.009	21130.26
522.376	21291.39
522.743	21455.68
523.11	21717.82
523.477	21951.48
523.843	22097.02
524.21	22315.09
524.577	22473.51
524.943	22528.87
525.31	22719.83
525.676	22932.02
526.043	23028.74
526.409	23243.2
526.776	23365.01
527.142	23489.52
527.508	23715.51
527.874	23821.72
528.241	23932
528.607	24111.43
528.973	24342.38
529.339	24289.28
529.705	24627.57
530.071	24820.79
530.437	24973.33
530.803	25138.52
531.169	25275.01
531.535	25205.18
531.901	25299.42
532.267	25605.63
532.632	25605.85
532.998	25825.73
533.364	26066.63
533.73	26205.84
534.095	26379.17
534.461	26442.89
534.826	26595.2
535.192	26665.94
535.557	26816.67
535.923	26794.75
536.288	26993.39
536.653	27147.05
537.019	27110.9
537.384	27302.76
537.749	27422.75
538.114	27501.17
538.479	27604.67
538.845	27802.63
539.21	27728.28
539.575	27985.45
539.94	27962.4
540.305	28326.46
540.67	28135.73
541.034	28353.12
541.399	28521.93
541.764	28517.64
542.129	28627.02
542.494	28741.36
542.858	28881.02
543.223	29006.21
543.587	29139.77
543.952	29027.46
544.316	29174.8
544.681	29266.32
545.045	29494.79
545.41	29626.31
545.774	29589.48
546.138	29778.17
546.503	29870.6
546.867	29953.08
547.231	30223.36
547.595	30205.28
547.959	30346.74
548.324	30362.11
548.688	30472.84
549.052	30524.37
549.416	30771.59
549.779	30708.99
550.143	30874.87
550.507	31165.25
550.871	31245.93
551.235	31264.01
551.599	31471.69
551.962	31581.29
552.326	31725.47
552.689	31826.71
553.053	31797.33
553.417	31899.02
553.78	32268.28
554.143	32179.69
554.507	32349.86
554.87	32502.17
555.234	32816.51
555.597	32695.16
555.96	32897.41
556.323	33067.35
556.686	33120.68
557.05	33301.47
557.413	33423.5
557.776	33545.3
558.139	33731.97
558.502	33935.12
558.865	33947.33
559.228	34237.49
559.59	34373.08
559.953	34265.06
560.316	34720.19
560.679	34880.41
561.041	35033.85
561.404	35158.6
561.767	35411.7
562.129	35361.98
562.492	35764.46
562.854	35582.31
563.217	35812.59
563.579	36090.55
563.941	36299.58
564.304	36447.15
564.666	36699.12
565.028	36738.21
565.39	36842.62
565.753	37051.2
566.115	37241.03
566.477	37220.91
566.839	37362.15
567.201	37633.78
567.563	37615.48
567.925	37879.43
568.287	38054.79
568.648	38025.19
569.01	38171.85
569.372	38414.1
569.734	38447.77
570.095	38775.68
570.457	38991.49
570.819	38977.93
571.18	39061.32
571.542	39307.86
571.903	39442.32
572.265	39508.31
572.626	39400.52
572.987	39673.05
573.349	39819.72
573.71	39960.28
574.071	39987.17
574.432	39911.46
574.794	40289.76
575.155	40210.21
575.516	40259.03
575.877	40421.06
576.238	40492.47
576.599	40654.72
576.96	40824.44
577.32	40814.04
577.681	40892.68
578.042	41040.47
578.403	41096.74
578.763	41114.6
579.124	41080.25
579.485	41397.98
579.845	41486.34
580.206	41267.81
580.566	41524.53
580.927	41396.85
581.287	41694.47
581.648	41527.02
582.008	41666.9
582.368	41591.87
582.728	41601.82
583.089	41586.67
583.449	41603.17
583.809	41837.52
584.169	41842.04
584.529	41696.5
584.889	41965.42
585.249	41798.65
585.609	41587.58
585.969	41999.09
586.329	41754.35
586.688	41891.53
587.048	41908.7
587.408	41828.93
587.768	41804.07
588.127	41968.81
588.487	41905.54
588.846	42166.32
589.206	41943.05
589.565	41956.83
589.925	42053.56
590.284	41887.46
590.643	42115.47
591.003	42304.4
591.362	42252.19
591.721	42207.22
592.08	42225.98
592.44	42390.72
592.799	42323.15
593.158	42273.89
593.517	42389.59
593.876	42319.76
594.235	42268.92
594.593	42445.86
594.952	42514.33
595.311	42328.12
595.67	42424.17
596.029	42672.07
596.387	42549.36
596.746	42549.36
597.104	42484.5
597.463	42668.23
597.822	42749.58
598.18	42545.07
598.538	42585.74
598.897	42685.18
599.255	42545.97
599.613	43151.15
599.972	42747.32
600.33	42947.54
600.688	42840.43
601.046	42866.87
601.404	43136.01
601.762	42952.06
602.12	43256.46
602.478	43065.51
602.836	42977.82
603.194	42964.49
603.552	42943.7
603.91	42992.06
604.268	43202.45
604.625	43259.63
604.983	43330.58
605.341	43138.95
605.698	43364.48
606.056	43511.82
606.413	43399.51
606.771	43651.25
607.128	43595.44
607.485	43352.73
607.843	43504.82
608.2	43654.42
608.557	43712.72
608.914	43671.59
609.272	43851.7
609.629	43858.03
609.986	44073.16
610.343	43751.36
610.7	44181.18
611.057	43984.13
611.414	44004.69
611.771	44179.6
612.127	44167.85
612.484	44220.5
612.841	44414.85
613.198	44256.89
613.554	44204.69
613.911	44427.05
614.267	44353.16
614.624	44374.4
614.98	44524.22
615.337	44759.92
615.693	44744.78
616.05	44583.21
616.406	44923.08
616.762	44733.48
617.118	44662.3
617.475	44670.44
617.831	44897.77
618.187	44943.65
618.543	44876.76
618.899	45152.46
619.255	44931.22
619.611	44864.33
619.967	45101.16
620.323	45334.37
620.678	45092.57
621.034	44989.3
621.39	44968.05
621.746	45016.87
622.101	45436.29
622.457	45120.59
622.812	45186.35
623.168	45201.27
623.523	45380.93
623.879	45347.93
624.234	45172.34
624.589	45510.87
624.945	45298.44
625.3	45261.83
625.655	45118.79
626.01	45201.5
626.365	45293.7
626.72	45209.18
627.075	45287.82
627.43	45110.2
627.785	45136.86
628.14	45182.29
628.495	45263.19
628.85	45097.54
629.205	44949.75
629.559	45227.26
629.914	44999.69
630.269	45128.28
630.623	44941.39
630.978	44883.54
631.332	45095.96
631.687	45011.67
632.041	44901.62
632.396	44881.96
632.75	44661.4
633.104	44745.24
633.459	44509.08
633.813	44681.28
634.167	44599.03
634.521	44527.84
634.875	44610.55
635.229	44582.08
635.583	44261.63
635.937	44305.7
636.291	44253.72
636.645	44344.79
636.999	44319.26
637.352	44292.59
637.706	43935.54
638.06	44280.62
638.413	44109.55
638.767	43977.8
639.121	44017.35
639.474	43832.04
639.828	43871.59
640.181	43785.94
640.534	43735.09
640.888	43759.05
641.241	43549.34
641.594	43600.41
641.947	43813.96
642.301	43565.83
642.654	43631.37
643.007	43607.41
643.36	43630.24
643.713	43552.72
644.066	43620.52
644.419	43320.64
644.771	42964.04
645.124	42668
645.477	42438.18
645.83	42314.34
646.182	42089.03
646.535	42034.57
646.888	42167.9
647.24	41962.03
647.593	42170.84
647.945	42047.91
648.298	41987.57
648.65	41881.13
649.002	41720.91
649.355	41764.52
649.707	41733.11
650.059	41809.04
650.411	42453.09
650.763	42393.66
651.115	42772.63
651.467	42609.25
651.819	42559.53
652.171	42315.02
652.523	42379.42
652.875	42315.24
653.227	42219.88
653.578	42505.52
653.93	42292.42
654.282	42150.5
654.633	42040.22
654.985	42304.17
655.337	42219.43
655.688	42166.09
656.039	42283.61
656.391	41729.72
656.742	41947.8
657.094	41928.36
657.445	42071.63
657.796	42036.15
658.147	41938.3
658.498	41702.38
658.849	42017.62
659.2	41905.76
659.551	41793
659.902	41744.86
660.253	41714.13
660.604	41831.19
660.955	41623.28
661.306	41784.41
661.656	41741.25
662.007	41718.2
662.358	41585.77
662.708	41557.52
663.059	41555.49
663.409	41267.14
663.76	41629.61
664.11	41442.05
664.461	41537.18
664.811	41550.29
665.161	41565.43
665.511	41306.46
665.862	41377.19
666.212	41643.4
666.562	41529.95
666.912	41467.58
667.262	41437.98
667.612	41463.29
667.962	41516.85
668.312	41443.4
668.662	41473.01
669.011	41525.21
669.361	41356.4
669.711	41220.81
670.06	41274.37
670.41	41183.97
670.76	41125.9
671.109	41192.33
671.459	41086.35
671.808	41003.41
672.157	41066.01
672.507	41004.09
672.856	41157.08
673.205	41036.63
673.554	40927.48
673.904	40775.85
674.253	41066.46
674.602	40805.45
674.951	40493.37
675.3	40189.65
675.649	40889.07
675.998	40793.25
676.346	40726.58
676.695	40821.95
677.044	40666.47
677.393	40741.73
677.741	40750.31
678.09	40699.01
678.438	40572.24
678.787	40573.37
679.135	40648.17
679.484	40367.05
679.832	40459.47
680.181	40368.4
680.529	40356.65
680.877	40313.26
681.225	40186.94
681.573	40333.37
681.922	40037.56
682.27	40115.75
682.618	40226.03
682.966	40003.21
683.314	40052.03
683.661	39836.21
684.009	39479.39
684.357	39593.05
684.705	39566.84
685.053	39739.04
685.4	39541.08
685.748	39263.35
686.095	39340.18
686.443	39107.64
686.79	39127.53
687.138	39105.16
687.485	39000.3
687.832	39121.88
688.18	39068.1
688.527	38955.33
688.874	38942.68
689.221	38702.68
689.568	38478.28
689.915	38553.08
690.262	38539.98
690.609	38437.61
690.956	38341.34
691.303	38209.14
691.65	38057.95
691.997	38093.43
692.344	37940.44
692.69	37968.24
693.037	38000.55
693.383	37759.88
693.73	37819.09
694.077	37584.75
694.423	37654.12
694.769	37398.99
695.116	37344.98
695.462	37326.9
695.808	37149.05
696.155	37268.6
696.501	36937.76
696.847	36791.77
697.193	36639.46
697.539	36785.67
697.885	36542.51
698.231	36390.2
698.577	36567.6
698.923	36408.73
699.269	36003.32
699.614	35889.2
699.96	35853.04
700.306	35989.08
700.651	35970.55
700.997	35850.78
701.342	35733.5
701.688	35680.16
702.033	35392.71
702.379	35315.65
702.724	35477.01
703.069	35444.24
703.415	34958.37
703.76	35061.87
704.105	34999.05
704.45	34685.61
704.795	34589.12
705.14	34500.31
705.485	34597.48
705.83	34351.16
706.175	34460.99
706.52	34413.3
706.865	34249.69
707.209	34166.53
707.554	34110.26
707.899	34113.88
708.243	34095.12
708.588	33927.44
708.932	33837.27
709.277	33792.53
709.621	33689.93
709.966	33559.32
710.31	33523.61
710.654	33345.76
710.998	33527.68
711.342	33478.87
711.687	33361.58
712.031	33051.31
712.375	33069.16
712.719	33058.99
713.063	33128.82
713.407	33063.96
713.75	32755.49
714.094	32790.52
714.438	32749.39
714.782	32741.71
715.125	32556.86
715.469	32748.04
715.812	32546.23
716.156	32262.63
716.499	32386.24
716.843	32347.6
717.186	32149.63
717.53	32242.06
717.873	32319.8
718.216	32174.04
718.559	31995.29
718.902	31909.87
719.246	31848.4
719.589	31888.17
719.932	31760.04
720.275	31712.58
720.617	31721.17
720.96	31550.33
721.303	31591.91
721.646	31654.73
721.989	31343.1
722.331	31430.11
722.674	31416.32
723.016	31406.83
723.359	31193.28
723.701	31230.11
724.044	31013.39
724.386	30832.16
724.729	30946.28
725.071	30957.12
725.413	30949.67
725.755	31015.88
726.097	30711.25
726.439	30672.84
726.782	30636
727.124	30572.95
727.465	30560.52
727.807	30602.56
728.149	30551.94
728.491	30384.94
728.833	30471.71
729.175	30318.95
729.516	30346.74
729.858	30196.92
730.199	30175.45
730.541	30246.18
730.882	30218.61
731.224	30288.67
731.565	30048.9
731.906	30079.86
732.248	30079.86
732.589	29906.53
732.93	29768.45
733.271	29806.87
733.612	29887.32
733.953	29793.54
734.294	29650.72
734.635	29579.98
734.976	29797.15
735.317	29461.57
735.658	29505.18
735.999	29493.89
736.339	29489.37
736.68	29615.46
737.021	29381.8
737.361	29194.01
737.702	29370.95
738.042	29314.91
738.383	29147
738.723	29141.8
739.063	29092.99
739.404	29029.49
739.744	28984.29
740.084	28949.95
740.424	29016.84
740.764	28857.74
741.104	28963.28
741.444	28769.84
741.784	28645.55
742.124	28661.14
742.464	28859.1
742.804	28657.3
743.143	28594.93
743.483	28506.11
743.823	28394.71
744.162	28361.94
744.502	28324.42
744.841	28239.68
745.181	28480.35
745.52	28303.18
745.86	28324.42
746.199	28123.75
746.538	28107.93
746.877	28170.76
747.216	28074.71
747.556	27992.46
747.895	27983.19
748.234	27805.57
748.573	27808.96
748.911	27845.12
749.25	27701.39
749.589	27592.47
749.928	27821.61
750.267	27605.35
750.605	27650.77
750.944	27495.52
751.283	27375.3
751.621	27534.16
751.96	27240.16
752.298	27180.5
752.636	27244.68
752.975	27140.28
753.313	27070.9
753.651	27228.41
753.989	27019.6
754.327	26986.15
754.666	26820.96
755.004	26795.2
755.342	26912.94
755.679	26729.21
756.017	26653.96
756.355	26821.87
756.693	26491.48
757.031	26560.4
757.368	26370.13
757.706	26368.54
758.044	26312.27
758.381	26409.22
758.719	26170.81
759.056	26210.13
759.394	26127.42
759.731	25980.08
760.068	25917.03
760.405	25717.49
760.743	25775.11
761.08	25725.17
761.417	25577.83
761.754	25652.18
762.091	25588
762.428	25404.05
762.765	25262.36
763.102	25263.71
763.438	25235.01
763.775	25032.53
764.112	25031.86
764.449	24914.8
764.785	24750.96
765.122	24644.97
765.458	24683.84
765.795	24606.78
766.131	24529.95
766.467	24404.53
766.804	24327.47
767.14	24267.13
767.476	24308.49
767.812	24107.13
768.148	24220.35
768.485	23971.32
768.821	23847.25
769.157	23793.47
769.492	23779.69
769.828	23715.96
770.164	23595.28
770.5	23555.96
770.836	23467.6
771.171	23323.2
771.507	23196.88
771.842	23014.96
772.178	23150.32
772.513	23129.08
772.849	22973.6
773.184	22830.78
773.519	22817.9
773.855	22679.83
774.19	22598.93
774.525	22534.07
774.86	22444.13
775.195	22444.58
775.53	22375.88
775.865	22141.99
776.2	22025.38
776.535	21945.61
776.87	21899.73
777.205	21808.66
777.539	21782.45
777.874	21769.57
778.209	21544.72
778.543	21564.38
778.878	21510.37
779.212	21471.5
779.547	21222.46
779.881	21357.38
780.215	21189.47
780.55	21116.93
780.884	21081.9
781.218	20963.71
781.552	20927.11
781.886	20893.21
782.22	20759.65
782.554	20624.97
782.888	20482.82
783.222	20519.66
783.556	20385.88
783.889	20392.88
784.223	20170.51
784.557	20067.24
784.89	20274.92
785.224	20090.06
785.557	20016.85
785.891	19945.66
786.224	19843.07
786.558	19736.18
786.891	19554.71
787.224	19596.74
787.557	19544.54
787.891	19467.48
788.224	19452.57
788.557	19407.82
788.89	19190.65
789.223	19312.91
789.556	19138.45
789.888	19123.08
790.221	19077.21
790.554	18945.69
790.887	18916.76
791.219	18778.01
791.552	18771.91
791.884	18766.26
792.217	18528.52
792.549	18589.99
792.882	18421.63
793.214	18432.93
793.546	18427.06
793.879	18268.64
794.211	18070.68
794.543	18220.28
794.875	18159.27
795.207	18154.75
795.539	17968.09
795.871	18041.08
796.203	17881.54
796.535	17744.36
796.867	17679.73
797.198	17661.88
797.53	17757.24
797.862	17517.7
798.193	17610.81
798.525	17490.81
798.856	17423.69
799.188	17324.04
799.519	17252.17
799.85	17155.68
800.182	17122.23
800.513	17092.4
800.844	17025.96
801.175	17109.58
801.506	17028.22
801.837	17001.56
802.168	16977.38
802.499	16873.88
802.83	16642.92
803.161	16682.92
803.491	16715.01
803.822	16687.67
804.153	16643.15
804.483	16425.98
804.814	16390.95
805.145	16484.96
805.475	16422.36
805.805	16378.3
806.136	16245.65
806.466	16272.09
806.796	16270.96
807.126	16051.3
807.457	16071.41
807.787	16132.43
808.117	15940.57
808.447	15854.24
808.777	15865.54
809.107	15755.72
809.436	15819.67
809.766	15748.71
810.096	15735.6
810.426	15764.53
810.755	15664.64
811.085	15607.92
811.414	15614.7
811.744	15431.88
812.073	15423.75
812.403	15338.1
812.732	15273.02
813.061	15271.21
813.39	15160.7
813.719	15195.5
814.049	15236.18
814.378	15179.91
814.707	15104.43
815.036	15162.06
815.365	15141.95
815.693	14981.27
816.022	14918
816.351	14875.74
816.68	14734.05
817.008	14829.41
817.337	14694.73
817.665	14647.95
817.994	14649.76
818.322	14668.96
818.651	14683.43
818.979	14526.82
819.307	14657.67
819.636	14572.02
819.964	14440.27
820.292	14493.6
820.62	14452.02
820.948	14351.68
821.276	14486.82
821.604	14429.87
821.932	14523.88
822.259	14420.16
822.587	14388.52
822.915	14334.51
823.243	14411.57
823.57	14338.8
823.898	14384.9
824.225	14359.14
824.553	14316.43
824.88	14259.94
825.207	14350.33
825.535	14255.64
825.862	14394.62
826.189	14377.22
826.516	14356.43
826.843	14408.18
827.17	14427.16
827.497	14332.48
827.824	14352.59
828.151	14337.45
828.478	14288.18
828.805	14403.89
829.131	14249.77
829.458	14316.88
829.785	14260.84
830.111	14335.64
830.438	14287.28
830.764	14245.25
831.09	14268.52
831.417	14165.7
831.743	14289.31
832.069	14258.58
832.395	14088.19
832.722	14124.8
833.048	14223.1
833.374	14203.89
833.7	14134.97
834.026	14091.13
834.351	14077.79
834.677	14123.67
835.003	14117.34
835.329	14165.93
835.654	14136.78
835.98	13976.55
836.306	14022.88
836.631	13913.73
836.956	14027.63
837.282	13994.86
837.607	13958.47
837.932	13824.69
838.258	13965.71
838.583	13941.07
838.908	13833.73
839.233	13789.67
839.558	13694.07
839.883	13762.55
840.208	13700.4
840.533	13658.6
840.858	13717.13
841.182	13768.42
841.507	13685.71
841.832	13681.65
842.156	13637.35
842.481	13597.13
842.805	13524.81
843.13	13498.37
843.454	13530.92
843.778	13433.74
844.103	13488.66
844.427	13371.15
844.751	13447.08
845.075	13382.44
845.399	13292.73
845.723	13256.57
846.047	13318.27
846.371	13185.61
846.695	13122.34
847.019	12949.69
847.343	12881.44
847.666	12872.85
847.99	12743.14
848.313	12756.7
848.637	12709.92
848.96	12685.29
849.284	12694.1
849.607	12559.87
849.931	12493.88
850.254	12512.64
850.577	12440.77
850.9	12316.94
851.223	12322.81
851.546	12316.48
851.869	12201.68
852.192	12283.72
852.515	12138.86
852.838	12123.95
853.161	12168.01
853.483	11988.58
853.806	12018.86
854.129	11948.58
854.451	11930.28
854.774	11857.51
855.096	11845.76
855.419	11772.09
855.741	11772.32
856.063	11671.3
856.385	11712.21
856.708	11603.96
857.03	11489.39
857.352	11618.2
857.674	11460.91
857.996	11428.82
858.318	11390.63
858.64	11345.89
858.961	11308.83
859.283	11324.42
859.605	11241.94
859.926	11324.65
860.248	11187.7
860.57	11238.55
860.891	11233.12
861.212	11190.64
861.534	11157.87
861.855	11105.89
862.176	11088.49
862.498	11134.37
862.819	11136.4
863.14	11068.83
863.461	11045.11
863.782	11037.42
864.103	10985.45
864.424	11006.91
864.745	10948.84
865.065	10847.82
865.386	10847.14
865.707	10805.11
866.027	10842.62
866.348	10878.78
866.668	10791.33
866.989	10803.53
867.309	10735.51
867.63	10770.76
867.95	10747.26
868.27	10694.38
868.59	10709.29
868.91	10660.48
869.23	10664.32
869.55	10672.91
869.87	10686.7
870.19	10618.45
870.51	10545.23
870.83	10584.78
871.15	10451.22
871.469	10438.12
871.789	10573.03
872.109	10437.66
872.428	10398.34
872.748	10492.58
873.067	10453.03
873.386	10420.26
873.706	10407.83
874.025	10235.63
874.344	10368.29
874.663	10390.66
874.982	10314.28
875.301	10303.66
875.62	10212.36
875.939	10248.52
876.258	10260.94
876.577	10188.63
876.896	10144.11
877.214	10182.3
877.533	10103.66
877.852	10167.39
878.17	10146.82
878.489	10112.93
878.807	10131.91
879.125	10058.24
879.444	10125.58
879.762	10066.37
880.08	10078.12
880.398	9985.7
880.716	10020.05
881.034	9985.02
881.352	9909.99
881.67	9949.31
881.988	9986.83
882.306	9909.54
882.624	9821.18
882.941	9890.33
883.259	9815.76
883.577	9779.15
883.894	9800.62
884.212	9778.02
884.529	9748.64
884.846	9754.74
885.164	9712.26
885.481	9618.25
885.798	9667.51
886.115	9610.79
886.432	9533.96
886.75	9584.13
887.067	9580.51
887.383	9509.78
887.7	9566.27
888.017	9525.82
888.334	9561.75
888.651	9419.39
888.967	9443.57
889.284	9374.41
889.6	9410.8
889.917	9282.89
890.233	9357.01
890.55	9252.38
890.866	9323.12
891.182	9267.52
891.498	9218.26
891.815	9149.56
892.131	9114.76
892.447	9070.92
892.763	9095.1
893.079	9066.4
893.395	9053.29
893.71	9027.53
894.026	9055.33
894.342	8932.62
894.657	8875.67
894.973	8926.52
895.289	8930.13
895.604	8920.19
895.92	8807.65
896.235	8682.68
896.55	8683.81
896.865	8731.04
897.181	8717.03
897.496	8717.48
897.811	8621.89
898.126	8636.81
898.441	8557.94
898.756	8571.27
899.071	8497.15
899.386	8538.73
899.7	8440.43
900.015	8440.2
900.33	8361.11
900.644	8368.11
900.959	8308.45
901.273	8314.56
901.588	8280.66
901.902	8226.87
902.216	8256.03
902.531	8200.89
902.845	8145.52
903.159	8093.32
903.473	8069.14
903.787	8058.06
904.101	7935.81
904.415	7989.82
904.729	7960.44
905.042	7940.55
905.356	7903.27
905.67	7877.5
905.984	7834.12
906.297	7803.16
906.611	7805.42
906.924	7768.13
907.237	7816.94
907.551	7751.41
907.864	7691.52
908.177	7690.39
908.491	7619.21
908.804	7546.44
909.117	7540.56
909.43	7490.85
909.743	7509.15
910.056	7457.18
910.368	7423.51
910.681	7391.87
910.994	7358.87
911.307	7316.84
911.619	7312.1
911.932	7279.33
912.244	7241.82
912.557	7220.57
912.869	7120.69
913.181	7146
913.494	7130.63
913.806	7088.82
914.118	7082.27
914.43	7035.27
914.742	7021.26
915.054	6966.79
915.366	6979.22
915.678	6866.46
915.99	6893.8
916.302	6906.68
916.613	6837.31
916.925	6806.12
917.236	6824.43
917.548	6737.42
917.859	6753.24
918.171	6742.17
918.482	6660.59
918.794	6646.35
919.105	6686.58
919.416	6661.94
919.727	6586.69
920.038	6547.82
920.349	6491.78
920.66	6445
920.971	6454.27
921.282	6424.44
921.593	6337.88
921.903	6346.02
922.214	6323.2
922.525	6295.4
922.835	6335.17
923.146	6258.34
923.456	6251.56
923.767	6168.62
924.077	6216.08
924.387	6179.47
924.697	6121.62
925.008	6113.48
925.318	6106.7
925.628	6090.66
925.938	6021.28
926.248	6019.93
926.558	5969.76
926.867	5944.45
927.177	5897.67
927.487	5886.82
927.796	5858.57
928.106	5867.16
928.416	5833.26
928.725	5791.91
929.034	5759.59
929.344	5727.5
929.653	5711.23
929.962	5702.87
930.271	5660.61
930.581	5609.77
930.89	5612.48
931.199	5590.79
931.508	5589.2
931.817	5544.46
932.125	5491.13
932.434	5503.1
932.743	5464.91
933.051	5435.08
933.36	5412.71
933.669	5426.04
933.977	5390.56
934.286	5355.31
934.594	5334.29
934.902	5297.01
935.21	5328.65
935.519	5283
935.827	5245.26
936.135	5279.61
936.443	5161.87
936.751	5131.59
937.059	5141.76
937.367	5132.04
937.674	5165.71
937.982	5097.24
938.29	5096.79
938.597	5088.2
938.905	5019.95
939.213	5027.64
939.52	5062.66
939.827	4983.12
940.135	4970.46
940.442	4924.81
940.749	4897.92
941.056	4876.45
941.363	4837.58
941.67	4849.79
941.977	4846.17
942.284	4774.08
942.591	4807.08
942.898	4753.29
943.205	4827.64
943.511	4727.08
943.818	4749.45
944.125	4677.59
944.431	4665.16
944.738	4670.58
945.044	4623.35
945.35	4629.45
945.657	4543.81
945.963	4544.26
946.269	4471.27
946.575	4538.16
946.881	4487.09
947.187	4484.15
947.493	4424.71
947.799	4443.92
948.105	4371.16
948.41	4408.9
948.716	4371.16
949.022	4350.14
949.327	4366.41
949.633	4359.18
949.938	4289.12
950.244	4325.96
950.549	4287.77
950.854	4250.48
951.16	4243.7
951.465	4231.72
951.77	4214.32
952.075	4224.27
952.38	4140.43
952.685	4168.22
952.99	4144.27
953.294	4083.03
953.599	4088
953.904	4036.93
954.209	4024.95
954.513	4019.75
954.818	4026.76
955.122	4050.26
955.426	3976.59
955.731	3955.57
956.035	3893.88
956.339	3918.96
956.643	3937.72
956.948	3881.9
957.252	3892.52
957.556	3871.51
957.86	3802.58
958.163	3803.94
958.467	3799.42
958.771	3784.96
959.075	3775.01
959.378	3732.08
959.682	3727.11
959.985	3745.64
960.289	3722.81
960.592	3682.59
960.896	3681.68
961.199	3678.29
961.502	3628.35
961.805	3651.18
962.108	3619.76
962.411	3585.41
962.714	3558.52
963.017	3535.25
963.32	3580.44
963.623	3552.42
963.926	3572.31
964.228	3515.81
964.531	3504.96
964.833	3521.46
965.136	3495.93
965.438	3450.5
965.741	3453.67
966.043	3439.2
966.345	3407.11
966.648	3409.83
966.95	3428.13
967.252	3371.63
967.554	3357.62
967.856	3355.36
968.158	3288.7
968.46	3327.79
968.761	3263.61
969.063	3274.24
969.365	3317.62
969.666	3260.68
969.968	3255.71
970.269	3234.69
970.571	3204.63
970.872	3155.82
971.174	3158.98
971.475	3176.39
971.776	3135.03
972.077	3141.13
972.378	3143.17
972.679	3106.78
972.98	3087.57
973.281	3115.6
973.582	3052.09
973.883	3013.68
974.183	3053
974.484	3017.97
974.785	3005.09
975.085	3013.9
975.386	3015.26
975.686	2988.14
975.986	2975.71
976.287	2971.65
976.587	2935.71
976.887	2910.18
977.187	2925.32
977.487	2885.09
977.787	2893
978.087	2867.24
978.387	2862.04
978.687	2836.06
978.987	2799.45
979.286	2809.84
979.586	2805.77
979.885	2784.31
980.185	2808.71
980.484	2756.96
980.784	2766
981.083	2754.7
981.382	2728.71
981.682	2722.61
981.981	2746.79
982.28	2684.19
982.579	2659.34
982.878	2666.12
983.177	2693.91
983.475	2683.52
983.774	2654.37
984.073	2614.82
984.372	2616.63
984.67	2669.28
984.969	2631.54
985.267	2630.19
985.566	2613.91
985.864	2552.22
986.162	2553.8
986.461	2552.22
986.759	2514.26
987.057	2512.22
987.355	2494.37
987.653	2512.9
987.951	2496.18
988.249	2487.36
988.547	2459.12
988.844	2460.02
989.142	2437.65
989.44	2433.35
989.737	2428.38
990.035	2417.08
990.332	2378.44
990.63	2371.66
990.927	2361.72
991.224	2361.72
991.521	2374.37
991.819	2311.55
992.116	2318.55
992.413	2353.36
992.71	2306.58
993.006	2296.41
993.303	2241.95
993.6	2246.01
993.897	2253.25
994.193	2266.35
994.49	2263.87
994.787	2220.03
995.083	2204.89
995.379	2215.28
995.676	2230.2
995.972	2202.17
996.268	2189.52
996.565	2182.06
996.861	2143.19
997.157	2150.42
997.453	2156.75
997.749	2130.31
998.044	2095.06
998.34	2111.78
998.636	2092.57
998.932	2059.58
999.227	2031.33
999.523	2090.54
999.818	2046.47
1000.114	2070.65
1000.409	2024.33
1000.704	1996.53
1001	2006.25
1001.295	2000.82
1001.59	1970.77
1001.885	1977.77
1002.18	1961.95
1002.475	1955.85
1002.77	1954.95
1003.065	1936.19
1003.359	1933.93
1003.654	1945.23
1003.949	1916.08
1004.243	1867.49
1004.538	1907.72
1004.832	1891.9
1005.127	1870.66
1005.421	1850.32
1005.715	1824.33
1006.009	1857.55
1006.304	1850.09
1006.598	1801.73
1006.892	1813.26
1007.186	1782.52
1007.48	1795.18
1007.773	1811.22
1008.067	1758.8
1008.361	1760.6
1008.655	1742.52
1008.948	1720.83
1009.242	1744.56
1009.535	1727.61
1009.829	1710.66
1010.122	1706.14
1010.415	1659.14
1010.708	1695.07
1011.001	1673.37
1011.295	1688.06
1011.588	1667.5
1011.881	1634.05
1012.173	1642.41
1012.466	1603.32
1012.759	1613.49
1013.052	1605.58
1013.344	1639.48
1013.637	1616.2
1013.93	1575.52
1014.222	1557.44
1014.514	1596.31
1014.807	1563.77
1015.099	1568.97
1015.391	1520.16
1015.683	1501.85
1015.976	1486.71
1016.268	1503.66
1016.56	1483.1
1016.851	1473.83
1017.143	1488.75
1017.435	1468.41
1017.727	1425.7
1018.018	1456.88
1018.31	1449.65
1018.602	1417.56
1018.893	1414.85
1019.185	1412.36
1019.476	1400.16
1019.767	1398.58
1020.058	1382.76
1020.35	1383.44
1020.641	1370.78
1020.932	1353.38
1021.223	1348.41
1021.514	1350.9
1021.804	1345.47
1022.095	1344.8
1022.386	1314.51
1022.677	1288.98
1022.967	1290.79
1023.258	1289.43
1023.548	1275.64
1023.839	1269.54
1024.129	1263.22
1024.419	1271.8
1024.709	1273.16
1025	1249.88
1025.29	1243.1
1025.58	1246.04
1025.87	1224.35
1026.16	1203.33
1026.449	1236.1
1026.739	1203.78
1027.029	1208.98
1027.319	1185.7
1027.608	1167.4
1027.898	1141.41
1028.187	1147.96
1028.477	1140.96
1028.766	1152.94
1029.055	1140.05
1029.344	1147.06
1029.634	1119.49
1029.923	1106.38
1030.212	1090.79
1030.501	1105.25
1030.79	1084.24
1031.078	1051.02
1031.367	1093.28
1031.656	1066.61
1031.945	1083.11
1032.233	1055.76
1032.522	1055.54
1032.81	1058.25
1033.099	1042.66
1033.387	1018.7
1033.675	1006.05
1033.963	1012.83
1034.251	1003.79
1034.54	998.36
1034.828	988.87
1035.116	976.22
1035.403	993.39
1035.691	978.03
1035.979	978.25
1036.267	979.38
1036.554	970.79
1036.842	959.04
1037.129	967.4
1037.417	944.35
1037.704	964.01
1037.992	939.83
1038.279	926.73
1038.566	910.91
1038.853	910.91
1039.14	910.91
