Data from plate_ceramic_FLMS001491_015.txt Node
Date: Tue Feb 07 11:16:22 GMT 2017
User: dcchb
Spectrometer: FLMS00149
Trigger mode: 0
Integration Time (sec): 2.000000E-2
Scans to average: 10
Electric dark correction enabled: true
Nonlinearity correction enabled: false
Boxcar width: 0
XAxis mode: Wavelengths
Number of Pixels in Spectrum: 2048
>>>>>Begin Spectral Data<<<<<
341.393	-10.78
341.776	-10.78
342.16	-10.78
342.543	-57.78
342.927	-58.01
343.31	-85.8
343.693	-69.76
344.077	-63.66
344.46	-81.28
344.843	-33.15
345.226	-56.65
345.61	-27.73
345.993	-35.18
346.376	3.01
346.759	30.13
347.142	43.69
347.525	43.01
347.908	64.93
348.291	72.39
348.674	87.53
349.057	108.54
349.44	131.59
349.823	168.2
350.206	163
350.588	216.56
350.971	242.55
351.354	264.7
351.737	248.65
352.119	267.63
352.502	273.06
352.884	303.11
353.267	317.12
353.65	317.8
354.032	320.06
354.414	322.77
354.797	355.54
355.179	352.38
355.562	351.25
355.944	333.62
356.326	358.71
356.709	366.16
357.091	370.68
357.473	364.35
357.855	370.91
358.238	382.43
358.62	375.65
359.002	373.62
359.384	396.9
359.766	399.38
360.148	386.28
360.53	379.27
360.912	363
361.294	381.98
361.676	372.49
362.057	358.71
362.439	341.76
362.821	358.48
363.203	357.12
363.584	384.24
363.966	355.54
364.348	353.06
364.729	355.09
365.111	352.83
365.493	350.57
365.874	334.53
366.256	381.98
366.637	362.32
367.019	352.83
367.4	362.77
367.781	341.53
368.163	352.15
368.544	356.9
368.925	393.51
369.306	385.6
369.688	367.97
370.069	351.93
370.45	370.68
370.831	378.59
371.212	403.45
371.593	389.21
371.974	386.73
372.355	360.29
372.736	393.96
373.117	398.25
373.498	380.85
373.879	380.63
374.26	355.77
374.641	406.84
375.021	393.96
375.402	391.02
375.783	427.18
376.163	392.6
376.544	412.72
376.925	425.14
377.305	401.19
377.686	414.3
378.066	428.08
378.447	402.55
378.827	404.35
379.208	423.56
379.588	415.2
379.968	416.1
380.349	434.18
380.729	429.89
381.109	431.25
381.489	439.38
381.87	441.19
382.25	454.3
382.63	455.88
383.01	447.06
383.39	477.8
383.77	455.88
384.15	448.19
384.53	470.34
384.91	468.98
385.29	472.83
385.67	484.35
386.049	488.19
386.429	491.36
386.809	492.94
387.189	489.32
387.568	479.83
387.948	500.62
388.328	520.51
388.707	497.68
389.087	526.61
389.466	534.29
389.846	504.92
390.225	520.06
390.605	515.09
390.984	537.46
391.363	554.41
391.743	545.37
392.122	554.86
392.501	551.47
392.881	569.1
393.26	547.17
393.639	549.66
394.018	594.18
394.397	608.87
394.776	589.21
395.155	605.03
395.534	604.35
395.913	603.9
396.292	606.38
396.671	596.44
397.05	605.25
397.429	608.87
397.808	639.6
398.186	647.51
398.565	640.96
398.944	655.87
399.323	636.66
399.701	644.8
400.08	643.9
400.458	660.84
400.837	669.88
401.215	674.86
401.594	664.69
401.972	687.28
402.351	682.54
402.729	734.97
403.107	713.72
403.486	711.69
403.864	714.4
404.242	715.53
404.62	746.94
404.999	730.9
405.377	759.6
405.755	749.88
406.133	795.53
406.511	777.9
406.889	786.26
407.267	788.98
407.645	814.29
408.023	817.22
408.401	798.24
408.779	819.94
409.156	834.85
409.534	863.32
409.912	850.22
410.29	885.92
410.667	867.17
411.045	881.86
411.422	910.33
411.8	950.55
412.178	926.6
412.555	941.29
412.933	957.11
413.31	991.23
413.687	990.33
414.065	999.82
414.442	1019.48
414.819	1018.8
415.197	1044.56
415.574	1043.21
415.951	1066.26
416.328	1056.31
416.705	1073.04
417.082	1082.08
417.46	1122.08
417.837	1092.25
418.214	1096.31
418.591	1089.53
418.967	1157.1
419.344	1159.14
419.721	1157.33
420.098	1175.18
420.475	1196.2
420.852	1188.74
421.228	1181.96
421.605	1225.12
421.982	1238
422.358	1241.62
422.735	1235.74
423.111	1255.4
423.488	1270.77
423.864	1292.24
424.241	1310.54
424.617	1320.49
424.994	1343.99
425.37	1338.11
425.746	1356.42
426.123	1376.76
426.499	1377.21
426.875	1390.09
427.251	1407.49
427.627	1444.78
428.003	1461.5
428.379	1494.49
428.756	1485
429.132	1514.61
429.507	1541.95
429.883	1546.92
430.259	1586.7
430.635	1606.13
431.011	1595.06
431.387	1670.99
431.763	1673.7
432.138	1674.83
432.514	1678.44
432.89	1695.17
433.265	1716.18
433.641	1776.97
434.016	1766.8
434.392	1807.93
434.767	1845.9
435.143	1872.11
435.518	1864.2
435.894	1887.48
436.269	1918.44
436.644	1935.39
437.02	1955.95
437.395	1992.33
437.77	2026.91
438.145	2007.93
438.52	2028.94
438.895	2071.65
439.271	2075.95
439.646	2075.04
440.021	2112.11
440.395	2152.33
440.77	2118.88
441.145	2163.18
441.52	2207.92
441.895	2228.03
442.27	2216.06
442.645	2217.19
443.019	2276.62
443.394	2274.14
443.769	2284.3
444.143	2276.85
444.518	2318.65
444.892	2358.88
445.267	2355.26
445.641	2359.78
446.016	2377.86
446.39	2415.6
446.764	2403.4
447.139	2422.38
447.513	2430.29
447.887	2441.81
448.262	2465.54
448.636	2483.4
449.01	2532.21
449.384	2521.81
449.758	2559.33
450.132	2617.4
450.506	2625.31
450.88	2608.36
451.254	2612.88
451.628	2695.14
452.002	2729.04
452.376	2738.98
452.75	2786.89
453.123	2784.86
453.497	2837.51
453.871	2863.95
454.244	2900.11
454.618	2955.47
454.992	2972.65
455.365	2958.18
455.739	3072.53
456.112	3052.42
456.486	3075.24
456.859	3167.9
457.232	3183.94
457.606	3193.66
457.979	3246.76
458.352	3309.81
458.725	3300.1
459.099	3372.64
459.472	3430.71
459.845	3487.89
460.218	3492.18
460.591	3552.75
460.964	3535.57
461.337	3658.28
461.71	3690.14
462.083	3750.03
462.456	3762.01
462.829	3757.94
463.201	3830.48
463.574	3882
463.947	3933.3
464.32	4023.02
464.692	4004.71
465.065	4098.72
465.438	4138.49
465.81	4178.27
466.183	4200.19
466.555	4278.38
466.928	4393.63
467.3	4356.11
467.672	4471.82
468.045	4568.54
468.417	4583.9
468.789	4593.17
469.161	4619.16
469.534	4765.14
469.906	4841.75
470.278	4856.89
470.65	4922.88
471.022	5010.33
471.394	5108.86
471.766	5162.42
472.138	5259.37
472.51	5308.63
472.882	5373.04
473.253	5442.41
473.625	5543.88
473.997	5697.32
474.369	5693.48
474.74	5778.9
475.112	5906.81
475.484	5945
475.855	6041.27
476.227	6181.83
476.598	6302.5
476.97	6373.24
477.341	6497.3
477.713	6617.07
478.084	6650.52
478.455	6824.52
478.827	6897.29
479.198	7045.08
479.569	7161.92
479.94	7344.74
480.311	7270.61
480.682	7504.73
481.053	7706.31
481.424	7834.21
481.795	7957.83
482.166	8032.85
482.537	8164.83
482.908	8361.66
483.279	8468.55
483.65	8611.82
484.021	8737.47
484.391	8845.94
484.762	8939.27
485.133	8973.39
485.503	9181.07
485.874	9388.52
486.244	9438.92
486.615	9638.46
486.985	9708.06
487.356	9936.76
487.726	10012.46
488.097	10194.38
488.467	10249.07
488.837	10461.26
489.207	10583.97
489.578	10720.01
489.948	10894.25
490.318	11032.55
490.688	11047.01
491.058	11282.03
491.428	11420.56
491.798	11475.25
492.168	11743.49
492.538	11746.43
492.908	11973.09
493.278	12133.76
493.648	12110.49
494.017	12321.33
494.387	12432.06
494.757	12500.31
495.126	12714.09
495.496	12752.28
495.866	12867.98
496.235	12959.96
496.605	13158.82
496.974	13140.29
497.344	13335.54
497.713	13357.23
498.082	13528.53
498.452	13697.34
498.821	13726.72
499.19	13786.6
499.559	13894.39
499.928	13998.35
500.298	14045.13
500.667	14172.13
501.036	14214.84
501.405	14446.7
501.774	14469.75
502.143	14624.32
502.512	14720.81
502.88	14840.81
503.249	14866.35
503.618	15012.11
503.987	15136.4
504.356	15108.6
504.724	15304.53
505.093	15337.07
505.462	15503.17
505.83	15609.83
506.199	15723.27
506.567	15797.17
506.936	15922.36
507.304	16111.06
507.672	16178.85
508.041	16349.25
508.409	16384.5
508.777	16558.28
509.145	16741.1
509.514	16726.41
509.882	16877.82
510.25	16876.24
510.618	17099.73
510.986	17176.79
511.354	17373.17
511.722	17475.77
512.09	17683.9
512.458	17622.43
512.826	17795.53
513.193	18006.15
513.561	18059.03
513.929	18140.61
514.297	18372.47
514.664	18515.29
515.032	18594.38
515.4	18809.75
515.767	18911.21
516.135	19021.49
516.502	18906.92
516.869	19242.95
517.237	19353.01
517.604	19398.43
517.972	19643.62
518.339	19719.1
518.706	19851.98
519.073	19991.86
519.44	20065.53
519.808	20394.34
520.175	20419.65
520.542	20687.44
520.909	20669.81
521.276	20758.62
521.643	21029.35
522.009	21113.19
522.376	21347.31
522.743	21492.39
523.11	21696.45
523.477	21943
523.843	21995.2
524.21	22364.91
524.577	22491.46
524.943	22495.52
525.31	22626.37
525.676	22894.84
526.043	23063.42
526.409	23152.68
526.776	23430.87
527.142	23566
527.508	23784.76
527.874	23942.72
528.241	23966.9
528.607	24114.01
528.973	24348.81
529.339	24294.8
529.705	24621.34
530.071	24933.43
530.437	25039.86
530.803	25128.9
531.169	25274.43
531.535	25245.73
531.901	25362.57
532.267	25476.24
532.632	25609.79
532.998	25842.33
533.364	25940.63
533.73	26157.12
534.095	26413.39
534.461	26390.79
534.826	26617.45
535.192	26748.52
535.557	26836.88
535.923	26981.51
536.288	26979.93
536.653	27109.41
537.019	27078.23
537.384	27294.27
537.749	27486.81
538.114	27587.14
538.479	27570.42
538.845	27753.24
539.21	27716.86
539.575	27834.82
539.94	28095.83
540.305	28253.79
540.67	28175.15
541.034	28290.85
541.399	28505.99
541.764	28508.02
542.129	28616.72
542.494	28715.93
542.858	28852.65
543.223	28921.8
543.587	29116.37
543.952	29119.3
544.316	29284.5
544.681	29399.75
545.045	29488.79
545.41	29665.28
545.774	29836.35
546.138	29756.8
546.503	29872.96
546.867	29865.05
547.231	30154.98
547.595	30130.58
547.959	30248.99
548.324	30414.41
548.688	30448.31
549.052	30673.16
549.416	30704.57
549.779	30807.4
550.143	30923.78
550.507	31087.16
550.871	31167.16
551.235	31162.42
551.599	31570.99
551.962	31587.71
552.326	31682.4
552.689	31884.2
553.053	31704.1
553.417	31837.43
553.78	32278.77
554.143	32202.39
554.507	32377.52
554.87	32411.87
555.234	32845.08
555.597	32638.08
555.96	32929.37
556.323	33041.69
556.686	33157.39
557.05	33342.47
557.413	33344.5
557.776	33594.22
558.139	33828.33
558.502	33889.35
558.865	33943.81
559.228	34256.57
559.59	34313.29
559.953	34399.17
560.316	34656.79
560.679	34834.18
561.041	34947.4
561.404	35158.24
561.767	35451.12
562.129	35341.06
562.492	35705.12
562.854	35684.1
563.217	35876.87
563.579	36092.68
563.941	36291.32
564.304	36435.04
564.666	36689.5
565.028	36774.02
565.39	36900.57
565.753	37108.7
566.115	37183.95
566.477	37335.59
566.839	37380.33
567.201	37581
567.563	37728.57
567.925	37899.64
568.287	37778.06
568.648	38070.03
569.01	38194.55
569.372	38497.14
569.734	38403.81
570.095	38596.34
570.457	38744.14
570.819	38964.47
571.18	38986.62
571.542	39363.1
571.903	39367.17
572.265	39418.92
572.626	39556.09
572.987	39635.86
573.349	39764.67
573.71	39966.48
574.071	40114.04
574.432	40088.51
574.794	40225.23
575.155	40242.63
575.516	40211.89
575.877	40387.03
576.238	40551.55
576.599	40688.72
576.96	40785.89
577.32	40836.29
577.681	40922.84
578.042	41150.4
578.403	41237.86
578.763	41001.03
579.124	41211.64
579.485	41386.55
579.845	41509.71
580.206	41450.28
580.566	41456.83
580.927	41299.78
581.287	41677.84
581.648	41514.69
582.008	41714.45
582.368	41647.79
582.728	41700.22
583.089	41561.01
583.449	41601.01
583.809	41915.58
584.169	41834
584.529	41704.96
584.889	41945.18
585.249	41776.83
585.609	41704.51
585.969	42011.62
586.329	41808.24
586.688	41923.71
587.048	41912.19
587.408	41913.77
587.768	41959.65
588.127	41932.3
588.487	41978.63
588.846	42211.84
589.206	41848.01
589.565	41874
589.925	41990.83
590.284	41883.72
590.643	42257.94
591.003	42168.91
591.362	42183.82
591.721	42099.3
592.08	42193.99
592.44	42344.49
592.799	42435.56
593.158	42305.85
593.517	42377.04
593.876	42283.93
594.235	42243.48
594.593	42444.38
594.952	42507.2
595.311	42296.36
595.67	42583.36
596.029	42567.99
596.387	42630.81
596.746	42471.04
597.104	42465.39
597.463	42549.46
597.822	42802.79
598.18	42641.89
598.538	42645.28
598.897	42735.44
599.255	42493.64
599.613	43167.52
599.972	42778.61
600.33	42844.14
600.688	42658.61
601.046	42934.53
601.404	43107.41
601.762	42996
602.12	43294.98
602.478	43181.08
602.836	43071.71
603.194	42919.39
603.552	43065.6
603.91	42901.99
604.268	43270.57
604.625	43255.88
604.983	43355.99
605.341	43166.17
605.698	43417.91
606.056	43362.09
606.413	43416.56
606.771	43620.39
607.128	43600.51
607.485	43477.35
607.843	43405.03
608.2	43745.81
608.557	43955.75
608.914	43567.51
609.272	43743.55
609.629	43927.5
609.986	43907.16
610.343	43865.81
610.7	44081.17
611.057	44111.68
611.414	44092.47
611.771	44028.74
612.127	44233.26
612.484	44251.79
612.841	44381.73
613.198	44076.43
613.554	44276.42
613.911	44501.05
614.267	44339.92
614.624	44577.2
614.98	44480.71
615.337	44727.93
615.693	44712.57
616.05	44701.72
616.406	44867.59
616.762	44678.67
617.118	44667.14
617.475	44736.97
617.831	44850.87
618.187	44948.49
618.543	44935.61
618.899	44991.88
619.255	44983.29
619.611	45048.15
619.967	45184.19
620.323	45293.79
620.678	45077.08
621.034	45050.41
621.39	45094.03
621.746	45049.51
622.101	45449.5
622.457	45144.19
622.812	45247.02
623.168	45346.22
623.523	45244.98
623.879	45401.59
624.234	45098.77
624.589	45320.23
624.945	45306.45
625.3	45230.75
625.655	45225.32
626.01	45331.31
626.365	45387.8
626.72	45316.17
627.075	45117.75
627.43	45254.25
627.785	45085.44
628.14	45264.64
628.495	45188.26
628.85	45220.8
629.205	44958.66
629.559	45345.54
629.914	44840.25
630.269	45133.57
630.623	44913.47
630.978	44854.94
631.332	45012.9
631.687	45174.7
632.041	44849.06
632.396	44931.32
632.75	44638.9
633.104	44772.45
633.459	44489.07
633.813	44668.05
634.167	44425.57
634.521	44727.26
634.875	44642.51
635.229	44613.59
635.583	44271.45
635.937	44313.26
636.291	44208.4
636.645	44220.38
636.999	44234.61
637.352	44286.14
637.706	44096.31
638.06	44281.62
638.413	43959.37
638.767	43875.98
639.121	43931.34
639.474	43710.33
639.828	43757.79
640.181	43870.1
640.534	43915.3
640.888	43843.44
641.241	43614.74
641.594	43760.28
641.947	43804.57
642.301	43674.63
642.654	43650.45
643.007	43685.48
643.36	43486.84
643.713	43538.36
644.066	43594.4
644.419	43318.48
644.771	43044.59
645.124	42528.9
645.477	42590.59
645.83	42250.49
646.182	42016.82
646.535	41946.99
646.888	42050.26
647.24	41923.26
647.593	42315.34
647.945	42062.69
648.298	41867.44
648.65	41842.13
649.002	41622.25
649.355	41728.01
649.707	41669.71
650.059	41868.35
650.411	42335
650.763	42429.69
651.115	42723.92
651.467	42412.29
651.819	42502.91
652.171	42456.36
652.523	42472.63
652.875	42326.19
653.227	42127.78
653.578	42480.08
653.93	42298.85
654.282	42187.66
654.633	42106.76
654.985	42159.19
655.337	42347.21
655.688	42166.65
656.039	42241.22
656.391	41789.93
656.742	41940.21
657.094	41797.39
657.445	42059.98
657.796	42089.81
658.147	41959.87
658.498	41749.48
658.849	41982.02
659.2	41818.41
659.551	41806.2
659.902	41871.29
660.253	41711.97
660.604	41763.27
660.955	41644.85
661.306	41853.43
661.656	41615.7
662.007	41677.17
662.358	41519.66
662.708	41607.79
663.059	41613.67
663.409	41338.19
663.76	41525.31
664.11	41580.67
664.461	41511.97
664.811	41551.75
665.161	41544.29
665.511	41454.57
665.862	41388.81
666.212	41559.88
666.562	41611.18
666.912	41508.36
667.262	41528.47
667.612	41411.64
667.962	41424.07
668.312	41340.68
668.662	41634
669.011	41428.36
669.361	41499.54
669.711	41308.36
670.06	41208.03
670.41	41054.81
670.76	41127.12
671.109	41213.45
671.459	41164.19
671.808	41115.6
672.157	41200.8
672.507	40957.64
672.856	40950.86
673.205	41015.72
673.554	41083.74
673.904	40879.9
674.253	41081.93
674.602	40883.52
674.951	40430.19
675.3	40206.02
675.649	40696.85
675.998	40714.03
676.346	40814.59
676.695	40780.92
677.044	40550.42
677.393	40735.27
677.741	40882.16
678.09	40734.59
678.438	40509.97
678.787	40605.78
679.135	40479.23
679.484	40388.16
679.832	40645.1
680.181	40284.44
680.529	40295.96
680.877	40206.92
681.225	40178.68
681.573	40384.77
681.922	40078.56
682.27	40018.68
682.618	40029.98
682.966	39993.82
683.314	39956.76
683.661	39813.04
684.009	39650.1
684.357	39474.96
684.705	39494.4
685.053	39672.7
685.4	39752.92
685.748	39462.08
686.095	39397.9
686.443	39194.97
686.79	39031.13
687.138	39091.92
687.485	39121.08
687.832	39006.28
688.18	39126.95
688.527	39109.1
688.874	38911.36
689.221	38708.66
689.568	38466.63
689.915	38382.11
690.262	38628.89
690.609	38468.66
690.956	38387.54
691.303	38227.99
691.65	38208.33
691.997	38081.56
692.344	38051.27
692.69	37973.99
693.037	38022.8
693.383	37719.3
693.73	37875.46
694.077	37594.11
694.423	37538.52
694.769	37555.47
695.116	37381.23
695.462	37385.08
695.808	37240.22
696.155	37244.29
696.501	36781.7
696.847	36857.41
697.193	36608.37
697.539	36786.22
697.885	36612.44
698.231	36500.35
698.577	36533.57
698.923	36401.15
699.269	36161.61
699.614	35871.44
699.96	35952.35
700.306	35973.36
700.651	35938.79
700.997	35817.43
701.342	35768.85
701.688	35610.43
702.033	35494.5
702.379	35320.05
702.724	35309.65
703.069	35461.74
703.415	35124.12
703.76	34974.74
704.105	34916.89
704.45	34766.84
704.795	34691.81
705.14	34480.29
705.485	34557.13
705.83	34416.57
706.175	34535.89
706.52	34475.55
706.865	34228.32
707.209	34183.35
707.554	34126.4
707.899	34263.12
708.243	34013.87
708.588	33965.28
708.932	33739.3
709.277	33823.81
709.621	33813.87
709.966	33451.17
710.31	33595.12
710.654	33294.11
710.998	33487.1
711.342	33489.59
711.687	33149.48
712.031	33101.57
712.375	33103.61
712.719	33157.84
713.063	33071.07
713.407	33106.32
713.75	32859.09
714.094	32803.73
714.438	32733.22
714.782	32791.3
715.125	32741.36
715.469	32731.64
715.812	32502.94
716.156	32387.02
716.499	32415.72
716.843	32326.9
717.186	32018.89
717.53	32269.05
717.873	32366
718.216	32227.25
718.559	32039
718.902	31923.3
719.246	31905.45
719.589	31803.75
719.932	31687.6
720.275	31804.88
720.617	31553.14
720.96	31645.11
721.303	31665.45
721.646	31613.25
721.989	31339.81
722.331	31477.89
722.674	31331.45
723.016	31385.46
723.359	31335.97
723.701	31238.35
724.044	30917.45
724.386	30956.09
724.729	31201.06
725.071	31017.11
725.413	30866.6
725.755	30783.22
726.097	30767.85
726.439	30673.61
726.782	30744.35
727.124	30779.83
727.465	30554.3
727.807	30567.85
728.149	30510.91
728.491	30459.16
728.833	30521.75
729.175	30343
729.516	30333.28
729.858	30153.63
730.199	30092.84
730.541	30136
730.882	30184.81
731.224	30360.63
731.565	30063.01
731.906	30191.82
732.248	30009.23
732.589	29907.08
732.93	29872.05
733.271	29868.66
733.612	29800.42
733.953	29796.58
734.294	29625.73
734.635	29553.19
734.976	29806.52
735.317	29405.4
735.658	29486.53
735.999	29611.04
736.339	29397.94
736.68	29470.93
737.021	29331.28
737.361	29171.73
737.702	29376.47
738.042	29234.1
738.383	29149.81
738.723	29141
739.063	29105.75
739.404	29261.67
739.744	29028.46
740.084	29030.95
740.424	29094.9
740.764	29005.64
741.104	29085.18
741.444	28762.93
741.784	28674.57
742.124	28782.36
742.464	28533.78
742.804	28580.56
743.143	28588.7
743.483	28685.42
743.823	28467.12
744.162	28390.28
744.502	28423.96
744.841	28347.8
745.181	28325.43
745.52	28178.99
745.86	28249.27
746.199	28122.95
746.538	28089.5
746.877	28132.66
747.216	28061.93
747.556	27970.86
747.895	28018.99
748.234	27901.71
748.573	27832.79
748.911	27842.05
749.25	27801.37
749.589	27609.97
749.928	27661.94
750.267	27793.92
750.605	27600.25
750.944	27532.91
751.283	27422.85
751.621	27478.9
751.96	27259.01
752.298	27275.06
752.636	27345.34
752.975	27122.3
753.313	26894.05
753.651	27121.84
753.989	26987.61
754.327	26919.81
754.666	26797.33
755.004	26841.85
755.342	26830.1
755.679	26780.38
756.017	26601.41
756.355	26609.54
756.693	26553.27
757.031	26494.06
757.368	26313.5
757.706	26374.97
758.044	26246.61
758.381	26386.27
758.719	26296.55
759.056	26224.92
759.394	26138.82
759.731	25995.55
760.068	25937.02
760.405	25791.48
760.743	25694.99
761.08	25675.78
761.417	25580.19
761.754	25579.74
762.091	25574.77
762.428	25490.93
762.765	25297.48
763.102	25220.2
763.438	25242.12
763.775	24931.17
764.112	25041.67
764.449	24991.96
764.785	24822.69
765.122	24525.08
765.458	24568.01
765.795	24559.65
766.131	24566.2
766.467	24370.73
766.804	24314.46
767.14	24180.45
767.476	24184.97
767.812	24135.03
768.148	24166.89
768.485	24084.64
768.821	23794.7
769.157	23676.96
769.492	23716.06
769.828	23691.2
770.164	23576.85
770.5	23506.8
770.836	23497.31
771.171	23194.04
771.507	23290.98
771.842	23060.71
772.178	23063.64
772.513	23037.43
772.849	22942.52
773.184	22882.41
773.519	22731
773.855	22689.64
774.19	22667.05
774.525	22504.34
774.86	22472.93
775.195	22321.97
775.53	22340.05
775.865	22144.8
776.2	22058.93
776.535	22030.45
776.87	21958.36
777.205	21881.76
777.539	21776.22
777.874	21888.08
778.209	21564.02
778.543	21552.27
778.878	21460.75
779.212	21559.05
779.547	21283.58
779.881	21339.85
780.215	21221.66
780.55	21232.73
780.884	21077.71
781.218	20974.89
781.552	20937.37
781.886	20829.35
782.22	20690.15
782.554	20679.3
782.888	20508.01
783.222	20424.17
783.556	20487.89
783.889	20328.8
784.223	20214.68
784.557	20189.14
784.89	20152.31
785.224	20036.15
785.557	19998.41
785.891	19842.26
786.224	19842.71
786.558	19867.34
786.891	19686.78
787.224	19540.35
787.557	19398.88
787.891	19498.77
788.224	19449.28
788.557	19461.03
788.89	19386.68
789.223	19258.77
789.556	19223.75
789.888	19141.94
790.221	19073.24
790.554	18894.04
790.887	18956.86
791.219	18902.62
791.552	18738.11
791.884	18600.49
792.217	18657.21
792.549	18529.07
792.882	18454.95
793.214	18309.87
793.546	18422.86
793.879	18287.27
794.211	18080.27
794.543	18128.63
794.875	18116.2
795.207	18171.57
795.539	18117.11
795.871	18017.22
796.203	17896.78
796.535	17697.68
796.867	17711.02
797.198	17660.62
797.53	17588.76
797.862	17604.13
798.193	17503.34
798.525	17417.47
798.856	17509.89
799.188	17265.15
799.519	17213.4
799.85	17116.46
800.182	17220.63
800.513	17181.09
800.844	16923.24
801.175	17082.79
801.506	17046.18
801.837	17007.76
802.168	17045.05
802.499	16804.37
802.83	16730.48
803.161	16778.61
803.491	16701.78
803.822	16679.18
804.153	16586.3
804.483	16488.68
804.814	16385.85
805.145	16484.61
805.475	16466.3
805.805	16261.11
806.136	16406.42
806.466	16334.33
806.796	16310.6
807.126	16182.24
807.457	16103.15
807.787	16072.42
808.117	15998.29
808.447	15917.17
808.777	15913.78
809.107	15736.38
809.436	15785.87
809.766	15773.89
810.096	15722.6
810.426	15699.09
810.755	15638.3
811.085	15720.34
811.414	15576.16
811.744	15436.05
812.073	15324.19
812.403	15397.86
812.732	15377.29
813.061	15331.87
813.39	15161.03
813.719	15220.69
814.049	15277.41
814.378	15127.13
814.707	15170.75
815.036	15155.15
815.365	15054.36
815.693	14995.83
816.022	14939.56
816.351	14842.62
816.68	14734.6
817.008	14913.58
817.337	14745.45
817.665	14722.17
817.994	14712.23
818.322	14715.39
818.651	14629.97
818.979	14563.76
819.307	14682.62
819.636	14640.59
819.964	14385.91
820.292	14435.62
820.62	14447.37
820.948	14410.54
821.276	14591.78
821.604	14469.07
821.932	14499.58
822.259	14446.24
822.587	14380.94
822.915	14354.72
823.243	14524.66
823.57	14405.12
823.898	14393.59
824.225	14251.9
824.553	14347.49
824.88	14293.93
825.207	14425.91
825.535	14312.91
825.862	14319.92
826.189	14319.24
826.516	14393.36
826.843	14379.35
827.17	14435.4
827.497	14427.26
827.824	14388.84
828.151	14376.64
828.478	14289.86
828.805	14438.79
829.131	14290.09
829.458	14332.12
829.785	14201.96
830.111	14251
830.438	14296.64
830.764	14351.33
831.09	14264.33
831.417	14127.61
831.743	14252.35
832.069	14203.99
832.395	14084.9
832.722	14189.08
833.048	14070.21
833.374	14152.24
833.7	14200.15
834.026	14226.59
834.351	14223.65
834.677	14110.66
835.003	14194.27
835.329	14214.61
835.654	14088.51
835.98	14042.64
836.306	13989.31
836.631	13939.14
836.956	14067.72
837.282	14033.6
837.607	13999.25
837.932	13920.16
838.258	13934.62
838.583	13875.19
838.908	13769.43
839.233	13835.64
839.558	13781.86
839.883	13735.53
840.208	13659.15
840.533	13740.5
840.858	13751.57
841.182	13782.99
841.507	13731.91
841.832	13662.31
842.156	13667.96
842.481	13585.48
842.805	13565.59
843.13	13481.75
843.454	13420.73
843.778	13432.94
844.103	13407.63
844.427	13345.03
844.751	13412.83
845.075	13388.19
845.399	13278.14
845.723	13209.21
846.047	13252.15
846.371	13157.92
846.695	13026.62
847.019	12972.61
847.343	12972.84
847.666	12880.18
847.99	12854.42
848.313	12745.27
848.637	12725.84
848.96	12720.19
849.284	12601.32
849.607	12535.56
849.931	12507.09
850.254	12453.3
850.577	12391.61
850.9	12364.94
851.223	12348.9
851.546	12219.41
851.869	12202.69
852.192	12324.04
852.515	12243.14
852.838	12125.85
853.161	12075.46
853.483	12070.04
853.806	11899.64
854.129	11948.23
854.451	11889.02
854.774	11849.48
855.096	11859.19
855.419	11863.26
855.741	11766.99
856.063	11738.29
856.385	11663.04
856.708	11605.87
857.03	11578.07
857.352	11589.82
857.674	11545.53
857.996	11437.51
858.318	11419.66
858.64	11410.17
858.961	11341.02
859.283	11278.19
859.605	11292.43
859.926	11205.88
860.248	11279.1
860.57	11158.87
860.891	11224.18
861.212	11120.23
861.534	11105.32
861.855	11043.62
862.176	11133.56
862.498	11200.45
862.819	11130.17
863.14	11041.59
863.461	11029.16
863.782	10980.57
864.103	11007.69
864.424	10876.85
864.745	10958.88
865.065	10936.96
865.386	10864.42
865.707	10881.14
866.027	10859.45
866.348	10896.28
866.668	10881.14
866.989	10784.65
867.309	10768.38
867.63	10770.41
867.95	10718.43
868.27	10720.69
868.59	10702.16
868.91	10692.22
869.23	10705.33
869.55	10507.36
869.87	10662.39
870.19	10598.21
870.51	10563.63
870.83	10597.53
871.15	10463.75
871.469	10514.82
871.789	10536.52
872.109	10448.16
872.428	10410.19
872.748	10489.96
873.067	10410.64
873.386	10446.35
873.706	10425.79
874.025	10336.97
874.344	10366.58
874.663	10348.05
874.982	10338.33
875.301	10289.07
875.62	10254.04
875.939	10183.08
876.258	10209.75
876.577	10250.87
876.896	10170.88
877.214	10148.28
877.533	10177.88
877.852	10132.23
878.17	10145.79
878.489	10146.47
878.807	10150.54
879.125	10039.58
879.444	10041.39
879.762	10055.63
880.08	10096.3
880.398	10026.7
880.716	10000.49
881.034	10018.11
881.352	10043.65
881.67	9943.99
881.988	9981.5
882.306	9898.12
882.624	9915.06
882.941	9853.37
883.259	9788.29
883.577	9805.69
883.894	9816.08
884.212	9734.73
884.529	9764.33
884.846	9744
885.164	9730.44
885.481	9660.38
885.798	9689.76
886.115	9604.56
886.432	9609.76
886.75	9522.31
887.067	9634.62
887.383	9498.58
887.7	9572.93
888.017	9483.89
888.334	9581.29
888.651	9508.75
888.967	9410.22
889.284	9369.54
889.6	9318.47
889.917	9245.48
890.233	9276.89
890.55	9259.71
890.866	9209.77
891.182	9246.83
891.498	9180.39
891.815	9204.35
892.131	9081.41
892.447	9059.49
892.763	9037.8
893.079	9078.25
893.395	9086.16
893.71	9040.74
894.026	9007.29
894.342	9005.71
894.657	8874.64
894.973	8872.15
895.289	8903.57
895.604	8904.92
895.92	8782.44
896.235	8820.63
896.55	8713.74
896.865	8690.01
897.181	8709.67
897.496	8780.63
897.811	8719.16
898.126	8619.96
898.441	8596
898.756	8569.56
899.071	8503.12
899.386	8546.29
899.7	8403.01
900.015	8461.09
900.33	8385.16
900.644	8407.53
900.959	8399.17
901.273	8388.32
901.588	8298.61
901.902	8239.18
902.216	8229.68
902.531	8231.49
902.845	8135.45
903.159	8091.16
903.473	8051.16
903.787	8033.76
904.101	7996.24
904.415	8007.32
904.729	7989.01
905.042	7954.21
905.356	7970.93
905.67	7965.28
905.984	7942.01
906.297	7836.47
906.611	7792.41
906.924	7784.95
907.237	7785.63
907.551	7761.9
907.864	7703.14
908.177	7762.8
908.491	7598.29
908.804	7631.28
909.117	7577.05
909.43	7521.23
909.743	7471.06
910.056	7441.23
910.368	7425.19
910.681	7426.54
910.994	7378.63
911.307	7351.06
911.619	7229.49
911.932	7326.21
912.244	7248.69
912.557	7267.68
912.869	7159.43
913.181	7166.89
913.494	7161.92
913.806	7125.31
914.118	7025.42
914.43	7028.13
914.742	7014.8
915.054	6993.33
915.366	7041.92
915.678	6914.01
915.99	6942.49
916.302	6917.85
916.613	6889.38
916.925	6846.9
917.236	6811.19
917.548	6774.13
917.859	6798.54
918.171	6733.23
918.482	6667.24
918.794	6650.07
919.105	6653.91
919.416	6567.13
919.727	6555.6
920.038	6537.98
920.349	6479.67
920.66	6499.33
920.971	6437.64
921.282	6440.81
921.593	6369.62
921.903	6340.02
922.214	6362.39
922.525	6341.82
922.835	6269.28
923.146	6271.09
923.456	6215.05
923.767	6229.51
924.077	6199.46
924.387	6162.85
924.697	6151.1
925.008	6130.98
925.318	6103.41
925.628	6080.36
925.938	5952.46
926.248	6004.43
926.558	5965.79
926.867	5969.18
927.177	5916.3
927.487	5876.53
927.796	5858.67
928.106	5808.51
928.416	5849.63
928.725	5791.33
929.034	5751.33
929.344	5773.03
929.653	5726.47
929.962	5682.86
930.271	5645.57
930.581	5656.65
930.89	5654.61
931.199	5599.47
931.508	5597.21
931.817	5606.7
932.125	5516.76
932.434	5547.5
932.743	5507.5
933.051	5474.05
933.36	5427.27
933.669	5441.51
933.977	5399.93
934.286	5331.46
934.594	5345.92
934.902	5366.71
935.21	5312.93
935.519	5322.64
935.827	5283.1
936.135	5217.56
936.443	5189.99
936.751	5174.17
937.059	5142.76
937.367	5105.47
937.674	5165.58
937.982	5127.85
938.29	5072.03
938.597	5062.31
938.905	5051.01
939.213	5039.71
939.52	5013.72
939.827	5014.18
940.135	4961.52
940.442	4915.42
940.749	4893.73
941.056	4901.41
941.363	4888.53
941.67	4875.87
941.977	4822.32
942.284	4766.05
942.591	4813.73
942.898	4763.56
943.205	4771.02
943.511	4763.11
943.818	4716.33
944.125	4654.64
944.431	4705.71
944.738	4596.79
945.044	4681.3
945.35	4565.37
945.657	4584.58
945.963	4573.96
946.269	4552.27
946.575	4515.21
946.881	4538.03
947.187	4499.84
947.493	4447.41
947.799	4453.51
948.105	4426.62
948.41	4394.98
948.716	4371.71
949.022	4317.47
949.327	4339.84
949.633	4318.83
949.938	4334.19
950.244	4342.33
950.549	4277.47
950.854	4275.66
951.16	4267.3
951.465	4238.15
951.77	4243.8
952.075	4233.63
952.38	4221.65
952.685	4193.86
952.99	4126.74
953.294	4133.3
953.599	4073.64
953.904	4054.43
954.209	4050.81
954.513	4065.73
954.818	4013.75
955.122	4016.46
955.426	3981.66
955.731	3973.75
956.035	3953.19
956.339	3965.84
956.643	3895.34
956.948	3903.7
957.252	3875.22
957.556	3853.53
957.86	3824.83
958.163	3858.73
958.467	3844.49
958.771	3797.94
959.075	3810.59
959.378	3769.91
959.682	3811.95
959.985	3694.89
960.289	3748.45
960.592	3737.15
960.896	3698.5
961.199	3667.77
961.502	3669.35
961.805	3613.76
962.108	3616.92
962.411	3618.05
962.714	3569.47
963.017	3588.9
963.32	3580.54
963.623	3552.97
963.926	3587.32
964.228	3513.2
964.531	3524.05
964.833	3485.63
965.136	3510.26
965.438	3480.66
965.741	3486.53
966.043	3463.26
966.345	3384.16
966.648	3406.76
966.95	3392.07
967.252	3352.3
967.554	3334.9
967.856	3340.1
968.158	3319.08
968.46	3295.35
968.761	3318.4
969.063	3268.23
969.365	3264.84
969.666	3268.01
969.968	3219.2
970.269	3245.63
970.571	3212.19
970.872	3183.04
971.174	3148.69
971.475	3159.54
971.776	3153.89
972.077	3127.9
972.378	3115.24
972.679	3134.23
972.98	3122.7
973.281	3081.57
973.582	3101.01
973.883	3098.75
974.183	3037.05
974.484	3001.8
974.785	3007.9
975.085	3016.04
975.386	3017.62
975.686	2950.5
975.986	2974.46
976.287	2937.39
976.587	2931.07
976.887	2952.76
977.187	2922.03
977.487	2885.64
977.787	2874.57
978.087	2872.76
978.387	2856.94
978.687	2838.19
978.987	2832.31
979.286	2808.58
979.586	2801.35
979.885	2792.77
980.185	2771.98
980.484	2745.54
980.784	2784.63
981.083	2746.67
981.382	2731.07
981.682	2748.47
981.981	2712.54
982.28	2730.62
982.579	2660.57
982.878	2706.89
983.177	2672.77
983.475	2689.49
983.774	2639.78
984.073	2638.19
984.372	2606.78
984.67	2628.02
984.969	2624.63
985.267	2618.31
985.566	2555.48
985.864	2599.55
986.162	2533.79
986.461	2530.63
986.759	2534.47
987.057	2523.85
987.355	2501.02
987.653	2501.93
987.951	2510.06
988.249	2478.42
988.547	2463.73
988.844	2450.85
989.142	2447.92
989.44	2397.3
989.737	2406.56
990.035	2416.5
990.332	2399.1
990.63	2378.77
990.927	2369.5
991.224	2401.14
991.521	2365.43
991.819	2348.03
992.116	2352.55
992.413	2324.53
992.71	2328.37
993.006	2303.06
993.303	2321.59
993.6	2285.89
993.897	2307.35
994.193	2243.85
994.49	2262.61
994.787	2237.07
995.083	2270.75
995.379	2216.28
995.676	2207.47
995.972	2181.48
996.268	2186.45
996.565	2164.53
996.861	2136.74
997.157	2155.04
997.453	2162.5
997.749	2125.66
998.044	2097.19
998.34	2102.61
998.636	2090.86
998.932	2095.38
999.227	2067.81
999.523	2068.26
999.818	2061.49
1000.114	2052.67
1000.409	2018.1
1000.704	2031.43
1001	1997.76
1001.295	2006.35
1001.59	1963.86
1001.885	1979.68
1002.18	1993.69
1002.475	1956.18
1002.77	1972.67
1003.065	1941.49
1003.359	1924.31
1003.654	1937.65
1003.949	1907.82
1004.243	1893.81
1004.538	1877.76
1004.832	1887.93
1005.127	1892.22
1005.421	1861.94
1005.715	1866.91
1006.009	1858.33
1006.304	1850.19
1006.598	1855.84
1006.892	1826.24
1007.186	1807.48
1007.48	1805.22
1007.773	1772.91
1008.067	1747.37
1008.361	1745.34
1008.655	1761.15
1008.948	1762.96
1009.242	1730.65
1009.535	1715.28
1009.829	1689.52
1010.122	1728.39
1010.415	1703.08
1010.708	1688.16
1011.001	1673.25
1011.295	1669.86
1011.588	1656.52
1011.881	1631.89
1012.173	1636.19
1012.466	1610.2
1012.759	1649.97
1013.052	1619.92
1013.344	1615.62
1013.637	1595.96
1013.93	1573.59
1014.222	1589.86
1014.514	1570.42
1014.807	1556.64
1015.099	1543.31
1015.391	1536.75
1015.683	1540.37
1015.976	1513.7
1016.268	1529.07
1016.56	1512.12
1016.851	1504.89
1017.143	1493.59
1017.435	1480.03
1017.727	1472.57
1018.018	1458.34
1018.31	1416.98
1018.602	1429.19
1018.893	1442.74
1019.185	1432.58
1019.476	1410.88
1019.767	1402.75
1020.058	1412.91
1020.35	1378.11
1020.641	1382.86
1020.932	1360.49
1021.223	1343.31
1021.514	1358.45
1021.804	1332.92
1022.095	1308.74
1022.386	1320.71
1022.677	1328.62
1022.967	1313.48
1023.258	1277.78
1023.548	1304.9
1023.839	1264.9
1024.129	1260.15
1024.419	1260.83
1024.709	1269.64
1025	1256.76
1025.29	1261.05
1025.58	1252.92
1025.87	1209.98
1026.16	1224.45
1026.449	1225.8
1026.739	1193.26
1027.029	1178.57
1027.319	1198.01
1027.608	1165.92
1027.898	1169.08
1028.187	1159.59
1028.477	1185.12
1028.766	1170.66
1029.055	1135.41
1029.344	1154.84
1029.634	1138.8
1029.923	1123.66
1030.212	1137.22
1030.501	1136.54
1030.79	1096.99
1031.078	1082.98
1031.367	1054.05
1031.656	1065.35
1031.945	1091.79
1032.233	1066.71
1032.522	1059.25
1032.81	1067.39
1033.099	1042.98
1033.387	1030.1
1033.675	1031
1033.963	1017.44
1034.251	1000.04
1034.54	999.14
1034.828	1027.39
1035.116	985.36
1035.403	980.38
1035.691	979.25
1035.979	971.34
1036.267	950.78
1036.554	970.67
1036.842	960.27
1037.129	949.42
1037.417	944
1037.704	944.23
1037.992	935.41
1038.279	948.75
1038.566	901.52
1038.853	901.52
1039.14	901.52
