Data from plate_porcelain_FLMS001491_051.txt Node
Date: Tue Feb 07 11:19:31 GMT 2017
User: dcchb
Spectrometer: FLMS00149
Trigger mode: 0
Integration Time (sec): 2.000000E-2
Scans to average: 10
Electric dark correction enabled: true
Nonlinearity correction enabled: false
Boxcar width: 0
XAxis mode: Wavelengths
Number of Pixels in Spectrum: 2048
>>>>>Begin Spectral Data<<<<<
341.393	-33.46
341.776	-33.46
342.16	-33.46
342.543	-33.01
342.927	-70.75
343.31	-82.72
343.693	-74.36
344.077	-41.59
344.46	-78.2
344.843	-73.01
345.226	-40.69
345.61	-20.8
345.993	-14.25
346.376	-1.6
346.759	15.35
347.142	37.05
347.525	27.56
347.908	61.91
348.291	93.99
348.674	98.97
349.057	92.41
349.44	113.88
349.823	136.48
350.206	152.3
350.588	227.32
350.971	246.99
351.354	258.06
351.737	273.43
352.119	290.15
352.502	308.23
352.884	317.04
353.267	306.64
353.65	321.11
354.032	338.73
354.414	342.8
354.797	361.56
355.179	377.15
355.562	364.27
355.944	365.17
356.326	377.6
356.709	369.47
357.091	386.19
357.473	396.81
357.855	361.33
358.238	406.98
358.62	387.32
359.002	395.68
359.384	408.56
359.766	373.08
360.148	388
360.53	378.28
360.912	390.71
361.294	403.59
361.676	407.66
362.057	383.25
362.439	376.7
362.821	387.09
363.203	395
363.584	391.61
363.966	387.32
364.348	382.12
364.729	411.05
365.111	402.24
365.493	384.61
365.874	385.96
366.256	364.5
366.637	392.97
367.019	394.33
367.4	391.61
367.781	404.04
368.163	398.62
368.544	421.44
368.925	378.51
369.306	407.43
369.688	380.99
370.069	383.03
370.45	411.73
370.831	375.57
371.212	420.31
371.593	416.02
371.974	405.62
372.355	406.75
372.736	423.48
373.117	415.57
373.498	411.5
373.879	425.29
374.26	422.12
374.641	421.22
375.021	420.77
375.402	425.74
375.783	424.16
376.163	459.18
376.544	465.51
376.925	468.45
377.305	457.83
377.686	476.81
378.066	478.62
378.447	450.82
378.827	474.55
379.208	483.36
379.588	479.97
379.968	482.23
380.349	482.69
380.729	471.61
381.109	494.89
381.489	510.93
381.87	505.74
382.25	499.18
382.63	507.54
383.01	525.17
383.39	549.8
383.77	543.47
384.15	541.44
384.53	517.26
384.91	531.72
385.29	573.3
385.67	552.51
386.049	576.47
386.429	556.81
386.809	583.02
387.189	565.62
387.568	571.72
387.948	575.79
388.328	590.93
388.707	579.41
389.087	599.74
389.466	621.66
389.846	618.27
390.225	615.56
390.605	637.26
390.984	630.93
391.363	655.11
391.743	679.52
392.122	674.77
392.501	659.18
392.881	686.75
393.26	703.47
393.639	693.3
394.018	715.22
394.397	707.09
394.776	754.32
395.155	722.68
395.534	740.98
395.913	727.88
396.292	752.28
396.671	757.71
397.05	777.59
397.429	786.18
397.808	751.83
398.186	787.99
398.565	784.37
398.944	801.77
399.323	820.98
399.701	827.99
400.08	770.59
400.458	838.61
400.837	860.3
401.215	851.71
401.594	882.67
401.972	882.22
402.351	884.26
402.729	893.3
403.107	904.14
403.486	901.21
403.864	944.82
404.242	905.72
404.62	931.94
404.999	991.82
405.377	992.28
405.755	952.5
406.133	1006.29
406.511	992.73
406.889	1002.67
407.267	1030.47
407.645	1062.78
408.023	1054.87
408.401	1068.21
408.779	1067.3
409.156	1110.01
409.534	1093.29
409.912	1136.23
410.29	1146.62
410.667	1192.95
411.045	1190.01
411.422	1227.98
411.8	1222.1
412.178	1222.33
412.555	1245.6
412.933	1283.79
413.31	1280.63
413.687	1298.03
414.065	1282.21
414.442	1288.31
414.819	1347.07
415.197	1366.5
415.574	1350.46
415.951	1395.43
416.328	1410.57
416.705	1406.05
417.082	1424.81
417.46	1462.32
417.837	1463.9
418.214	1467.52
418.591	1508.42
418.967	1485.6
419.344	1513.39
419.721	1524.24
420.098	1550.23
420.475	1575.09
420.852	1586.16
421.228	1613.05
421.605	1632.71
421.982	1663.9
422.358	1638.81
422.735	1667.06
423.111	1686.27
423.488	1726.95
423.864	1743.67
424.241	1771.01
424.617	1787.51
424.994	1807.17
425.37	1797.23
425.746	1808.75
426.123	1868.19
426.499	1854.4
426.875	1898.47
427.251	1924.23
427.627	1971.46
428.003	1968.07
428.379	2005.58
428.756	2013.94
429.132	2075.19
429.507	2107.28
429.883	2107.05
430.259	2152.92
430.635	2183.66
431.011	2211.23
431.387	2232.7
431.763	2287.16
432.138	2286.48
432.514	2325.35
432.89	2365.8
433.265	2407.61
433.641	2419.13
434.016	2456.64
434.392	2490.99
434.767	2545.91
435.143	2554.04
435.518	2582.29
435.894	2598.11
436.269	2665.45
436.644	2707.03
437.02	2720.14
437.395	2741.83
437.77	2792.45
438.145	2798.78
438.52	2832.68
438.895	2876.97
439.271	2903.86
439.646	2947.25
440.021	2994.94
440.395	3017.76
440.77	2958.78
441.145	3033.35
441.52	3079.45
441.895	3033.58
442.27	3129.17
442.645	3084.2
443.019	3151.54
443.394	3151.99
443.769	3216.85
444.143	3192.22
444.518	3269.05
444.892	3262.05
445.267	3287.36
445.641	3311.76
446.016	3378.2
446.39	3366.45
446.764	3395.38
447.139	3380.46
447.513	3461.14
447.887	3468.37
448.262	3501.14
448.636	3513.79
449.01	3599.89
449.384	3605.99
449.758	3630.17
450.132	3631.08
450.506	3685.09
450.88	3668.14
451.254	3751.53
451.628	3787.91
452.002	3835.82
452.376	3834.24
452.75	3905.19
453.123	3905.65
453.497	3994.91
453.871	4041.46
454.244	4095.02
454.618	4195.36
454.992	4227.45
455.365	4265.86
455.739	4355.13
456.112	4374.11
456.486	4391.06
456.859	4449.13
457.232	4532.97
457.606	4509.47
457.979	4631.28
458.352	4678.96
458.725	4774.32
459.099	4822.68
459.472	4925.96
459.845	4992.4
460.218	4967.31
460.591	5040.53
460.964	5111.72
461.337	5211.6
461.71	5268.55
462.083	5421.31
462.456	5417.02
462.829	5401.43
463.201	5502.21
463.574	5521.87
463.947	5673.51
464.32	5784.69
464.692	5805.71
465.065	5817.01
465.438	5918.93
465.81	6001.41
466.183	6057
466.555	6226.49
466.928	6275.75
467.3	6295.87
467.672	6345.58
468.045	6598.23
468.417	6539.7
468.789	6632.58
469.161	6751.67
469.534	6765.01
469.906	6976.07
470.278	7009.75
470.65	7153.24
471.022	7267.37
471.394	7414.71
471.766	7447.7
472.138	7591.42
472.51	7695.83
472.882	7858.54
473.253	7985.31
473.625	8066.44
473.997	8202.03
474.369	8292.88
474.74	8423.72
475.112	8535.13
475.484	8651.06
475.855	8830.49
476.227	8932.18
476.598	9126.07
476.97	9199.52
477.341	9443.81
477.713	9578.94
478.084	9688.54
478.455	10018.03
478.827	10065.03
479.198	10350.45
479.569	10373.27
479.94	10683.09
480.311	10784.11
480.682	10971.22
481.053	11259.12
481.424	11408.95
481.795	11503.19
482.166	11792.9
482.537	11934.14
482.908	12158.31
483.279	12319.44
483.65	12517.62
484.021	12803.04
484.391	12874.68
484.762	13137.04
485.133	13185.18
485.503	13362.12
485.874	13753.97
486.244	13713.75
486.615	14052.5
486.985	14245.04
487.356	14544.24
487.726	14701.75
488.097	14910.78
488.467	14955.98
488.837	15311.45
489.207	15393.93
489.578	15746.01
489.948	15914.37
490.318	16167.47
490.688	16181.48
491.058	16421.7
491.428	16707.12
491.798	16872.08
492.168	17261
492.538	17292.19
492.908	17452.18
493.278	17712.51
493.648	17803.36
494.017	18075.67
494.387	18259.84
494.757	18385.94
495.126	18602.89
495.496	18646.28
495.866	18730.34
496.235	19040.16
496.605	19324.9
496.974	19379.14
497.344	19520.15
497.713	19658
498.082	19772.8
498.452	20004.88
498.821	20173.47
499.19	20123.3
499.559	20390.64
499.928	20497.75
500.298	20712.44
500.667	20909.72
501.036	20963.5
501.405	21149.03
501.774	21206.89
502.143	21448.91
502.512	21539.98
502.88	21736.14
503.249	21790.15
503.618	22003.25
503.987	22026.3
504.356	22306.29
504.724	22455.44
505.093	22522.78
505.462	22648.66
505.83	22886.39
506.199	23016.1
506.567	23371.57
506.936	23251.8
507.304	23711
507.672	23685.24
508.041	23784.22
508.409	24016.53
508.777	24199.12
509.145	24374.49
509.514	24390.53
509.882	24701.26
510.25	24815.38
510.618	24908.94
510.986	25004.3
511.354	25322.03
511.722	25502.37
512.09	25786.2
512.458	25747.78
512.826	26187.32
513.193	26215.79
513.561	26381.21
513.929	26611.72
514.297	26929
514.664	26992.27
515.032	27060.52
515.4	27469.09
515.767	27561.07
516.135	27663.67
516.502	27528.98
516.869	28153.14
517.237	28200.6
517.604	28149.3
517.972	28612.34
518.339	28874.71
518.706	28881.26
519.073	29082.16
519.44	29277.18
519.808	29586.78
520.175	29665.42
520.542	29901.35
520.909	30158.74
521.276	30258.63
521.643	30749.46
522.009	30961.21
522.376	31038.49
522.743	31247.3
523.11	31613.84
523.477	31944.23
523.843	31970.22
524.21	32466.02
524.577	32564.1
524.943	32634.38
525.31	32962.96
525.676	33290.86
526.043	33431.2
526.409	33693.11
526.776	34028.47
527.142	34163.16
527.508	34322.25
527.874	34706.64
528.241	34898.05
528.607	34975.11
528.973	35397.02
529.339	35391.15
529.705	35776.22
530.071	36046.95
530.437	36194.29
530.803	36536.88
531.169	36626.14
531.535	36586.82
531.901	36645.35
532.267	37051.22
532.632	37272.23
532.998	37338.67
533.364	37700.24
533.73	37818.43
534.095	38051.64
534.461	38218.19
534.826	38407.79
535.192	38716.26
535.557	38936.14
535.923	38798.06
536.288	39079.41
536.653	39154.66
537.019	39144.72
537.384	39356.01
537.749	39590.36
538.114	39666.97
538.479	39791.26
538.845	39932.27
539.21	40077.12
539.575	40322.09
539.94	40457.91
540.305	40581.07
540.67	40667.39
541.034	40780.16
541.399	41045.91
541.764	41053.82
542.129	41152.35
542.494	41382.63
542.858	41460.82
543.223	41503.08
543.587	41814.48
543.952	41955.04
544.316	41913.46
544.681	42035.04
545.045	42394.58
545.41	42478.64
545.774	42471.86
546.138	42643.84
546.503	42809.03
546.867	42856.26
547.231	43215.12
547.595	43261.67
547.959	43320.2
548.324	43401.56
548.688	43562
549.052	43772.17
549.416	43832.51
549.779	43994.08
550.143	44102.33
550.507	44403.11
550.871	44646.04
551.235	44554.07
551.599	44930.78
551.962	44965.58
552.326	45104.11
552.689	45169.19
553.053	45190.21
553.417	45441.5
553.78	45829.74
554.143	45644.89
554.507	45954.71
554.87	46086.46
555.234	46384.53
555.597	46212.56
555.96	46587.69
556.323	46670.85
556.686	46810.51
557.05	47051.18
557.413	47225.86
557.776	47269.93
558.139	47577.49
558.502	47634.44
558.865	47709.92
559.228	48049.8
559.59	48174.99
559.953	48173.41
560.316	48647.97
560.679	48536.56
561.041	48795.76
561.404	49032.82
561.767	49268.75
562.129	49258.13
562.492	49562.52
562.854	49610.66
563.217	49528.63
563.579	49790.77
563.941	50078.44
564.304	50177.2
564.666	50393.92
565.028	50517.08
565.39	50635.26
565.753	50870.06
566.115	50880
566.477	51054.24
566.839	51163.84
567.201	51322.7
567.563	51416.26
567.925	51576.48
568.287	51662.81
568.648	51720.89
569.01	51867.32
569.372	52110.71
569.734	52094.66
570.095	52247.43
570.457	52396.57
570.819	52480.41
571.18	52519.73
571.542	52622.11
571.903	52732.84
572.265	52904.13
572.626	52863.68
572.987	52964.02
573.349	53119.04
573.71	53154.75
574.071	53277.46
574.432	53331.69
574.794	53592.48
575.155	53471.57
575.516	53453.27
575.877	53650.78
576.238	53861.17
576.599	53762.87
576.96	53897.33
577.32	53876.31
577.681	54055.29
578.042	54025.46
578.403	54142.29
578.763	54078.56
579.124	54219.13
579.485	54232.91
579.845	54305.45
580.206	54244.89
580.566	54303.64
580.927	54389.52
581.287	54382.28
581.648	54330.08
582.008	54548.61
582.368	54402.62
582.728	54490.3
583.089	54425.22
583.449	54469.29
583.809	54533.02
584.169	54641.49
584.529	54519.46
584.889	54736.63
585.249	54573.47
585.609	54511.32
585.969	54563.07
586.329	54607.36
586.688	54636.29
587.048	54688.27
587.408	54632.67
587.768	54626.57
588.127	54553.81
588.487	54561.72
588.846	54768.94
589.206	54565.1
589.565	54663.41
589.925	54734.14
590.284	54689.85
590.643	54704.08
591.003	54804.19
591.362	54864.98
591.721	54803.52
592.08	54794.93
592.44	54873.8
592.799	54882.16
593.158	54744.76
593.517	54835.38
593.876	54852.55
594.235	54794.25
594.593	54812.1
594.952	54850.3
595.311	54839.9
595.67	54788.6
596.029	55034.02
596.387	55063.17
596.746	55040.12
597.104	54989.95
597.463	55004.87
597.822	55139.1
598.18	54988.14
598.538	54999.44
598.897	55178.87
599.255	54923.74
599.613	55383.16
599.972	55080.12
600.33	55183.17
600.688	55110.63
601.046	55257.97
601.404	55372.77
601.762	55229.72
602.12	55385.2
602.478	55377.51
602.836	55451.41
603.194	55289.61
603.552	55260.23
603.91	55262.71
604.268	55421.13
604.625	55377.06
604.983	55513.1
605.341	55485.31
605.698	55559.88
606.056	55591.52
606.413	55472.65
606.771	55610.95
607.128	55664.06
607.485	55545.87
607.843	55655.47
608.2	55783.6
608.557	55813.43
608.914	55778.86
609.272	55835.81
609.629	55965.97
609.986	55921.23
610.343	55851.62
610.7	56033.31
611.057	56062.24
611.414	55982.69
611.771	56049.13
612.127	56102.69
612.484	56123.71
612.841	56148.34
613.198	56120.32
613.554	56145.85
613.911	56279.18
614.267	56226.98
614.624	56195.34
614.98	56350.14
615.337	56494.55
615.693	56370.03
616.05	56405.73
616.406	56428.56
616.762	56418.62
617.118	56372.29
617.475	56401.67
617.831	56450.7
618.187	56530.7
618.543	56536.58
618.899	56682.56
619.255	56650.02
619.611	56593.98
619.967	56640.76
620.323	56729.57
620.678	56629.01
621.034	56595.79
621.39	56567.76
621.746	56516.01
622.101	56839.85
622.457	56538.16
622.812	56645.05
623.168	56759.4
623.523	56771.83
623.879	56768.89
624.234	56646.86
624.589	56724.82
624.945	56718.72
625.3	56739.28
625.655	56706.52
626.01	56656.12
626.365	56834.65
626.72	56810.92
627.075	56730.92
627.43	56691.15
627.785	56549.46
628.14	56662.22
628.495	56708.1
628.85	56676.91
629.205	56439.41
629.559	56684.37
629.914	56516.69
630.269	56547.2
630.623	56525.51
630.978	56476.02
631.332	56515.79
631.687	56570.48
632.041	56496.81
632.396	56500.87
632.75	56358.05
633.104	56440.54
633.459	56285.51
633.813	56358.73
634.167	56307.88
634.521	56391.5
634.875	56323.02
635.229	56259.3
635.583	56107.89
635.937	56090.94
636.291	56148.57
636.645	56107.21
636.999	56019.53
637.352	56048.68
637.706	55857.5
638.06	56025.18
638.413	55937.5
638.767	55823.38
639.121	55852.98
639.474	55721.01
639.828	55646.66
640.181	55718.07
640.534	55829.7
640.888	55697.96
641.241	55541.12
641.594	55556.49
641.947	55652.31
642.301	55658.64
642.654	55568.02
643.007	55510.39
643.36	55563.72
643.713	55479.21
644.066	55577.96
644.419	55343.62
644.771	55246.22
645.124	54906.79
645.477	54907.92
645.83	54659.34
646.182	54514.94
646.535	54386.8
646.888	54479.23
647.24	54265.9
647.593	54524.88
647.945	54513.81
648.298	54236.3
648.65	54215.06
649.002	54108.85
649.355	54370.53
649.707	54215.28
650.059	54408.27
650.411	54621.83
650.763	54676.29
651.115	54889.62
651.467	54784.99
651.819	54796.29
652.171	54695.72
652.523	54663.86
652.875	54636.06
653.227	54469.74
653.578	54709.96
653.93	54554.71
654.282	54362.17
654.633	54377.77
654.985	54426.8
655.337	54455.05
655.688	54402.62
656.039	54561.26
656.391	54265.23
656.742	54345
657.094	54423.19
657.445	54404.43
657.796	54342.06
658.147	54277.2
658.498	54228.39
658.849	54323.3
659.2	54224.32
659.551	54240.82
659.902	54275.39
660.253	54235.62
660.604	54272.01
660.955	54166.92
661.306	54185
661.656	54161.05
662.007	54075.17
662.358	54008.74
662.708	54081.05
663.059	53966.02
663.409	53832.92
663.76	54004.44
664.11	53987.04
664.461	53965.12
664.811	53971
665.161	54063.42
665.511	53893.71
665.862	53994.27
666.212	54071.78
666.562	54011.22
666.912	53961.28
667.262	53911.79
667.612	53938.23
667.962	53870.43
668.312	53929.64
668.662	53999.24
669.011	53857.33
669.361	53826.37
669.711	53811.68
670.06	53852.36
670.41	53676.09
670.76	53688.52
671.109	53744.34
671.459	53755.41
671.808	53628.86
672.157	53688.07
672.507	53504.79
672.856	53585.7
673.205	53638.12
673.554	53695.3
673.904	53542.53
674.253	53673.83
674.602	53564.45
674.951	53173.95
675.3	53033.17
675.649	53523.32
675.998	53406.04
676.346	53413.95
676.695	53517
677.044	53266.83
677.393	53417.56
677.741	53490.78
678.09	53362.65
678.438	53311.13
678.787	53319.49
679.135	53367.62
679.484	53236.33
679.832	53256.44
680.181	53087.86
680.529	53155.65
680.877	52983.45
681.225	52951.81
681.573	53260.51
681.922	52929.44
682.27	52808.54
682.618	52839.27
682.966	52705.49
683.314	52761.31
683.661	52599.28
684.009	52630.01
684.357	52541.66
684.705	52498.27
685.053	52453.52
685.4	52416.91
685.748	52232.06
686.095	52197.03
686.443	52061.22
686.79	51993.87
687.138	52046.08
687.485	52076.36
687.832	51900.32
688.18	52084.04
688.527	51846.08
688.874	51855.57
689.221	51664.84
689.568	51562.47
689.915	51555.92
690.262	51460.55
690.609	51417.84
690.956	51238.86
691.303	51193.44
691.65	51000.9
691.997	51079.09
692.344	50894.92
692.69	50880
693.037	51005.88
693.383	50564.31
693.73	50751.65
694.077	50526.79
694.423	50401.15
694.769	50459.45
695.116	50366.12
695.462	50252.9
695.808	50073.92
696.155	50286.12
696.501	49845.68
696.847	49877.09
697.193	49727.04
697.539	49829.86
697.885	49632.35
698.231	49396.88
698.577	49477.1
698.923	49458.8
699.269	49197.34
699.614	48928.87
699.96	48944.69
700.306	49034.63
700.651	48762.77
700.997	48696.11
701.342	48513.29
701.688	48563.91
702.033	48301.77
702.379	48390.58
702.724	48236.01
703.069	48238.04
703.415	48004.37
703.76	47916.69
704.105	47898.61
704.45	47697.71
704.795	47427.21
705.14	47405.52
705.485	47343.37
705.83	47109.26
706.175	47378.63
706.52	47156.49
706.865	47007.56
707.209	47059.77
707.554	46769.83
707.899	47015.47
708.243	46786.55
708.588	46558.54
708.932	46318.77
709.277	46388.6
709.621	46402.38
709.966	46180.47
710.31	46256.4
710.654	45982.28
710.998	45977.08
711.342	45903.41
711.687	45738.22
712.031	45630.42
712.375	45611.22
712.719	45707.03
713.063	45398.79
713.407	45425.23
713.75	45398.57
714.094	45347.04
714.438	45170.1
714.782	45161.74
715.125	44916.32
715.469	44960.61
715.812	44736.89
716.156	44458.03
716.499	44589.1
716.843	44523.11
717.186	44401.53
717.53	44364.7
717.873	44528.53
718.216	44368.54
718.559	44300.52
718.902	44025.27
719.246	44359.27
719.589	44029.34
719.932	43734.88
720.275	43616.24
720.617	43649.91
720.96	43661.21
721.303	43682
721.646	43559.07
721.989	43240.88
722.331	43419.64
722.674	43326.08
723.016	43395.46
723.359	43236.59
723.701	43192.75
724.044	42982.13
724.386	42734.46
724.729	42986.2
725.071	42787.11
725.413	42757.51
725.755	42660.33
726.097	42502.15
726.439	42445.88
726.782	42448.59
727.124	42450.62
727.465	42196.84
727.807	42211.53
728.149	42101.03
728.491	42113.45
728.833	42169.72
729.175	41922.73
729.516	41849.96
729.858	41814.03
730.199	41845.21
730.541	41747.36
730.882	41616.29
731.224	41769.06
731.565	41427.6
731.906	41406.58
732.248	41402.97
732.589	41263.08
732.93	41251.1
733.271	41120.49
733.612	41218.34
733.953	41239.13
734.294	41021.28
734.635	40965.01
734.976	41115.51
735.317	40743.32
735.658	40736.99
735.999	40769.99
736.339	40659.26
736.68	40776.31
737.021	40637.79
737.361	40331.81
737.702	40659.26
738.042	40393.27
738.383	40421.97
738.723	40443.22
739.063	40196.9
739.404	40262.66
739.744	40016.79
740.084	39861.76
740.424	40086.39
740.764	39861.76
741.104	39997.8
741.444	39681.2
741.784	39820.86
742.124	39669.45
742.464	39604.82
742.804	39527.31
743.143	39411.83
743.483	39303.36
743.823	39271.95
744.162	39217.71
744.502	39204.38
744.841	39191.27
745.181	39230.82
745.52	38894.1
745.86	39060.2
746.199	38941.56
746.538	38939.53
746.877	39035.34
747.216	38855.46
747.556	38668.35
747.895	38551.51
748.234	38440.33
748.573	38377.06
748.911	38328.02
749.25	38433.33
749.589	38107.01
749.928	38204.41
750.267	38144.52
750.605	38076.05
750.944	37965.77
751.283	37771.42
751.621	38008.48
751.96	37593.35
752.298	37634.25
752.636	37573.91
752.975	37487.81
753.313	37388.61
753.651	37520.13
753.989	37235.17
754.327	37144.09
754.666	37124.43
755.004	37117.43
755.342	37194.49
755.679	37132.57
756.017	36794.95
756.355	36817.55
756.693	36689.64
757.031	36728.06
757.368	36359.71
757.706	36308.41
758.044	36226.83
758.381	36355.41
758.719	36101.18
759.056	36148.19
759.394	36033.16
759.731	35803.34
760.068	35788.88
760.405	35509.11
760.743	35494.65
761.08	35582.55
761.417	35336.68
761.754	35230.47
762.091	35194.09
762.428	35218.04
762.765	34921.55
763.102	34990.93
763.438	34737.6
763.775	34509.59
764.112	34556.14
764.449	34543.94
764.785	34343.26
765.122	34127.9
765.458	34017.85
765.795	34096.26
766.131	34075.93
766.467	33892.65
766.804	33619.67
767.14	33434.81
767.476	33511.2
767.812	33301.26
768.148	33236.85
768.485	32996.63
768.821	32869.18
769.157	32906.69
769.492	32729.52
769.828	32739.92
770.164	32460.15
770.5	32452.47
770.836	32385.35
771.171	32134.28
771.507	31978.13
771.842	31868.98
772.178	31825.36
772.513	31807.51
772.849	31779.72
773.184	31652.03
773.519	31607.52
773.855	31420.4
774.19	31252.5
774.525	31153.97
774.86	31176.34
775.195	30933.86
775.53	30975.67
775.865	30723.7
776.2	30536.81
776.535	30265.4
776.87	30393.54
777.205	30340.21
777.539	30239.42
777.874	30154.45
778.209	29889.82
778.543	29851.63
778.878	29809.82
779.212	29690.96
779.547	29460
779.881	29413
780.215	29210.97
780.55	29340.23
780.884	29105.21
781.218	29105.44
781.552	28925.1
781.886	28821.83
782.22	28706.35
782.554	28523.76
782.888	28363.08
783.222	28246.02
783.556	28207.61
783.889	28105.91
784.223	27970.78
784.557	27895.07
784.89	28012.36
785.224	27711.57
785.557	27573.95
785.891	27546.15
786.224	27434.29
786.558	27453.5
786.891	27087.18
787.224	27130.35
787.557	27021.42
787.891	26842.44
788.224	26938.26
788.557	26886.51
788.89	26633.41
789.223	26738.04
789.556	26482.68
789.888	26385.05
790.221	26284.72
790.554	26160.2
790.887	26210.37
791.219	25937.61
791.552	25868.01
791.884	25911.62
792.217	25746.88
792.549	25705.07
792.882	25462.82
793.214	25503.04
793.546	25433.44
793.879	25315.48
794.211	25118.42
794.543	25187.12
794.875	25040.01
795.207	24961.14
795.539	24920.69
795.871	24888.37
796.203	24661.94
796.535	24514.82
796.867	24598.21
797.198	24469.4
797.53	24352.11
797.862	24176.53
798.193	24184.66
798.525	24110.31
798.856	24275.05
799.188	23853.6
799.519	23821.96
799.85	23716.88
800.182	23776.31
800.513	23689.76
800.844	23559.37
801.175	23711.68
801.506	23547.16
801.837	23319.37
802.168	23381.07
802.499	23277.79
802.83	23129.32
803.161	23160.05
803.491	23077.12
803.822	23083.9
804.153	22932.94
804.483	22747.64
804.814	22580.86
805.145	22688.88
805.475	22725.04
805.805	22584.48
806.136	22649.11
806.466	22513.29
806.796	22480.98
807.126	22194.88
807.457	22199.85
807.787	22167.99
808.117	22046.41
808.447	22056.13
808.777	22060.87
809.107	21893.87
809.436	21840.32
809.766	21901.1
810.096	21889.58
810.426	21630.83
810.755	21667.89
811.085	21619.76
811.414	21550.61
811.744	21412.08
812.073	21375.47
812.403	21252.53
812.732	21270.16
813.061	21263.83
813.39	20992.2
813.719	21129.37
814.049	21120.56
814.378	21014.8
814.707	20940
815.036	20944.97
815.365	20811.19
815.693	20647.35
816.022	20688.03
816.351	20587.02
816.68	20511.08
817.008	20479.45
817.337	20414.36
817.665	20326.68
817.994	20364.42
818.322	20313.8
818.651	20227.7
818.979	20188.16
819.307	20243.07
819.636	20148.61
819.964	19993.81
820.292	20101.38
820.62	20087.82
820.948	19911.78
821.276	20081.49
821.604	19955.85
821.932	19990.65
822.259	19981.38
822.587	19885.56
822.915	19905.9
823.243	19866.13
823.57	19899.35
823.898	19961.95
824.225	19858.45
824.553	19840.14
824.88	19802.63
825.207	19893.25
825.535	19792.01
825.862	19881.27
826.189	19846.47
826.516	19922.63
826.843	19976.18
827.17	19948.61
827.497	19905.9
827.824	19955.17
828.151	19966.47
828.478	19768.73
828.805	19821.61
829.131	19780.71
829.458	19831.78
829.785	19642.86
830.111	19776.19
830.438	19893.02
830.764	19732.35
831.09	19799.92
831.417	19740.71
831.743	19780.48
832.069	19712.46
832.395	19700.03
832.722	19683.54
833.048	19599.7
833.374	19691.22
833.7	19530.55
834.026	19500.26
834.351	19646.7
834.677	19646.25
835.003	19525.8
835.329	19467.5
835.654	19365.8
835.98	19436.76
836.306	19419.81
836.631	19345.92
836.956	19401.51
837.282	19378.69
837.607	19283.09
837.932	19320.38
838.258	19371.23
838.583	19379.14
838.908	19128.97
839.233	19098.69
839.558	19033.38
839.883	19049.43
840.208	19047.62
840.533	18986.15
840.858	18974.85
841.182	18992.25
841.507	19039.94
841.832	18928.53
842.156	18832.03
842.481	18869.09
842.805	18738.02
843.13	18707.52
843.454	18630.46
843.778	18532.15
844.103	18597.69
844.427	18555.2
844.751	18528.54
845.075	18472.27
845.399	18411.25
845.723	18299.17
846.047	18352.95
846.371	18079.28
846.695	18104.59
847.019	17954.99
847.343	17942.34
847.666	17846.3
847.99	17696.02
848.313	17762.23
848.637	17616.92
848.96	17594.1
849.284	17578.73
849.607	17447.44
849.931	17405.18
850.254	17291.28
850.577	17059.65
850.9	17077.95
851.223	16990.5
851.546	16970.84
851.869	16828.24
852.192	16941.91
852.515	16799.09
852.838	16750.73
853.161	16778.98
853.483	16540.12
853.806	16515.26
854.129	16541.92
854.451	16430.06
854.774	16391.42
855.096	16424.19
855.419	16306.9
855.741	16207.92
856.063	16166.34
856.385	16145.32
856.708	16003.86
857.03	15960.92
857.352	15993.46
857.674	15840.25
857.996	15844.32
858.318	15782.62
858.64	15777.2
858.961	15719.8
859.283	15727.03
859.605	15549.63
859.926	15694.94
860.248	15600.48
860.57	15464.21
860.891	15530.2
861.212	15372.69
861.534	15346.02
861.855	15322.75
862.176	15316.65
862.498	15385.34
862.819	15348.96
863.14	15209.53
863.461	15216.31
863.782	15180.15
864.103	15182.41
864.424	15077.78
864.745	15187.16
865.065	15039.82
865.386	15037.78
865.707	15066.26
866.027	15052.25
866.348	15058.8
866.668	15004.79
866.989	14972.02
867.309	14803.89
867.63	14872.14
867.95	14842.53
868.27	14749.2
868.59	14840.27
868.91	14710.79
869.23	14688.64
869.55	14697.68
869.87	14739.26
870.19	14588.75
870.51	14679.6
870.83	14621.52
871.15	14472.6
871.469	14397.35
871.789	14468.31
872.109	14480.06
872.428	14439.38
872.748	14414.52
873.067	14327.29
873.386	14394.64
873.706	14392.15
874.025	14290.68
874.344	14228.54
874.663	14228.76
874.982	14221.98
875.301	14265.6
875.62	14200.74
875.939	14098.6
876.258	14128.2
876.577	14181.76
876.896	14111.48
877.214	14055.44
877.533	14046.85
877.852	13994.65
878.17	14097.02
878.489	14047.53
878.807	14013.4
879.125	13817.93
879.444	13928.43
879.762	13901.77
880.08	13866.51
880.398	13851.6
880.716	13892.95
881.034	13791.04
881.352	13793.52
881.67	13739.74
881.988	13788.32
882.306	13641.89
882.624	13667.65
882.941	13537.48
883.259	13530.25
883.577	13452.51
883.894	13466.3
884.212	13535.22
884.529	13406.19
884.846	13428.33
885.164	13387.43
885.481	13328
885.798	13243.48
886.115	13238.51
886.432	13209.13
886.75	13153.76
887.067	13196.48
887.383	13187.21
887.7	13195.12
888.017	13115.35
888.334	13064.95
888.651	13023.15
888.967	12934.56
889.284	12936.59
889.6	12871.51
889.917	12821.57
890.233	12906.54
890.55	12793.55
890.866	12814.56
891.182	12701.35
891.498	12681.23
891.815	12651.18
892.131	12543.16
892.447	12573.89
892.763	12497.96
893.079	12508.13
893.395	12425.2
893.71	12443.95
894.026	12417.06
894.342	12295.71
894.657	12258.65
894.973	12246.9
895.289	12248.25
895.604	12192.66
895.92	12049.61
896.235	11990.86
896.55	12070.63
896.865	12029.27
897.181	11961.25
897.496	11989.73
897.811	11907.02
898.126	11927.58
898.441	11847.36
898.756	11833.35
899.071	11707.02
899.386	11755.61
899.7	11607.14
900.015	11619.12
900.33	11528.04
900.644	11468.61
900.959	11513.36
901.273	11527.82
901.588	11355.39
901.902	11315.39
902.216	11291.67
902.531	11200.82
902.845	11220.03
903.159	11174.38
903.473	11132.57
903.787	11048.96
904.101	10959.25
904.415	11024.1
904.729	10954.27
905.042	10916.76
905.356	10924.22
905.67	10833.83
905.984	10844.22
906.297	10743.43
906.611	10684.45
906.924	10714.28
907.237	10628.41
907.551	10569.2
907.864	10549.09
908.177	10592.25
908.491	10464.34
908.804	10408.98
909.117	10373.95
909.43	10303.22
909.743	10231.81
910.056	10238.36
910.368	10181.19
910.681	10175.54
910.994	10155.88
911.307	10150
911.619	10002.89
911.932	10043.79
912.244	9982.32
912.557	9904.81
912.869	9907.97
913.181	9833.63
913.494	9872.27
913.806	9781.42
914.118	9703.23
914.43	9641.99
914.742	9715.44
915.054	9623.01
915.366	9567.42
915.678	9590.02
915.99	9511.83
916.302	9442.45
916.613	9369.01
916.925	9393.86
917.236	9340.08
917.548	9220.53
917.859	9267.99
918.171	9250.59
918.482	9188.22
918.794	9116.81
919.105	9103.25
919.416	9036.81
919.727	8951.61
920.038	9011.05
920.349	8903.03
920.66	8892.63
920.971	8918.17
921.282	8871.62
921.593	8754.78
921.903	8709.36
922.214	8625.07
922.525	8675.92
922.835	8602.02
923.146	8548.46
923.456	8591.17
923.767	8499.42
924.077	8504.17
924.387	8498.75
924.697	8358.18
925.008	8373.33
925.318	8329.26
925.628	8362.7
925.938	8265.76
926.248	8207
926.558	8124.52
926.867	8143.27
927.177	8155.03
927.487	8040.9
927.796	8065.76
928.106	8023.28
928.416	7935.82
928.725	7970.17
929.034	7921.59
929.344	7926.56
929.653	7898.99
929.962	7776.5
930.271	7756.17
930.581	7724.75
930.89	7677.75
931.199	7652.21
931.508	7636.4
931.817	7586.23
932.125	7590.97
932.434	7566.57
932.743	7468.04
933.051	7420.36
933.36	7460.81
933.669	7369.96
933.977	7393.46
934.286	7353.24
934.594	7292.9
934.902	7205.67
935.21	7183.53
935.519	7214.26
935.827	7150.31
936.135	7149.63
936.443	7078.67
936.751	7067.14
937.059	7050.42
937.367	7011.33
937.674	6985.56
937.982	6932.01
938.29	6900.6
938.597	6863.99
938.905	6896.53
939.213	6824.21
939.52	6814.27
939.827	6828.28
940.135	6798.68
940.442	6697.89
940.749	6718
941.056	6699.7
941.363	6639.36
941.67	6583.77
941.977	6558.01
942.284	6501.74
942.591	6553.49
942.898	6496.76
943.205	6497.22
943.511	6413.6
943.818	6334.73
944.125	6345.81
944.431	6345.13
944.738	6341.29
945.044	6305.58
945.35	6219.26
945.657	6203.66
945.963	6188.98
946.269	6176.32
946.575	6196.21
946.881	6143.55
947.187	6143.55
947.493	6040.28
947.799	6026.27
948.105	5972.26
948.41	5999.6
948.716	5914.86
949.022	5873.73
949.327	5911.47
949.633	5817.69
949.938	5835.99
950.244	5850.68
950.549	5807.74
950.854	5794.41
951.16	5748.99
951.465	5706.95
951.77	5660.63
952.075	5652.27
952.38	5612.49
952.685	5591.03
952.99	5568.43
953.294	5583.12
953.599	5514.87
953.904	5548.31
954.209	5449.11
954.513	5437.58
954.818	5450.92
955.122	5441.88
955.426	5389.22
955.731	5343.8
956.035	5314.87
956.339	5317.13
956.643	5310.58
956.948	5270.81
957.252	5257.02
957.556	5207.76
957.86	5175.22
958.163	5185.16
958.467	5152.62
958.771	5132.28
959.075	5138.61
959.378	5092.96
959.682	5098.61
959.985	5046.41
960.289	4992.85
960.592	4996.92
960.896	4994.66
961.199	4936.58
961.502	4882.12
961.805	4900.42
962.108	4878.28
962.411	4840.31
962.714	4773.87
963.017	4812.97
963.32	4815.68
963.623	4852.29
963.926	4791.95
964.228	4762.8
964.531	4726.64
964.833	4729.58
965.136	4691.16
965.438	4676.7
965.741	4688.9
966.043	4640.54
966.345	4624.95
966.648	4612.97
966.95	4582.92
967.252	4528.45
967.554	4507.89
967.856	4472.64
968.158	4496.82
968.46	4457.27
968.761	4450.26
969.063	4444.16
969.365	4401.45
969.666	4381.79
969.968	4346.54
970.269	4320.78
970.571	4320.78
970.872	4292.98
971.174	4288.91
971.475	4284.84
971.776	4270.16
972.077	4196.49
972.378	4171.4
972.679	4208.91
972.98	4151.74
973.281	4136.6
973.582	4172.98
973.883	4097.96
974.183	4106.54
974.484	4106.77
974.785	4033.1
975.085	4015.02
975.386	4074.46
975.686	4050.05
975.986	3973.67
976.287	3971.86
976.587	3920.56
976.887	3914.01
977.187	3944.51
977.487	3864.29
977.787	3885.53
978.087	3863.84
978.387	3871.52
978.687	3803.73
978.987	3776.38
979.286	3759.89
979.586	3767.8
979.885	3718.08
980.185	3705.65
980.484	3690.96
980.784	3683.96
981.083	3692.09
981.382	3694.8
981.682	3671.3
981.981	3642.38
982.28	3603.51
982.579	3605.77
982.878	3631.75
983.177	3580
983.475	3634.47
983.774	3536.16
984.073	3494.13
984.372	3477.18
984.67	3469.73
984.969	3474.92
985.267	3441.93
985.566	3424.53
985.864	3439.22
986.162	3396.05
986.461	3419.78
986.759	3371.87
987.057	3370.07
987.355	3371.65
987.653	3318.09
987.951	3324.19
988.249	3322.16
988.547	3300.46
988.844	3251.65
989.142	3278.32
989.44	3264.53
989.737	3173.01
990.035	3205.33
990.332	3231.09
990.63	3156.29
990.927	3201.03
991.224	3139.11
991.521	3122.16
991.819	3123.75
992.116	3101.6
992.413	3112.45
992.71	3056.18
993.006	3083.29
993.303	3015.73
993.6	3010.53
993.897	3010.98
994.193	2975.95
994.49	2986.57
994.787	2951.32
995.083	2987.25
995.379	2943.64
995.676	2898.21
995.972	2889.4
996.268	2884.66
996.565	2865.45
996.861	2833.13
997.157	2826.35
997.453	2827.48
997.749	2817.54
998.044	2810.31
998.34	2752.68
998.636	2766.69
998.932	2751.1
999.227	2733.93
999.523	2740.25
999.818	2689.41
1000.114	2691.67
1000.409	2661.38
1000.704	2624.32
1001	2660.48
1001.295	2627.94
1001.59	2642.4
1001.885	2609.86
1002.18	2627.71
1002.475	2593.36
1002.77	2563.08
1003.065	2534.16
1003.359	2559.47
1003.654	2504.55
1003.949	2509.07
1004.243	2476.76
1004.538	2478.56
1004.832	2448.28
1005.127	2460.03
1005.421	2433.59
1005.715	2443.76
1006.009	2411.22
1006.304	2361.96
1006.598	2386.82
1006.892	2366.48
1007.186	2340.94
1007.48	2350.88
1007.773	2317.89
1008.067	2312.47
1008.361	2305.24
1008.655	2309.53
1008.948	2257.55
1009.242	2264.79
1009.535	2207.61
1009.829	2224.33
1010.122	2208.74
1010.415	2215.07
1010.708	2196.76
1011.001	2184.34
1011.295	2159.48
1011.588	2142.98
1011.881	2144.11
1012.173	2147.95
1012.466	2111.79
1012.759	2102.08
1013.052	2090.1
1013.344	2093.72
1013.637	2058.69
1013.93	2057.33
1014.222	2032.47
1014.514	2016.88
1014.807	1980.72
1015.099	2013.04
1015.391	2008.97
1015.683	1993.15
1015.976	1956.09
1016.268	1957
1016.56	1945.92
1016.851	1908.18
1017.143	1913.38
1017.435	1879.03
1017.727	1924.68
1018.018	1891.69
1018.31	1858.69
1018.602	1834.97
1018.893	1873.16
1019.185	1831.12
1019.476	1821.63
1019.767	1828.41
1020.058	1771.92
1020.35	1804.68
1020.641	1764.91
1020.932	1760.39
1021.223	1744.12
1021.514	1735.31
1021.804	1687.63
1022.095	1711.13
1022.386	1724.46
1022.677	1705.93
1022.967	1669.09
1023.258	1651.69
1023.548	1634.29
1023.839	1608.76
1024.129	1613.5
1024.419	1625.03
1024.709	1610.56
1025	1594.52
1025.29	1559.04
1025.58	1554.07
1025.87	1563.79
1026.16	1558.14
1026.449	1559.94
1026.739	1507.74
1027.029	1543.9
1027.319	1532.6
1027.608	1481.75
1027.898	1481.53
1028.187	1512.04
1028.477	1474.52
1028.766	1469.1
1029.055	1437.69
1029.344	1417.58
1029.634	1451.47
1029.923	1427.74
1030.212	1425.49
1030.501	1413.28
1030.79	1395.66
1031.078	1396.79
1031.367	1375.99
1031.656	1380.06
1031.945	1337.13
1032.233	1339.39
1032.522	1362.44
1032.81	1319.05
1033.099	1297.35
1033.387	1303.45
1033.675	1287.64
1033.963	1288.99
1034.251	1267.52
1034.54	1266.85
1034.828	1253.51
1035.116	1256.45
1035.403	1258.71
1035.691	1235.43
1035.979	1238.6
1036.267	1204.25
1036.554	1185.49
1036.842	1214.42
1037.129	1209.22
1037.417	1188.66
1037.704	1199.05
1037.992	1169.67
1038.279	1159.05
1038.566	1142.78
1038.853	1142.78
1039.14	1142.78
