Data from plate_ceramic_FLMS001491_059.txt Node
Date: Tue Feb 07 11:17:00 GMT 2017
User: dcchb
Spectrometer: FLMS00149
Trigger mode: 0
Integration Time (sec): 2.000000E-2
Scans to average: 10
Electric dark correction enabled: true
Nonlinearity correction enabled: false
Boxcar width: 0
XAxis mode: Wavelengths
Number of Pixels in Spectrum: 2048
>>>>>Begin Spectral Data<<<<<
341.393	-5.89
341.776	-5.89
342.16	-5.89
342.543	-76.4
342.927	-55.38
343.31	-71.65
343.693	-54.25
344.077	-55.38
344.46	-68.71
344.843	-52.67
345.226	-37.98
345.61	-41.37
345.993	-23.52
346.376	-0.47
346.759	3.83
347.142	18.74
347.525	57.16
347.908	51.96
348.291	86.99
348.674	92.19
349.057	95.12
349.44	117.27
349.823	142.58
350.206	171.96
350.588	198.17
350.971	214.67
351.354	236.59
351.737	247.89
352.119	257.61
352.502	272.97
352.884	291.73
353.267	306.64
353.65	289.02
354.032	346.42
354.414	307.1
354.797	337.15
355.179	362.01
355.562	323.82
355.944	341.9
356.326	368.11
356.709	335.8
357.091	350.03
357.473	347.77
357.855	356.59
358.238	362.69
358.62	355.23
359.002	350.26
359.384	365.4
359.766	358.85
360.148	368.79
360.53	357.94
360.912	377.15
361.294	357.04
361.676	371.73
362.057	357.72
362.439	371.05
362.821	334.89
363.203	374.44
363.584	345.06
363.966	372.86
364.348	357.26
364.729	349.13
365.111	342.35
365.493	360.2
365.874	347.55
366.256	329.02
366.637	333.54
367.019	326.08
367.4	367.43
367.781	366.53
368.163	360.65
368.544	346.19
368.925	366.76
369.306	366.76
369.688	349.81
370.069	338.28
370.45	350.26
370.831	363.82
371.212	366.76
371.593	379.18
371.974	382.57
372.355	362.46
372.736	374.21
373.117	367.89
373.498	388
373.879	389.81
374.26	374.44
374.641	348.23
375.021	368.34
375.402	383.48
375.783	388.68
376.163	413.53
376.544	402.91
376.925	405.85
377.305	404.27
377.686	396.13
378.066	393.65
378.447	412.18
378.827	403.37
379.208	409.92
379.588	399.98
379.968	391.84
380.349	416.47
380.729	426.42
381.109	423.48
381.489	418.73
381.87	445.85
382.25	439.07
382.63	427.32
383.01	445.17
383.39	428.68
383.77	450.6
384.15	444.49
384.53	443.36
384.91	456.02
385.29	457.83
385.67	443.59
386.049	470.48
386.429	433.42
386.809	463.93
387.189	474.1
387.568	476.81
387.948	486.75
388.328	485.17
388.707	510.48
389.087	488.33
389.466	517.49
389.846	498.5
390.225	517.03
390.605	500.54
390.984	511.16
391.363	518.62
391.743	525.17
392.122	534.44
392.501	545.28
392.881	547.99
393.26	535.11
393.639	555.68
394.018	552.97
394.397	541.89
394.776	560.42
395.155	572.63
395.534	586.19
395.913	597.48
396.292	577.82
396.671	576.47
397.05	595
397.429	592.74
397.808	588.22
398.186	586.41
398.565	623.47
398.944	614.88
399.323	612.4
399.701	620.31
400.08	641.1
400.458	632.96
400.837	651.72
401.215	654.66
401.594	656.01
401.972	670.25
402.351	665.28
402.729	679.29
403.107	671.38
403.486	702.11
403.864	705.05
404.242	701.89
404.62	707.99
404.999	729.68
405.377	712.06
405.755	724.94
406.133	753.41
406.511	767.88
406.889	781.43
407.267	755.22
407.645	799.29
408.023	805.84
408.401	805.84
408.779	801.09
409.156	799.74
409.534	823.47
409.912	843.35
410.29	848.78
410.667	871.15
411.045	893.75
411.422	878.38
411.8	881.54
412.178	919.74
412.555	899.62
412.933	906.18
413.31	961.09
413.687	971.49
414.065	967.42
414.442	978.72
414.819	1001.32
415.197	1007.87
415.574	1030.47
415.951	1023.46
416.328	1029.11
416.705	1011.94
417.082	1058.94
417.46	1042.44
417.837	1080.64
418.214	1075.89
418.591	1079.51
418.967	1101.65
419.344	1112.05
419.721	1111.14
420.098	1107.75
420.475	1125.61
420.852	1130.35
421.228	1181.65
421.605	1173.51
421.982	1179.62
422.358	1219.61
422.735	1234.3
423.111	1225.72
423.488	1234.53
423.864	1252.16
424.241	1271.36
424.617	1309.78
424.994	1256.9
425.37	1300.97
425.746	1308.65
426.123	1308.43
426.499	1325.37
426.875	1323.79
427.251	1368.31
427.627	1395.2
428.003	1420.06
428.379	1459.61
428.756	1463.9
429.132	1488.53
429.507	1492.6
429.883	1472.49
430.259	1512.71
430.635	1548.42
431.011	1576.22
431.387	1598.59
431.763	1596.78
432.138	1616.44
432.514	1641.07
432.89	1671.13
433.265	1704.12
433.641	1716.78
434.016	1743.89
434.392	1741.41
434.767	1790.22
435.143	1755.19
435.518	1811.69
435.894	1835.64
436.269	1846.72
436.644	1830.9
437.02	1869.77
437.395	1902.53
437.77	1900.95
438.145	1980.5
438.52	1986.6
438.895	1989.76
439.271	2001.52
439.646	2055.98
440.021	2067.28
440.395	2084.9
440.77	2038.8
441.145	2094.17
441.52	2101.17
441.895	2128.97
442.27	2129.65
442.645	2121.74
443.019	2171.91
443.394	2164
443.769	2213.04
444.143	2191.79
444.518	2215.29
444.892	2268.17
445.267	2261.4
445.641	2307.5
446.016	2303.2
446.39	2304.11
446.764	2328.96
447.139	2329.19
447.513	2376.65
447.887	2360.83
448.262	2386.59
448.636	2411.9
449.01	2426.14
449.384	2500.49
449.758	2491.22
450.132	2506.81
450.506	2531.67
450.88	2532.57
451.254	2562.63
451.628	2579.35
452.002	2645.34
452.376	2625.91
452.75	2660.93
453.123	2688.28
453.497	2698.22
453.871	2756.98
454.244	2830.87
454.618	2806.01
454.992	2867.93
455.365	2882.85
455.739	2919.91
456.112	2966.91
456.486	3007.82
456.859	3019.57
457.232	3091.2
457.606	3032.22
457.979	3168.04
458.352	3158.09
458.725	3221.14
459.099	3246.68
459.472	3311.31
459.845	3359.22
460.218	3387.24
460.591	3435.83
460.964	3435.6
461.337	3551.53
461.71	3615.71
462.083	3613.22
462.456	3628.59
462.829	3648.03
463.201	3676.05
463.574	3714.24
463.947	3777.97
464.32	3849.83
464.692	3888.02
465.065	3911.52
465.438	3956.49
465.81	4031.97
466.183	4085.98
466.555	4209.14
466.928	4244.85
467.3	4227.22
467.672	4258.4
468.045	4410.49
468.417	4396.71
468.789	4411.85
469.161	4501.56
469.534	4575.46
469.906	4644.38
470.278	4691.39
470.65	4754.89
471.022	4834.44
471.394	4876.24
471.766	4958.73
472.138	5031.04
472.51	5085.73
472.882	5255.21
473.253	5297.25
473.625	5406.85
473.997	5473.06
474.369	5463.35
474.74	5567.3
475.112	5700.17
475.484	5788.08
475.855	5900.4
476.227	5906.05
476.598	6130.9
476.97	6160.95
477.341	6318.69
477.713	6412.7
478.084	6471.91
478.455	6650.66
478.827	6663.31
479.198	6844.33
479.569	6838.68
479.94	7074.15
480.311	7120.25
480.682	7326.57
481.053	7449.28
481.424	7569.96
481.795	7639.33
482.166	7774.24
482.537	7877.07
482.908	8044.07
483.279	8125.65
483.65	8242.71
484.021	8444.96
484.391	8539.2
484.762	8695.12
485.133	8674.79
485.503	8841.34
485.874	9086.53
486.244	9061.44
486.615	9312.06
486.985	9385.28
487.356	9543.69
487.726	9654.87
488.097	9829.78
488.467	9893.29
488.837	10166.27
489.207	10293.5
489.578	10417.34
489.948	10439.49
490.318	10652.36
490.688	10682.42
491.058	10880.83
491.428	11008.74
491.798	11188.84
492.168	11355.17
492.538	11354.72
492.908	11482.17
493.278	11611.66
493.648	11750.41
494.017	11860.01
494.387	11999.9
494.757	12103.4
495.126	12229.72
495.496	12331.87
495.866	12386.78
496.235	12496.15
496.605	12635.36
496.974	12752.42
497.344	12984.5
497.713	12977.95
498.082	13054.78
498.452	13100.21
498.821	13220.2
499.19	13282.12
499.559	13485.96
499.928	13485.06
500.298	13582.68
500.667	13806.4
501.036	13847.31
501.405	13831.26
501.774	13964.59
502.143	14179.05
502.512	14172.27
502.88	14322.77
503.249	14370.68
503.618	14573.84
503.987	14544.24
504.356	14661.07
504.724	14839.6
505.093	14843.89
505.462	14904.68
505.83	15065.8
506.199	15203.65
506.567	15414.72
506.936	15444.55
507.304	15682.29
507.672	15646.81
508.041	15825.56
508.409	15916.86
508.777	16003.63
509.145	16083.4
509.514	16109.84
509.882	16315.94
510.25	16386.9
510.618	16524.98
510.986	16574.69
511.354	16809.94
511.722	16933.55
512.09	17063.04
512.458	17038.86
512.826	17226.2
513.193	17366.31
513.561	17466.19
513.929	17711.84
514.297	17830.03
514.664	17920.64
515.032	18026.63
515.4	18203.35
515.767	18288.09
516.135	18349.33
516.502	18370.58
516.869	18602.21
517.237	18764.46
517.604	18677.91
517.972	19057.56
518.339	19098.92
518.706	19074.51
519.073	19376.43
519.44	19481.96
519.808	19627.04
520.175	19714.5
520.542	20025
520.909	20109.06
521.276	20040.59
521.643	20287.14
522.009	20446.68
522.376	20704.07
522.743	20741.36
523.11	20903.17
523.477	21173.21
523.843	21438.07
524.21	21605.75
524.577	21715.12
524.943	21882.8
525.31	21919.18
525.676	22177.93
526.043	22317.37
526.409	22362.34
526.776	22621.09
527.142	22881.42
527.508	23002.09
527.874	23206.38
528.241	23238.7
528.607	23374.06
528.973	23676.43
529.339	23660.15
529.705	23809.53
530.071	24083.87
530.437	24153.93
530.803	24422.85
531.169	24581.49
531.535	24465.78
531.901	24556.4
532.267	24653.57
532.632	24889.27
532.998	24985.09
533.364	25294.46
533.73	25310.96
534.095	25535.81
534.461	25533.55
534.826	25772.64
535.192	25862.36
535.557	26102.58
535.923	26067.55
536.288	26206.08
536.653	26355
537.019	26321.55
537.384	26485.39
537.749	26595.67
538.114	26693.3
538.479	26783.24
538.845	26999.05
539.21	26905.95
539.575	27112.95
539.94	27183.23
540.305	27299.38
540.67	27285.6
541.034	27493.27
541.399	27629.54
541.764	27800.38
542.129	27704.34
542.494	27936.43
542.858	27956.09
543.223	28083.54
543.587	28264.55
543.952	28166.25
544.316	28366.92
544.681	28403.98
545.045	28575.51
545.41	28743.64
545.774	28897.08
546.138	28894.37
546.503	29052.78
546.867	29004.19
547.231	29368.93
547.595	29187.69
547.959	29417.74
548.324	29444.86
548.688	29580.23
549.052	29625.87
549.416	29799.2
549.779	29964.4
550.143	30046.2
550.507	30099.53
550.871	30246.2
551.235	30360.77
551.599	30509.01
551.962	30585.4
552.326	30730.03
552.689	30883.02
553.053	30790.81
553.417	30990.13
553.78	31381.31
554.143	31227.41
554.507	31410.69
554.87	31470.8
555.234	31830.11
555.597	31725.48
555.96	31879.83
556.323	31920.95
556.686	32089.31
557.05	32256.54
557.413	32485.01
557.776	32546.47
558.139	32666.25
558.502	32849.07
558.865	33025.78
559.228	33144.88
559.59	33445.43
559.953	33489.95
560.316	33744.64
560.679	33722.26
561.041	34020.11
561.404	34028.24
561.767	34314.79
562.129	34310.95
562.492	34680.43
562.854	34659.87
563.217	34866.64
563.579	34924.04
563.941	35022.79
564.304	35359.96
564.666	35506.4
565.028	35551.82
565.39	35616.68
565.753	35939.15
566.115	36010.11
566.477	36193.16
566.839	36260.05
567.201	36409.42
567.563	36455.75
567.925	36769.64
568.287	36818
568.648	36774.84
569.01	37136.18
569.372	37323.98
569.734	37275.84
570.095	37548.15
570.457	37668.15
570.819	37773.68
571.18	37762.38
571.542	38050.51
571.903	38057.29
572.265	38280.34
572.626	38388.36
572.987	38423.16
573.349	38577.05
573.71	38672.64
574.071	38798.51
574.432	38706.09
574.794	39085.96
575.155	39139.07
575.516	39153.76
575.877	39263.36
576.238	39397.37
576.599	39405.05
576.96	39561.43
577.32	39636.68
577.681	39723.91
578.042	39850.46
578.403	39862.67
578.763	39873.06
579.124	39946.96
579.485	40098.37
579.845	40212.94
580.206	40116.9
580.566	40180.85
580.927	40334.97
581.287	40353.05
581.648	40268.31
582.008	40437.57
582.368	40396.89
582.728	40399.6
583.089	40346.27
583.449	40424.01
583.809	40495.42
584.169	40620.16
584.529	40407.51
584.889	40776.09
585.249	40428.08
585.609	40468.3
585.969	40664
586.329	40618.13
586.688	40672.36
587.048	40687.05
587.408	40640.95
587.768	40628.07
588.127	40582.87
588.487	40708.75
588.846	40982.41
589.206	40496.77
589.565	40656.77
589.925	40905.58
590.284	40709.42
590.643	40805.47
591.003	40927.72
591.362	41003.65
591.721	40732.93
592.08	40786.26
592.44	41161.62
592.799	40966.14
593.158	40923.66
593.517	41054.5
593.876	41100.83
594.235	40925.69
594.593	41029.19
594.952	41051.56
595.311	41046.36
595.67	41153.25
596.029	41215.85
596.387	41206.59
596.746	41405.9
597.104	41320.71
597.463	41250.43
597.822	41386.92
598.18	41323.42
598.538	41201.61
598.897	41540.14
599.255	41247.26
599.613	41843.18
599.972	41607.93
600.33	41649.74
600.688	41499.91
601.046	41768.38
601.404	41793.69
601.762	41653.58
602.12	41834.14
602.478	41875.04
602.836	41909.84
603.194	41630.53
603.552	41703.52
603.91	41699.91
604.268	41846.8
604.625	41814.48
604.983	42022.84
605.341	41865.1
605.698	42023.29
606.056	42126.79
606.413	42082.5
606.771	42157.52
607.128	42390.96
607.485	41996.85
607.843	42239.33
608.2	42489.04
608.557	42475.03
608.914	42389.38
609.272	42569.49
609.629	42604.97
609.986	42630.5
610.343	42473.45
610.7	42865.3
611.057	42819.88
611.414	42697.85
611.771	42851.06
612.127	42971.29
612.484	42914.34
612.841	42863.27
613.198	42878.18
613.554	42987.78
613.911	43191.62
614.267	42975.13
614.624	43147.33
614.98	43174.22
615.337	43346.42
615.693	43425.28
616.05	43435.23
616.406	43506.64
616.762	43364.27
617.118	43457.83
617.475	43399.3
617.831	43519.52
618.187	43644.26
618.543	43653.08
618.899	43822.56
619.255	43638.84
619.611	43587.31
619.967	43807.2
620.323	43959.51
620.678	43776.01
621.034	43616.92
621.39	43640.65
621.746	43585.96
622.101	44176.68
622.457	43734.88
622.812	43992.73
623.168	43968.77
623.523	44103.23
623.879	44028.43
624.234	43793.86
624.589	43896.68
624.945	43909.34
625.3	43885.61
625.655	43900.07
626.01	44006.74
626.365	43894.65
626.72	43873.41
627.075	43840.64
627.43	43904.59
627.785	43715.45
628.14	43979.17
628.495	43896.46
628.85	43814.88
629.205	43699.4
629.559	43806.97
629.914	43538.5
630.269	43676.8
630.623	43592.51
630.978	43510.71
631.332	43509.35
631.687	43744.82
632.041	43600.2
632.396	43622.34
632.75	43272.75
633.104	43409.92
633.459	43106.42
633.813	43212.63
634.167	43368.79
634.521	43327.21
634.875	43241.56
635.229	43024.84
635.583	43071.62
635.937	42949.14
636.291	42800.67
636.645	42995.01
636.999	42844.06
637.352	42879.31
637.706	42641.8
638.06	42819.2
638.413	42755.25
638.767	42694.68
639.121	42657.17
639.474	42398.87
639.828	42564.29
640.181	42358.19
640.534	42540.11
640.888	42355.03
641.241	42316.84
641.594	42152.55
641.947	42432.77
642.301	42191.19
642.654	42271.42
643.007	42206.79
643.36	42157.75
643.713	42079.78
644.066	42134.92
644.419	41943.06
644.771	41692.22
645.124	41387.37
645.477	41229.86
645.83	40872.13
646.182	40729.99
646.535	40591.46
646.888	40826.26
647.24	40678.01
647.593	40853.83
647.945	40809.99
648.298	40631.91
648.65	40430.11
649.002	40334.07
649.355	40497.68
649.707	40446.83
650.059	40643.44
650.411	41078.68
650.763	41238.68
651.115	41298.79
651.467	41254.49
651.819	41131.11
652.171	41105.35
652.523	41006.14
652.875	41031.68
653.227	40922.75
653.578	41103.31
653.93	41015.63
654.282	40856.54
654.633	40696.99
654.985	40897.89
655.337	40896.31
655.688	40794.39
656.039	40882.53
656.391	40370.68
656.742	40618.58
657.094	40614.06
657.445	40804.79
657.796	40645.47
658.147	40609.31
658.498	40431.92
658.849	40547.62
659.2	40451.8
659.551	40318.47
659.902	40704.9
660.253	40527.06
660.604	40497
660.955	40272.83
661.306	40477.57
661.656	40391.92
662.007	40365.25
662.358	40303.11
662.708	40330
663.059	40172.04
663.409	39987.41
663.76	40273.28
664.11	40155.31
664.461	40162.09
664.811	40219.49
665.161	40253.62
665.511	40152.83
665.862	40171.81
666.212	40293.16
666.562	40309.66
666.912	40113.51
667.262	40167.97
667.612	40075.32
667.962	40143.34
668.312	39992.15
668.662	40163.9
669.011	40053.85
669.361	40065.6
669.711	40018.59
670.06	39913.51
670.41	39997.13
670.76	39840.52
671.109	39862.21
671.459	39907.86
671.808	39804.59
672.157	39880.29
672.507	39618.38
672.856	39721.2
673.205	39593.75
673.554	39690.02
673.904	39582.45
674.253	39649.11
674.602	39630.58
674.951	39151.5
675.3	38991.73
675.649	39672.62
675.998	39452.96
676.346	39323.7
676.695	39543.8
677.044	39298.61
677.393	39415.22
677.741	39425.16
678.09	39284.6
678.438	39242.34
678.787	39109.69
679.135	39319.4
679.484	39021.11
679.832	39260.42
680.181	38996.7
680.529	38985.85
680.877	38954.89
681.225	38874.22
681.573	38921.9
681.922	38846.2
682.27	38762.13
682.618	38700.66
682.966	38752.19
683.314	38717.16
683.661	38523.72
684.009	38363.95
684.357	38154.01
684.705	38261.35
685.053	38313.78
685.4	38261.8
685.748	38111.07
686.095	38044.41
686.443	37795.6
686.79	37810.52
687.138	37670.63
687.485	37849.16
687.832	37726
688.18	37792.89
688.527	37614.82
688.874	37504.54
689.221	37361.04
689.568	37229.52
689.915	37191.78
690.262	37214.15
690.609	37040.37
690.956	37015.28
691.303	36977.77
691.65	36764.22
691.997	36666.59
692.344	36614.39
692.69	36630.44
693.037	36724.67
693.383	36452.13
693.73	36474.06
694.077	36265.02
694.423	36282.87
694.769	36165.81
695.116	36126.27
695.462	36039.26
695.808	35892.6
696.155	35821.64
696.501	35666.39
696.847	35507.07
697.193	35472.73
697.539	35550.24
697.885	35214.88
698.231	35174.88
698.577	35234.09
698.923	35195.44
699.269	34927.88
699.614	34686.31
699.96	34640.43
700.306	34808.56
700.651	34654.67
700.997	34539.19
701.342	34446.09
701.688	34353.88
702.033	34212.65
702.379	34225.07
702.724	34101.69
703.069	34215.58
703.415	33773.34
703.76	33715.26
704.105	33760
704.45	33634.81
704.795	33372.22
705.14	33249.28
705.485	33312.78
705.83	33262.84
706.175	33319.56
706.52	33181.49
706.865	33065.56
707.209	33048.16
707.554	32974.03
707.899	32953.7
708.243	32792.34
708.588	32744.89
708.932	32469.64
709.277	32485.23
709.621	32479.36
709.966	32297.89
710.31	32418.12
710.654	32054.51
710.998	32272.81
711.342	32154.62
711.687	32091.8
712.031	31984.46
712.375	31906.94
712.719	31884.35
713.063	31811.35
713.407	31794.4
713.75	31592.15
714.094	31605.71
714.438	31489.1
714.782	31618.36
715.125	31496.56
715.469	31530.23
715.812	31277.36
716.156	31168.43
716.499	31083.91
716.843	31062.9
717.186	30895.22
717.53	31068.1
717.873	31045.72
718.216	30909.46
718.559	30865.39
718.902	30532.06
719.246	30775.9
719.589	30697.48
719.932	30507.66
720.275	30541.56
720.617	30558.73
720.96	30357.15
721.303	30314.89
721.646	30443.93
721.989	30151.74
722.331	30325.97
722.674	30165.75
723.016	30111.74
723.359	30047.78
723.701	30047.11
724.044	29856.6
724.386	29754.46
724.729	29956.49
725.071	29824.74
725.413	29773.67
725.755	29667.68
726.097	29666.32
726.439	29368.03
726.782	29380.23
727.124	29558.76
727.465	29282.83
727.807	29410.51
728.149	29211.87
728.491	29456.84
728.833	29423.17
729.175	29027.92
729.516	29011.88
729.858	28994.7
730.199	29045.78
730.541	29003.29
730.882	28951.77
731.224	29009.62
731.565	28740.7
731.906	28923.52
732.248	28776.86
732.589	28692.79
732.93	28435.62
733.271	28616.18
733.612	28592.91
733.953	28642.17
734.294	28496.41
734.635	28435.4
734.976	28446.92
735.317	28241.96
735.658	28277.43
735.999	28270.43
736.339	28267.27
736.68	28247.83
737.021	28196.98
737.361	28080.6
737.702	28169.41
738.042	28148.85
738.383	28058.91
738.723	28014.62
739.063	27947.73
739.404	27920.83
739.744	27905.69
740.084	27800.38
740.424	27880.16
740.764	27857.11
741.104	27889.87
741.444	27532.82
741.784	27559.94
742.124	27506.83
742.464	27658.47
742.804	27417.57
743.143	27420.96
743.483	27553.39
743.823	27295.99
744.162	27213.96
744.502	27176.45
744.841	27118.82
745.181	27144.36
745.52	27045.83
745.86	27098.48
746.199	26917.02
746.538	26942.1
746.877	26981.65
747.216	26839.05
747.556	26790.24
747.895	26852.61
748.234	26705.05
748.573	26642.9
748.911	26562.23
749.25	26581.66
749.589	26571.72
749.928	26558.84
750.267	26587.76
750.605	26558.38
750.944	26382.79
751.283	26296.7
751.621	26341.44
751.96	26195
752.298	26186.42
752.636	26083.37
752.975	26021.45
753.313	25808.12
753.651	26028.23
753.989	25860.77
754.327	25826.43
754.666	25668.69
755.004	25747.56
755.342	25671.85
755.679	25679.54
756.017	25449.26
756.355	25552.08
756.693	25386.89
757.031	25389.37
757.368	25248.81
757.706	25156.61
758.044	25265.99
758.381	25202.71
758.719	25066.9
759.056	25071.87
759.394	25007.01
759.731	24846.79
760.068	24764.53
760.405	24628.94
760.743	24653.8
761.08	24612.67
761.417	24457.87
761.754	24395.5
762.091	24362.06
762.428	24282.96
762.765	24159.35
763.102	24359.57
763.438	24119.13
763.775	23971.33
764.112	24036.64
764.449	24036.19
764.785	23824.44
765.122	23628.07
765.458	23586.71
765.795	23508.07
766.131	23520.05
766.467	23392.14
766.804	23245.02
767.14	23194.86
767.476	23311.01
767.812	23001.64
768.148	23178.59
768.485	23008.65
768.821	22742.66
769.157	22744.92
769.492	22710.58
769.828	22658.83
770.164	22597.13
770.5	22554.65
770.836	22426.29
771.171	22374.09
771.507	22198.5
771.842	22225.16
772.178	22170.25
772.513	22098.84
772.849	22010.48
773.184	21857.94
773.519	21866.98
773.855	21775.46
774.19	21541.57
774.525	21558.06
774.86	21593.32
775.195	21607.33
775.53	21377.95
775.865	21143.84
776.2	21154.23
776.535	21017.96
776.87	21036.04
777.205	20885.09
777.539	20826.1
777.874	20918.31
778.209	20707.46
778.543	20561.93
778.878	20496.62
779.212	20546.34
779.547	20349.28
779.881	20366.23
780.215	20295.05
780.55	20300.92
780.884	20159
781.218	20008.95
781.552	20091.21
781.886	19892.12
782.22	19773.48
782.554	19824.78
782.888	19618.68
783.222	19562.64
783.556	19544.56
783.889	19395.86
784.223	19314.51
784.557	19219.14
784.89	19186.6
785.224	19168.07
785.557	19100.95
785.891	19001.75
786.224	18869.55
786.558	18868.42
786.891	18787.51
787.224	18794.29
787.557	18729.44
787.891	18598.82
788.224	18666.39
788.557	18630.91
788.89	18581.19
789.223	18399.73
789.556	18319.5
789.888	18327.41
790.221	18244.93
790.554	18039.96
790.887	18034.31
791.219	17957.03
791.552	17992.73
791.884	17881.55
792.217	17816.47
792.549	17733.3
792.882	17559.98
793.214	17590.48
793.546	17595.68
793.879	17418.06
794.211	17422.8
794.543	17410.83
794.875	17365.63
795.207	17345.74
795.539	17270.49
795.871	17289.47
796.203	17107.33
796.535	16983.95
796.867	16982.14
797.198	16871.63
797.53	16925.87
797.862	16845.42
798.193	16799.32
798.525	16741.24
798.856	16747.79
799.188	16573.11
799.519	16483.62
799.85	16379.22
800.182	16456.28
800.513	16462.83
800.844	16241.14
801.175	16277.98
801.506	16295.15
801.837	16179.9
802.168	16212.44
802.499	16098.32
802.83	16021.03
803.161	15946.91
803.491	15983.07
803.822	15972.9
804.153	15900.58
804.483	15739.91
804.814	15671.21
805.145	15645.9
805.475	15661.95
805.805	15564.55
806.136	15659.69
806.466	15600.71
806.796	15589.18
807.126	15382.86
807.457	15400.48
807.787	15403.87
808.117	15170.43
808.447	15204.78
808.777	15198.23
809.107	15091.79
809.436	15079.36
809.766	15085.01
810.096	15123.43
810.426	14998.69
810.755	15039.59
811.085	14904.23
811.414	14856.77
811.744	14752.14
812.073	14732.48
812.403	14784.46
812.732	14552.15
813.061	14575.87
813.39	14570.22
813.719	14581.07
814.049	14673.27
814.378	14527.74
814.707	14490.9
815.036	14508.53
815.365	14359.83
815.693	14304.69
816.022	14234.19
816.351	14174.98
816.68	14172.49
817.008	14180.18
817.337	14144.25
817.665	14138.15
817.994	14057.7
818.322	14055.21
818.651	14011.82
818.979	13907.42
819.307	13967.53
819.636	13848.21
819.964	13834.88
820.292	13866.06
820.62	13752.84
820.948	13822.9
821.276	13798.72
821.604	13875.78
821.932	13819.51
822.259	13801.88
822.587	13733.64
822.915	13798.95
823.243	13783.13
823.57	13770.92
823.898	13763.47
824.225	13719.63
824.553	13673.75
824.88	13741.09
825.207	13726.18
825.535	13633.07
825.862	13697.48
826.189	13648.21
826.516	13742
826.843	13758.27
827.17	13803.69
827.497	13790.58
827.824	13730.7
828.151	13737.7
828.478	13685.95
828.805	13754.2
829.131	13654.54
829.458	13659.74
829.785	13607.09
830.111	13748.55
830.438	13706.52
830.764	13648.21
831.09	13711.04
831.417	13552.4
831.743	13618.16
832.069	13599.4
832.395	13536.13
832.722	13553.08
833.048	13652.73
833.374	13578.61
833.7	13550.36
834.026	13583.58
834.351	13590.59
834.677	13573.64
835.003	13529.57
835.329	13481.67
835.654	13479.63
835.98	13359.18
836.306	13500.65
836.631	13395.79
836.956	13407.32
837.282	13350.6
837.607	13350.82
837.932	13319.41
838.258	13304.04
838.583	13324.38
838.908	13286.19
839.233	13172.97
839.558	13190.15
839.883	13122.35
840.208	13136.82
840.533	13177.04
840.858	13097.04
841.182	13118.74
841.507	13091.85
841.832	13050.26
842.156	13048.46
842.481	12956.03
842.805	12965.52
843.13	12907.22
843.454	12900.44
843.778	12814.34
844.103	12763.72
844.427	12775.24
844.751	12839.2
845.075	12834.68
845.399	12822.25
845.723	12633.55
846.047	12722.59
846.371	12527.11
846.695	12559.2
847.019	12377.74
847.343	12362.6
847.666	12286.22
847.99	12307.46
848.313	12171.87
848.637	12117.41
848.96	12103.4
849.284	12201.02
849.607	11990.86
849.931	12023.4
850.254	11945.66
850.577	11869.96
850.9	11734.59
851.223	11738.66
851.546	11719.45
851.869	11646.23
852.192	11662.05
852.515	11563.52
852.838	11486.69
853.161	11443.3
853.483	11411.66
853.806	11408.27
854.129	11412.12
854.451	11361.95
854.774	11445.56
855.096	11332.34
855.419	11265.68
855.741	11297.09
856.063	11237.88
856.385	11081.05
856.708	11092.58
857.03	11042.86
857.352	11040.15
857.674	10976.65
857.996	10956.99
858.318	10891.45
858.64	10871.56
858.961	10872.69
859.283	10800.83
859.605	10675.86
859.926	10759.03
860.248	10780.72
860.57	10716.54
860.891	10719.48
861.212	10617.11
861.534	10589.99
861.855	10617.33
862.176	10612.81
862.498	10571.91
862.819	10692.36
863.14	10559.71
863.461	10475.87
863.782	10453.27
864.103	10460.95
864.424	10419.37
864.745	10480.39
865.065	10389.32
865.386	10436.77
865.707	10381.41
866.027	10423.44
866.348	10412.14
866.668	10383.44
866.989	10396.32
867.309	10279.26
867.63	10269.55
867.95	10324.46
868.27	10125.37
868.59	10164.69
868.91	10174.63
869.23	10175.76
869.55	10180.96
869.87	10194.97
870.19	10161.75
870.51	10178.93
870.83	10098.7
871.15	9957.01
871.469	10000.63
871.789	10048.08
872.109	9988.2
872.428	9970.12
872.748	9980.74
873.067	9924.47
873.386	9975.09
873.706	9902.32
874.025	9848.31
874.344	9910.69
874.663	9892.61
874.982	9854.64
875.301	9810.58
875.62	9808.54
875.939	9794.3
876.258	9766.28
876.577	9764.7
876.896	9786.85
877.214	9748.88
877.533	9709.34
877.852	9679.73
878.17	9698.71
878.489	9707.53
878.807	9666.62
879.125	9611.94
879.444	9736.9
879.762	9639.05
880.08	9648.09
880.398	9569.9
880.716	9623.46
881.034	9537.59
881.352	9529.9
881.67	9464.82
881.988	9534.2
882.306	9482.45
882.624	9404.94
882.941	9404.71
883.259	9380.53
883.577	9369.23
883.894	9307.09
884.212	9373.98
884.529	9320.64
884.846	9283.81
885.164	9255.34
885.481	9262.12
885.798	9213.75
886.115	9117.03
886.432	9126.98
886.75	9105.28
887.067	9174.89
887.383	9126.75
887.7	9193.64
888.017	9092.85
888.334	9081.1
888.651	9088.11
888.967	9043.14
889.284	9018.05
889.6	8969.92
889.917	8866.87
890.233	8868.23
890.55	8918.17
890.866	8862.13
891.182	8824.39
891.498	8818.51
891.815	8708.68
892.131	8659.87
892.447	8620.55
892.763	8689.93
893.079	8665.52
893.395	8706.2
893.71	8706.2
894.026	8646.54
894.342	8622.36
894.657	8549.59
894.973	8490.38
895.289	8465.75
895.604	8494
895.92	8381.23
896.235	8415.81
896.55	8277.06
896.865	8355.92
897.181	8337.17
897.496	8346.66
897.811	8201.13
898.126	8212.2
898.441	8159.55
898.756	8186.21
899.071	8147.57
899.386	8131.75
899.7	8047.01
900.015	8075.03
900.33	8046.55
900.644	8016.05
900.959	7982.15
901.273	7948.93
901.588	7935.37
901.902	7871.19
902.216	7848.14
902.531	7845.2
902.845	7845.43
903.159	7720.23
903.473	7689.28
903.787	7740.35
904.101	7601.59
904.415	7627.36
904.729	7613.57
905.042	7529.96
905.356	7555.49
905.67	7570.41
905.984	7620.58
906.297	7496.06
906.611	7491.31
906.924	7461.71
907.237	7459.45
907.551	7376.74
907.864	7351.43
908.177	7338.55
908.491	7321.15
908.804	7261.04
909.117	7316.4
909.43	7132.68
909.743	7142.85
910.056	7096.75
910.368	7081.38
910.681	7074.83
910.994	7011.1
911.307	7080.03
911.619	6919.8
911.932	6980.82
912.244	6931.78
912.557	6933.81
912.869	6928.84
913.181	6806.36
913.494	6808.85
913.806	6771.56
914.118	6775.85
914.43	6742.63
914.742	6738.79
915.054	6685.69
915.366	6659.25
915.678	6642.07
915.99	6599.13
916.302	6531.34
916.613	6560.04
916.925	6563.88
917.236	6526.59
917.548	6484.56
917.859	6481.4
918.171	6436.43
918.482	6417.9
918.794	6341.97
919.105	6390.33
919.416	6291.8
919.727	6321.18
920.038	6332.25
920.349	6231.46
920.66	6188.75
920.971	6214.29
921.282	6162.31
921.593	6155.53
921.903	6135.64
922.214	6086.38
922.525	6092.48
922.835	6029.88
923.146	5995.76
923.456	5988.75
923.767	5948.76
924.077	5912.37
924.387	5884.12
924.697	5853.62
925.008	5800.29
925.318	5812.49
925.628	5835.54
925.938	5783.79
926.248	5761.64
926.558	5775.2
926.867	5716.22
927.177	5724.81
927.487	5642.78
927.796	5603.45
928.106	5654.53
928.416	5615.43
928.725	5499.5
929.034	5522.1
929.344	5499.28
929.653	5492.72
929.962	5414.76
930.271	5411.14
930.581	5394.87
930.89	5404.82
931.199	5374.53
931.508	5353.29
931.817	5318.72
932.125	5334.31
932.434	5263.58
932.743	5251.15
933.051	5200.08
933.36	5222.22
933.669	5163.47
933.977	5138.16
934.286	5164.14
934.594	5086.63
934.902	5096.58
935.21	5054.54
935.519	5055.67
935.827	5028.1
936.135	5019.97
936.443	5011.38
936.751	4959.18
937.059	4907.88
937.367	4911.72
937.674	4918.27
937.982	4902.91
938.29	4869.01
938.597	4824.49
938.905	4840.54
939.213	4812.74
939.52	4786.98
939.827	4814.77
940.135	4765.74
940.442	4761.89
940.749	4695
941.056	4668.11
941.363	4601.45
941.67	4644.84
941.977	4598.51
942.284	4574.55
942.591	4585.85
942.898	4575.91
943.205	4568.91
943.511	4503.14
943.818	4505.18
944.125	4434.9
944.431	4441.23
944.738	4391.28
945.044	4430.38
945.35	4396.03
945.657	4384.05
945.963	4341.79
946.269	4373.66
946.575	4318.06
946.881	4328.01
947.187	4283.49
947.493	4210.95
947.799	4218.18
948.105	4203.72
948.41	4180.67
948.716	4197.39
949.022	4170.05
949.327	4150.61
949.633	4167.11
949.938	4100.89
950.244	4192.87
950.549	4120.78
950.854	4053.89
951.16	4050.95
951.465	4058.18
951.77	4010.28
952.075	4023.83
952.38	3975.47
952.685	3970.5
952.99	3928.24
953.294	3894.57
953.599	3883.05
953.904	3911.07
954.209	3867.91
954.513	3876.95
954.818	3860
955.122	3844.86
955.426	3842.14
955.731	3774.12
956.035	3772.32
956.339	3765.31
956.643	3738.19
956.948	3714.01
957.252	3742.49
957.556	3700.68
957.86	3687.57
958.163	3661.58
958.467	3664.75
958.771	3646.44
959.075	3633.34
959.378	3658.19
959.682	3580.23
959.985	3588.59
960.289	3558.08
960.592	3561.93
960.896	3506.79
961.199	3528.71
961.502	3504.07
961.805	3524.41
962.108	3467.01
962.411	3444.87
962.714	3401.25
963.017	3403.74
963.32	3440.12
963.623	3398.31
963.926	3411.2
964.228	3368.94
964.531	3335.27
964.833	3379.78
965.136	3328.94
965.438	3326.9
965.741	3328.94
966.043	3322.16
966.345	3267.02
966.648	3265.44
966.95	3251.65
967.252	3214.59
967.554	3210.3
967.856	3196.29
968.158	3160.13
968.46	3193.12
968.761	3151.77
969.063	3143.86
969.365	3157.64
969.666	3114.93
969.968	3085.33
970.269	3117.42
970.571	3047.36
970.872	3069.96
971.174	3041.04
971.475	3014.37
971.776	3008.95
972.077	3038.32
972.378	3021.6
972.679	3002.84
972.98	2977.76
973.281	2970.08
973.582	2957.2
973.883	2934.15
974.183	2935.95
974.484	2901.38
974.785	2913.13
975.085	2898.89
975.386	2880.14
975.686	2851.89
975.986	2843.98
976.287	2846.24
976.587	2817.76
976.887	2817.99
977.187	2763.53
977.487	2809.4
977.787	2743.42
978.087	2761.04
978.387	2748.84
978.687	2714.94
978.987	2729.41
979.286	2690.31
979.586	2708.62
979.885	2688.73
980.185	2688.73
980.484	2656.41
980.784	2691.67
981.083	2639.69
981.382	2631.1
981.682	2637.66
981.981	2627.26
982.28	2588.17
982.579	2599.01
982.878	2582.52
983.177	2538
983.475	2559.69
983.774	2533.7
984.073	2524.44
984.372	2524.67
984.67	2542.52
984.969	2515.63
985.267	2502.07
985.566	2512.01
985.864	2459.81
986.162	2469.07
986.461	2428.85
986.759	2437.21
987.057	2402.41
987.355	2373.48
987.653	2394.73
987.951	2381.39
988.249	2388.4
988.547	2369.42
988.844	2389.08
989.142	2377.55
989.44	2351.11
989.737	2341.17
990.035	2291
990.332	2311.34
990.63	2286.93
990.927	2298
991.224	2258.68
991.521	2274.95
991.819	2239.48
992.116	2251
992.413	2241.06
992.71	2227.72
993.006	2211
993.303	2206.03
993.6	2176.88
993.897	2192.24
994.193	2183.43
994.49	2164.67
994.787	2160.83
995.083	2151.34
995.379	2137.78
995.676	2136.43
995.972	2086.48
996.268	2106.15
996.565	2091.46
996.861	2068.18
997.157	2059.14
997.453	2055.3
997.749	2051.23
998.044	2007.39
998.34	1982.08
998.636	2007.16
998.932	1988.63
999.227	2021.63
999.523	1962.19
999.818	1974.85
1000.114	1946.83
1000.409	1966.26
1000.704	1950.67
1001	1917.22
1001.295	1937.79
1001.59	1905.92
1001.885	1908.41
1002.18	1894.63
1002.475	1878.13
1002.77	1884.68
1003.065	1890.78
1003.359	1874.51
1003.654	1830.45
1003.949	1864.34
1004.243	1824.8
1004.538	1809.43
1004.832	1795.64
1005.127	1825.25
1005.421	1783.22
1005.715	1771.01
1006.009	1781.86
1006.304	1780.96
1006.598	1757.91
1006.892	1748.19
1007.186	1753.39
1007.48	1756.1
1007.773	1712.48
1008.067	1704.35
1008.361	1680.62
1008.655	1647.63
1008.948	1682.88
1009.242	1676.55
1009.535	1676.55
1009.829	1648.3
1010.122	1617.12
1010.415	1637.23
1010.708	1604.01
1011.001	1633.16
1011.295	1594.97
1011.588	1588.64
1011.881	1542.54
1012.173	1576.22
1012.466	1535.31
1012.759	1550.68
1013.052	1515.43
1013.344	1550.45
1013.637	1559.27
1013.93	1527.63
1014.222	1515.88
1014.514	1500.74
1014.807	1510
1015.099	1481.75
1015.391	1470
1015.683	1491.47
1015.976	1473.85
1016.268	1451.47
1016.56	1440.63
1016.851	1435.43
1017.143	1420.51
1017.435	1432.49
1017.727	1423.9
1018.018	1396.56
1018.31	1384.58
1018.602	1408.54
1018.893	1385.71
1019.185	1368.54
1019.476	1343
1019.767	1343.91
1020.058	1361.31
1020.35	1330.57
1020.641	1340.29
1020.932	1323.57
1021.223	1289.44
1021.514	1292.38
1021.804	1286.73
1022.095	1277.69
1022.386	1281.53
1022.677	1277.24
1022.967	1252.16
1023.258	1251.93
1023.548	1232.27
1023.839	1238.37
1024.129	1245.38
1024.419	1216.68
1024.709	1232.04
1025	1208.99
1025.29	1222.55
1025.58	1219.16
1025.87	1203.57
1026.16	1181.2
1026.449	1156.11
1026.739	1155.89
1027.029	1175.55
1027.319	1119.73
1027.608	1142.1
1027.898	1093.74
1028.187	1134.19
1028.477	1133.52
1028.766	1137.58
1029.055	1100.52
1029.344	1117.92
1029.634	1121.54
1029.923	1098.04
1030.212	1088.54
1030.501	1076.79
1030.79	1075.89
1031.078	1052.61
1031.367	1045.61
1031.656	1025.95
1031.945	1039.73
1032.233	1027.3
1032.522	1012.16
1032.81	1030.69
1033.099	1009.45
1033.387	1015.78
1033.675	996.8
1033.963	999.51
1034.251	978.04
1034.54	972.16
1034.828	965.84
1035.116	961.32
1035.403	966.97
1035.691	950.7
1035.979	960.19
1036.267	948.89
1036.554	955.44
1036.842	924.26
1037.129	919.74
1037.417	906.4
1037.704	911.15
1037.992	916.8
1038.279	895.1
1038.566	886.06
1038.853	886.06
1039.14	886.06
