Data from plate_porcelain_FLMS001491_018.txt Node
Date: Tue Feb 07 11:18:52 GMT 2017
User: dcchb
Spectrometer: FLMS00149
Trigger mode: 0
Integration Time (sec): 2.000000E-2
Scans to average: 10
Electric dark correction enabled: true
Nonlinearity correction enabled: false
Boxcar width: 0
XAxis mode: Wavelengths
Number of Pixels in Spectrum: 2048
>>>>>Begin Spectral Data<<<<<
341.393	-10.17
341.776	-10.17
342.16	-10.17
342.543	-62.6
342.927	-80
343.31	-92.65
343.693	-73.22
344.077	-68.7
344.46	-62.82
344.843	-29.83
345.226	-44.52
345.61	-12.88
345.993	-22.6
346.376	17.17
346.759	10.85
347.142	23.73
347.525	42.94
347.908	51.52
348.291	59.43
348.674	96.27
349.057	105.31
349.44	105.53
349.823	124.97
350.206	149.37
350.588	222.59
350.971	233.89
351.354	240.9
351.737	259.65
352.119	274.8
352.502	305.75
352.884	331.06
353.267	317.51
353.65	323.16
354.032	338.97
354.414	355.92
354.797	357.05
355.179	335.36
355.562	371.52
355.944	367.67
356.326	363.61
356.709	382.14
357.091	357.28
357.473	406.54
357.855	375.81
358.238	372.87
358.62	399.54
359.002	375.81
359.384	393.89
359.766	381.01
360.148	383.04
360.53	386.88
360.912	375.13
361.294	359.09
361.676	376.94
362.057	355.24
362.439	379.2
362.821	401.57
363.203	367.67
363.584	383.49
363.966	385.98
364.348	390.95
364.729	365.64
365.111	374.23
365.493	379.43
365.874	374.91
366.256	376.71
366.637	355.24
367.019	387.79
367.4	387.11
367.781	390.95
368.163	346.43
368.544	370.84
368.925	389.14
369.306	390.27
369.688	389.37
370.069	399.31
370.45	393.44
370.831	400.44
371.212	386.43
371.593	398.18
371.974	419.42
372.355	375.58
372.736	409.48
373.117	393.21
373.498	370.84
373.879	412.64
374.26	404.51
374.641	381.01
375.021	387.79
375.402	392.76
375.783	420.1
376.163	448.12
376.544	438.86
376.925	449.48
377.305	431.85
377.686	423.27
378.066	445.86
378.447	458.74
378.827	451.29
379.208	433.43
379.588	474.11
379.968	459.65
380.349	479.31
380.729	468.91
381.109	467.11
381.489	471.63
381.87	471.85
382.25	479.76
382.63	489.7
383.01	531.96
383.39	502.81
383.77	493.32
384.15	518.4
384.53	508.91
384.91	493.77
385.29	548.46
385.67	525.41
386.049	540.1
386.429	545.75
386.809	547.33
387.189	536.26
387.568	529.7
387.948	555.24
388.328	588.01
388.707	582.13
389.087	582.58
389.466	560.89
389.846	567.89
390.225	598.85
390.605	597.72
390.984	600.89
391.363	605.86
391.743	622.58
392.122	643.37
392.501	617.61
392.881	620.55
393.26	650.6
393.639	631.4
394.018	650.83
394.397	646.31
394.776	671.85
395.155	686.99
395.534	672.98
395.913	698.29
396.292	702.81
396.671	690.15
397.05	710.26
397.429	710.94
397.808	712.52
398.186	735.35
398.565	733.31
398.944	751.62
399.323	739.19
399.701	750.26
400.08	749.13
400.458	785.29
400.837	755.46
401.215	803.14
401.594	787.55
401.972	800.88
402.351	810.6
402.729	812.18
403.107	788.23
403.486	830.49
403.864	831.84
404.242	852.86
404.62	872.07
404.999	857.15
405.377	883.14
405.755	877.94
406.133	878.17
406.511	914.33
406.889	901.67
407.267	963.14
407.645	957.26
408.023	944.16
408.401	978.96
408.779	992.29
409.156	992.97
409.534	1001.1
409.912	1031.16
410.29	1033.19
410.667	1055.79
411.045	1049.46
411.422	1061.44
411.8	1098.05
412.178	1096.47
412.555	1149.12
412.933	1120.2
413.31	1161.78
413.687	1166.3
414.065	1183.02
414.442	1186.86
414.819	1195.67
415.197	1202.23
415.574	1236.8
415.951	1217.82
416.328	1255.33
416.705	1254.88
417.082	1287.2
417.46	1290.14
417.837	1286.07
418.214	1314.09
418.591	1344.82
418.967	1362.9
419.344	1363.58
419.721	1395.22
420.098	1369.46
420.475	1397.25
420.852	1408.1
421.228	1461.43
421.605	1442.67
421.982	1445.61
422.358	1474.09
422.735	1508.21
423.111	1507.98
423.488	1529.45
423.864	1519.96
424.241	1550.02
424.617	1554.31
424.994	1581.65
425.37	1604.93
425.746	1592.5
426.123	1642.67
426.499	1634.31
426.875	1668.43
427.251	1694.64
427.627	1730.58
428.003	1749.11
428.379	1750.46
428.756	1794.3
429.132	1815.09
429.507	1860.74
429.883	1872.95
430.259	1886.73
430.635	1872.27
431.011	1933.28
431.387	1992.49
431.763	1969.67
432.138	2004.24
432.514	2048.53
432.89	2073.39
433.265	2095.31
433.641	2128.31
434.016	2115.65
434.392	2180.06
434.767	2206.72
435.143	2200.85
435.518	2246.49
435.894	2282.65
436.269	2350.22
436.644	2332.59
437.02	2373.04
437.395	2377.11
437.77	2412.82
438.145	2448.07
438.52	2465.47
438.895	2477.22
439.271	2508.86
439.646	2555.64
440.021	2566.71
440.395	2568.29
440.77	2542.08
441.145	2603.32
441.52	2633.15
441.895	2666.14
442.27	2672.92
442.645	2697.78
443.019	2703.21
443.394	2726.71
443.769	2780.72
444.143	2744.11
444.518	2810.77
444.892	2794.95
445.267	2858
445.641	2879.47
446.016	2877.66
446.39	2884.22
446.764	2917.44
447.139	2885.35
447.513	2985.23
447.887	2963.99
448.262	2980.94
448.636	3008.73
449.01	3083.99
449.384	3102.97
449.758	3102.29
450.132	3138.45
450.506	3135.51
450.88	3189.75
451.254	3164.89
451.628	3274.26
452.002	3259.12
452.376	3310.65
452.75	3329.86
453.123	3368.95
453.497	3436.97
453.871	3442.85
454.244	3544.99
454.618	3533.69
454.992	3576.63
455.365	3581.15
455.739	3684.87
456.112	3710.86
456.486	3726
456.859	3781.37
457.232	3865.66
457.606	3884.42
457.979	3906.56
458.352	4013.91
458.725	4045.32
459.099	4088.93
459.472	4189.27
459.845	4227.46
460.218	4224.52
460.591	4243.05
460.964	4282.6
461.337	4362.15
461.71	4450.5
462.083	4511.75
462.456	4548.58
462.829	4536.15
463.201	4614.79
463.574	4613.89
463.947	4696.37
464.32	4834.45
464.692	4913.32
465.065	4905.63
465.438	4980.66
465.81	5051.17
466.183	5100.66
466.555	5224.95
466.928	5283.7
467.3	5257.26
467.672	5359.18
468.045	5508.33
468.417	5417.94
468.789	5530.93
469.161	5626.74
469.534	5727.76
469.906	5847.76
470.278	5927.3
470.65	5919.84
471.022	6094.76
471.394	6144.25
471.766	6222.21
472.138	6297.24
472.51	6438.02
472.882	6516.89
473.253	6641.86
473.625	6723.44
473.997	6884.11
474.369	6883.43
474.74	6982.87
475.112	7072.81
475.484	7212.01
475.855	7332.46
476.227	7404.78
476.598	7666.69
476.97	7748.27
477.341	7906.46
477.713	8032.78
478.084	8101.71
478.455	8331.31
478.827	8346.22
479.198	8610.4
479.569	8545.54
479.94	8828.92
480.311	8997.5
480.682	9149.36
481.053	9347.32
481.424	9527.89
481.795	9592.97
482.166	9737.6
482.537	9785.05
482.908	10073.63
483.279	10190.01
483.65	10327.19
484.021	10537.58
484.391	10599.04
484.762	10814.86
485.133	10854.63
485.503	11099.6
485.874	11326.03
486.244	11413.26
486.615	11608.06
486.985	11719.47
487.356	11970.31
487.726	12077.65
488.097	12342.05
488.467	12424.08
488.837	12591.99
489.207	12845.99
489.578	13034.69
489.948	13215.02
490.318	13343.83
490.688	13350.84
491.058	13625.86
491.428	13796.93
491.798	13911.05
492.168	14101.78
492.538	14219.51
492.908	14374.09
493.278	14534.76
493.648	14631.03
494.017	14830.12
494.387	15035.31
494.757	15038.47
495.126	15215.87
495.496	15310.78
495.866	15453.38
496.235	15684.56
496.605	15821.73
496.974	15876.87
497.344	15982.18
497.713	16133.59
498.082	16282.06
498.452	16441.15
498.821	16495.84
499.19	16568.83
499.559	16767.02
499.928	16865.55
500.298	17045.65
500.667	17095.37
501.036	17141.7
501.405	17345.76
501.774	17331.07
502.143	17590.27
502.512	17726.99
502.88	17839.53
503.249	17832.3
503.618	18071.84
503.987	18122.24
504.356	18148.9
504.724	18392.74
505.093	18467.09
505.462	18568.55
505.83	18742.78
506.199	18914.3
506.567	19147.52
506.936	19133.96
507.304	19345.48
507.672	19494.85
508.041	19550.9
508.409	19742.53
508.777	19856.65
509.145	20042.18
509.514	20054.39
509.882	20255.74
510.25	20391.78
510.618	20551.32
510.986	20535.28
511.354	20808.49
511.722	20966.91
512.09	21123.51
512.458	21137.07
512.826	21455.48
513.193	21551.3
513.561	21540.22
513.929	21897.73
514.297	21914.9
514.664	22098.18
515.032	22130.49
515.4	22347.66
515.767	22553.08
516.135	22697.26
516.502	22552.18
516.869	23081.43
517.237	23217.69
517.604	23158.49
517.972	23502.43
518.339	23582.2
518.706	23720.51
519.073	23798.24
519.44	24001.4
519.808	24396.19
520.175	24179.7
520.542	24759.35
520.909	24792.79
521.276	24809.29
521.643	25185.1
522.009	25290.63
522.376	25447.92
522.743	25729.04
523.11	25944.4
523.477	26140.78
523.843	26178.29
524.21	26592.52
524.577	26905.51
524.943	26901.67
525.31	27105.73
525.676	27389.56
526.043	27468.66
526.409	27681.53
526.776	27916.1
527.142	28027.74
527.508	28248.75
527.874	28490.32
528.241	28530.55
528.607	28684.67
528.973	29004.89
529.339	29030.88
529.705	29285.33
530.071	29446.46
530.437	29825.43
530.803	29862.72
531.169	30119.43
531.535	30097.97
531.901	30210.51
532.267	30400.78
532.632	30602.36
532.998	30804.16
533.364	31011.61
533.73	31106.3
534.095	31422.45
534.461	31364.37
534.826	31685.27
535.192	31700.64
535.557	31987.18
535.923	32057.91
536.288	32188.98
536.653	32345.82
537.019	32242.77
537.384	32424.23
537.749	32702.19
538.114	32651.12
538.479	32702.64
538.845	33036.42
539.21	32875.29
539.575	33226.02
539.94	33265.11
540.305	33505.56
540.67	33376.98
541.034	33677.76
541.399	33788.04
541.764	33819
542.129	33984.42
542.494	34050.18
542.858	34342.83
543.223	34264.86
543.587	34595.02
543.952	34466.44
544.316	34638.64
544.681	34648.58
545.045	34917.73
545.41	35052.19
545.774	35233.88
546.138	35124.95
546.503	35340.77
546.867	35552.96
547.231	35800.41
547.595	35837.93
547.959	35884.03
548.324	35996.34
548.688	36116.79
549.052	36174.64
549.416	36308.88
549.779	36519.49
550.143	36521.53
550.507	36810.56
550.871	36948.41
551.235	36894.4
551.599	37142.98
551.962	37275.4
552.326	37497.55
552.689	37607.15
553.053	37608.05
553.417	37710.42
553.78	38121.26
554.143	38002.16
554.507	38074.03
554.87	38403.28
555.234	38747.91
555.597	38465.2
555.96	38725.76
556.323	39093.66
556.686	38897.28
557.05	39249.36
557.413	39375.69
557.776	39713.08
558.139	39757.15
558.502	39771.38
558.865	39957.59
559.228	40288.43
559.59	40290.01
559.953	40505.6
560.316	40758.25
560.679	40835.31
561.041	41183.32
561.404	41374.51
561.767	41622.86
562.129	41449.98
562.492	41949.63
562.854	41915.06
563.217	42016.75
563.579	42260.58
563.941	42336.06
564.304	42648.6
564.666	42801.81
565.028	42849.49
565.39	43199.99
565.753	43330.16
566.115	43322.7
566.477	43573.54
566.839	43660.55
567.201	43960.43
567.563	44197.26
567.925	44342.34
568.287	44438.15
568.648	44544.82
569.01	44829.56
569.372	44927.63
569.734	44999.95
570.095	45177.34
570.457	45265.25
570.819	45404.91
571.18	45541.63
571.542	45703.43
571.903	45600.16
572.265	45974.61
572.626	46034.5
572.987	46074.04
573.349	46215.51
573.71	46329.4
574.071	46478.55
574.432	46666.8
574.794	46782.27
575.155	46778.66
575.516	46776.85
575.877	46934.36
576.238	47005.09
576.599	47129.38
576.96	47203.5
577.32	47159.21
577.681	47384.29
578.042	47495.7
578.403	47483.72
578.763	47565.53
579.124	47697.95
579.485	47762.81
579.845	47902.24
580.206	47832.19
580.566	47810.27
580.927	47923.71
581.287	48001.68
581.648	47866.76
582.008	48090.71
582.368	48006.87
582.728	48053.65
583.089	47987.66
583.449	48011.39
583.809	48112.18
584.169	48229.92
584.529	48103.37
584.889	48470.59
585.249	48153.54
585.609	48125.51
585.969	48341.33
586.329	48157.6
586.688	48261.1
587.048	48214.33
587.408	48141.56
587.768	48139.07
588.127	48158.06
588.487	48172.97
588.846	48487.76
589.206	48210.03
589.565	48168.45
589.925	48340.42
590.284	48226.98
590.643	48329.58
591.003	48391.27
591.362	48567.08
591.721	48438.05
592.08	48520.53
592.44	48531.61
592.799	48563.02
593.158	48472.17
593.517	48483.02
593.876	48612.28
594.235	48513.75
594.593	48536.8
594.952	48620.87
595.311	48482.34
595.67	48541.77
596.029	48797.81
596.387	48808.21
596.746	48912.61
597.104	48652.05
597.463	48757.81
597.822	48843.69
598.18	48786.51
598.538	48762.11
598.897	48908.54
599.255	48589.91
599.613	49198.03
599.972	48818.83
600.33	48972.72
600.688	48837.13
601.046	49038.48
601.404	49191.02
601.762	49060.63
602.12	49241.87
602.478	49289.78
602.836	49254.07
603.194	49039.61
603.552	49226.5
603.91	49130.46
604.268	49252.72
604.625	49210.01
604.983	49444.12
605.341	49230.34
605.698	49517.79
606.056	49483.9
606.413	49474.86
606.771	49593.72
607.128	49637.79
607.485	49458.13
607.843	49528.19
608.2	49715.98
608.557	49882.08
608.914	49652.25
609.272	49822.64
609.629	49953.49
609.986	50040.49
610.343	49904.22
610.7	50049.53
611.057	50136.99
611.414	49978.57
611.771	50037.55
612.127	50165.91
612.484	50085.91
612.841	50332.46
613.198	50183.09
613.554	50190.09
613.911	50425.57
614.267	50378.56
614.624	50328.85
614.98	50328.17
615.337	50576.52
615.693	50555.73
616.05	50487.49
616.406	50699.46
616.762	50532.46
617.118	50532.68
617.475	50451.33
617.831	50598.22
618.187	50715.5
618.543	50660.36
618.899	50832.11
619.255	50831.21
619.611	50775.16
619.967	50805.22
620.323	50941.49
620.678	50808.61
621.034	50678.67
621.39	50762.96
621.746	50670.98
622.101	51074.82
622.457	50829.17
622.812	50956.4
623.168	50899.23
623.523	50912.79
623.879	50961.82
624.234	50758.67
624.589	50864.65
624.945	50897.87
625.3	50941.26
625.655	50855.16
626.01	50859.68
626.365	50922.05
626.72	50828.04
627.075	50897.42
627.43	50933.58
627.785	50824.43
628.14	50862.17
628.495	50814.26
628.85	50841.38
629.205	50639.35
629.559	50823.97
629.914	50690.64
630.269	50769.74
630.623	50569.07
630.978	50516.64
631.332	50704.43
631.687	50631.66
632.041	50535.39
632.396	50736.29
632.75	50535.62
633.104	50562.51
633.459	50350.09
633.813	50412.23
634.167	50325.46
634.521	50287.72
634.875	50304.67
635.229	50249.98
635.583	50238.45
635.937	50137.21
636.291	50127.27
636.645	50171.79
636.999	49984
637.352	50075.97
637.706	49759.14
638.06	50012.7
638.413	49951.91
638.767	49723.66
639.121	49755.53
639.474	49611.35
639.828	49520.96
640.181	49624.91
640.534	49708.98
640.888	49640.5
641.241	49336.1
641.594	49477.8
641.947	49577.45
642.301	49466.5
642.654	49513.5
643.007	49361.19
643.36	49297.46
643.713	49207.29
644.066	49307.63
644.419	49057.24
644.771	48736.57
645.124	48397.82
645.477	48229.47
645.83	48028.57
646.182	47971.17
646.535	47944.05
646.888	48047.32
647.24	47654.79
647.593	48029.92
647.945	47923.49
648.298	47698.86
648.65	47625.87
649.002	47515.36
649.355	47718.07
649.707	47562.59
650.059	47776.37
650.411	48079.41
650.763	48061.11
651.115	48377.71
651.467	48165.06
651.819	48224.27
652.171	48117.15
652.523	48025.4
652.875	48108.79
653.227	47813.43
653.578	48030.83
653.93	48017.95
654.282	47742.47
654.633	47676.49
654.985	47817.73
655.337	47814.11
655.688	47816.82
656.039	47911.96
656.391	47689.82
656.742	47742.7
657.094	47694.11
657.445	47866.54
657.796	47750.61
658.147	47610.5
658.498	47569.14
658.849	47697.73
659.2	47603.27
659.551	47524.4
659.902	47638.52
660.253	47660.44
660.604	47466.32
660.955	47331.86
661.306	47516.72
661.656	47472.42
662.007	47420
662.358	47330.96
662.708	47410.05
663.059	47352.88
663.409	47098.42
663.76	47373.67
664.11	47282.6
664.461	47288.93
664.811	47382.48
665.161	47230.62
665.511	47178.42
665.862	47247.35
666.212	47272.2
666.562	47324.18
666.912	47185.43
667.262	47077.41
667.612	47141.59
667.962	47207.35
668.312	47075.82
668.662	47256.16
669.011	47125.77
669.361	47002.61
669.711	47034.02
670.06	46961.25
670.41	46890.29
670.76	46980.91
671.109	46865.66
671.459	46860.24
671.808	46833.57
672.157	46884.19
672.507	46698.43
672.856	46717.64
673.205	46608.94
673.554	46881.71
673.904	46730.75
674.253	46839.9
674.602	46709.05
674.951	46139.13
675.3	45919.92
675.649	46575.95
675.998	46454.82
676.346	46604.42
676.695	46678.09
677.044	46234.04
677.393	46473.81
677.741	46589.74
678.09	46208.5
678.438	46267.26
678.787	46307.48
679.135	46311.1
679.484	46001.28
679.832	46163.98
680.181	45978.68
680.529	46056.64
680.877	45895.06
681.225	45679.25
681.573	46057.77
681.922	45703.88
682.27	45618.91
682.618	45672.25
682.966	45613.26
683.314	45770.55
683.661	45526.94
684.009	45267.06
684.357	45156.1
684.705	45185.25
685.053	45227.51
685.4	45235.42
685.748	45055.54
686.095	44854.19
686.443	44829.1
686.79	44669.33
687.138	44663.68
687.485	44822.78
687.832	44589.56
688.18	44704.36
688.527	44331.72
688.874	44350.47
689.221	44163.36
689.568	43969.69
689.915	44038.16
690.262	44026.19
690.609	43836.14
690.956	43769.7
691.303	43650.38
691.65	43475.24
691.997	43370.61
692.344	43289.03
692.69	43221.01
693.037	43256.72
693.383	42884.07
693.73	43131.3
694.077	42754.36
694.423	42771.3
694.769	42707.13
695.116	42464.65
695.462	42490.63
695.808	42269.4
696.155	42549.84
696.501	42060.59
696.847	42176.74
697.193	41842.29
697.539	42150.53
697.885	41593.03
698.231	41711.9
698.577	41619.92
698.923	41540.15
699.269	41365.69
699.614	41071.24
699.96	41155.08
700.306	41199.37
700.651	40946.95
700.997	40805.93
701.342	40814.75
701.688	40748.76
702.033	40515.54
702.379	40524.13
702.724	40341.76
703.069	40617.46
703.415	39904.49
703.76	40111.49
704.105	39981.32
704.45	39946.29
704.795	39761.21
705.14	39661.1
705.485	39653.19
705.83	39363.03
706.175	39426.99
706.52	39325.29
706.865	39237.61
707.209	39191.96
707.554	39010.27
707.899	39020.67
708.243	38851.63
708.588	38939.99
708.932	38636.5
709.277	38466.33
709.621	38532.32
709.966	38351.76
710.31	38378.2
710.654	37918.55
710.998	38202.61
711.342	38083.97
711.687	37850.3
712.031	37763.07
712.375	37747.93
712.719	37861.15
713.063	37841.26
713.407	37706.81
713.75	37495.29
714.094	37532.57
714.438	37341.39
714.782	37356.53
715.125	37146.82
715.469	37188.4
715.812	37065.92
716.156	36937.79
716.499	36898.24
716.843	36994.73
717.186	36767.17
717.53	36784.34
717.873	36755.42
718.216	36718.81
718.559	36478.81
718.902	36229.78
719.246	36383
719.589	36210.12
719.932	36081.76
720.275	36134.42
720.617	36062.1
720.96	36000.64
721.303	35876.57
721.646	36053.06
721.989	35715.22
722.331	35814.43
722.674	35712.51
723.016	35700.76
723.359	35530.59
723.701	35666.41
724.044	35409.46
724.386	35208.57
724.729	35394.78
725.071	35147.32
725.413	35161.11
725.755	35200.2
726.097	35084.5
726.439	34889.7
726.782	34845.41
727.124	35039.53
727.465	34837.95
727.807	34806.09
728.149	34678.86
728.491	34787.33
728.833	34753.89
729.175	34546.66
729.516	34480
729.858	34368.36
730.199	34483.16
730.541	34320.23
730.882	34224.86
731.224	34392.99
731.565	34120.23
731.906	34216.5
732.248	34248.37
732.589	33998.43
732.93	33986.68
733.271	33946.23
733.612	33905.78
733.953	33913.23
734.294	33708.72
734.635	33566.12
734.976	33716.63
735.317	33389.18
735.658	33612.45
735.999	33372.91
736.339	33461.27
736.68	33401.16
737.021	33313.25
737.361	33169.52
737.702	33354.15
738.042	33228.5
738.383	33186.92
738.723	33021.5
739.063	33013.82
739.404	33188.28
739.744	32987.38
740.084	32888.17
740.424	32755.75
740.764	32668.52
741.104	32810.21
741.444	32635.53
741.784	32528.41
742.124	32571.8
742.464	32479.82
742.804	32532.7
743.143	32323.67
743.483	32465.14
743.823	32276.67
744.162	32226.05
744.502	32362.31
744.841	32186.72
745.181	32126.39
745.52	32107.18
745.86	32111.25
746.199	31913.96
746.538	31891.36
746.877	32019.72
747.216	31918.71
747.556	31758.49
747.895	31747.19
748.234	31501.09
748.573	31445.5
748.911	31462
749.25	31425.39
749.589	31325.28
749.928	31320.76
750.267	31182
750.605	31270.36
750.944	31124.15
751.283	31021.56
751.621	31116.24
751.96	30734.56
752.298	30835.57
752.636	30832.18
752.975	30705.63
753.313	30487.56
753.651	30723.94
753.989	30457.05
754.327	30390.16
754.666	30277.62
755.004	30489.82
755.342	30372.31
755.679	30371.86
756.017	30030.85
756.355	30240.33
756.693	29947.24
757.031	30100.68
757.368	29878.54
757.706	29745.66
758.044	29659.33
758.381	29773
758.719	29523.52
759.056	29562.84
759.394	29421.37
759.731	29253.47
760.068	29210.98
760.405	29095.05
760.743	29043.08
761.08	29131.89
761.417	28967.6
761.754	28864.78
762.091	28785.68
762.428	28624.33
762.765	28658.23
763.102	28634.73
763.438	28462.53
763.775	28229.09
764.112	28354.96
764.449	28255.53
764.785	28096.89
765.122	27962.43
765.458	27965.82
765.795	27902.09
766.131	27819.83
766.467	27702.77
766.804	27505.04
767.14	27382.78
767.476	27375.1
767.812	27336
768.148	27270.7
768.485	27114.54
768.821	26992.06
769.157	26882.91
769.492	26836.58
769.828	26841.33
770.164	26625.97
770.5	26521.56
770.836	26540.55
771.171	26273.21
771.507	26390.94
771.842	26111.63
772.178	26130.39
772.513	25949.6
772.849	25929.49
773.184	25718.42
773.519	25773.33
773.855	25633.9
774.19	25480.91
774.525	25468.03
774.86	25444.53
775.195	25370.86
775.53	25181.48
775.865	25084.54
776.2	24852.45
776.535	24857.43
776.87	24695.62
777.205	24657.43
777.539	24583.76
777.874	24662.18
778.209	24459.02
778.543	24411.11
778.878	24116.2
779.212	24149.2
779.547	24091.34
779.881	24065.81
780.215	23852.71
780.55	23824.91
780.884	23763.67
781.218	23724.35
781.552	23668.98
781.886	23453.39
782.22	23333.85
782.554	23299.73
782.888	23081.65
783.222	23105.38
783.556	22893.64
783.889	22936.12
784.223	22785.84
784.557	22761.89
784.89	22862.22
785.224	22660.42
785.557	22385.17
785.891	22511.27
786.224	22392.86
786.558	22333.42
786.891	22176.59
787.224	22071.74
787.557	21955.81
787.891	21894.57
788.224	21979.08
788.557	21808.01
788.89	21853.66
789.223	21738.64
789.556	21698.64
789.888	21531.86
790.221	21427.69
790.554	21280.8
790.887	21305.65
791.219	21264.3
791.552	21197.86
791.884	21055.72
792.217	21138.88
792.549	20863.18
792.882	20835.61
793.214	20757.42
793.546	20712.9
793.879	20566.69
794.211	20507.94
794.543	20483.53
794.875	20384.55
795.207	20486.47
795.539	20281.73
795.871	20378
796.203	20214.16
796.535	20023.2
796.867	19973.03
797.198	19932.81
797.53	19893.04
797.862	19834.05
798.193	19867.95
798.525	19739.14
798.856	19821.85
799.188	19525.14
799.519	19535.31
799.85	19428.64
800.182	19441.52
800.513	19434.29
800.844	19215.31
801.175	19277.91
801.506	19264.35
801.837	19166.95
802.168	19067.3
802.499	19023.68
802.83	18906.17
803.161	18879.5
803.491	18866.85
803.822	18859.84
804.153	18584.6
804.483	18510.25
804.814	18441.32
805.145	18455.56
805.475	18480.42
805.805	18387.77
806.136	18404.71
806.466	18287.43
806.796	18323.81
807.126	18144.38
807.457	18078.85
807.787	18065.06
808.117	17998.4
808.447	17814.9
808.777	18046.76
809.107	17825.29
809.436	17928.79
809.766	17736.93
810.096	17818.51
810.426	17643.38
810.755	17670.72
811.085	17605.86
811.414	17548.92
811.744	17409.94
812.073	17432.54
812.403	17291.3
812.732	17314.57
813.061	17258.3
813.39	17155.71
813.719	17191.19
814.049	17185.08
814.378	17178.53
814.707	17099.66
815.036	16971.76
815.365	16936.73
815.693	16765.89
816.022	16803.63
816.351	16749.16
816.68	16698.54
817.008	16725.89
817.337	16570.19
817.665	16607.92
817.994	16660.8
818.322	16603.41
818.651	16513.24
818.979	16428.27
819.307	16532.45
819.636	16444.09
819.964	16373.13
820.292	16431.21
820.62	16429.17
820.948	16363.64
821.276	16299.46
821.604	16253.13
821.932	16228.27
822.259	16312.57
822.587	16332.9
822.915	16129.75
823.243	16301.27
823.57	16164.32
823.898	16245.67
824.225	16105.57
824.553	16212.68
824.88	16218.33
825.207	16205.9
825.535	16139.69
825.862	16197.54
826.189	16134.27
826.516	16087.94
826.843	16196.86
827.17	16190.53
827.497	16205
827.824	16172.46
828.151	16180.14
828.478	16101.72
828.805	16155.96
829.131	16025.34
829.458	16104.66
829.785	15998.68
830.111	16007.04
830.438	16156.19
830.764	15976.3
831.09	16088.16
831.417	15982.63
831.743	15924.78
832.069	16039.35
832.395	16024.66
832.722	16042.06
833.048	15985.79
833.374	16013.14
833.7	15942.18
834.026	16053.82
834.351	16009.97
834.677	15935.17
835.003	15904.44
835.329	15927.04
835.654	15841.39
835.98	15759.13
836.306	15869.41
836.631	15832.8
836.956	15858.34
837.282	15752.81
837.607	15778.79
837.932	15694.95
838.258	15678.68
838.583	15566.82
838.908	15517.11
839.233	15620.15
839.558	15524.34
839.883	15449.09
840.208	15462.64
840.533	15440.95
840.858	15487.73
841.182	15441.85
841.507	15454.28
841.832	15282.31
842.156	15315.76
842.481	15283.67
842.805	15210.45
843.13	15122.77
843.454	15148.08
843.778	15094.97
844.103	15126.83
844.427	15089.55
844.751	15135.42
845.075	15017.01
845.399	14878.93
845.723	14868.99
846.047	14873.73
846.371	14716.9
846.695	14712.16
847.019	14584.02
847.343	14528.88
847.666	14497.25
847.99	14437.13
848.313	14399.85
848.637	14261.77
848.96	14343.13
849.284	14279.17
849.607	14123.47
849.931	14144.03
850.254	14049.12
850.577	13977.26
850.9	13913.31
851.223	13910.37
851.546	13859.97
851.869	13716.7
852.192	13784.72
852.515	13619.3
852.838	13533.2
853.161	13612.98
853.483	13488.91
853.806	13462.47
854.129	13459.76
854.451	13393.77
854.774	13424.73
855.096	13356.71
855.419	13207.34
855.741	13190.84
856.063	13163.27
856.385	13161.01
856.708	13069.71
857.03	13092.99
857.352	13102.25
857.674	12930.28
857.996	12948.81
858.318	12842.37
858.64	12806.89
858.961	12791.3
859.283	12760.57
859.605	12610.74
859.926	12791.75
860.248	12679.21
860.57	12606.22
860.891	12651.87
861.212	12578.43
861.534	12453.01
861.855	12457.53
862.176	12498.88
862.498	12469.28
862.819	12480.12
863.14	12400.8
863.461	12419.11
863.782	12306.8
864.103	12381.6
864.424	12261.15
864.745	12295.72
865.065	12254.37
865.386	12205.55
865.707	12197.87
866.027	12252.33
866.348	12154.03
866.668	12201.94
866.989	12123.75
867.309	12055.5
867.63	12072.68
867.95	12007.82
868.27	11958.78
868.59	12038.78
868.91	12066.35
869.23	11932.57
869.55	11939.35
869.87	11984.09
870.19	11868.84
870.51	11857.54
870.83	11850.99
871.15	11804.89
871.469	11714.49
871.789	11796.75
872.109	11818.45
872.428	11768.5
872.748	11792.23
873.067	11795.4
873.386	11751.33
873.706	11629.75
874.025	11618.68
874.344	11596.31
874.663	11623.88
874.982	11608.28
875.301	11568.74
875.62	11540.71
875.939	11542.3
876.258	11549.3
876.577	11527.15
876.896	11457.1
877.214	11406.48
877.533	11480.6
877.852	11351.11
878.17	11418.46
878.489	11463.65
878.807	11409.19
879.125	11360.38
879.444	11318.57
879.762	11242.87
880.08	11251.46
880.398	11156.09
880.716	11140.95
881.034	11207.61
881.352	11203.55
881.67	11174.17
881.988	11092.82
882.306	11180.05
882.624	11118.58
882.941	11043.55
883.259	11069.77
883.577	10956.32
883.894	10994.51
884.212	10940.05
884.529	10914.74
884.846	10938.92
885.164	10922.2
885.481	10838.13
885.798	10853.5
886.115	10755.42
886.432	10752.49
886.75	10724.92
887.067	10800.85
887.383	10685.82
887.7	10687.63
888.017	10644.01
888.334	10611.47
888.651	10577.35
888.967	10546.84
889.284	10550.91
889.6	10479.05
889.917	10411.25
890.233	10440.63
890.55	10424.81
890.866	10343.68
891.182	10319.5
891.498	10318.15
891.815	10267.98
892.131	10218.49
892.447	10249.67
892.763	10166.74
893.079	10203.35
893.395	10080.64
893.71	10098.27
894.026	10092.39
894.342	10059.85
894.657	9996.57
894.973	9965.16
895.289	9956.8
895.604	9932.17
895.92	9925.39
896.235	9780.31
896.55	9766.52
896.865	9717.94
897.181	9781.21
897.496	9771.27
897.811	9663.47
898.126	9602.23
898.441	9618.05
898.756	9581.22
899.071	9497.15
899.386	9592.52
899.7	9511.84
900.015	9514.78
900.33	9355.46
900.644	9322.24
900.959	9361.11
901.273	9268.23
901.588	9273.65
901.902	9229.59
902.216	9159.76
902.531	9138.74
902.845	9071.63
903.159	9105.75
903.473	9076.82
903.787	9045.86
904.101	8986.2
904.415	8993.66
904.729	8934
905.042	8854.23
905.356	8874.12
905.67	8835.7
905.984	8796.15
906.297	8802.48
906.611	8680
906.924	8714.57
907.237	8652.88
907.551	8664.18
907.864	8597.97
908.177	8594.35
908.491	8563.39
908.804	8514.8
909.117	8519.78
909.43	8416.95
909.743	8414.24
910.056	8370.4
910.368	8274.81
910.681	8308.71
910.994	8241.14
911.307	8202.5
911.619	8190.07
911.932	8200.69
912.244	8114.59
912.557	8045.89
912.869	8021.48
913.181	8065.78
913.494	7926.57
913.806	7938.32
914.118	7911.88
914.43	7859
914.742	7884.31
915.054	7821.26
915.366	7812
915.678	7760.93
915.99	7719.35
916.302	7660.59
916.613	7644.54
916.925	7555.96
917.236	7611.1
917.548	7600.25
917.859	7581.5
918.171	7515.06
918.482	7422.18
918.794	7380.14
919.105	7414.04
919.416	7346.93
919.727	7319.13
920.038	7318
920.349	7241.17
920.66	7230.32
920.971	7234.61
921.282	7207.95
921.593	7109.87
921.903	7125.24
922.214	7156.2
922.525	7071.23
922.835	7015.86
923.146	6973.15
923.456	6943.55
923.767	6900.16
924.077	6892.02
924.387	6896.77
924.697	6819.26
925.008	6818.8
925.318	6791.01
925.628	6716.21
925.938	6732.93
926.248	6720.73
926.558	6645.47
926.867	6603.22
927.177	6586.27
927.487	6621.29
927.796	6480.73
928.106	6530.9
928.416	6508.3
928.725	6509.89
929.034	6424.69
929.344	6426.5
929.653	6339.49
929.962	6313.28
930.271	6299.95
930.581	6285.26
930.89	6246.62
931.199	6214.98
931.508	6204.81
931.817	6200.74
932.125	6176.79
932.434	6187.63
932.743	6064.25
933.051	6097.92
933.36	6007.07
933.669	5992.38
933.977	5949.67
934.286	6004.81
934.594	5927.75
934.902	5912.16
935.21	5908.32
935.519	5823.58
935.827	5833.74
936.135	5794.88
936.443	5759.17
936.751	5791.49
937.059	5732.05
937.367	5662
937.674	5720.53
937.982	5656.57
938.29	5635.78
938.597	5648.67
938.905	5583.13
939.213	5550.81
939.52	5562.57
939.827	5550.59
940.135	5490.03
940.442	5467.2
940.749	5481.21
941.056	5377.26
941.363	5343.36
941.67	5372.74
941.977	5343.14
942.284	5288
942.591	5301.1
942.898	5277.38
943.205	5263.14
943.511	5243.25
943.818	5239.86
944.125	5145.4
944.431	5161.22
944.738	5146.76
945.044	5128.68
945.35	5106.53
945.657	5050.71
945.963	5060.88
946.269	5053.43
946.575	4997.16
946.881	4989.7
947.187	4951.96
947.493	4902.02
947.799	4870.38
948.105	4872.41
948.41	4851.62
948.716	4869.48
949.022	4803.49
949.327	4836.93
949.633	4765.98
949.938	4772.08
950.244	4768.01
950.549	4730.05
950.854	4653.44
951.16	4742.02
951.465	4709.25
951.77	4575.02
952.075	4634.23
952.38	4622.7
952.685	4602.59
952.99	4548.13
953.294	4528.24
953.599	4511.97
953.904	4509.26
954.209	4502.93
954.513	4469.26
954.818	4416.83
955.122	4443.72
955.426	4401.47
955.731	4360.56
956.035	4386.78
956.339	4349.04
956.643	4368.25
956.948	4313.11
957.252	4273.33
957.556	4264.29
957.86	4241.24
958.163	4247.35
958.467	4233.56
958.771	4199.66
959.075	4161.25
959.378	4109.95
959.682	4149.04
959.985	4122.15
960.289	4116.5
960.592	4057.97
960.896	4064.3
961.199	4011.65
961.502	3960.12
961.805	3987.92
962.108	4006
962.411	3997.63
962.714	3948.14
963.017	3957.64
963.32	3923.29
963.623	3878.99
963.926	3872.89
964.228	3868.6
964.531	3848.71
964.833	3889.62
965.136	3796.28
965.438	3790.41
965.741	3761.26
966.043	3795.15
966.345	3769.17
966.648	3747.7
966.95	3699.79
967.252	3693.91
967.554	3715.38
967.856	3702.28
968.158	3641.03
968.46	3641.71
968.761	3612.56
969.063	3648.94
969.365	3580.24
969.666	3538.21
969.968	3546.57
970.269	3564.43
970.571	3537.08
970.872	3509.29
971.174	3487.59
971.475	3464.09
971.776	3456.86
972.077	3451.89
972.378	3416.63
972.679	3396.52
972.98	3402.62
973.281	3397.65
973.582	3343.87
973.883	3384.77
974.183	3354.04
974.484	3327.82
974.785	3328.95
975.085	3318.56
975.386	3269.52
975.686	3274.94
975.986	3276.52
976.287	3287.15
976.587	3256.86
976.887	3229.52
977.187	3208.96
977.487	3200.37
977.787	3196.53
978.087	3125.79
978.387	3138.67
978.687	3145.45
978.987	3129.18
979.286	3083.76
979.586	3082.18
979.885	3081.73
980.185	3087.83
980.484	3041.28
980.784	3066.13
981.083	3020.03
981.382	2972.13
981.682	3012.8
981.981	2966.02
982.28	2988.85
982.579	2964.67
982.878	2960.15
983.177	2910.88
983.475	2901.39
983.774	2876.08
984.073	2876.99
984.372	2891
984.67	2893.26
984.969	2834.28
985.267	2820.94
985.566	2832.02
985.864	2785.01
986.162	2780.72
986.461	2776.2
986.759	2741.85
987.057	2728.97
987.355	2764.22
987.653	2753.15
987.951	2726.03
988.249	2686.71
988.547	2662.53
988.844	2673.15
989.142	2701.4
989.44	2649.2
989.737	2645.81
990.035	2618.46
990.332	2615.3
990.63	2596.77
990.927	2562.42
991.224	2560.16
991.521	2590.21
991.819	2557.45
992.116	2526.04
992.413	2501.86
992.71	2527.62
993.006	2516.54
993.303	2488.07
993.6	2501.18
993.897	2451.91
994.193	2460.73
994.49	2413.04
994.787	2437.9
995.083	2413.95
995.379	2373.95
995.676	2400.84
995.972	2375.98
996.268	2358.81
996.565	2363.33
996.861	2326.04
997.157	2312.71
997.453	2345.48
997.749	2317
998.044	2295.08
998.34	2306.61
998.636	2291.47
998.932	2240.85
999.227	2234.74
999.523	2245.14
999.818	2269.32
1000.114	2206.95
1000.409	2225.25
1000.704	2194.74
1001	2170.11
1001.295	2194.52
1001.59	2167.17
1001.885	2138.25
1002.18	2126.27
1002.475	2116.33
1002.77	2082.66
1003.065	2099.15
1003.359	2075.43
1003.654	2085.14
1003.949	2061.87
1004.243	2053.05
1004.538	2057.12
1004.832	2025.94
1005.127	2027.52
1005.421	2029.1
1005.715	2003.34
1006.009	2008.53
1006.304	1994.3
1006.598	1958.82
1006.892	1962.21
1007.186	1935.99
1007.48	1961.08
1007.773	1916.56
1008.067	1903
1008.361	1880.18
1008.655	1907.07
1008.948	1877.92
1009.242	1882.21
1009.535	1847.86
1009.829	1830.91
1010.122	1847.18
1010.415	1818.26
1010.708	1807.86
1011.001	1794.08
1011.295	1798.37
1011.588	1746.39
1011.881	1784.59
1012.173	1766.06
1012.466	1765.6
1012.759	1748.43
1013.052	1738.26
1013.344	1731.03
1013.637	1696.45
1013.93	1685.15
1014.222	1677.02
1014.514	1702.33
1014.807	1649.9
1015.099	1670.24
1015.391	1666.85
1015.683	1639.73
1015.976	1634.08
1016.268	1637.7
1016.56	1636.57
1016.851	1616.68
1017.143	1587.08
1017.435	1569.68
1017.727	1573.97
1018.018	1550.02
1018.31	1537.81
1018.602	1528.55
1018.893	1529.9
1019.185	1516.12
1019.476	1497.81
1019.767	1495.55
1020.058	1526.06
1020.35	1466.63
1020.641	1452.62
1020.932	1478.61
1021.223	1441.54
1021.514	1441.54
1021.804	1412.84
1022.095	1427.31
1022.386	1416.69
1022.677	1389.79
1022.967	1401.77
1023.258	1384.82
1023.548	1371.49
1023.839	1333.98
1024.129	1372.17
1024.419	1372.39
1024.709	1316.58
1025	1337.82
1025.29	1312.96
1025.58	1300.98
1025.87	1292.85
1026.16	1267.99
1026.449	1303.69
1026.739	1259.4
1027.029	1268.89
1027.319	1272.51
1027.608	1261.44
1027.898	1254.2
1028.187	1246.52
1028.477	1256.92
1028.766	1217.82
1029.055	1220.08
1029.344	1228.44
1029.634	1198.16
1029.923	1185.51
1030.212	1190.25
1030.501	1191.16
1030.79	1158.61
1031.078	1148.44
1031.367	1143.7
1031.656	1160.65
1031.945	1144.38
1032.233	1117.71
1032.522	1127.65
1032.81	1109.8
1033.099	1095.79
1033.387	1103.93
1033.675	1105.28
1033.963	1066.64
1034.251	1064.83
1034.54	1060.31
1034.828	1048.79
1035.116	1060.76
1035.403	1053.98
1035.691	1053.76
1035.979	1016.47
1036.267	1017.83
1036.554	1039.97
1036.842	1003.36
1037.129	1006.08
1037.417	1000.2
1037.704	1001.78
1037.992	998.39
1038.279	977.83
1038.566	960.88
1038.853	960.88
1039.14	960.88
