Data from plate_ceramic_FLMS001491_061.txt Node
Date: Tue Feb 07 11:17:07 GMT 2017
User: dcchb
Spectrometer: FLMS00149
Trigger mode: 0
Integration Time (sec): 2.000000E-2
Scans to average: 10
Electric dark correction enabled: true
Nonlinearity correction enabled: false
Boxcar width: 0
XAxis mode: Wavelengths
Number of Pixels in Spectrum: 2048
>>>>>Begin Spectral Data<<<<<
341.393	-10.54
341.776	-10.54
342.16	-10.54
342.543	-60.25
342.927	-63.87
343.31	-64.55
343.693	-65.45
344.077	-63.42
344.46	-37.43
344.843	-49.86
345.226	-40.59
345.61	-18.9
345.993	-34.04
346.376	-16.19
346.759	15
347.142	12.51
347.525	49.35
347.908	50.03
348.291	67.88
348.674	92.29
349.057	103.36
349.44	122.79
349.823	127.54
350.206	177.71
350.588	212.96
350.971	243.69
351.354	242.56
351.737	249.8
352.119	285.05
352.502	277.59
352.884	293.41
353.267	301.32
353.65	308.55
354.032	306.52
354.414	306.52
354.797	339.96
355.179	338.61
355.562	330.02
355.944	340.87
356.326	353.75
356.709	348.78
357.091	363.47
357.473	352.17
357.855	350.13
358.238	361.21
358.62	389
359.002	351.04
359.384	375.67
359.766	361.88
360.148	368.66
360.53	355.1
360.912	375.44
361.294	369.11
361.676	386.06
362.057	348.32
362.439	366.18
362.821	352.39
363.203	374.54
363.584	374.31
363.966	367.98
364.348	372.96
364.729	351.49
365.111	370.02
365.493	353.97
365.874	375.89
366.256	364.82
366.637	341.32
367.019	362.79
367.4	346.74
367.781	362.11
368.163	359.85
368.544	371.15
368.925	359.62
369.306	363.47
369.688	351.71
370.069	383.58
370.45	373.41
370.831	370.02
371.212	351.49
371.593	374.76
371.974	363.47
372.355	379.96
372.736	361.88
373.117	353.3
373.498	376.35
373.879	371.6
374.26	388.32
374.641	356.91
375.021	370.24
375.402	397.81
375.783	399.62
376.163	405.05
376.544	405.27
376.925	392.84
377.305	401.2
377.686	400.98
378.066	404.59
378.447	421.32
378.827	390.58
379.208	419.28
379.588	414.54
379.968	424.93
380.349	418.38
380.729	429.45
381.109	443.24
381.489	427.42
381.87	444.82
382.25	434.65
382.63	428.32
383.01	449.79
383.39	462.45
383.77	460.19
384.15	436.91
384.53	454.31
384.91	456.34
385.29	464.25
385.67	484.82
386.049	479.85
386.429	485.95
386.809	481.2
387.189	483.24
387.568	488.43
387.948	472.84
388.328	470.13
388.707	499.05
389.087	512.61
389.466	511.94
389.846	515.33
390.225	529.79
390.605	499.96
390.984	544.25
391.363	544.25
391.743	545.83
392.122	545.83
392.501	549.9
392.881	564.59
393.26	563.01
393.639	592.84
394.018	578.83
394.397	590.35
394.776	589
395.155	583.57
395.534	607.3
395.913	606.85
396.292	608.2
396.671	624.7
397.05	627.19
397.429	623.35
397.808	634.42
398.186	629.22
398.565	645.49
398.944	662.89
399.323	635.1
399.701	654.08
400.08	661.54
400.458	636.68
400.837	661.99
401.215	659.73
401.594	665.83
401.972	687.07
402.351	698.15
402.729	682.33
403.107	708.99
403.486	722.55
403.864	722.1
404.242	728.43
404.62	759.16
404.999	745.6
405.377	763.45
405.755	760.97
406.133	786.73
406.511	756.45
406.889	787.86
407.267	777.47
407.645	808.2
408.023	816.33
408.401	807.3
408.779	832.38
409.156	848.65
409.534	856.56
409.912	875.77
410.29	881.64
410.667	903.11
411.045	882.55
411.422	897.91
411.8	904.02
412.178	946.95
412.555	962.32
412.933	980.4
413.31	990.79
413.687	984.24
414.065	970
414.442	987.18
414.819	978.82
415.197	1028.08
415.574	1052.03
415.951	1037.57
416.328	1042.77
416.705	1074.86
417.082	1081.86
417.46	1081.41
417.837	1094.75
418.214	1104.69
418.591	1123.22
418.967	1120.96
419.344	1135.87
419.721	1156.66
420.098	1150.79
420.475	1179.04
420.852	1204.35
421.228	1194.63
421.605	1198.25
421.982	1225.14
422.358	1230.79
422.735	1267.4
423.111	1285.02
423.488	1309.2
423.864	1290.22
424.241	1316.21
424.617	1334.51
424.994	1344.46
425.37	1336.55
425.746	1336.77
426.123	1372.25
426.499	1383.33
426.875	1404.57
427.251	1411.12
427.627	1455.87
428.003	1496.09
428.379	1475.3
428.756	1485.92
429.132	1534.28
429.507	1524.56
429.883	1552.36
430.259	1582.87
430.635	1569.76
431.011	1608.63
431.387	1645.01
431.763	1688.4
432.138	1687.05
432.514	1700.38
432.89	1734.28
433.265	1736.08
433.641	1788.06
434.016	1752.36
434.392	1827.61
434.767	1852.47
435.143	1818.79
435.518	1877.1
435.894	1876.87
436.269	1913.03
436.644	1916.87
437.02	1950.99
437.395	1933.82
437.77	1988.28
438.145	2032.57
438.52	2062.18
438.895	2052.91
439.271	2073.93
439.646	2094.72
440.021	2138.56
440.395	2122.29
440.77	2139.46
441.145	2166.58
441.52	2205.45
441.895	2225.56
442.27	2223.3
442.645	2247.94
443.019	2256.97
443.394	2291.55
443.769	2290.87
444.143	2243.64
444.518	2336.52
444.892	2317.76
445.267	2356.18
445.641	2353.47
446.016	2384.65
446.39	2423.75
446.764	2411.77
447.139	2428.04
447.513	2482.96
447.887	2436.18
448.262	2474.82
448.636	2455.16
449.01	2547.81
449.384	2561.37
449.758	2573.12
450.132	2600.02
450.506	2609.06
450.88	2619.22
451.254	2621.26
451.628	2705.55
452.002	2722.27
452.376	2763.18
452.75	2777.64
453.123	2788.94
453.497	2836.62
453.871	2865.32
454.244	2893.12
454.618	2920.01
454.992	2976.73
455.365	2924.75
455.739	3050.85
456.112	3073.45
456.486	3100.79
456.859	3115.26
457.232	3204.97
457.606	3186.67
457.979	3235.25
458.352	3357.96
458.725	3369.71
459.099	3365.42
459.472	3490.16
459.845	3481.35
460.218	3474.8
460.591	3516.38
460.964	3536.49
461.337	3596.15
461.71	3657.16
462.083	3802.92
462.456	3743.49
462.829	3783.26
463.201	3834.33
463.574	3851.28
463.947	3943.71
464.32	4030.71
464.692	4035.91
465.065	4072.07
465.438	4153.2
465.81	4231.39
466.183	4210.82
466.555	4346.86
466.928	4382.34
467.3	4379.63
467.672	4424.15
468.045	4596.12
468.417	4542.34
468.789	4597.93
469.161	4702.33
469.534	4801.09
469.906	4857.58
470.278	4874.76
470.65	4963.12
471.022	5011.48
471.394	5103.91
471.766	5161.3
472.138	5244.69
472.51	5332.15
472.882	5457.34
473.253	5419.6
473.625	5527.17
473.997	5692.36
474.369	5706.15
474.74	5813.49
475.112	5876.99
475.484	6007.84
475.855	6079.02
476.227	6143.65
476.598	6327.15
476.97	6407.83
477.341	6519.69
477.713	6585
478.084	6633.36
478.455	6845.33
478.827	6897.76
479.198	7116.96
479.569	7099.56
479.94	7384.07
480.311	7402.38
480.682	7622.94
481.053	7785.19
481.424	7820.9
481.795	7932.31
482.166	8014.79
482.537	8181.11
482.908	8329.58
483.279	8481.44
483.65	8640.99
484.021	8775.67
484.391	8912.39
484.762	8965.95
485.133	9053.63
485.503	9148.77
485.874	9369.56
486.244	9481.87
486.615	9643.45
486.985	9726.38
487.356	9923.89
487.726	10057.9
488.097	10265.58
488.467	10281.17
488.837	10531.33
489.207	10620.6
489.578	10797.09
489.948	10899.91
490.318	11037.08
490.688	11042.96
491.058	11264.87
491.428	11378.09
491.798	11514.13
492.168	11744.86
492.538	11783.96
492.908	11975.82
493.278	12150.73
493.648	12168.35
494.017	12337.84
494.387	12434.79
494.757	12630.04
495.126	12712.29
495.496	12712.97
495.866	12855.79
496.235	13072.74
496.605	13151.6
496.974	13198.16
497.344	13334.65
497.713	13415.1
498.082	13464.36
498.452	13677.69
498.821	13710.01
499.19	13716.56
499.559	13913.17
499.928	14046.95
500.298	14216.66
500.667	14242.42
501.036	14299.14
501.405	14430.89
501.774	14514.73
502.143	14646.48
502.512	14728.51
502.88	14855.06
503.249	14941.84
503.618	14917.43
503.987	15106.81
504.356	15164.21
504.724	15255.5
505.093	15454.82
505.462	15433.13
505.83	15606.91
506.199	15746.11
506.567	15891.64
506.936	15994.01
507.304	16090.96
507.672	16206.66
508.041	16298.64
508.409	16413.89
508.777	16639.42
509.145	16684.39
509.514	16775.69
509.882	16826.08
510.25	16995.12
510.618	17090.03
510.986	17164.83
511.354	17438.95
511.722	17516.01
512.09	17630.81
512.458	17696.79
512.826	17820.18
513.193	17933.17
513.561	17925.94
513.929	18179.72
514.297	18341.98
514.664	18527.73
515.032	18673.72
515.4	18786.48
515.767	18869.65
516.135	19031.45
516.502	19012.24
516.869	19226.92
517.237	19407.26
517.604	19381.04
517.972	19734.71
518.339	19752.11
518.706	19835.72
519.073	19969.96
519.44	20093.57
519.808	20247.46
520.175	20442.03
520.542	20770.39
520.909	20838.41
521.276	20867.78
521.643	20984.84
522.009	21084.95
522.376	21324.95
522.743	21414.44
523.11	21719.29
523.477	21958.6
523.843	22025.49
524.21	22313.85
524.577	22364.02
524.943	22652.37
525.31	22722.43
525.676	22827.06
526.043	23002.19
526.409	23116.31
526.776	23401.05
527.142	23497.09
527.508	23794.94
527.874	23862.06
528.241	24025.89
528.607	24076.06
528.973	24371.2
529.339	24362.38
529.705	24516.73
530.071	24811.41
530.437	24949.71
530.803	25152.19
531.169	25263.83
531.535	25332.3
531.901	25354.9
532.267	25418.4
532.632	25683.48
532.998	25886.41
533.364	26077.14
533.73	26185.38
534.095	26326.17
534.461	26514.42
534.826	26582.44
535.192	26722.09
535.557	26980.39
535.923	26944.01
536.288	27143.33
536.653	27264.9
537.019	27229.43
537.384	27319.82
537.749	27500.83
538.114	27640.49
538.479	27519.14
538.845	27835.29
539.21	27847.94
539.575	28003.19
539.94	28029.4
540.305	28235.73
540.67	28214.48
541.034	28327.48
541.399	28603.85
541.764	28565.44
542.129	28756.84
542.494	28717.3
542.858	28850.17
543.223	28988.25
543.587	29100.34
543.952	29209.26
544.316	29185.31
544.681	29364.06
545.045	29516.37
545.41	29623.94
545.774	29722.69
546.138	29675.91
546.503	29960.88
546.867	29956.36
547.231	30202.68
547.595	30244.26
547.959	30338.04
548.324	30328.33
548.688	30630.47
549.052	30719.95
549.416	30722.21
549.779	30902.55
550.143	31028.42
550.507	31105.26
550.871	31356.1
551.235	31225.93
551.599	31479.71
551.962	31459.37
552.326	31686.03
552.689	32010.77
553.053	31972.8
553.417	31933.93
553.78	32333.47
554.143	32259.58
554.507	32358.33
554.87	32491.43
555.234	32742.5
555.597	32692.11
555.96	33123.06
556.323	33148.14
556.686	33162.83
557.05	33491.63
557.413	33532.99
557.776	33648.47
558.139	33907.67
558.502	33984.05
558.865	34053.65
559.228	34315.57
559.59	34403.02
559.953	34442.79
560.316	34886.85
560.679	34813.18
561.041	35089.33
561.404	35122.1
561.767	35445.93
562.129	35457.01
562.492	35743.78
562.854	35885.02
563.217	36038.23
563.579	36050.89
563.941	36286.36
564.304	36466.7
564.666	36666.92
565.028	36773.13
565.39	36901.94
565.753	37017.64
566.115	37309.16
566.477	37429.16
566.839	37534.24
567.201	37730.84
567.563	37741.47
567.925	37990.95
568.287	38105.3
568.648	38070.72
569.01	38325.63
569.372	38566.98
569.734	38461.45
570.095	38808.33
570.457	39037.93
570.819	39036.57
571.18	38937.82
571.542	39380.07
571.903	39550.23
572.265	39522.66
572.626	39601.76
572.987	39823.22
573.349	39910.45
573.71	40130.1
574.071	40006.72
574.432	40171.01
574.794	40469.08
575.155	40423.43
575.516	40434.28
575.877	40756.3
576.238	40729.64
576.599	40874.26
576.96	40836.3
577.32	40969.63
577.681	41093.02
578.042	41203.97
578.403	41171.88
578.763	41312.67
579.124	41353.8
579.485	41478.77
579.845	41614.13
580.206	41625.66
580.566	41545.89
580.927	41632.44
581.287	41677.18
581.648	41716.95
582.008	41797.4
582.368	41699.1
582.728	41874.69
583.089	41794.69
583.449	41799.89
583.809	41891.19
584.169	42001.01
584.529	41930.06
584.889	42182.93
585.249	41858.87
585.609	41817.74
585.969	41991.07
586.329	41977.96
586.688	42125.98
587.048	42124.85
587.408	42082.59
587.768	42302.25
588.127	41916.95
588.487	42052.99
588.846	42307.45
589.206	42039.66
589.565	42209.82
589.925	42239.43
590.284	42115.36
590.643	42190.61
591.003	42368.69
591.362	42466.31
591.721	42370.72
592.08	42429.48
592.44	42456.37
592.799	42463.38
593.158	42465.18
593.517	42351.29
593.876	42464.28
594.235	42382.47
594.593	42562.58
594.952	42582.47
595.311	42354
595.67	42634.44
596.029	42791.28
596.387	42721
596.746	42809.13
597.104	42591.28
597.463	42587.44
597.822	42808.68
598.18	42811.39
598.538	42632.86
598.897	42917.37
599.255	42700.66
599.613	43255.22
599.972	42960.99
600.33	43057.48
600.688	42811.61
601.046	43141.55
601.404	43280.98
601.762	43103.13
602.12	43236.46
602.478	43219.51
602.836	43345.61
603.194	43232.85
603.552	43184.94
603.91	43129.35
604.268	43308.32
604.625	43249.8
604.983	43460.86
605.341	43311.71
605.698	43510.81
606.056	43609.33
606.413	43583.8
606.771	43766.84
607.128	43758.93
607.485	43608.43
607.843	43661.54
608.2	43995.54
608.557	43959.38
608.914	43762.32
609.272	43890.68
609.629	43972.71
609.986	44158.02
610.343	43932.94
610.7	44230.11
611.057	44279.15
611.414	44154.63
611.771	44431.68
612.127	44609.99
612.484	44405.47
612.841	44580.38
613.198	44300.16
613.554	44461.51
613.911	44713.71
614.267	44575.64
614.624	44655.86
614.98	44652.02
615.337	44890.43
615.693	44899.24
616.05	44715.07
616.406	44912.12
616.762	44983.31
617.118	44908.73
617.475	44891.33
617.831	44906.7
618.187	45112.8
618.543	45016.98
618.899	45301.49
619.255	45104.21
619.611	45128.84
619.967	45229.18
620.323	45378.33
620.678	45183.08
621.034	45267.37
621.39	45146.47
621.746	45068.28
622.101	45535.84
622.457	45153.7
622.812	45260.59
623.168	45261.49
623.523	45199.57
623.879	45484.31
624.234	45261.72
624.589	45381.04
624.945	45317.54
625.3	45266.69
625.655	45342.4
626.01	45453.13
626.365	45560.92
626.72	45418.33
627.075	45484.99
627.43	45242.06
627.785	45233.7
628.14	45326.12
628.495	45410.42
628.85	45306.69
629.205	45108.5
629.559	45408.61
629.914	45131.1
630.269	45155.96
630.623	45078.9
630.978	44919.58
631.332	45151.67
631.687	45137.43
632.041	45037.32
632.396	45087.03
632.75	44819.7
633.104	44817.44
633.459	44845.69
633.813	44784.44
634.167	44743.32
634.521	44781.73
634.875	44816.31
635.229	44701.96
635.583	44540.61
635.937	44590.78
636.291	44457.9
636.645	44446.15
636.999	44204.8
637.352	44454.96
637.706	44263.55
638.06	44337
638.413	44253.61
638.767	44216.78
639.121	44298.36
639.474	43880.74
639.828	43950.34
640.181	43985.82
640.534	44027.4
640.888	43921.42
641.241	43634.19
641.594	43758.03
641.947	43979.95
642.301	43714.42
642.654	43834.19
643.007	43624.02
643.36	43606.85
643.713	43629.67
644.066	43720.07
644.419	43461.54
644.771	43070.14
645.124	42687.55
645.477	42675.12
645.83	42325.53
646.182	42166.89
646.535	42066.55
646.888	42310.16
647.24	42052.31
647.593	42401
647.945	42227.9
648.298	42123.5
648.65	42053.22
649.002	41920.79
649.355	41922.6
649.707	41915.59
650.059	42045.76
650.411	42491.4
650.763	42428.12
651.115	42861.78
651.467	42616.59
651.819	42752.18
652.171	42598.06
652.523	42543.15
652.875	42589.47
653.227	42451.85
653.578	42629.7
653.93	42540.44
654.282	42367.56
654.633	42192.87
654.985	42418.18
655.337	42450.04
655.688	42417.05
656.039	42400.1
656.391	42009.6
656.742	42243.72
657.094	42238.3
657.445	42135.7
657.796	42037.62
658.147	42087.79
658.498	41914.01
658.849	42102.71
659.2	41974.57
659.551	42020.67
659.902	42080.56
660.253	41947.23
660.604	41871.98
660.955	41806.22
661.306	41963.95
661.656	41712.21
662.007	41877.18
662.358	41822.49
662.708	41762.83
663.059	41793.56
663.409	41491.42
663.76	41697.97
664.11	41733
664.461	41721.25
664.811	41731.87
665.161	41717.41
665.511	41591.31
665.862	41579.1
666.212	41701.81
666.562	41758.99
666.912	41672.89
667.262	41661.81
667.612	41605.77
667.962	41520.12
668.312	41340.92
668.662	41615.71
669.011	41527.58
669.361	41462.72
669.711	41469.73
670.06	41284.42
670.41	41295.72
670.76	41175.05
671.109	41462.27
671.459	41284.2
671.808	41174.6
672.157	41175.27
672.507	41029.97
672.856	41074.03
673.205	41097.99
673.554	41184.09
673.904	41036.07
674.253	41270.86
674.602	41155.84
674.951	40532.13
675.3	40411.23
675.649	40935.96
675.998	40942.74
676.346	40967.14
676.695	40975.96
677.044	40932.57
677.393	40841.04
677.741	41009.63
678.09	40667.26
678.438	40683.31
678.787	40712.46
679.135	40808.73
679.484	40621.39
679.832	40781.39
680.181	40411.9
680.529	40463.43
680.877	40220.95
681.225	40350.66
681.573	40378.68
681.922	40355.86
682.27	40189.08
682.618	40225.02
682.966	40147.73
683.314	40207.62
683.661	39855.08
684.009	39820.05
684.357	39660.28
684.705	39648.99
685.053	39679.95
685.4	39702.32
685.748	39604.92
686.095	39535.32
686.443	39397.69
686.79	39352.72
687.138	39284.48
687.485	39412.61
687.832	39085.61
688.18	39313.18
688.527	39041.32
688.874	38954.31
689.221	38838.16
689.568	38666.86
689.915	38653.76
690.262	38569.47
690.609	38615.79
690.956	38475.01
691.303	38425.06
691.65	38214.22
691.997	38218.29
692.344	38096.71
692.69	38044.28
693.037	38160.44
693.383	37856.94
693.73	37921.35
694.077	37750.96
694.423	37690.85
694.769	37592.77
695.116	37491.53
695.462	37527.23
695.808	37311.42
696.155	37370.63
696.501	36922.73
696.847	37141.26
697.193	36699.91
697.539	36885.44
697.885	36590.08
698.231	36555.96
698.577	36643.87
698.923	36567.48
699.269	36275.52
699.614	36037.1
699.96	36087.5
700.306	36206.59
700.651	35966.14
700.997	35848.86
701.342	35774.96
701.688	35699.03
702.033	35558.7
702.379	35536.78
702.724	35437.8
703.069	35512.37
703.415	35137.92
703.76	35201.19
704.105	35128.88
704.45	34867.19
704.795	34773.86
705.14	34720.3
705.485	34606.41
705.83	34623.13
706.175	34667.87
706.52	34545.62
706.865	34248
707.209	34308.56
707.554	34175.46
707.899	34219.52
708.243	34066.99
708.588	34178.17
708.932	33971.17
709.277	33737.05
709.621	33735.24
709.966	33661.57
710.31	33668.35
710.654	33381.58
710.998	33485.08
711.342	33449.83
711.687	33513.55
712.031	33287.35
712.375	33243.73
712.719	33159.44
713.063	33097.07
713.407	33084.64
713.75	32980.46
714.094	32889.39
714.438	32730.52
714.782	32856.62
715.125	32731.43
715.469	32696.63
715.812	32513.35
716.156	32444.43
716.499	32507.48
716.843	32502.28
717.186	32185.45
717.53	32392
717.873	32254.15
718.216	32223.64
718.559	32087.6
718.902	31922.64
719.246	32045.34
719.589	31963.31
719.932	31781.4
720.275	31837.21
720.617	31717.67
720.96	31677.44
721.303	31713.15
721.646	31608.07
721.989	31312.48
722.331	31536.43
722.674	31434.51
723.016	31436.55
723.359	31320.17
723.701	31278.36
724.044	31073.39
724.386	31001.98
724.729	31173.5
725.071	30985.71
725.413	31072.71
725.755	30958.59
726.097	30747.52
726.439	30564.93
726.782	30851.02
727.124	30835.43
727.465	30667.08
727.807	30543.69
728.149	30521.09
728.491	30470.7
728.833	30523.8
729.175	30277.93
729.516	30407.19
729.858	30216.24
730.199	30377.59
730.541	30220.53
730.882	30218.27
731.224	30290.14
731.565	30082.68
731.906	30033.65
732.248	30063.93
732.589	29886.76
732.93	29687.67
733.271	29784.39
733.612	29852.41
733.953	29846.76
734.294	29647.21
734.635	29697.61
734.976	29709.13
735.317	29480.89
735.658	29548.01
735.999	29679.08
736.339	29465.52
736.68	29552.75
737.021	29431.85
737.361	29339.65
737.702	29375.36
738.042	29156.83
738.383	29264.17
738.723	29186.44
739.063	29168.58
739.404	29220.79
739.744	28975.82
740.084	29005.2
740.424	28952.32
740.764	28964.52
741.104	29063.28
741.444	28818.31
741.784	28687.92
742.124	28835.71
742.464	28722.27
742.804	28666.45
743.143	28507.36
743.483	28672.55
743.823	28569.73
744.162	28452.44
744.502	28499.67
744.841	28366.57
745.181	28445.66
745.52	28277.08
745.86	28215.84
746.199	28105.56
746.538	28086.58
746.877	28083.87
747.216	28096.97
747.556	27946.24
747.895	27929.75
748.234	27706.47
748.573	27864.89
748.911	27813.36
749.25	27806.36
749.589	27653.37
749.928	27784.44
750.267	27673.26
750.605	27648.4
750.944	27484.11
751.283	27442.08
751.621	27393.04
751.96	27309.42
752.298	27261.97
752.636	27201.63
752.975	27099.26
753.313	27080.28
753.651	27123.67
753.989	26937.91
754.327	27092.25
754.666	26855.88
755.004	26913.05
755.342	26841.41
755.679	26785.82
756.017	26520.07
756.355	26712.38
756.693	26447.3
757.031	26494.76
757.368	26374.53
757.706	26447.07
758.044	26349.67
758.381	26194.42
758.719	26344.02
759.056	26178.83
759.394	26117.14
759.731	25932.74
760.068	25904.26
760.405	25758.5
760.743	25699.3
761.08	25769.12
761.417	25546.98
761.754	25439.19
762.091	25451.39
762.428	25410.49
762.765	25172.76
763.102	25318.74
763.438	25283.71
763.775	25025.64
764.112	25044.4
764.449	24955.81
764.785	24830.39
765.122	24708.81
765.458	24657.97
765.795	24613
766.131	24638.08
766.467	24464.53
766.804	24234.02
767.14	24198.32
767.476	24093.24
767.812	24166.91
768.148	24185.44
768.485	24081.26
768.821	23815.05
769.157	23911.55
769.492	23702.06
769.828	23814.15
770.164	23519.24
770.5	23516.98
770.836	23519.69
771.171	23402.18
771.507	23363.09
771.842	23202.41
772.178	23222.07
772.513	22957.45
772.849	22893.95
773.184	22766.04
773.519	22786.6
773.855	22668.42
774.19	22577.8
774.525	22530.57
774.86	22419.61
775.195	22428.2
775.53	22307.52
775.865	22201.76
776.2	22050.8
776.535	21879.74
776.87	21904.59
777.205	21869.34
777.539	21799.29
777.874	21752.96
778.209	21475.45
778.543	21515
778.878	21498.5
779.212	21511.84
779.547	21281.11
779.881	21336.25
780.215	21218.74
780.55	21219.41
780.884	21036.82
781.218	20909.82
781.552	20968.8
781.886	20871.17
782.22	20764.06
782.554	20645.42
782.888	20464.86
783.222	20387.8
783.556	20413.56
783.889	20338.31
784.223	20171.98
784.557	20058.09
784.89	20044.3
785.224	20038.2
785.557	19952.33
785.891	19818.32
786.224	19746.46
786.558	19818.09
786.891	19612
787.224	19629.4
787.557	19550.53
787.891	19466.01
788.224	19491.78
788.557	19384.66
788.89	19453.81
789.223	19328.62
789.556	19204.33
789.888	19173.59
790.221	19054.95
790.554	18879.81
790.887	18965.91
791.219	18774.28
791.552	18823.77
791.884	18685.47
792.217	18689.99
792.549	18563.66
792.882	18447.06
793.214	18313.73
793.546	18379.49
793.879	18312.37
794.211	18031.48
794.543	18218.81
794.875	18181.75
795.207	18213.84
795.539	18044.58
795.871	18027.63
796.203	17897.92
796.535	17766.4
796.867	17721.65
797.198	17739.28
797.53	17623.8
797.862	17605.5
798.193	17596.68
798.525	17515.56
798.856	17510.13
799.188	17342.23
799.519	17307.88
799.85	17156.92
800.182	17182.23
800.513	17135.68
800.844	16914.67
801.175	17132.74
801.506	17052.07
801.837	16915.12
802.168	16907.21
802.499	16820.21
802.83	16711.28
803.161	16745.86
803.491	16635.13
803.822	16689.59
804.153	16573.66
804.483	16550.61
804.814	16415.25
805.145	16356.26
805.475	16467.22
805.805	16350.16
806.136	16301.58
806.466	16331.86
806.796	16280.56
807.126	16147.23
807.457	16126.21
807.787	16078.76
808.117	15930.97
808.447	15805.09
808.777	15900.68
809.107	15852.32
809.436	15759.22
809.766	15800.8
810.096	15724.42
810.426	15697.3
810.755	15601.26
811.085	15616.85
811.414	15481.71
811.744	15405.78
812.073	15389.06
812.403	15294.6
812.732	15413.69
813.061	15331.66
813.39	15159.91
813.719	15215.73
814.049	15261.6
814.378	15220.7
814.707	15079.01
815.036	15068.39
815.365	15053.02
815.693	14924.66
816.022	14963.31
816.351	14840.37
816.68	14849.19
817.008	14851.22
817.337	14655.97
817.665	14628.4
817.994	14739.36
818.322	14629.3
818.651	14674.95
818.979	14594.73
819.307	14548.85
819.636	14555.18
819.964	14451.91
820.292	14448.97
820.62	14496.43
820.948	14415.98
821.276	14499.14
821.604	14418.46
821.932	14402.19
822.259	14351.57
822.587	14476.54
822.915	14330.33
823.243	14436.09
823.57	14468.18
823.898	14347.28
824.225	14380.27
824.553	14334.17
824.88	14251.69
825.207	14330.78
825.535	14336.43
825.862	14413.27
826.189	14376.66
826.516	14412.81
826.843	14408.29
827.17	14469.76
827.497	14411.46
827.824	14415.52
828.151	14386.83
828.478	14308.86
828.805	14378.24
829.131	14318.58
829.458	14261.18
829.785	14207.85
830.111	14271.8
830.438	14396.54
830.764	14291.91
831.09	14301.86
831.417	14265.25
831.743	14266.6
832.069	14239.94
832.395	14138.24
832.722	14217.11
833.048	14173.5
833.374	14137.79
833.7	14125.82
834.026	14157.9
834.351	14207.17
834.677	14108.19
835.003	14126.72
835.329	14180.73
835.654	14115.87
835.98	13985.48
836.306	13992.49
836.631	13990.9
836.956	14093.73
837.282	14018.47
837.607	13938.48
837.932	13942.77
838.258	13923.56
838.583	13919.04
838.908	13860.51
839.233	13804.47
839.558	13766.5
839.883	13723.34
840.208	13685.6
840.533	13693.28
840.858	13800.4
841.182	13755.88
841.507	13728.31
841.832	13683.34
842.156	13610.12
842.481	13581.42
842.805	13548.66
843.13	13555.21
843.454	13472.5
843.778	13457.58
844.103	13394.31
844.427	13370.81
844.751	13438.83
845.075	13337.59
845.399	13300.07
845.723	13256.69
846.047	13313.63
846.371	13160.19
846.695	13086.07
847.019	12999.29
847.343	12914.1
847.666	12844.04
847.99	12787.32
848.313	12726.76
848.637	12630.04
848.96	12728.79
849.284	12753.87
849.607	12531.73
849.931	12556.14
850.254	12437.5
850.577	12445.41
850.9	12316.82
851.223	12303.04
851.546	12315.69
851.869	12181.23
852.192	12253.55
852.515	12160.89
852.838	12066.66
853.161	12074.34
853.483	11911.86
853.806	11917.74
854.129	11919.09
854.451	11926.78
854.774	11859.43
855.096	11758.87
855.419	11819.21
855.741	11765.43
856.063	11727.01
856.385	11630.06
856.708	11681.36
857.03	11604.75
857.352	11471.87
857.674	11480.91
857.996	11488.37
858.318	11413.34
858.64	11376.96
858.961	11367.02
859.283	11309.39
859.605	11279.11
859.926	11299.45
860.248	11196.4
860.57	11254.93
860.891	11173.8
861.212	11114.59
861.534	11150.07
861.855	11111.21
862.176	11150.75
862.498	11103.52
862.819	11134.26
863.14	11041.83
863.461	10998.44
863.782	11004.99
864.103	11008.83
864.424	10924.54
864.745	10997.08
865.065	10894.49
865.386	10831.21
865.707	10869.86
866.027	10905.79
866.348	10884.32
866.668	10835.28
866.989	10812.23
867.309	10665.12
867.63	10795.96
867.95	10764.55
868.27	10629.86
868.59	10713.02
868.91	10630.99
869.23	10716.64
869.55	10580.15
869.87	10613.59
870.19	10653.82
870.51	10596.19
870.83	10676.87
871.15	10479.81
871.469	10495.4
871.789	10468.74
872.109	10512.35
872.428	10366.59
872.748	10466.02
873.067	10371.34
873.386	10427.16
873.706	10399.59
874.025	10332.02
874.344	10366.82
874.663	10361.39
874.982	10305.58
875.301	10320.27
875.62	10321.4
875.939	10241.85
876.258	10206.82
876.577	10163.89
876.896	10240.49
877.214	10047.28
877.533	10161.85
877.852	10111.46
878.17	10111.91
878.489	10141.74
878.807	10180.38
879.125	10118.24
879.444	10057.67
879.762	9986.26
880.08	10063.1
880.398	10037.79
880.716	10022.42
881.034	9969.99
881.352	9983.78
881.67	9953.95
881.988	10035.75
882.306	9937.45
882.624	9916.43
882.941	9796.89
883.259	9783.78
883.577	9765.48
883.894	9794.63
884.212	9801.41
884.529	9741.98
884.846	9719.83
885.164	9666.27
885.481	9647.51
885.798	9754.18
886.115	9624.24
886.432	9593.5
886.75	9588.31
887.067	9600.74
887.383	9520.74
887.7	9557.8
888.017	9503.56
888.334	9462.66
888.651	9450.46
888.967	9388.09
889.284	9403.91
889.6	9318.71
889.917	9274.19
890.233	9334.53
890.55	9254.08
890.866	9276.23
891.182	9254.53
891.498	9184.02
891.815	9145.38
892.131	9135.66
892.447	9016.34
892.763	9083.24
893.079	9065.16
893.395	9029.23
893.71	9024.03
894.026	8963.01
894.342	8949.45
894.657	8904.48
894.973	8867.65
895.289	8848.44
895.604	8847.99
895.92	8844.37
896.235	8756.01
896.55	8710.59
896.865	8664.72
897.181	8634.66
897.496	8690.03
897.811	8604.83
898.126	8596.47
898.441	8637.6
898.756	8606.19
899.071	8492.97
899.386	8532.74
899.7	8427.21
900.015	8456.81
900.33	8360.77
900.644	8410.26
900.959	8450.03
901.273	8313.76
901.588	8319.19
901.902	8214.11
902.216	8213.43
902.531	8227.21
902.845	8208.91
903.159	8086.88
903.473	8045.07
903.787	8057.05
904.101	7932.76
904.415	7985.64
904.729	7975.24
905.042	7927.33
905.356	7914
905.67	7898.18
905.984	7868.35
906.297	7885.08
906.611	7841.69
906.924	7766.21
907.237	7787.22
907.551	7746.55
907.864	7707
908.177	7709.71
908.491	7636.27
908.804	7618.87
909.117	7533.9
909.43	7520.56
909.743	7481.24
910.056	7494.12
910.368	7454.8
910.681	7429.95
910.994	7366.22
911.307	7354.24
911.619	7342.72
911.932	7282.15
912.244	7236.73
912.557	7256.17
912.869	7161.7
913.181	7173.68
913.494	7120.8
913.806	7128.48
914.118	7130.52
914.43	7031.09
914.742	7001.93
915.054	6977.3
915.366	6956.74
915.678	6914.71
915.99	6895.27
916.302	6828.38
916.613	6850.75
916.925	6823.86
917.236	6737.76
917.548	6760.36
917.859	6817.08
918.171	6705.22
918.482	6699.12
918.794	6653.02
919.105	6637.65
919.416	6576.41
919.727	6546.58
920.038	6562.85
920.349	6523.08
920.66	6467.94
920.971	6498.67
921.282	6435.85
921.593	6385
921.903	6379.58
922.214	6324.66
922.525	6326.25
922.835	6290.77
923.146	6242.18
923.456	6251.45
923.767	6195.18
924.077	6222.07
924.387	6186.14
924.697	6119.25
925.008	6099.81
925.318	6080.6
925.628	6069.53
925.938	6052.58
926.248	6005.12
926.558	5970.78
926.867	5982.98
927.177	5953.37
927.487	5873.83
927.796	5881.51
928.106	5859.37
928.416	5814.4
928.725	5792.7
929.034	5772.14
929.344	5743.21
929.653	5749.76
929.962	5669.31
930.271	5709.54
930.581	5638.13
930.89	5595.19
931.199	5606.94
931.508	5607.17
931.817	5546.38
932.125	5481.75
932.434	5529.43
932.743	5435.2
933.051	5471.13
933.36	5443.78
933.669	5450.34
933.977	5407.63
934.286	5374.63
934.594	5360.17
934.902	5274.07
935.21	5307.29
935.519	5310
935.827	5304.8
936.135	5220.96
936.443	5183.23
936.751	5194.3
937.059	5117.92
937.367	5142.1
937.674	5111.81
937.982	5061.65
938.29	5052.83
938.597	5072.04
938.905	5016
939.213	5025.94
939.52	4997.02
939.827	5001.76
940.135	4930.8
940.442	4910.01
940.749	4878.83
941.056	4884.93
941.363	4820.97
941.67	4834.99
941.977	4836.12
942.284	4787.76
942.591	4753.86
942.898	4750.69
943.205	4754.99
943.511	4749.56
943.818	4729.9
944.125	4631.83
944.431	4629.79
944.738	4626.18
945.044	4589.12
945.35	4595.67
945.657	4594.31
945.963	4547.08
946.269	4536.01
946.575	4569.68
946.881	4498.72
947.187	4514.99
947.493	4457.37
947.799	4413.75
948.105	4416.24
948.41	4376.01
948.716	4354.77
949.022	4354.09
949.327	4308.9
949.633	4326.75
949.938	4340.54
950.244	4317.49
950.549	4277.49
950.854	4262.35
951.16	4256.24
951.465	4221.67
951.77	4187.77
952.075	4188.68
952.38	4176.47
952.685	4184.83
952.99	4170.82
953.294	4085.63
953.599	4071.39
953.904	4067.55
954.209	4030.04
954.513	4037.04
954.818	4007.44
955.122	3999.08
955.426	3998.85
955.731	3944.16
956.035	3983.03
956.339	3918.17
956.643	3930.83
956.948	3885.63
957.252	3859.42
957.556	3845.41
957.86	3809.02
958.163	3812.64
958.467	3800.66
958.771	3794.56
959.075	3788.91
959.378	3726.77
959.682	3769.25
959.985	3765.41
960.289	3712.98
960.592	3739.42
960.896	3671.4
961.199	3649.25
961.502	3670.5
961.805	3640.44
962.108	3607.9
962.411	3548.47
962.714	3575.81
963.017	3569.48
963.32	3564.96
963.623	3540.1
963.926	3519.09
964.228	3510.05
964.531	3440.67
964.833	3472.76
965.136	3487
965.438	3444.06
965.741	3405.87
966.043	3397.74
966.345	3417.85
966.648	3391.63
966.95	3367.91
967.252	3349.15
967.554	3331.52
967.856	3310.73
968.158	3291.07
968.46	3324.07
968.761	3285.65
969.063	3262.37
969.365	3276.83
969.666	3255.14
969.968	3200.68
970.269	3235.71
970.571	3207.01
970.872	3198.87
971.174	3154.8
971.475	3187.12
971.776	3178.31
972.077	3135.6
972.378	3116.84
972.679	3125.2
972.98	3060.34
973.281	3058.31
973.582	3118.65
973.883	3003.85
974.183	3040.91
974.484	3009.95
974.785	3006.33
975.085	2986.45
975.386	2979.22
975.686	2967.46
975.986	2944.41
976.287	2979.22
976.587	2920.46
976.887	2912.55
977.187	2944.41
977.487	2908.93
977.787	2878.65
978.087	2896.28
978.387	2855.83
978.687	2837.3
978.987	2835.04
979.286	2863.06
979.586	2805.66
979.885	2819.67
980.185	2789.39
980.484	2796.4
980.784	2788.03
981.083	2764.08
981.382	2727.92
981.682	2708.04
981.981	2676.62
982.28	2706
982.579	2681.14
982.878	2700.13
983.177	2666.68
983.475	2670.07
983.774	2635.04
984.073	2626.68
984.372	2644.53
984.67	2622.16
984.969	2602.28
985.267	2597.3
985.566	2586.91
985.864	2586.23
986.162	2591.66
986.461	2542.84
986.759	2519.79
987.057	2496.52
987.355	2492.67
987.653	2536.06
987.951	2478.44
988.249	2475.05
988.547	2482.05
988.844	2488.83
989.142	2448.61
989.44	2430.3
989.737	2442.96
990.035	2384.88
990.332	2418.55
990.63	2409.74
990.927	2400.25
991.224	2397.54
991.521	2362.51
991.819	2349.18
992.116	2345.33
992.413	2340.14
992.71	2309.4
993.006	2271.44
993.303	2264.88
993.6	2293.58
993.897	2258.56
994.193	2254.94
994.49	2226.92
994.787	2207.48
995.083	2234.83
995.379	2219.24
995.676	2195.51
995.972	2205.9
996.268	2186.92
996.565	2206.13
996.861	2175.39
997.157	2173.81
997.453	2146.92
997.749	2139.46
998.044	2158.45
998.34	2085
998.636	2078
998.932	2058.11
999.227	2088.62
999.523	2053.14
999.818	2048.17
1000.114	2049.3
1000.409	2035.06
1000.704	2029.41
1001	2010.65
1001.295	1995.96
1001.59	1985.8
1001.885	1984.67
1002.18	1943.31
1002.475	1972.46
1002.77	1927.94
1003.065	1939.69
1003.359	1925.23
1003.654	1928.17
1003.949	1897.89
1004.243	1908.51
1004.538	1900.15
1004.832	1880.26
1005.127	1880.71
1005.421	1852.69
1005.715	1892.46
1006.009	1842.3
1006.304	1848.17
1006.598	1825.12
1006.892	1832.35
1007.186	1790.09
1007.48	1789.19
1007.773	1782.41
1008.067	1762.52
1008.361	1758
1008.655	1746.71
1008.948	1741.73
1009.242	1750.32
1009.535	1737.89
1009.829	1705.12
1010.122	1724.11
1010.415	1669.42
1010.708	1696.31
1011.001	1654.73
1011.295	1649.31
1011.588	1635.97
1011.881	1622.19
1012.173	1611.34
1012.466	1628.52
1012.759	1629.42
1013.052	1602.75
1013.344	1595.07
1013.637	1595.3
1013.93	1581.74
1014.222	1570.89
1014.514	1545.35
1014.807	1556.65
1015.099	1554.39
1015.391	1546.26
1015.683	1486.6
1015.976	1504.45
1016.268	1491.57
1016.56	1479.37
1016.851	1512.59
1017.143	1499.93
1017.435	1478.24
1017.727	1475.07
1018.018	1433.04
1018.31	1469.42
1018.602	1415.19
1018.893	1426.71
1019.185	1418.35
1019.476	1423.78
1019.767	1415.64
1020.058	1415.41
1020.35	1393.72
1020.641	1357.56
1020.932	1329.99
1021.223	1358.02
1021.514	1335.87
1021.804	1320.73
1022.095	1299.03
1022.386	1314.63
1022.677	1311.24
1022.967	1297.23
1023.258	1280.05
1023.548	1283.89
1023.839	1263.55
1024.129	1274.63
1024.419	1252.48
1024.709	1266.72
1025	1247.28
1025.29	1236.21
1025.58	1209.09
1025.87	1224.91
1026.16	1201.64
1026.449	1207.06
1026.739	1184.91
1027.029	1180.39
1027.319	1203.22
1027.608	1193.27
1027.898	1137.68
1028.187	1166.38
1028.477	1148.3
1028.766	1146.72
1029.055	1136.33
1029.344	1136.33
1029.634	1129.77
1029.923	1113.5
1030.212	1104.46
1030.501	1112.37
1030.79	1068.76
1031.078	1077.57
1031.367	1094.52
1031.656	1089.77
1031.945	1075.99
1032.233	1068.31
1032.522	1021.3
1032.81	1055.2
1033.099	1039.83
1033.387	1031.47
1033.675	1020.4
1033.963	1003.22
1034.251	1033.96
1034.54	996.89
1034.828	991.92
1035.116	1002.54
1035.403	981.98
1035.691	991.47
1035.979	969.78
1036.267	946.73
1036.554	962.55
1036.842	951.7
1037.129	950.57
1037.417	922.32
1037.704	928.65
1037.992	928.2
1038.279	936.33
1038.566	936.11
1038.853	936.11
1039.14	936.11
