Data from plate_porcelain_FLMS001491_022.txt Node
Date: Tue Feb 07 11:19:01 GMT 2017
User: dcchb
Spectrometer: FLMS00149
Trigger mode: 0
Integration Time (sec): 2.000000E-2
Scans to average: 10
Electric dark correction enabled: true
Nonlinearity correction enabled: false
Boxcar width: 0
XAxis mode: Wavelengths
Number of Pixels in Spectrum: 2048
>>>>>Begin Spectral Data<<<<<
341.393	-30.85
341.776	-30.85
342.16	-30.85
342.543	-51.19
342.927	-74.01
343.31	-74.01
343.693	-86.21
344.077	-59.32
344.46	-56.61
344.843	-44.41
345.226	-35.37
345.61	-24.07
345.993	-15.93
346.376	0.34
346.759	12.09
347.142	28.13
347.525	46.44
347.908	53.22
348.291	80.11
348.674	91.86
349.057	83.73
349.44	122.6
349.823	160.33
350.206	159.2
350.588	230.62
350.971	240.11
351.354	245.53
351.737	274.91
352.119	293.21
352.502	301.8
352.884	317.17
353.267	320.78
353.65	341.8
354.032	333.21
354.414	339.09
354.797	368.92
355.179	354.45
355.562	358.75
355.944	385.19
356.326	394.23
356.709	396.49
357.091	408.92
357.473	398.07
357.855	367.56
358.238	384.96
358.62	389.26
359.002	400.55
359.384	387.22
359.766	398.75
360.148	387.9
360.53	394.9
360.912	384.51
361.294	386.32
361.676	399.65
362.057	417.5
362.439	409.37
362.821	389.03
363.203	401.46
363.584	396.94
363.966	385.87
364.348	378.86
364.729	397.39
365.111	386.77
365.493	394
365.874	388.13
366.256	387.45
366.637	393.77
367.019	393.1
367.4	384.74
367.781	406.43
368.163	409.14
368.544	396.94
368.925	412.31
369.306	415.24
369.688	406.66
370.069	399.88
370.45	421.34
370.831	427.67
371.212	412.53
371.593	427.9
371.974	420.21
372.355	423.6
372.736	432.19
373.117	447.11
373.498	418.63
373.879	426.54
374.26	424.73
374.641	404.4
375.021	418.86
375.402	415.92
375.783	451.63
376.163	468.8
376.544	472.19
376.925	455.24
377.305	448.91
377.686	469.03
378.066	471.74
378.447	460.44
378.827	493.89
379.208	486.65
379.588	478.29
379.968	487.56
380.349	469.93
380.729	483.04
381.109	506.09
381.489	487.56
381.87	509.03
382.25	500.66
382.63	514.22
383.01	509.7
383.39	532.08
383.77	506.09
384.15	521
384.53	525.07
384.91	544.51
385.29	551.51
385.67	536.6
386.049	576.37
386.429	564.84
386.809	570.72
387.189	564.62
387.568	570.04
387.948	590.61
388.328	616.59
388.707	629.25
389.087	611.85
389.466	595.35
389.846	619.76
390.225	634.45
390.605	617.5
390.984	633.77
391.363	625.86
391.743	652.53
392.122	656.37
392.501	662.69
392.881	685.07
393.26	660.89
393.639	680.1
394.018	715.35
394.397	737.04
394.776	722.13
395.155	702.24
395.534	737.72
395.913	743.82
396.292	742.69
396.671	756.7
397.05	767.55
397.429	777.49
397.808	791.96
398.186	796.02
398.565	776.59
398.944	788.34
399.323	800.54
399.701	823.14
400.08	815.23
400.458	824.95
400.837	838.74
401.215	837.61
401.594	839.86
401.972	870.37
402.351	860.66
402.729	893.42
403.107	903.14
403.486	909.92
403.864	896.13
404.242	917.15
404.62	944.49
404.999	937.49
405.377	963.03
405.755	962.8
406.133	960.54
406.511	996.7
406.889	984.49
407.267	1027.88
407.645	1049.58
408.023	1027.88
408.401	1066.53
408.779	1062.23
409.156	1108.56
409.534	1077.82
409.912	1160.76
410.29	1151.27
410.667	1136.35
411.045	1178.16
411.422	1190.36
411.8	1173.42
412.178	1224.94
412.555	1247.54
412.933	1268.55
413.31	1262.68
413.687	1272.62
414.065	1293.41
414.442	1310.36
414.819	1340.42
415.197	1342.45
415.574	1366.4
415.951	1388.1
416.328	1392.62
416.705	1390.13
417.082	1414.77
417.46	1460.64
417.837	1454.99
418.214	1460.87
418.591	1490.92
418.967	1506.29
419.344	1490.47
419.721	1534.76
420.098	1542.67
420.475	1585.38
420.852	1599.39
421.228	1595.33
421.605	1611.14
421.982	1637.36
422.358	1635.32
422.735	1690.69
423.111	1673.74
423.488	1710.58
423.864	1735.66
424.241	1762.1
424.617	1761.42
424.994	1789.67
425.37	1801.65
425.746	1834.87
426.123	1839.84
426.499	1882.55
426.875	1881.65
427.251	1919.84
427.627	1952.83
428.003	2006.39
428.379	2031.92
428.756	2026.27
429.132	2068.76
429.507	2095.65
429.883	2129.32
430.259	2170
430.635	2215.42
431.011	2194.86
431.387	2224.01
431.763	2249.32
432.138	2275.53
432.514	2322.09
432.89	2357.79
433.265	2370.9
433.641	2416.55
434.016	2433.27
434.392	2495.87
434.767	2565.02
435.143	2537.67
435.518	2565.02
435.894	2631.23
436.269	2640.04
436.644	2683.88
437.02	2708.52
437.395	2714.62
437.77	2790.1
438.145	2800.49
438.52	2870.55
438.895	2844.78
439.271	2845.24
439.646	2931.79
440.021	2931.56
440.395	2963.88
440.77	2933.37
441.145	3012.01
441.52	3039.58
441.895	3119.13
442.27	3084.78
442.645	3100.82
443.019	3158.22
443.394	3114.16
443.769	3167.04
444.143	3198.9
444.518	3230.08
444.892	3238.9
445.267	3283.64
445.641	3307.14
446.016	3344.21
446.39	3400.93
446.764	3377.65
447.139	3368.61
447.513	3400.25
447.887	3455.16
448.262	3488.83
448.636	3519.79
449.01	3562.73
449.384	3633.92
449.758	3581.71
450.132	3677.3
450.506	3679.11
450.88	3724.53
451.254	3757.08
451.628	3796.62
452.002	3833.46
452.376	3859.45
452.75	3921.14
453.123	3936.73
453.497	4013.79
453.871	4042.72
454.244	4121.13
454.618	4134.92
454.992	4235.93
455.365	4198.42
455.739	4345.08
456.112	4388.92
456.486	4473.67
456.859	4433.67
457.232	4558.19
457.606	4585.76
457.979	4631.4
458.352	4707.11
458.725	4800.89
459.099	4826.2
459.472	4880.66
459.845	4980.77
460.218	5005.63
460.591	5109.36
460.964	5111.17
461.337	5147.32
461.71	5291.95
462.083	5335.57
462.456	5389.8
462.829	5441.78
463.201	5513.41
463.574	5547.09
463.947	5641.55
464.32	5751.6
464.692	5769.45
465.065	5811.94
465.438	5947.3
465.81	6063.23
466.183	6092.38
466.555	6230.23
466.928	6225.49
467.3	6337.12
467.672	6426.61
468.045	6555.42
468.417	6547.29
468.789	6647.17
469.161	6679.94
469.534	6849.88
469.906	6944.56
470.278	7041.06
470.65	7159.92
471.022	7291.45
471.394	7444.66
471.766	7426.36
472.138	7548.84
472.51	7720.59
472.882	7876.97
473.253	7939.34
473.625	8088.49
473.997	8222.72
474.369	8306.56
474.74	8415.26
475.112	8548.59
475.484	8732.31
475.855	8847.11
476.227	8978.41
476.598	9191.74
476.97	9256.82
477.341	9505.17
477.713	9614.1
478.084	9717.37
478.455	9987.65
478.827	10022
479.198	10383.34
479.569	10401.65
479.94	10715.99
480.311	10773.84
480.682	11020.16
481.053	11298.35
481.424	11425.35
481.795	11541.05
482.166	11720.48
482.537	11961.61
482.908	12142.62
483.279	12294.03
483.65	12623.06
484.021	12780.12
484.391	12896.5
484.762	13022.37
485.133	13156.15
485.503	13452.64
485.874	13724.72
486.244	13810.82
486.615	14156.35
486.985	14325.39
487.356	14573.06
487.726	14773.51
488.097	14969.89
488.467	15063.67
488.837	15345.92
489.207	15609.42
489.578	15765.8
489.948	15961.05
490.318	16216.18
490.688	16237.2
491.058	16543.86
491.428	16724.64
491.798	17016.84
492.168	17309.26
492.538	17329.37
492.908	17491.86
493.278	17663.38
493.648	17862.92
494.017	18149.24
494.387	18221.33
494.757	18400.99
495.126	18582.68
495.496	18717.59
495.866	18920.97
496.235	19089.33
496.605	19241.87
496.974	19369.77
497.344	19567.06
497.713	19686.6
498.082	19847.73
498.452	20033.26
498.821	20205.68
499.19	20283.65
499.559	20447.94
499.928	20665.33
500.298	20752.34
500.667	21000.69
501.036	21004.76
501.405	21193.91
501.774	21244.53
502.143	21531.52
502.512	21554.12
502.88	21833.44
503.249	21824.17
503.618	22000.44
503.987	22249.25
504.356	22456.47
504.724	22471.84
505.093	22640.42
505.462	22716.8
505.83	22944.59
506.199	23137.36
506.567	23435.2
506.936	23488.99
507.304	23609.66
507.672	23754.74
508.041	23880.62
508.409	24130.55
508.777	24293.71
509.145	24435.18
509.514	24554.04
509.882	24801.95
510.25	24858.44
510.618	25002.85
510.986	25144.31
511.354	25498.88
511.722	25658.42
512.09	25794.69
512.458	25884.63
512.826	26031.52
513.193	26315.13
513.561	26576.59
513.929	26666.08
514.297	26983.13
514.664	27238.94
515.032	27224.03
515.4	27533.85
515.767	27730.91
516.135	27759.61
516.502	27774.52
516.869	28310.56
517.237	28511.91
517.604	28415.19
517.972	28780.15
518.339	28969.07
518.706	29057.43
519.073	29082.51
519.44	29473.69
519.808	29750.52
520.175	29896.28
520.542	30127.91
520.909	30295.14
521.276	30381.91
521.643	30827.33
522.009	31089.47
522.376	31331.72
522.743	31388.89
523.11	31671.82
523.477	32135.09
523.843	32193.84
524.21	32661.4
524.577	32750.66
524.943	32945.46
525.31	33159.24
525.676	33508.16
526.043	33781.37
526.409	33904.98
526.776	34294.35
527.142	34355.37
527.508	34699.99
527.874	35003.26
528.241	35047.1
528.607	35329.13
528.973	35416.58
529.339	35497.26
529.705	35885.95
530.071	36310.8
530.437	36506.05
530.803	36701.29
531.169	36761.86
531.535	36868.52
531.901	37088.4
532.267	37259.02
532.632	37430.99
532.998	37666.02
533.364	37829.4
533.73	37957.08
534.095	38370.86
534.461	38393.23
534.826	38655.14
535.192	38801.35
535.557	39119.99
535.923	39031.63
536.288	39254.45
536.653	39484.27
537.019	39533.31
537.384	39673.65
537.749	39753.64
538.114	39900.76
538.479	40080.42
538.845	40332.61
539.21	40208.77
539.575	40565.83
539.94	40602.21
540.305	40853.73
540.67	40859.83
541.034	41151.57
541.399	41121.74
541.764	41264.11
542.129	41516.54
542.494	41629.53
542.858	41659.81
543.223	41733.93
543.587	41989.52
543.952	42147.25
544.316	42428.6
544.681	42218.21
545.045	42564.42
545.41	42701.14
545.774	42875.37
546.138	42794.92
546.503	43042.15
546.867	43067
547.231	43558.52
547.595	43495.01
547.959	43681.45
548.324	43683.48
548.688	43748.79
549.052	43872.18
549.416	44045.51
549.779	44198.5
550.143	44315.11
550.507	44715.1
550.871	44815.43
551.235	44808.88
551.599	45101.07
551.962	45246.15
552.326	45226.49
552.689	45507.17
553.053	45414.51
553.417	45524.79
553.78	46111.44
554.143	46019.24
554.507	46279.35
554.87	46362.74
555.234	46725.44
555.597	46503.3
555.96	46787.81
556.323	47035.94
556.686	47095.6
557.05	47282.49
557.413	47386.44
557.776	47517.96
558.139	47825.3
558.502	47763.15
558.865	47944.62
559.228	48273.87
559.59	48303.02
559.953	48430.48
560.316	48753.18
560.679	48762.45
561.041	49157.46
561.404	49184.81
561.767	49470.45
562.129	49322.66
562.492	49827.28
562.854	49864.56
563.217	49792.02
563.579	49934.85
563.941	50161.28
564.304	50430.43
564.666	50619.57
565.028	50657.09
565.39	50841.94
565.753	51087.81
566.115	51121.48
566.477	51310.18
566.839	51370.51
567.201	51589.04
567.563	51563.73
567.925	51812.54
568.287	51880.1
568.648	51983.6
569.01	52163.49
569.372	52315.12
569.734	52246.2
570.095	52514.66
570.457	52669.69
570.819	52630.59
571.18	52641.67
571.542	52871.04
571.903	52973.86
572.265	53045.72
572.626	53119.17
572.987	53187.87
573.349	53378.37
573.71	53457.69
574.071	53497.24
574.432	53563.45
574.794	53748.98
575.155	53687.97
575.516	53686.84
575.877	53806.61
576.238	53938.58
576.599	54031.69
576.96	54057.22
577.32	54030.56
577.681	54231.91
578.042	54258.12
578.403	54296.31
578.763	54388.51
579.124	54342.19
579.485	54538.11
579.845	54503.31
580.206	54523.43
580.566	54554.16
580.927	54649.75
581.287	54633.7
581.648	54534.27
582.008	54738.79
582.368	54633.03
582.728	54757.32
583.089	54654.5
583.449	54586.7
583.809	54699.47
584.169	54787.6
584.529	54708.28
584.889	54951.21
585.249	54688.17
585.609	54692.91
585.969	54830.99
586.329	54781.5
586.688	54828.28
587.048	54821.72
587.408	54817.2
587.768	54783.31
588.127	54816.3
588.487	54794.38
588.846	54960.02
589.206	54857.88
589.565	54833.47
589.925	54930.65
590.284	54888.39
590.643	54922.28
591.003	54977.42
591.362	55068.72
591.721	54950.98
592.08	54997.31
592.44	55071.66
592.799	55038.67
593.158	54988.05
593.517	55041.83
593.876	55082.96
594.235	55002.28
594.593	55094.48
594.952	55120.25
595.311	55042.73
595.67	55072.34
596.029	55254.25
596.387	55204.31
596.746	55297.64
597.104	55101.94
597.463	55225.55
597.822	55317.98
598.18	55209.28
598.538	55193.01
598.897	55412.22
599.255	55140.36
599.613	55567.24
599.972	55350.07
600.33	55484.98
600.688	55327.02
601.046	55471.42
601.404	55623.96
601.762	55490.63
602.12	55627.35
602.478	55725.43
602.836	55684.3
603.194	55506.68
603.552	55536.73
603.91	55496.73
604.268	55731.3
604.625	55587.13
604.983	55777.63
605.341	55587.35
605.698	55701.7
606.056	55756.16
606.413	55778.08
606.771	55922.94
607.128	55871.41
607.485	55739.21
607.843	55769.72
608.2	55954.57
608.557	56040
608.914	55937.85
609.272	56084.74
609.629	56137.39
609.986	56163.61
610.343	56025.53
610.7	56256.49
611.057	56264.85
611.414	56233.44
611.771	56246.32
612.127	56425.3
612.484	56319.76
612.841	56498.74
613.198	56402.47
613.554	56383.94
613.911	56462.58
614.267	56433.88
614.624	56400.66
614.98	56569.47
615.337	56642.24
615.693	56592.98
616.05	56616.03
616.406	56729.24
616.762	56611.96
617.118	56624.16
617.475	56671.84
617.831	56670.49
618.187	56671.17
618.543	56707.1
618.899	56917.03
619.255	56851.05
619.611	56833.65
619.967	56905.74
620.323	56901.67
620.678	56856.25
621.034	56779.86
621.39	56824.83
621.746	56898.96
622.101	57040.2
622.457	56837.04
622.812	56893.31
623.168	56921.1
623.523	56963.81
623.879	57007.88
624.234	56902.35
624.589	57084.26
624.945	56951.38
625.3	57042.23
625.655	56934.89
626.01	56932.85
626.365	57033.19
626.72	56940.31
627.075	56995.22
627.43	56960.42
627.785	56821.22
628.14	56915.68
628.495	56892.18
628.85	56822.8
629.205	56748.9
629.559	56865.28
629.914	56780.99
630.269	56844.27
630.623	56768.56
630.978	56713.88
631.332	56740.99
631.687	56813.76
632.041	56699.87
632.396	56720.2
632.75	56639.53
633.104	56592.3
633.459	56495.12
633.813	56543.26
634.167	56538.29
634.521	56496.25
634.875	56524.73
635.229	56511.62
635.583	56285.86
635.937	56418.06
636.291	56322.25
636.645	56332.42
636.999	56240.89
637.352	56282.25
637.706	56119.99
638.06	56200.67
638.413	56265.3
638.767	56119.99
639.121	56108.69
639.474	55954.35
639.828	56054.68
640.181	56052.42
640.534	56007.45
640.888	55916.38
641.241	55794.35
641.594	55854.01
641.947	56007.91
642.301	55793.67
642.654	55798.87
643.007	55797.97
643.36	55720.91
643.713	55730.63
644.066	55802.94
644.419	55600.46
644.771	55434.14
645.124	55192.11
645.477	55117.31
645.83	54928.84
646.182	54801.61
646.535	54665.34
646.888	54730.2
647.24	54590.32
647.593	54712.12
647.945	54691.78
648.298	54564.78
648.65	54465.12
649.002	54437.1
649.355	54515.06
649.707	54457.66
650.059	54608.62
650.411	54927.48
650.763	54997.76
651.115	55229.4
651.467	55113.24
651.819	55075.73
652.171	54985.56
652.523	54954.15
652.875	54914.6
653.227	54708.73
653.578	54969.06
653.93	54822.17
654.282	54717.32
654.633	54658.79
654.985	54741.05
655.337	54691.33
655.688	54715.96
656.039	54759.58
656.391	54548.96
656.742	54553.48
657.094	54682.52
657.445	54754.61
657.796	54658.79
658.147	54579.69
658.498	54607.04
658.849	54589.64
659.2	54537.44
659.551	54428.29
659.902	54619.47
660.253	54466.48
660.604	54512.8
660.955	54343.77
661.306	54438
661.656	54461.73
662.007	54360.27
662.358	54355.07
662.708	54349.64
663.059	54402.52
663.409	54137.22
663.76	54433.94
664.11	54255.41
664.461	54299.48
664.811	54346.48
665.161	54287.95
665.511	54216.54
665.862	54283.66
666.212	54329.76
666.562	54379.25
666.912	54213.15
667.262	54282.75
667.612	54234.17
667.962	54314.17
668.312	54201.63
668.662	54268.97
669.011	54172.25
669.361	54121.18
669.711	54162.98
670.06	54107.84
670.41	53985.59
670.76	53976.77
671.109	54086.37
671.459	54079.37
671.808	54003.89
672.157	54085.02
672.507	53859.71
672.856	53878.92
673.205	53932.93
673.554	53988.75
673.904	53880.5
674.253	54009.54
674.602	53886.15
674.951	53395.32
675.3	53281.88
675.649	53795.08
675.998	53652.71
676.346	53725.71
676.695	53755.99
677.044	53560.29
677.393	53821.3
677.741	53753.5
678.09	53625.37
678.438	53595.09
678.787	53687.97
679.135	53645.48
679.484	53411.14
679.832	53592.38
680.181	53344.7
680.529	53467.86
680.877	53260.86
681.225	53288.43
681.573	53438.48
681.922	53275.32
682.27	53139.05
682.618	53198.04
682.966	53103.35
683.314	53147.87
683.661	53017.25
684.009	52838.5
684.357	52845.96
684.705	52737.94
685.053	52801.21
685.4	52733.87
685.748	52566.87
686.095	52538.17
686.443	52390.6
686.79	52262.47
687.138	52411.39
687.485	52408.45
687.832	52224.95
688.18	52319.87
688.527	52123.26
688.874	52150.38
689.221	52116.26
689.568	51953.1
689.915	51985.41
690.262	51840.56
690.609	51718.75
690.956	51712.43
691.303	51547.68
691.65	51326.22
691.997	51401.7
692.344	51136.4
692.69	51249.16
693.037	51215.49
693.383	50995.61
693.73	51162.16
694.077	50853.69
694.423	50860.02
694.769	50587.03
695.116	50655.28
695.462	50618.9
695.808	50546.35
696.155	50507.71
696.501	50329.64
696.847	50262.97
697.193	49991.34
697.539	50207.15
697.885	49965.35
698.231	49853.04
698.577	49796.77
698.923	49713.61
699.269	49506.83
699.614	49296.67
699.96	49339.83
700.306	49392.49
700.651	49199.72
700.997	49117.24
701.342	49102.78
701.688	48924.7
702.033	48773.52
702.379	48770.13
702.724	48612.17
703.069	48807.19
703.415	48255.12
703.76	48329.01
704.105	48268.67
704.45	48096.48
704.795	47980.55
705.14	47850.15
705.485	47834.11
705.83	47656.26
706.175	47715.47
706.52	47536.94
706.865	47438.41
707.209	47380.34
707.554	47326.78
707.899	47367.46
708.243	47226.22
708.588	47118.65
708.932	46714.82
709.277	46969.95
709.621	46977.63
709.966	46585.1
710.31	46661.71
710.654	46350.31
710.998	46396.86
711.342	46497.65
711.687	46199.8
712.031	46096.53
712.375	45972.24
712.719	45976.31
713.063	45925.01
713.407	46008.62
713.75	45794.16
714.094	45574.28
714.438	45634.17
714.782	45643.88
715.125	45282.09
715.469	45485.92
715.812	45230.56
716.156	44917.58
716.499	44994.18
716.843	45058.36
717.186	44720.75
717.53	44970.23
717.873	44895.66
718.216	44626.28
718.559	44656.79
718.902	44515.55
719.246	44574.31
719.589	44387.87
719.932	44306.07
720.275	44273.98
720.617	44129.35
720.96	44205.73
721.303	43975
721.646	44112.85
721.989	43852.29
722.331	43977.04
722.674	43899.3
723.016	43754.89
723.359	43735.23
723.701	43704.5
724.044	43409.14
724.386	43316.04
724.729	43412.53
725.071	43263.16
725.413	43288.92
725.755	43089.6
726.097	42986.78
726.439	42844.18
726.782	42845.09
727.124	42904.75
727.465	42791.08
727.807	42620.24
728.149	42609.16
728.491	42481.26
728.833	42554.25
729.175	42447.13
729.516	42340.24
729.858	42279.45
730.199	42297.53
730.541	42228.83
730.882	42133.69
731.224	42162.62
731.565	41990.87
731.906	41766.92
732.248	41964.66
732.589	41785.23
732.93	41566.93
733.271	41587.95
733.612	41691.45
733.953	41679.47
734.294	41391.57
734.635	41327.16
734.976	41504.78
735.317	41241.74
735.658	41323.32
735.999	41223.66
736.339	41065.25
736.68	41201.52
737.021	41075.64
737.361	40871.35
737.702	41171.91
738.042	40973.72
738.383	40746.39
738.723	40889.66
739.063	40597.69
739.404	40566.05
739.744	40486.73
740.084	40433.4
740.424	40451.25
740.764	40311.6
741.104	40601.76
741.444	40281.54
741.784	40055.78
742.124	40041.09
742.464	40059.85
742.804	40002.9
743.143	39950.93
743.483	39967.88
743.823	39677.04
744.162	39652.18
744.502	39694.21
744.841	39629.35
745.181	39697.37
745.52	39541.9
745.86	39615.57
746.199	39464.16
746.538	39419.19
746.877	39342.81
747.216	39316.37
747.556	39117.5
747.895	39182.81
748.234	38905.53
748.573	38992.76
748.911	38882.03
749.25	38878.64
749.589	38717.06
749.928	38710.73
750.267	38598.87
750.605	38487.91
750.944	38469.84
751.283	38262.61
751.621	38384.19
751.96	38049.96
752.298	38160.69
752.636	38165.89
752.975	38037.08
753.313	37824.43
753.651	37774.94
753.989	37638.22
754.327	37647.26
754.666	37544.89
755.004	37597.09
755.342	37646.13
755.679	37525.91
756.017	37214.95
756.355	37356.64
756.693	37098.57
757.031	37099.7
757.368	36946.49
757.706	36767.51
758.044	36729.54
758.381	36822.65
758.719	36566.38
759.056	36565.25
759.394	36464.69
759.731	36117.81
760.068	36067.41
760.405	36028.32
760.743	35925.5
761.08	35865.84
761.417	35678.04
761.754	35639.4
762.091	35717.59
762.428	35510.59
762.765	35320.99
763.102	35409.35
763.438	35064.73
763.775	34951.74
764.112	35042.58
764.449	34995.8
764.785	34689.14
765.122	34448.25
765.458	34502.71
765.795	34480.56
766.131	34419.09
766.467	34273.34
766.804	34177.29
767.14	33880.13
767.476	33913.57
767.812	33870.18
768.148	33814.14
768.485	33595.16
768.821	33463.19
769.157	33295.06
769.492	33284.21
769.828	33168.28
770.164	32899.81
770.5	32895.07
770.836	32881.28
771.171	32603.1
771.507	32502.08
771.842	32247.17
772.178	32298.92
772.513	32267.74
772.849	32192.71
773.184	32124.69
773.519	32052.38
773.855	31868.88
774.19	31700.52
774.525	31618.04
774.86	31509.79
775.195	31427.76
775.53	31347.99
775.865	31136.7
776.2	31025.06
776.535	30760.66
776.87	30837.72
777.205	30748.01
777.539	30409.03
777.874	30559.31
778.209	30243.39
778.543	30164.07
778.878	29971.98
779.212	30152.54
779.547	29917.07
779.881	29906.45
780.215	29614.48
780.55	29722.04
780.884	29548.94
781.218	29303.52
781.552	29454.93
781.886	29329.51
782.22	29205.9
782.554	28927.94
782.888	28751.67
783.222	28692.01
783.556	28655.63
783.889	28519.36
784.223	28297.9
784.557	28185.13
784.89	28281.86
785.224	28034.63
785.557	27869.44
785.891	28035.08
786.224	27833.28
786.558	27734.52
786.891	27440.52
787.224	27477.36
787.557	27320.3
787.891	27365.5
788.224	27332.73
788.557	27305.61
788.89	27268.55
789.223	27187.87
789.556	26930.48
789.888	26793.98
790.221	26667.66
790.554	26567.1
790.887	26464.28
791.219	26450.04
791.552	26312.64
791.884	26192.87
792.217	26149.26
792.549	26022.71
792.882	25858.19
793.214	25723.73
793.546	25720.79
793.879	25610.51
794.211	25571.64
794.543	25535.49
794.875	25370.97
795.207	25382.04
795.539	25259.56
795.871	25249.39
796.203	25084.43
796.535	24857.54
796.867	24833.81
797.198	24811.66
797.53	24783.19
797.862	24632.23
798.193	24559.69
798.525	24474.72
798.856	24538.68
799.188	24251.9
799.519	24132.59
799.85	24034.51
800.182	24007.39
800.513	24052.14
800.844	23900.5
801.175	23963.78
801.506	23874.97
801.837	23703.9
802.168	23718.36
802.499	23677.46
802.83	23579.83
803.161	23468.42
803.491	23388.2
803.822	23419.84
804.153	23150.92
804.483	23102.1
804.814	22885.61
805.145	23002.45
805.475	22948.44
805.805	22877.03
806.136	22855.56
806.466	22850.13
806.796	22720.42
807.126	22624.38
807.457	22548.22
807.787	22527.43
808.117	22318.85
808.447	22165.63
808.777	22354.78
809.107	22192.52
809.436	22173.09
809.766	22228.68
810.096	22082.02
810.426	22037.5
810.755	21954.34
811.085	21834.57
811.414	21922.93
811.744	21714.34
812.073	21682.25
812.403	21675.7
812.732	21566.55
813.061	21553.44
813.39	21412.43
813.719	21333.56
814.049	21629.6
814.378	21402.26
814.707	21109.61
815.036	21147.13
815.365	21101.93
815.693	20946.68
816.022	20957.3
816.351	20924.08
816.68	20813.35
817.008	20908.49
817.337	20559.35
817.665	20645.45
817.994	20625.11
818.322	20648.84
818.651	20536.75
818.979	20478.67
819.307	20536.52
819.636	20409.97
819.964	20244.55
820.292	20316.41
820.62	20197.32
820.948	20280.48
821.276	20309.86
821.604	20195.97
821.932	20303.08
822.259	20224.44
822.587	20286.81
822.915	20210.88
823.243	20241.39
823.57	20160.26
823.898	20076.42
824.225	20101.28
824.553	20108.96
824.88	20212.24
825.207	20191.67
825.535	20050.21
825.862	20228.96
826.189	20037.1
826.516	20259.24
826.843	20213.14
827.17	20147.83
827.497	20256.76
827.824	20125.46
828.151	20150.77
828.478	20032.35
828.805	20141.96
829.131	20021.73
829.458	20043.88
829.785	20025.35
830.111	19944.45
830.438	20029.64
830.764	20085.91
831.09	20045.01
831.417	19926.37
831.743	20010.21
832.069	19988.97
832.395	19898.8
832.722	19977.44
833.048	19939.93
833.374	19984.67
833.7	19808.63
834.026	19954.84
834.351	19889.31
834.677	19841.17
835.003	20021.73
835.329	19909.42
835.654	19843.43
835.98	19635.53
836.306	19696.54
836.631	19746.26
836.956	19686.38
837.282	19727.5
837.607	19684.34
837.932	19538.58
838.258	19610.22
838.583	19535.64
838.908	19378.81
839.233	19515.08
839.558	19488.87
839.883	19294.75
840.208	19324.58
840.533	19306.72
840.858	19275.76
841.182	19329.77
841.507	19266.05
841.832	19085.71
842.156	19178.37
842.481	18964.81
842.805	19040.97
843.13	18910.12
843.454	18824.93
843.778	18791.94
844.103	18795.33
844.427	18738.83
844.751	18765.72
845.075	18682.11
845.399	18657.02
845.723	18601.66
846.047	18637.14
846.371	18425.62
846.695	18419.29
847.019	18223.36
847.343	18233.08
847.666	18114.44
847.99	17922.81
848.313	17982.24
848.637	17878.06
848.96	17760.78
849.284	17775.92
849.607	17698.86
849.931	17549.93
850.254	17497.28
850.577	17429.03
850.9	17260.68
851.223	17251.64
851.546	17208.93
851.869	17098.87
852.192	17220.23
852.515	17015.71
852.838	16986.33
853.161	16902.49
853.483	16911.76
853.806	16855.04
854.129	16895.26
854.451	16677.64
854.774	16663.86
855.096	16566.01
855.419	16532.56
855.741	16459.34
856.063	16433.35
856.385	16358.78
856.708	16278.78
857.03	16194.26
857.352	16249.86
857.674	16140.71
857.996	16084.66
858.318	15987.26
858.64	16015.06
858.961	15926.47
859.283	15882.41
859.605	15833.59
859.926	15914.27
860.248	15734.84
860.57	15683.32
860.891	15708.4
861.212	15606.93
861.534	15633.6
861.855	15499.37
862.176	15553.38
862.498	15625.01
862.819	15542.53
863.14	15426.83
863.461	15439.03
863.782	15359.48
864.103	15442.87
864.424	15341.18
864.745	15310.22
865.065	15344.12
865.386	15237.23
865.707	15260.28
866.027	15272.48
866.348	15162.2
866.668	15199.49
866.989	15094.41
867.309	14994.75
867.63	15122.65
867.95	14992.94
868.27	14915.88
868.59	14930.79
868.91	14922.43
869.23	15017.35
869.55	14835.88
869.87	14959.04
870.19	14870.23
870.51	14898.93
870.83	14807.41
871.15	14611.48
871.469	14653.96
871.789	14667.3
872.109	14743.45
872.428	14554.31
872.748	14705.94
873.067	14566.28
873.386	14548.88
873.706	14566.28
874.025	14563.35
874.344	14508.88
874.663	14507.3
874.982	14476.34
875.301	14496.23
875.62	14357.48
875.939	14380.75
876.258	14361.54
876.577	14256.91
876.896	14345.95
877.214	14211.49
877.533	14306.4
877.852	14269.79
878.17	14333.97
878.489	14206.29
878.807	14258.72
879.125	14164.26
879.444	14084.94
879.762	14121.55
880.08	14083.81
880.398	14062.57
880.716	14070.7
881.034	14053.3
881.352	14002.23
881.67	13981.44
881.988	14019.41
882.306	13874.1
882.624	13903.25
882.941	13776.25
883.259	13782.35
883.577	13749.13
883.894	13691.96
884.212	13631.39
884.529	13612.18
884.846	13601.79
885.164	13522.02
885.481	13508.23
885.798	13581.9
886.115	13371.29
886.432	13381.68
886.75	13396.14
887.067	13404.96
887.383	13342.81
887.7	13449.02
888.017	13274.11
888.334	13289.48
888.651	13260.56
888.967	13158.19
889.284	13081.12
889.6	13236.83
889.917	13014.91
890.233	13051.97
890.55	13068.7
890.866	13013.33
891.182	12913.22
891.498	12872.54
891.815	12743.51
892.131	12706.22
892.447	12735.15
892.763	12732.89
893.079	12730.85
893.395	12633.45
893.71	12576.05
894.026	12578.09
894.342	12630.74
894.657	12440.46
894.973	12428.49
895.289	12446.79
895.604	12374.48
895.92	12331.77
896.235	12198.66
896.55	12253.12
896.865	12212.22
897.181	12169.51
897.496	12227.59
897.811	12079.12
898.126	12129.06
898.441	12015.16
898.756	12043.64
899.071	11923.87
899.386	11878.67
899.7	11792.57
900.015	11741.05
900.33	11698.79
900.644	11786.92
900.959	11753.48
901.273	11599.36
901.588	11578.11
901.902	11535.18
902.216	11477.33
902.531	11460.15
902.845	11358.46
903.159	11345.35
903.473	11315.75
903.787	11242.08
904.101	11208.18
904.415	11211.34
904.729	11127.73
905.042	11065.81
905.356	11085.02
905.67	10989.43
905.984	11016.77
906.297	10999.15
906.611	10930.22
906.924	10877.79
907.237	10915.98
907.551	10784.24
907.864	10730
908.177	10710.79
908.491	10661.53
908.804	10649.32
909.117	10567.97
909.43	10519.61
909.743	10399.39
910.056	10458.6
910.368	10389.67
910.681	10271.71
910.994	10321.42
911.307	10308.54
911.619	10197.81
911.932	10260.63
912.244	10109.45
912.557	10104.25
912.869	10029
913.181	10050.02
913.494	10041.43
913.806	9907.88
914.118	9922.11
914.43	9834.88
914.742	9843.47
915.054	9776.13
915.366	9736.13
915.678	9653.42
915.99	9663.59
916.302	9557.83
916.613	9573.19
916.925	9527.09
917.236	9538.62
917.548	9440.54
917.859	9433.31
918.171	9483.03
918.482	9294.56
918.794	9254.78
919.105	9245.29
919.416	9183.6
919.727	9229.02
920.038	9096.15
920.349	9085.52
920.66	8999.65
920.971	8939.99
921.282	9001.46
921.593	8906.77
921.903	8892.53
922.214	8832.2
922.525	8858.41
922.835	8766.44
923.146	8687.12
923.456	8719.21
923.767	8722.6
924.077	8652.77
924.387	8634.24
924.697	8548.81
925.008	8508.36
925.318	8495.26
925.628	8419.78
925.938	8440.12
926.248	8295.71
926.558	8308.6
926.867	8309.05
927.177	8265.66
927.487	8202.61
927.796	8151.99
928.106	8110.18
928.416	8076.06
928.725	8063.18
929.034	8058.43
929.344	8016.63
929.653	7987.25
929.962	7913.58
930.271	7868.38
930.581	7880.13
930.89	7844.88
931.199	7760.81
931.508	7747.03
931.817	7719.91
932.125	7708.61
932.434	7697.31
932.743	7649.63
933.051	7599.69
933.36	7564.21
933.669	7482.85
933.977	7444.21
934.286	7473.59
934.594	7427.94
934.902	7307.49
935.21	7339.13
935.519	7328.06
935.827	7276.08
936.135	7230.43
936.443	7178.68
936.751	7168.96
937.059	7161.96
937.367	7113.6
937.674	7089.64
937.982	7090.55
938.29	7024.79
938.597	7022.98
938.905	6940.72
939.213	6922.42
939.52	6894.17
939.827	6946.37
940.135	6857.56
940.442	6867.28
940.749	6777.34
941.056	6787.96
941.363	6697.11
941.67	6711.12
941.977	6660.05
942.284	6700.95
942.591	6669.09
942.898	6611.69
943.205	6556.55
943.511	6550.45
943.818	6531.69
944.125	6483.56
944.431	6430
944.738	6427.06
945.044	6400.17
945.35	6369.89
945.657	6326.95
945.963	6312.04
946.269	6255.77
946.575	6258.25
946.881	6243.79
947.187	6194.07
947.493	6141.42
947.799	6154.08
948.105	6070.69
948.41	6087.86
948.716	6136
949.022	6011.93
949.327	5995.89
949.633	5952.95
949.938	5908.88
950.244	5905.72
950.549	5859.85
950.854	5872.27
951.16	5805.38
951.465	5815.33
951.77	5770.13
952.075	5766.29
952.38	5733.52
952.685	5701.21
952.99	5671.15
953.294	5669.12
953.599	5686.74
953.904	5550.48
954.209	5540.53
954.513	5550.02
954.818	5516.8
955.122	5506.18
955.426	5476.13
955.731	5475.22
956.035	5394.55
956.339	5364.04
956.643	5424.6
956.948	5373.76
957.252	5346.41
957.556	5370.82
957.86	5268.68
958.163	5316.36
958.467	5302.57
958.771	5270.71
959.075	5205.85
959.378	5240.88
959.682	5189.81
959.985	5162.24
960.289	5099.64
960.592	5098.28
960.896	5056.93
961.199	5023.03
961.502	5009.47
961.805	4997.04
962.108	4932.64
962.411	4976.25
962.714	4953.2
963.017	4890.38
963.32	4912.98
963.623	4858.29
963.926	4842.02
964.228	4864.62
964.531	4792.08
964.833	4778.97
965.136	4804.96
965.438	4788.46
965.741	4765.41
966.043	4720.67
966.345	4699.2
966.648	4684.96
966.95	4646.54
967.252	4605.87
967.554	4613.78
967.856	4553.89
968.158	4592.76
968.46	4532.2
968.761	4516.6
969.063	4479.32
969.365	4444.74
969.666	4453.1
969.968	4426.21
970.269	4421.69
970.571	4449.71
970.872	4395.03
971.174	4346.44
971.475	4397.06
971.776	4352.09
972.077	4343.95
972.378	4267.57
972.679	4277.74
972.98	4262.37
973.281	4226.44
973.582	4205.65
973.883	4210.4
974.183	4160.23
974.484	4151.87
974.785	4108.48
975.085	4115.03
975.386	4112.32
975.686	4087.24
975.986	4071.64
976.287	4012.89
976.587	3989.84
976.887	3965.66
977.187	4016.5
977.487	3968.82
977.787	3939.67
978.087	3929.28
978.387	3899.67
978.687	3931.99
978.987	3856.96
979.286	3839.79
979.586	3853.8
979.885	3793.01
980.185	3796.4
980.484	3786.23
980.784	3773.8
981.083	3769.51
981.382	3757.53
981.682	3689.96
981.981	3735.38
982.28	3669.62
982.579	3657.42
982.878	3675.95
983.177	3608.38
983.475	3657.19
983.774	3599.57
984.073	3573.13
984.372	3583.07
984.67	3541.26
984.969	3544.43
985.267	3541.26
985.566	3524.99
985.864	3543.75
986.162	3474.82
986.461	3451.55
986.759	3483.86
987.057	3395.5
987.355	3413.58
987.653	3391.44
987.951	3399.57
988.249	3368.39
988.547	3336.3
988.844	3316.41
989.142	3330.65
989.44	3314.6
989.737	3287.94
990.035	3282.96
990.332	3277.77
990.63	3271.44
990.927	3219.01
991.224	3246.13
991.521	3220.14
991.819	3235.06
992.116	3205.45
992.413	3169.07
992.71	3150.31
993.006	3100.37
993.303	3131.1
993.6	3049.75
993.897	3073.03
994.193	3062.41
994.49	3015.17
994.787	3015.63
995.083	2987.15
995.379	3003.42
995.676	2980.15
995.972	2960.94
996.268	2936.98
996.565	2913.71
996.861	2903.31
997.157	2918.23
997.453	2902.86
997.749	2854.28
998.044	2826.03
998.34	2870.77
998.636	2800.04
998.932	2814.95
999.227	2764.11
999.523	2751
999.818	2765.69
1000.114	2745.13
1000.409	2729.76
1000.704	2682.98
1001	2705.35
1001.295	2703.77
1001.59	2670.55
1001.885	2645.47
1002.18	2642.53
1002.475	2613.83
1002.77	2628.29
1003.065	2584.45
1003.359	2572.47
1003.654	2591.91
1003.949	2556.43
1004.243	2542.19
1004.538	2503.1
1004.832	2538.8
1005.127	2507.17
1005.421	2462.65
1005.715	2432.59
1006.009	2439.14
1006.304	2410.45
1006.598	2390.56
1006.892	2431.24
1007.186	2428.98
1007.48	2404.57
1007.773	2376.77
1008.067	2369.99
1008.361	2351.46
1008.655	2343.33
1008.948	2346.94
1009.242	2301.52
1009.535	2297.68
1009.829	2291.8
1010.122	2261.97
1010.415	2245.48
1010.708	2267.17
1011.001	2224.46
1011.295	2173.62
1011.588	2227.17
1011.881	2197.34
1012.173	2146.05
1012.466	2154.86
1012.759	2148.53
1013.052	2113.96
1013.344	2112.37
1013.637	2115.31
1013.93	2103.11
1014.222	2110.11
1014.514	2063.56
1014.807	2047.74
1015.099	2061.53
1015.391	2005.03
1015.683	2028.31
1015.976	2004.13
1016.268	2008.65
1016.56	1971.81
1016.851	1970.46
1017.143	1942.89
1017.435	1934.98
1017.727	1943.11
1018.018	1918.93
1018.31	1922.77
1018.602	1887.07
1018.893	1893.85
1019.185	1858.6
1019.476	1843.68
1019.767	1830.57
1020.058	1821.76
1020.35	1844.58
1020.641	1798.03
1020.932	1793.29
1021.223	1791.48
1021.514	1793.29
1021.804	1742.21
1022.095	1735.66
1022.386	1724.81
1022.677	1732.5
1022.967	1730.24
1023.258	1698.83
1023.548	1686.62
1023.839	1711.48
1024.129	1691.14
1024.419	1656.57
1024.709	1651.14
1025	1620.86
1025.29	1611.6
1025.58	1608.21
1025.87	1600.07
1026.16	1612.73
1026.449	1576.79
1026.739	1554.87
1027.029	1571.6
1027.319	1534.99
1027.608	1515.78
1027.898	1540.64
1028.187	1527.3
1028.477	1478.72
1028.766	1490.47
1029.055	1484.59
1029.344	1488.89
1029.634	1485.95
1029.923	1465.61
1030.212	1435.33
1030.501	1427.87
1030.79	1423.13
1031.078	1408.21
1031.367	1397.36
1031.656	1394.65
1031.945	1374.09
1032.233	1344.71
1032.522	1371.6
1032.81	1349.46
1033.099	1356.46
1033.387	1342
1033.675	1336.35
1033.963	1323.69
1034.251	1308.78
1034.54	1274.66
1034.828	1288.21
1035.116	1262.9
1035.403	1269.46
1035.691	1267.2
1035.979	1249.35
1036.267	1259.29
1036.554	1240.98
1036.842	1229.69
1037.129	1205.51
1037.417	1219.97
1037.704	1169.12
1037.992	1211.38
1038.279	1164.6
1038.566	1173.19
1038.853	1173.19
1039.14	1173.19
