Data from plate_ceramic_FLMS001491_039.txt Node
Date: Tue Feb 07 11:16:41 GMT 2017
User: dcchb
Spectrometer: FLMS00149
Trigger mode: 0
Integration Time (sec): 2.000000E-2
Scans to average: 10
Electric dark correction enabled: true
Nonlinearity correction enabled: false
Boxcar width: 0
XAxis mode: Wavelengths
Number of Pixels in Spectrum: 2048
>>>>>Begin Spectral Data<<<<<
341.393	-3.32
341.776	-3.32
342.16	-3.32
342.543	-47.61
342.927	-52.81
343.31	-65.92
343.693	-88.06
344.077	-62.53
344.46	-40.83
344.843	-38.57
345.226	-38.57
345.61	-16.65
345.993	-20.49
346.376	-24.34
346.759	9.11
347.142	8.43
347.525	46.4
347.908	73.97
348.291	62.22
348.674	91.59
349.057	104.25
349.44	124.14
349.823	134.76
350.206	185.38
350.588	226.73
350.971	235.54
351.354	232.15
351.737	264.02
352.119	269.67
352.502	292.72
352.884	308.54
353.267	301.31
353.65	316.9
354.032	343.79
354.414	318.25
354.797	341.98
355.179	326.84
355.562	339.95
355.944	359.61
356.326	360.97
356.709	347.63
357.091	375.2
357.473	386.5
357.855	391.02
358.238	377.69
358.62	388.99
359.002	363.9
359.384	372.49
359.766	378.14
360.148	367.29
360.53	384.02
360.912	369.33
361.294	369.1
361.676	383.79
362.057	362.32
362.439	355.32
362.821	365.48
363.203	347.41
363.584	391.7
363.966	365.26
364.348	350.8
364.729	370.91
365.111	369.33
365.493	347.86
365.874	370.91
366.256	394.64
366.637	358.71
367.019	381.76
367.4	367.07
367.781	359.61
368.163	339.95
368.544	336.56
368.925	373.62
369.306	379.5
369.688	362.55
370.069	365.03
370.45	352.38
370.831	375.43
371.212	391.25
371.593	351.7
371.974	389.89
372.355	392.15
372.736	365.03
373.117	375.65
373.498	379.27
373.879	386.28
374.26	377.01
374.641	367.52
375.021	376.11
375.402	373.39
375.783	415.43
376.163	425.37
376.544	425.6
376.925	402.09
377.305	419.49
377.686	373.17
378.066	401.19
378.447	431.7
378.827	428.08
379.208	409.78
379.588	416.33
379.968	408.87
380.349	430.79
380.729	434.86
381.109	421.53
381.489	447.29
381.87	448.65
382.25	448.87
382.63	448.42
383.01	459.27
383.39	462.21
383.77	474.18
384.15	482.77
384.53	466.05
384.91	482.54
385.29	498.81
385.67	474.63
386.049	488.65
386.429	477.8
386.809	473.28
387.189	495.2
387.568	492.71
387.948	485.03
388.328	481.64
388.707	511.92
389.087	501.75
389.466	517.57
389.846	528.19
390.225	548.53
390.605	538.59
390.984	523.67
391.363	548.53
391.743	550.34
392.122	550.56
392.501	552.82
392.881	556.21
393.26	595.08
393.639	567.97
394.018	588.98
394.397	596.44
394.776	610.9
395.155	619.26
395.534	619.49
395.913	627.4
396.292	604.35
396.671	625.14
397.05	631.69
397.429	631.01
397.808	624.91
398.186	626.95
398.565	627.17
398.944	645.7
399.323	650.45
399.701	638.25
400.08	658.58
400.458	674.18
400.837	714.85
401.215	708.3
401.594	686.83
401.972	697.68
402.351	698.13
402.729	694.74
403.107	735.87
403.486	709.66
403.864	733.16
404.242	745.14
404.62	746.72
404.999	776.77
405.377	766.83
405.755	758.92
406.133	776.32
406.511	762.76
406.889	811.57
407.267	795.08
407.645	824.91
408.023	855.87
408.401	833.27
408.779	848.18
409.156	840.5
409.534	884.57
409.912	874.17
410.29	929.76
410.667	916.88
411.045	914.17
411.422	928.63
411.8	929.99
412.178	965.92
412.555	973.38
412.933	968.63
413.31	986.94
413.687	1005.24
414.065	1001.17
414.442	997.11
414.819	1050.44
415.197	1026.71
415.574	1052.02
415.951	1089.53
416.328	1085.69
416.705	1114.39
417.082	1100.38
417.46	1109.65
417.837	1096.31
418.214	1132.92
418.591	1137.44
418.967	1150.1
419.344	1155.07
419.721	1179.93
420.098	1204.11
420.475	1212.92
420.852	1224.45
421.228	1221.96
421.605	1230.55
421.982	1247.72
422.358	1284.56
422.735	1286.59
423.111	1285.91
423.488	1306.02
423.864	1338.57
424.241	1333.59
424.617	1339.47
424.994	1356.87
425.37	1362.75
425.746	1360.03
426.123	1396.64
426.499	1422.86
426.875	1415.4
427.251	1465.34
427.627	1483.42
428.003	1512.35
428.379	1510.77
428.756	1527.26
429.132	1559.13
429.507	1548.28
429.883	1608.16
430.259	1603.87
430.635	1633.7
431.011	1644.32
431.387	1684.32
431.763	1702.85
432.138	1736.52
432.514	1744.88
432.89	1752.79
433.265	1802.74
433.641	1835.28
434.016	1826.69
434.392	1857.65
434.767	1885.22
435.143	1888.16
435.518	1903.3
435.894	1925.44
436.269	2000.7
436.644	1999.79
437.02	2007.7
437.395	2004.76
437.77	2023.97
438.145	2056.51
438.52	2101.71
438.895	2124.76
439.271	2113.01
439.646	2150.97
440.021	2175.83
440.395	2226
440.77	2170.41
441.145	2228.03
441.52	2300.35
441.895	2219.67
442.27	2267.81
442.645	2281.37
443.019	2319.78
443.394	2315.49
443.769	2350.29
444.143	2318.2
444.518	2368.37
444.892	2373.57
445.267	2374.7
445.641	2438.42
446.016	2452.21
446.39	2438.88
446.764	2473.9
447.139	2483.17
447.513	2489.95
447.887	2521.59
448.262	2502.6
448.636	2585.31
449.01	2563.17
449.384	2603.62
449.758	2630.74
450.132	2642.26
450.506	2676.16
450.88	2674.35
451.254	2704.86
451.628	2740.11
452.002	2795.25
452.376	2770.39
452.75	2840.22
453.123	2871.63
453.497	2867.79
453.871	2918.86
454.244	2980.78
454.618	2977.62
454.992	3042.48
455.365	3057.84
455.739	3132.19
456.112	3178.52
456.486	3183.72
456.859	3200.89
457.232	3262.81
457.606	3294.22
457.979	3322.24
458.352	3401.56
458.725	3453.31
459.099	3455.12
459.472	3488.11
459.845	3540.09
460.218	3579.41
460.591	3620.31
460.964	3626.42
461.337	3733.76
461.71	3800.42
462.083	3836.81
462.456	3857.37
462.829	3875.67
463.201	3931.04
463.574	3991.15
463.947	4026.63
464.32	4121.09
464.692	4152.5
465.065	4171.26
465.438	4225.72
465.81	4285.38
466.183	4325.61
466.555	4429.78
466.928	4462.33
467.3	4468.2
467.672	4570.12
468.045	4666.16
468.417	4665.71
468.789	4747.29
469.161	4818.47
469.534	4860.28
469.906	4956.55
470.278	5015.76
470.65	5034.74
471.022	5134.17
471.394	5246.71
471.766	5263.21
472.138	5384.34
472.51	5456.88
472.882	5529.87
473.253	5617.55
473.625	5714.5
473.997	5815.51
474.369	5852.35
474.74	5947.71
475.112	6064.77
475.484	6132.56
475.855	6228.83
476.227	6331.2
476.598	6497.98
476.97	6544.53
477.341	6718.09
477.713	6784.3
478.084	6817.07
478.455	7050.05
478.827	7010.96
479.198	7326.43
479.569	7317.84
479.94	7542.7
480.311	7619.08
480.682	7811.84
481.053	7966.41
481.424	8031.05
481.795	8155.34
482.166	8231.27
482.537	8363.92
482.908	8601.88
483.279	8659.05
483.65	8877.58
484.021	9029.89
484.391	9106.5
484.762	9190.11
485.133	9299.49
485.503	9461.52
485.874	9662.42
486.244	9729.98
486.615	9912.8
486.985	10023.99
487.356	10180.59
487.726	10355.28
488.097	10533.35
488.467	10527.03
488.837	10870.75
489.207	10877.3
489.578	11090.17
489.948	11176.73
490.318	11332.65
490.688	11381.24
491.058	11542.37
491.428	11675.47
491.798	11928.12
492.168	12115.91
492.538	12126.31
492.908	12310.93
493.278	12494.88
493.648	12516.58
494.017	12674.99
494.387	12797.25
494.757	12890.35
495.126	13029.78
495.496	13105.71
495.866	13234.98
496.235	13342.54
496.605	13437.23
496.974	13578.7
497.344	13778.69
497.713	13848.29
498.082	13914.73
498.452	14028.85
498.821	14101.85
499.19	14197.66
499.559	14342.52
499.928	14437.21
500.298	14509.07
500.667	14639.01
501.036	14642.85
501.405	14844.65
501.774	14930.98
502.143	15060.24
502.512	15142.27
502.88	15286.9
503.249	15359.21
503.618	15446.22
503.987	15444.41
504.356	15640.34
504.724	15740
505.093	15815.93
505.462	15919.2
505.83	16067.22
506.199	16265.18
506.567	16400.32
506.936	16346.76
507.304	16561.9
507.672	16623.36
508.041	16810.02
508.409	16865.62
508.777	16999.4
509.145	17141.77
509.514	17221.99
509.882	17283.68
510.25	17483.68
510.618	17570
510.986	17664.46
511.354	17844.8
511.722	18046.83
512.09	18138.58
512.458	18207.05
512.826	18422.19
513.193	18452.01
513.561	18539.24
513.929	18631.9
514.297	18792.8
514.664	19043.86
515.032	19224.65
515.4	19301.94
515.767	19327.7
516.135	19589.16
516.502	19408.37
516.869	19901.92
517.237	19929.94
517.604	19853.33
517.972	20180.33
518.339	20317.05
518.706	20413.55
519.073	20564.73
519.44	20634.1
519.808	20925.17
520.175	20920.2
520.542	21316.35
520.909	21399.96
521.276	21398.15
521.643	21574.19
522.009	21804.24
522.376	21923.56
522.743	22079.72
523.11	22272.25
523.477	22559.7
523.843	22700.49
524.21	22929.86
524.577	23144.55
524.943	23146.81
525.31	23288.5
525.676	23574.37
526.043	23657.3
526.409	23877.63
526.776	24127.12
527.142	24212.54
527.508	24320.56
527.874	24628.12
528.241	24725.52
528.607	24877.83
528.973	24952.41
529.339	25097.94
529.705	25318.95
530.071	25470.36
530.437	25709
530.803	25864.93
531.169	26022.21
531.535	25935.43
531.901	26170.91
532.267	26231.25
532.632	26502.42
532.998	26620.61
533.364	26715.98
533.73	26777.22
534.095	26932.02
534.461	27241.61
534.826	27306.92
535.192	27389.41
535.557	27604.77
535.923	27672.79
536.288	27737.65
536.653	27861.94
537.019	27885.21
537.384	28138.99
537.749	28289.5
538.114	28283.62
538.479	28378.08
538.845	28486.55
539.21	28459.44
539.575	28694.91
539.94	28840.44
540.305	28951.85
540.67	28976.26
541.034	29186.2
541.399	29185.97
541.764	29433.42
542.129	29473.65
542.494	29633.64
542.858	29705.96
543.223	29790.93
543.587	29933.97
543.952	29890.58
544.316	30187.98
544.681	30121.31
545.045	30306.17
545.41	30377.12
545.774	30477.46
546.138	30526.5
546.503	30674.52
546.867	30764.91
547.231	31062.3
547.595	31166.71
547.959	31345.24
548.324	31236.09
548.688	31367.61
549.052	31496.64
549.416	31597.43
549.779	31626.13
550.143	31714.04
550.507	32024.77
550.871	32082.39
551.235	32211.2
551.599	32417.98
551.962	32362.84
552.326	32740.68
552.689	32696.84
553.053	32629.04
553.417	32864.97
553.78	33334.79
554.143	33053.89
554.507	33271.06
554.87	33428.34
555.234	33899.52
555.597	33599.64
555.96	33723.48
556.323	33936.13
556.686	34132.73
557.05	34414.98
557.413	34398.94
557.776	34626.05
558.139	34824.92
558.502	34788.99
558.865	35171.35
559.228	35249.77
559.59	35306.71
559.953	35344.9
560.316	35825.8
560.679	35789.41
561.041	35877.55
561.404	36168.61
561.767	36451.77
562.129	36376.97
562.492	36769.05
562.854	36773.34
563.217	36832.55
563.579	37026.44
563.941	37381.69
564.304	37401.12
564.666	37593.43
565.028	37863.03
565.39	37971.5
565.753	37966.3
566.115	38304.15
566.477	38386.41
566.839	38256.01
567.201	38837.92
567.563	38714.31
567.925	38997.01
568.287	39144.58
568.648	39094.18
569.01	39378.7
569.372	39547.73
569.734	39507.96
570.095	39852.13
570.457	40041.28
570.819	40146.59
571.18	40026.59
571.542	40447.59
571.903	40494.37
572.265	40778.21
572.626	40684.42
572.987	40820.69
573.349	40993.79
573.71	41134.81
574.071	41156.05
574.432	41206.67
574.794	41401.02
575.155	41532.99
575.516	41431.52
575.877	41541.8
576.238	41665.64
576.599	42054.78
576.96	41936.82
577.32	41987.67
577.681	42249.13
578.042	42334.55
578.403	42481.21
578.763	42334.32
579.124	42454.55
579.485	42649.34
579.845	42899.96
580.206	42662.9
580.566	42529.57
580.927	42686.86
581.287	42878.94
581.648	42813.18
582.008	42820.64
582.368	42717.59
582.728	43020.86
583.089	42883.01
583.449	42957.36
583.809	43016.57
584.169	43125.94
584.529	43033.06
584.889	43349.89
585.249	43114.64
585.609	43112.16
585.969	43304.69
586.329	43043.46
586.688	43172.04
587.048	43132.72
587.408	43227.86
587.768	43058.6
588.127	43107.19
588.487	43180.4
588.846	43534.07
589.206	43278.03
589.565	43195.55
589.925	43391.02
590.284	43354.86
590.643	43282.77
591.003	43596.66
591.362	43602.77
591.721	43395.31
592.08	43539.94
592.44	43633.05
592.799	43703.55
593.158	43500.4
593.517	43572.71
593.876	43548.76
594.235	43492.94
594.593	43635.76
594.952	43636.21
595.311	43562.32
595.67	43908.97
596.029	43962.08
596.387	43861.06
596.746	43955.53
597.104	43654.52
597.463	43798.02
597.822	44042.53
598.18	43815.87
598.538	43797.34
598.897	44061.74
599.255	43783.55
599.613	44376.76
599.972	44089.53
600.33	44144.9
600.688	44016.09
601.046	44149.19
601.404	44373.82
601.762	44217.89
602.12	44474.61
602.478	44401.84
602.836	44523.42
603.194	44179.47
603.552	44374.72
603.91	44328.85
604.268	44545.34
604.625	44339.24
604.983	44673.47
605.341	44539.24
605.698	44777.88
606.056	44796.18
606.413	44796.41
606.771	44859.23
607.128	44955.5
607.485	44730.65
607.843	44788.72
608.2	45054.93
608.557	45172.67
608.914	44989.62
609.272	45111.43
609.629	45134.48
609.986	45306.9
610.343	45220.12
610.7	45545.09
611.057	45262.61
611.414	45268.48
611.771	45369.95
612.127	45606.33
612.484	45619.89
612.841	45635.71
613.198	45481.13
613.554	45646.1
613.911	45859.88
614.267	45860.11
614.624	45849.71
614.98	45924.96
615.337	46146.43
615.693	46034.57
616.05	45962.25
616.406	46254.22
616.762	45889.71
617.118	45922.48
617.475	46056.03
617.831	45959.54
618.187	46234.56
618.543	46230.95
618.899	46411.05
619.255	46286.31
619.611	46252.64
619.967	46403.6
620.323	46580.31
620.678	46420.09
621.034	46432.75
621.39	46376.7
621.746	46326.08
622.101	46809.46
622.457	46432.52
622.812	46552.07
623.168	46540.09
623.523	46594.1
623.879	46646.3
624.234	46339.42
624.589	46605.62
624.945	46508.23
625.3	46627.32
625.655	46580.77
626.01	46587.55
626.365	46618.96
626.72	46562.91
627.075	46596.59
627.43	46470.71
627.785	46475.46
628.14	46430.26
628.495	46553.65
628.85	46440.66
629.205	46446.98
629.559	46529.47
629.914	46352.52
630.269	46365.18
630.623	46388
630.978	46255.13
631.332	46473.2
631.687	46442.47
632.041	46134.9
632.396	46313.2
632.75	45975.13
633.104	46205.41
633.459	45955.92
633.813	45987.79
634.167	45923.61
634.521	45993.66
634.875	45977.62
635.229	45930.16
635.583	45674.58
635.937	45754.8
636.291	45628.93
636.645	45657.63
636.999	45607.91
637.352	45733.33
637.706	45366.11
638.06	45574.47
638.413	45372.44
638.767	45364.98
639.121	45468.71
639.474	45252.44
639.828	45147.81
640.181	45250.86
640.534	45319.1
640.888	45188.03
641.241	44921.15
641.594	45051.09
641.947	45091.99
642.301	45129.05
642.654	45017.87
643.007	44964.99
643.36	44856.74
643.713	44892.9
644.066	45100.13
644.419	44539.69
644.771	44216.31
645.124	43980.84
645.477	43748.98
645.83	43594.86
646.182	43464.92
646.535	43460.85
646.888	43471.02
647.24	43299.95
647.593	43551.24
647.945	43449.32
648.298	43220.4
648.65	43260.4
649.002	43007.08
649.355	43332.26
649.707	43177.92
650.059	43273.96
650.411	43721.18
650.763	43636.89
651.115	44093.6
651.467	43962.53
651.819	44046.37
652.171	43726.15
652.523	43669.88
652.875	43622.65
653.227	43499.72
653.578	43909.42
653.93	43691.8
654.282	43548.08
654.633	43546.95
654.985	43671.24
655.337	43620.62
655.688	43581.75
656.039	43600.73
656.391	43158.94
656.742	43266.96
657.094	43404.81
657.445	43541.3
657.796	43300.85
658.147	43300.85
658.498	43165.72
658.849	43360.96
659.2	43241.42
659.551	43005.04
659.902	43304.24
660.253	43156.22
660.604	43100.63
660.955	43003.23
661.306	43169.11
661.656	43198.93
662.007	43065.15
662.358	43007.3
662.708	43074.42
663.059	43030.13
663.409	42802.11
663.76	43055.21
664.11	43023.8
664.461	42932.5
664.811	42888.21
665.161	42876.23
665.511	42889.34
665.862	42986.96
666.212	42970.24
666.562	43023.12
666.912	42904.03
667.262	42833.52
667.612	42898.15
667.962	42812.28
668.312	42646.41
668.662	42863.12
669.011	42771.15
669.361	42791.04
669.711	42688.21
670.06	42723.02
670.41	42584.04
670.76	42476.02
671.109	42644.37
671.459	42479.63
671.808	42520.08
672.157	42522.57
672.507	42250.49
672.856	42279.86
673.205	42358.96
673.554	42487.32
673.904	42239.86
674.253	42511.04
674.602	42397.37
674.951	41690.95
675.3	41596.04
675.649	42225.4
675.998	42185.18
676.346	42209.36
676.695	42231.28
677.044	42010.27
677.393	42143.6
677.741	42103.6
678.09	41931.62
678.438	41974.33
678.787	42004.39
679.135	42061.34
679.484	41813.89
679.832	42005.52
680.181	41656.83
680.529	41756.94
680.877	41678.97
681.225	41550.16
681.573	41815.24
681.922	41479.88
682.27	41416.38
682.618	41488.02
682.966	41295.03
683.314	41424.29
683.661	41330.28
684.009	41022.72
684.357	40937.75
684.705	40897.07
685.053	40944.3
685.4	40957.41
685.748	40862.72
686.095	40685.33
686.443	40633.35
686.79	40368.27
687.138	40496.18
687.485	40389.74
687.832	40301.38
688.18	40529.63
688.527	40404.21
688.874	40237.66
689.221	39998.57
689.568	39921.96
689.915	39912.24
690.262	39919.47
690.609	39834.05
690.956	39789.98
691.303	39504.12
691.65	39482.65
691.997	39420.73
692.344	39198.81
692.69	39441.52
693.037	39249.43
693.383	38917.01
693.73	39122.21
694.077	38830.24
694.423	38885.83
694.769	38900.06
695.116	38790.46
695.462	38646.74
695.808	38584.37
696.155	38563.12
696.501	38310.48
696.847	38243.13
697.193	37961.11
697.539	38151.38
697.885	37863.48
698.231	37760.21
698.577	37755.69
698.923	37750.49
699.269	37462.81
699.614	37174.23
699.96	37202.03
700.306	37238.41
700.651	37142.14
700.997	37044.29
701.342	37024.86
701.688	36791.65
702.033	36743.96
702.379	36647.02
702.724	36608.37
703.069	36569.05
703.415	36290.87
703.76	36263.98
704.105	36282.51
704.45	36232.34
704.795	35914.15
705.14	35762.75
705.485	35778.11
705.83	35733.14
706.175	35764.33
706.52	35569.3
706.865	35588.74
707.209	35462.42
707.554	35349.88
707.899	35488.18
708.243	35261.97
708.588	35172.48
708.932	34849.1
709.277	34973.39
709.621	34818.36
709.966	34620.18
710.31	34773.62
710.654	34545.6
710.998	34672.15
711.342	34536.11
711.687	34469.67
712.031	34403.01
712.375	34208.44
712.719	34311.48
713.063	34156.01
713.407	34211.83
713.75	34077.14
714.094	34104.48
714.438	33952.4
714.782	34029.01
715.125	33844.83
715.469	33849.8
715.812	33616.14
716.156	33586.31
716.499	33558.06
716.843	33509.47
717.186	33352.19
717.53	33505.86
717.873	33448.23
718.216	33306.54
718.559	33075.81
718.902	32853.67
719.246	33063.61
719.589	32978.86
719.932	32848.47
720.275	32775.71
720.617	32737.97
720.96	32624.98
721.303	32724.86
721.646	32679.44
721.989	32406.9
722.331	32506.56
722.674	32315.38
723.016	32265.89
723.359	32340.69
723.701	32321.93
724.044	32140.02
724.386	31987.48
724.729	32108.6
725.071	32144.08
725.413	31970.53
725.755	31868.61
726.097	31829.52
726.439	31616.19
726.782	31756.75
727.124	31864.77
727.465	31600.37
727.807	31542.29
728.149	31417.55
728.491	31463.88
728.833	31608.51
729.175	31402.86
729.516	31458.9
729.858	31317.67
730.199	31323.77
730.541	31127.39
730.882	31140.49
731.224	31286.71
731.565	31057.56
731.906	31123.55
732.248	31084.45
732.589	30985.92
732.93	30630.9
733.271	30801.97
733.612	30801.52
733.953	30764.91
734.294	30690.11
734.635	30612.15
734.976	30585.03
735.317	30510.68
735.658	30561.75
735.999	30460.74
736.339	30463.68
736.68	30478.14
737.021	30401.98
737.361	30272.95
737.702	30401.08
738.042	30197.02
738.383	30192.72
738.723	30133.52
739.063	30090.8
739.404	30008.55
739.744	29938.94
740.084	29871.6
740.424	30037.7
740.764	29872.73
741.104	29877.7
741.444	29717.93
741.784	29627.54
742.124	29717.71
742.464	29649.91
742.804	29684.71
743.143	29524.94
743.483	29515.23
743.823	29295.12
744.162	29374.67
744.502	29422.12
744.841	29267.1
745.181	29269.58
745.52	29181.45
745.86	29271.84
746.199	29138.74
746.538	29084.05
746.877	29085.63
747.216	29015.58
747.556	28929.48
747.895	28934.68
748.234	28813.1
748.573	28813.1
748.911	28787.34
749.25	28790.95
749.589	28556.61
749.928	28545.99
750.267	28527
750.605	28477.29
750.944	28387.57
751.283	28390.28
751.621	28359.78
751.96	28278.65
752.298	28186.9
752.636	28169.95
752.975	27948.04
753.313	27865.78
753.651	28004.98
753.989	27849.51
754.327	27838.89
754.666	27745.56
755.004	27900.35
755.342	27761.6
755.679	27787.36
756.017	27435.96
756.355	27538.33
756.693	27410.88
757.031	27355.06
757.368	27269.86
757.706	27152.8
758.044	27159.36
758.381	27190.54
758.719	27078.45
759.056	27023.99
759.394	26872.13
759.731	26761.85
760.068	26765.02
760.405	26663.55
760.743	26626.94
761.08	26661.06
761.417	26414.74
761.754	26311.92
762.091	26290.9
762.428	26138.37
762.765	26092.49
763.102	26177.69
763.438	26043.91
763.775	25909.45
764.112	25957.81
764.449	25854.31
764.785	25733.18
765.122	25569.57
765.458	25491.83
765.795	25468.55
766.131	25426.97
766.467	25266.98
766.804	25092.97
767.14	25069.02
767.476	24968.91
767.812	24931.17
768.148	24981.79
768.485	24738.86
768.821	24612.98
769.157	24514.23
769.492	24655.24
769.828	24592.64
770.164	24325.98
770.5	24305.65
770.836	24318.98
771.171	24242.6
771.507	24093.67
771.842	23928.71
772.178	23874.7
772.513	23825.43
772.849	23694.36
773.184	23634.03
773.519	23541.37
773.855	23461.83
774.19	23366.24
774.525	23341.83
774.86	23299.12
775.195	23144.77
775.53	23129.41
775.865	22945.91
776.2	22744.33
776.535	22552.02
776.87	22748.85
777.205	22543.21
777.539	22565.13
777.874	22438.58
778.209	22336.43
778.543	22269.99
778.878	22165.36
779.212	22142.54
779.547	22135.08
779.881	22011.02
780.215	21883.56
780.55	21802.66
780.884	21771.93
781.218	21604.25
781.552	21657.13
781.886	21504.82
782.22	21383.46
782.554	21323.8
782.888	21175.56
783.222	21120.19
783.556	20938.28
783.889	21072.74
784.223	20823.03
784.557	20862.35
784.89	20921.55
785.224	20698.96
785.557	20550.72
785.891	20509.81
786.224	20454
786.558	20460.1
786.891	20205.87
787.224	20220.33
787.557	20113.89
787.891	20228.47
788.224	20085.87
788.557	20087.23
788.89	19924.97
789.223	20024.85
789.556	19812.66
789.888	19731.76
790.221	19748.93
790.554	19534.7
790.887	19540.8
791.219	19468.71
791.552	19374.25
791.884	19367.24
792.217	19332.22
792.549	19117.53
792.882	19034.82
793.214	19039.57
793.546	18936.07
793.879	18845.9
794.211	18707.6
794.543	18795.06
794.875	18827.6
795.207	18812.23
795.539	18589.64
795.871	18666.25
796.203	18547.61
796.535	18419.93
796.867	18318.91
797.198	18293.6
797.53	18237.56
797.862	18111.68
798.193	18223.09
798.525	18071.46
798.856	18107.17
799.188	17976.55
799.519	17901.52
799.85	17751.92
800.182	17765.25
800.513	17758.02
800.844	17538.82
801.175	17707.18
801.506	17639.15
801.837	17560.74
802.168	17457.46
802.499	17339.05
802.83	17310.58
803.161	17285.94
803.491	17270.35
803.822	17311.48
804.153	17094.99
804.483	16961.88
804.814	16929.57
805.145	16993.75
805.475	16947.87
805.805	16857.71
806.136	16924.37
806.466	16825.62
806.796	16877.82
807.126	16645.96
807.457	16612.29
807.787	16576.13
808.117	16482.12
808.447	16478.96
808.777	16449.36
809.107	16279.19
809.436	16314.9
809.766	16245.52
810.096	16278.29
810.426	16233.54
810.755	16133.43
811.085	16176.82
811.414	16034.23
811.744	15935.7
812.073	15953.55
812.403	15921.01
812.732	15859.09
813.061	15872.2
813.39	15743.61
813.719	15732.31
814.049	15760.79
814.378	15735.7
814.707	15588.81
815.036	15584.52
815.365	15516.72
815.693	15466.33
816.022	15427.69
816.351	15372.77
816.68	15364.19
817.008	15343.85
817.337	15179.33
817.665	15154.93
817.994	15241.25
818.322	15150.18
818.651	15095.72
818.979	15103.18
819.307	15169.39
819.636	15106.34
819.964	14953.58
820.292	15011.2
820.62	14961.26
820.948	14970.75
821.276	14947.25
821.604	14860.92
821.932	14950.41
822.259	14929.4
822.587	14874.93
822.915	14907.7
823.243	14950.19
823.57	14917.42
823.898	14878.78
824.225	14841.94
824.553	14801.94
824.88	14889.17
825.207	14886.01
825.535	14753.81
825.862	14822.28
826.189	14770.08
826.516	14836.06
826.843	14967.13
827.17	14940.24
827.497	14859.34
827.824	14834.48
828.151	14933.92
828.478	14895.27
828.805	14952.45
829.131	14809.17
829.458	14739.8
829.785	14716.97
830.111	14717.65
830.438	14809.62
830.764	14806.01
831.09	14744.54
831.417	14611.89
831.743	14811.66
832.069	14682.17
832.395	14637.65
832.722	14698.22
833.048	14590.87
833.374	14667.48
833.7	14545.22
834.026	14653.92
834.351	14629.52
834.677	14634.94
835.003	14665.67
835.329	14644.66
835.654	14620.03
835.98	14526.24
836.306	14547.48
836.631	14450.76
836.956	14592.68
837.282	14526.02
837.607	14405.34
837.932	14442.63
838.258	14328.96
838.583	14427.04
838.908	14322.63
839.233	14331.45
839.558	14247.38
839.883	14248.74
840.208	14223.43
840.533	14193.6
840.858	14229.98
841.182	14200.6
841.507	14175.52
841.832	14042.87
842.156	14082.41
842.481	14068.63
842.805	13925.58
843.13	13975.97
843.454	13940.95
843.778	13931.23
844.103	13907.5
844.427	13886.49
844.751	13841.29
845.075	13834.74
845.399	13757.9
845.723	13620.05
846.047	13725.59
846.371	13635.19
846.695	13652.82
847.019	13520.85
847.343	13314.52
847.666	13329.89
847.99	13260.06
848.313	13274.52
848.637	13126.05
848.96	13160.4
849.284	13138.03
849.607	13000.18
849.931	12980.29
850.254	12896.68
850.577	12851.48
850.9	12802.67
851.223	12751.15
851.546	12686.06
851.869	12597.71
852.192	12675.9
852.515	12540.08
852.838	12446.97
853.161	12423.92
853.483	12386.41
853.806	12401.33
854.129	12369.91
854.451	12263.48
854.774	12223.7
855.096	12251.95
855.419	12186.19
855.741	12191.39
856.063	12170.82
856.385	12094.67
856.708	12025.74
857.03	11937.61
857.352	12009.7
857.674	11961.79
857.996	11919.31
858.318	11774.68
858.64	11829.82
858.961	11792.98
859.283	11734.23
859.605	11687.9
859.926	11723.83
860.248	11715.69
860.57	11631.86
860.891	11552.76
861.212	11504.17
861.534	11558.64
861.855	11498.53
862.176	11545.08
862.498	11519.32
862.819	11556.6
863.14	11411.52
863.461	11348.25
863.782	11369.49
864.103	11381.92
864.424	11276.61
864.745	11315.71
865.065	11194.58
865.386	11262.15
865.707	11247.23
866.027	11264.18
866.348	11191.87
866.668	11198.42
866.989	11156.84
867.309	11043.4
867.63	11110.29
867.95	11075.71
868.27	11066.45
868.59	11119.33
868.91	11039.33
869.23	11039.1
869.55	10979.67
869.87	10993
870.19	10965.43
870.51	11023.74
870.83	10944.87
871.15	10821.26
871.469	10894.93
871.789	10875.26
872.109	10899.45
872.428	10770.41
872.748	10809.96
873.067	10812.89
873.386	10788.71
873.706	10708.94
874.025	10723.63
874.344	10788.26
874.663	10762.73
874.982	10643.18
875.301	10637.08
875.62	10634.82
875.939	10574.03
876.258	10639.56
876.577	10561.6
876.896	10562.73
877.214	10543.97
877.533	10544.2
877.852	10503.07
878.17	10484.31
878.489	10459
878.807	10442.28
879.125	10364.09
879.444	10392.79
879.762	10389.63
880.08	10327.71
880.398	10326.35
880.716	10321.83
881.034	10248.61
881.352	10327.03
881.67	10236.19
881.988	10313.02
882.306	10305.11
882.624	10256.07
882.941	10157.54
883.259	10161.84
883.577	10148.05
883.894	10099.24
884.212	10205.68
884.529	10105.79
884.846	10012.91
885.164	10034.16
885.481	9998.23
885.798	9986.47
886.115	9883.2
886.432	9903.31
886.75	9865.8
887.067	9888.85
887.383	9810.43
887.7	9899.47
888.017	9810.89
888.334	9827.83
888.651	9757.33
888.967	9769.08
889.284	9713.94
889.6	9663.55
889.917	9588.52
890.233	9572.7
890.55	9568.18
890.866	9588.52
891.182	9602.53
891.498	9486.15
891.815	9458.35
892.131	9483.44
892.447	9368.41
892.763	9375.42
893.079	9332.25
893.395	9240.51
893.71	9328.19
894.026	9319.37
894.342	9310.79
894.657	9260.17
894.973	9169.32
895.289	9202.31
895.604	9199.15
895.92	9078.48
896.235	9026.27
896.55	9057.69
896.865	8986.73
897.181	8967.74
897.496	8958.93
897.811	9007.29
898.126	8889.33
898.441	8838.93
898.756	8862.21
899.071	8825.83
899.386	8791.48
899.7	8732.27
900.015	8620.63
900.33	8658.83
900.644	8686.17
900.959	8666.28
901.273	8621.54
901.588	8596.23
901.902	8508.77
902.216	8511.49
902.531	8445.5
902.845	8405.27
903.159	8372.05
903.473	8334.77
903.787	8293.64
904.101	8242.79
904.415	8215.67
904.729	8208.89
905.042	8228.33
905.356	8173.19
905.67	8138.16
905.984	8119.86
906.297	8108.78
906.611	8002.35
906.924	8067.2
907.237	8064.72
907.551	8022.46
907.864	8014.78
908.177	7922.35
908.491	7936.59
908.804	7856.36
909.117	7842.35
909.43	7758.28
909.743	7741.34
910.056	7761.45
910.368	7687.1
910.681	7625.18
910.994	7604.39
911.307	7590.61
911.619	7503.38
911.932	7571.4
912.244	7490.95
912.557	7537.73
912.869	7434
913.181	7409.37
913.494	7417.95
913.806	7309.03
914.118	7339.31
914.43	7205.53
914.742	7233.33
915.054	7192.2
915.366	7188.13
915.678	7147.68
915.99	7084.63
916.302	7069.49
916.613	7036.95
916.925	7062.94
917.236	7035.14
917.548	6972.54
917.859	7039.21
918.171	6913.11
918.482	6896.84
918.794	6875.37
919.105	6863.84
919.416	6806.22
919.727	6817.97
920.038	6802.38
920.349	6699.56
920.66	6711.53
920.971	6611.42
921.282	6626.34
921.593	6583.63
921.903	6554.7
922.214	6526.68
922.525	6537.98
922.835	6484.87
923.146	6465.66
923.456	6413.01
923.767	6444.19
924.077	6375.95
924.387	6360.81
924.697	6343.18
925.008	6321.26
925.318	6333.69
925.628	6283.52
925.938	6210.98
926.248	6214.37
926.558	6184.31
926.867	6172.56
927.177	6094.83
927.487	6049.86
927.796	6029.52
928.106	6008.95
928.416	5982.29
928.725	5997.88
929.034	5872.23
929.344	5973.7
929.653	5958.11
929.962	5890.09
930.271	5857.77
930.581	5837.21
930.89	5809.86
931.199	5802.18
931.508	5726.7
931.817	5805.57
932.125	5698.45
932.434	5729.64
932.743	5680.83
933.051	5652.35
933.36	5592.47
933.669	5575.52
933.977	5527.38
934.286	5517.89
934.594	5531
934.902	5439.02
935.21	5446.93
935.519	5422.75
935.827	5436.09
936.135	5387.5
936.443	5389.76
936.751	5375.07
937.059	5365.13
937.367	5271.57
937.674	5328.97
937.982	5315.19
938.29	5266.15
938.597	5215.07
938.905	5231.35
939.213	5128.75
939.52	5106.38
939.827	5184.12
940.135	5090.33
940.442	5086.94
940.749	5060.5
941.056	5062.08
941.363	5001.75
941.67	5021.63
941.977	4991.13
942.284	4968.75
942.591	4952.48
942.898	4897.79
943.205	4927.85
943.511	4884.01
943.818	4866.61
944.125	4834.07
944.431	4778.25
944.738	4755.88
945.044	4758.82
945.35	4782.32
945.657	4718.82
945.963	4718.14
946.269	4647.86
946.575	4683.56
946.881	4634.53
947.187	4669.33
947.493	4612.15
947.799	4582.32
948.105	4552.49
948.41	4543.68
948.716	4531.93
949.022	4517.01
949.327	4524.25
949.633	4423.23
949.938	4406.51
950.244	4458.03
950.549	4444.7
950.854	4386.62
951.16	4432.5
951.465	4375.1
951.77	4341.88
952.075	4296.91
952.38	4330.8
952.685	4308.21
952.99	4211.26
953.294	4239.06
953.599	4244.48
953.904	4212.16
954.209	4201.99
954.513	4158.83
954.818	4133.52
955.122	4107.76
955.426	4144.37
955.731	4088.32
956.035	4079.06
956.339	4038.61
956.643	4045.39
956.948	4028.67
957.252	3983.92
957.556	4009.46
957.86	3945.96
958.163	3923.13
958.467	3960.19
958.771	3904.6
959.075	3925.84
959.378	3886.75
959.682	3866.41
959.985	3844.94
960.289	3799.29
960.592	3774.89
960.896	3787.54
961.199	3732.18
961.502	3814.21
961.805	3729.46
962.108	3732.85
962.411	3672.74
962.714	3647.21
963.017	3660.54
963.32	3658.73
963.623	3645.4
963.926	3632.52
964.228	3630.48
964.531	3629.35
964.833	3573.08
965.136	3576.93
965.438	3587.55
965.741	3524.5
966.043	3510.26
966.345	3525.63
966.648	3463.93
966.95	3514.78
967.252	3478.17
967.554	3449.47
967.856	3430.26
968.158	3424.16
968.46	3465.97
968.761	3389.13
969.063	3347.33
969.365	3358.17
969.666	3324.73
969.968	3370.38
970.269	3331.96
970.571	3318.4
970.872	3303.26
971.174	3270.27
971.475	3294.22
971.776	3229.59
972.077	3233.66
972.378	3248.57
972.679	3212.42
972.98	3205.41
973.281	3176.48
973.582	3166.99
973.883	3122.7
974.183	3157.5
974.484	3113.66
974.785	3085.41
975.085	3116.15
975.386	3096.03
975.686	3041.8
975.986	3046.54
976.287	3040.67
976.587	3051.29
976.887	3008.81
977.187	2997.51
977.487	3011.29
977.787	3008.58
978.087	2960.67
978.387	2922.48
978.687	2962.25
978.987	2962.7
979.286	2892.2
979.586	2888.36
979.885	2886.1
980.185	2821.47
980.484	2870.05
980.784	2815.36
981.083	2829.83
981.382	2819.21
981.682	2789.83
981.981	2815.36
982.28	2780.34
982.579	2769.72
982.878	2782.6
983.177	2756.61
983.475	2731.98
983.774	2743.73
984.073	2682.26
984.372	2690.4
984.67	2712.99
984.969	2697.63
985.267	2671.86
985.566	2635.71
985.864	2617.4
986.162	2645.2
986.461	2606.33
986.759	2606.78
987.057	2594.58
987.355	2554.35
987.653	2586.9
987.951	2549.38
988.249	2542.15
988.547	2521.13
988.844	2501.25
989.142	2501.47
989.44	2524.52
989.737	2468.48
990.035	2502.83
990.332	2489.95
990.63	2455.83
990.927	2466.9
991.224	2447.01
991.521	2394.58
991.819	2373.79
992.116	2435.26
992.413	2386.67
992.71	2385.54
993.006	2392.32
993.303	2309.39
993.6	2353
993.897	2323.63
994.193	2306
994.49	2324.98
994.787	2312.78
995.083	2284.53
995.379	2259.67
995.676	2307.35
995.972	2269.62
996.268	2247.47
996.565	2201.14
996.861	2179.22
997.157	2199.79
997.453	2186
997.749	2172.22
998.044	2155.72
998.34	2176.28
998.636	2123.4
998.932	2136.74
999.227	2137.42
999.523	2120.69
999.818	2094.03
1000.114	2110.3
1000.409	2098.55
1000.704	2049.06
1001	2054.25
1001.295	2061.49
1001.59	2038.66
1001.885	2020.13
1002.18	2027.59
1002.475	1984.2
1002.77	1982.84
1003.065	2001.37
1003.359	1982.84
1003.654	1973.58
1003.949	1936.52
1004.243	1972.67
1004.538	1943.3
1004.832	1938.32
1005.127	1908.72
1005.421	1932.68
1005.715	1912.34
1006.009	1907.82
1006.304	1858.78
1006.598	1852.23
1006.892	1852.68
1007.186	1852.45
1007.48	1831.43
1007.773	1827.37
1008.067	1816.97
1008.361	1786.92
1008.655	1788.95
1008.948	1772.91
1009.242	1781.04
1009.535	1751.89
1009.829	1750.53
1010.122	1708.73
1010.415	1742.17
1010.708	1710.99
1011.001	1724.77
1011.295	1678.67
1011.588	1695.62
1011.881	1687.03
1012.173	1676.64
1012.466	1657.43
1012.759	1659.46
1013.052	1656.07
1013.344	1640.25
1013.637	1642.51
1013.93	1635.28
1014.222	1624.89
1014.514	1609.75
1014.807	1594.83
1015.099	1579.24
1015.391	1549.18
1015.683	1549.41
1015.976	1540.37
1016.268	1550.09
1016.56	1519.13
1016.851	1519.8
1017.143	1539.24
1017.435	1506.25
1017.727	1487.72
1018.018	1475.29
1018.31	1456.53
1018.602	1475.06
1018.893	1456.98
1019.185	1456.3
1019.476	1437.09
1019.767	1424.21
1020.058	1424.89
1020.35	1407.04
1020.641	1419.69
1020.932	1376.98
1021.223	1379.7
1021.514	1363.2
1021.804	1389.41
1022.095	1364.78
1022.386	1361.84
1022.677	1310.77
1022.967	1338.34
1023.258	1304.67
1023.548	1325.23
1023.839	1295.63
1024.129	1291.79
1024.419	1302.41
1024.709	1278.23
1025	1265.12
1025.29	1243.65
1025.58	1267.61
1025.87	1243.43
1026.16	1226.48
1026.449	1241.85
1026.739	1238.23
1027.029	1219.02
1027.319	1233.48
1027.608	1226.93
1027.898	1175.63
1028.187	1190.77
1028.477	1174.73
1028.766	1174.28
1029.055	1162.53
1029.344	1154.16
1029.634	1164.56
1029.923	1148.97
1030.212	1135.63
1030.501	1136.54
1030.79	1112.58
1031.078	1144.22
1031.367	1122.75
1031.656	1094.28
1031.945	1081.85
1032.233	1085.69
1032.522	1080.72
1032.81	1074.84
1033.099	1058.8
1033.387	1027.61
1033.675	1078.69
1033.963	1066.26
1034.251	1027.39
1034.54	1043.88
1034.828	1024.45
1035.116	1009.76
1035.403	1009.08
1035.691	978.8
1035.979	1022.64
1036.267	985.36
1036.554	1012.02
1036.842	982.19
1037.129	972.02
1037.417	950.1
1037.704	963.89
1037.992	976.99
1038.279	937
1038.566	944.68
1038.853	944.68
1039.14	944.68
