Data from plate_porcelain_FLMS001491_014.txt Node
Date: Tue Feb 07 11:18:51 GMT 2017
User: dcchb
Spectrometer: FLMS00149
Trigger mode: 0
Integration Time (sec): 2.000000E-2
Scans to average: 10
Electric dark correction enabled: true
Nonlinearity correction enabled: false
Boxcar width: 0
XAxis mode: Wavelengths
Number of Pixels in Spectrum: 2048
>>>>>Begin Spectral Data<<<<<
341.393	-11.03
341.776	-11.03
342.16	-11.03
342.543	-41.76
342.927	-74.08
343.31	-91.03
343.693	-31.6
344.077	-58.04
344.46	-88.99
344.843	-55.55
345.226	-45.15
345.61	-54.19
345.993	-30.92
346.376	-3.57
346.759	7.73
347.142	30.55
347.525	64
347.908	52.24
348.291	78.01
348.674	101.73
349.057	124.78
349.44	108.06
349.823	144.67
350.206	167.5
350.588	196.87
350.971	212.69
351.354	258.79
351.737	269.87
352.119	275.74
352.502	285.68
352.884	309.19
353.267	317.1
353.65	310.54
354.032	303.54
354.414	339.02
354.797	338.34
355.179	362.74
355.562	338.79
355.944	374.72
356.326	374.27
356.709	372.69
357.091	363.42
357.473	383.31
357.855	368.85
358.238	383.54
358.62	380.6
359.002	379.24
359.384	395.51
359.766	365.46
360.148	361.61
360.53	359.81
360.912	379.69
361.294	389.41
361.676	379.24
362.057	389.86
362.439	397.32
362.821	367.49
363.203	382.86
363.584	385.79
363.966	378.79
364.348	386.47
364.729	376.53
365.111	387.15
365.493	373.59
365.874	382.18
366.256	382.41
366.637	359.35
367.019	363.65
367.4	388.05
367.781	392.8
368.163	403.2
368.544	396.64
368.925	384.44
369.306	361.61
369.688	397.77
370.069	388.96
370.45	405.46
370.831	386.92
371.212	379.47
371.593	401.39
371.974	405.46
372.355	406.59
372.736	396.64
373.117	385.57
373.498	409.07
373.879	412.23
374.26	408.62
374.641	410.88
375.021	385.57
375.402	398
375.783	427.6
376.163	443.65
376.544	432.12
376.925	458.11
377.305	457.88
377.686	458.56
378.066	438.45
378.447	431.9
378.827	455.85
379.208	453.14
379.588	476.19
379.968	443.65
380.349	464.89
380.729	470.31
381.109	461.5
381.489	482.97
381.87	479.58
382.25	484.55
382.63	469.86
383.01	495.62
383.39	493.81
383.77	520.71
384.15	496.07
384.53	499.92
384.91	504.44
385.29	527.49
385.67	517.54
386.049	527.94
386.429	537.88
386.809	539.69
387.189	539.46
387.568	541.5
387.948	543.08
388.328	559.35
388.707	558.9
389.087	575.62
389.466	580.37
389.846	581.5
390.225	580.37
390.605	598.67
390.984	584.66
391.363	601.16
391.743	632.34
392.122	599.8
392.501	613.59
392.881	628.27
393.26	647.03
393.639	629.63
394.018	666.01
394.397	653.81
394.776	641.16
395.155	683.19
395.534	685.22
395.913	691.32
396.292	688.39
396.671	690.42
397.05	698.33
397.429	705.33
397.808	706.01
398.186	716.63
398.565	747.59
398.944	725.45
399.323	758.21
399.701	760.93
400.08	756.18
400.458	767.48
400.837	774.71
401.215	773.13
401.594	779.68
401.972	812.68
402.351	809.06
402.729	790.3
403.107	818.1
403.486	836.86
403.864	835.73
404.242	840.02
404.62	856.07
404.999	867.82
405.377	860.58
405.755	875.5
406.133	874.6
406.511	911.2
406.889	909.85
407.267	930.87
407.645	927.7
408.023	927.93
408.401	962.5
408.779	964.08
409.156	979.45
409.534	1016.51
409.912	1024.42
410.29	1046.57
410.667	1043.18
411.045	1073.01
411.422	1065.55
411.8	1076.17
412.178	1095.61
412.555	1124.08
412.933	1143.97
413.31	1151.42
413.687	1171.54
414.065	1175.38
414.442	1162.27
414.819	1217.41
415.197	1225.55
415.574	1209.95
415.951	1232.1
416.328	1272.1
416.705	1250.4
417.082	1240.24
417.46	1288.37
417.837	1296.73
418.214	1321.14
418.591	1330.63
418.967	1352.1
419.344	1379.89
419.721	1407.24
420.098	1365.66
420.475	1439.33
420.852	1403.85
421.228	1417.18
421.605	1422.38
421.982	1460.12
422.358	1469.83
422.735	1475.48
423.111	1482.49
423.488	1521.13
423.864	1512.32
424.241	1554.8
424.617	1546.89
424.994	1601.36
425.37	1629.15
425.746	1617.4
426.123	1635.71
426.499	1660.79
426.875	1662.82
427.251	1671.41
427.627	1739.43
428.003	1750.96
428.379	1763.39
428.756	1782.59
429.132	1827.79
429.507	1828.02
429.883	1854
430.259	1890.61
430.635	1900.11
431.011	1929.48
431.387	1988.69
431.763	1996.83
432.138	2021.68
432.514	2055.81
432.89	2039.54
433.265	2131.74
433.641	2136.94
434.016	2178.29
434.392	2193.66
434.767	2224.39
435.143	2201.57
435.518	2237.95
435.894	2289.47
436.269	2321.56
436.644	2326.31
437.02	2352.52
437.395	2337.38
437.77	2389.81
438.145	2462.58
438.52	2466.19
438.895	2466.87
439.271	2513.65
439.646	2536.25
440.021	2576.92
440.395	2552.97
440.77	2564.49
441.145	2634.55
441.52	2673.42
441.895	2644.49
442.27	2672.74
442.645	2645.62
443.019	2712.29
443.394	2705.96
443.769	2757.71
444.143	2719.29
444.518	2800.42
444.892	2827.09
445.267	2832.51
445.641	2844.94
446.016	2886.29
446.39	2893.53
446.764	2916.35
447.139	2943.24
447.513	2949.34
447.887	2943.02
448.262	2977.59
448.636	3033.41
449.01	3067.08
449.384	3039.06
449.758	3115.44
450.132	3125.61
450.506	3163.8
450.88	3201.31
451.254	3179.39
451.628	3242.89
452.002	3311.37
452.376	3315.66
452.75	3352.5
453.123	3328.32
453.497	3422.33
453.871	3442.66
454.244	3526.96
454.618	3551.36
454.992	3587.97
455.365	3615.54
455.739	3710.23
456.112	3703.22
456.486	3705.03
456.859	3785.48
457.232	3866.61
457.606	3884.91
457.979	3877.45
458.352	3994.06
458.725	4069.77
459.099	4087.39
459.472	4141.63
459.845	4203.55
460.218	4172.59
460.591	4303.66
460.964	4319.93
461.337	4407.16
461.71	4439.47
462.083	4518.34
462.456	4561.73
462.829	4571.22
463.201	4670.65
463.574	4656.87
463.947	4728.51
464.32	4848.95
464.692	4889.18
465.065	4905.68
465.438	5006.92
465.81	5063.19
466.183	5130.75
466.555	5213.24
466.928	5279.68
467.3	5253.24
467.672	5344.53
468.045	5512.89
468.417	5450.29
468.789	5567.81
469.161	5639.67
469.534	5739.78
469.906	5819.1
470.278	5867.23
470.65	5905.2
471.022	6027.91
471.394	6153.33
471.766	6241.23
472.138	6325.53
472.51	6469.02
472.882	6540.21
473.253	6575.01
473.625	6697.27
473.997	6870.6
474.369	6841.22
474.74	6978.84
475.112	7091.16
475.484	7229.91
475.855	7361.66
476.227	7465.83
476.598	7632.61
476.97	7667.86
477.341	7956.9
477.713	7947.86
478.084	8067.4
478.455	8271.92
478.827	8372.93
479.198	8613.83
479.569	8601.62
479.94	8824.67
480.311	8999.58
480.682	9129.29
481.053	9296.07
481.424	9514.59
481.795	9530.41
482.166	9700.35
482.537	9886.56
482.908	10073.22
483.279	10183.5
483.65	10320
484.021	10610.16
484.391	10706.88
484.762	10768.8
485.133	10873.43
485.503	11036.59
485.874	11246.75
486.244	11358.16
486.615	11556.12
486.985	11721.77
487.356	11931.71
487.726	12104.13
488.097	12382.54
488.467	12372.6
488.837	12519.04
489.207	12768.75
489.578	12966.03
489.948	13129.64
490.318	13243.54
490.688	13309.75
491.058	13565.56
491.428	13685.78
491.798	13960.13
492.168	14186.56
492.538	14326.67
492.908	14357.86
493.278	14598.53
493.648	14629.26
494.017	14829.03
494.387	14998.97
494.757	15149.93
495.126	15317.83
495.496	15252.75
495.866	15510.14
496.235	15668.56
496.605	15723.92
496.974	15940.64
497.344	16083.24
497.713	16051.37
498.082	16252.04
498.452	16406.84
498.821	16513.05
499.19	16640.06
499.559	16764.35
499.928	16949.88
500.298	17000.05
500.667	17174.96
501.036	17154.17
501.405	17391.68
501.774	17382.64
502.143	17590.09
502.512	17720.48
502.88	17887.71
503.249	18013.58
503.618	17955.28
503.987	18039.57
504.356	18175.16
504.724	18379.22
505.093	18506.67
505.462	18601.14
505.83	18691.08
506.199	18956.15
506.567	19108.92
506.936	19049.94
507.304	19258.75
507.672	19397.72
508.041	19587.32
508.409	19650.15
508.777	19943.02
509.145	20009.23
509.514	20105.28
509.882	20231.83
510.25	20305.95
510.618	20623.23
510.986	20589.78
511.354	20729.67
511.722	20925.59
512.09	21137.34
512.458	21095.08
512.826	21427.95
513.193	21497.33
513.561	21467.95
513.929	21862.74
514.297	21933.48
514.664	22133.25
515.032	22243.75
515.4	22414.37
515.767	22561.94
516.135	22715.15
516.502	22693.91
516.869	23129.83
517.237	23115.82
517.604	23088.02
517.972	23474
518.339	23690.72
518.706	23670.15
519.073	23817.5
519.44	23952.41
519.808	24293.41
520.175	24424.71
520.542	24624.93
520.909	24877.58
521.276	24926.39
521.643	25115.54
522.009	25329.77
522.376	25527.73
522.743	25691.8
523.11	25936.76
523.477	26139.69
523.843	26294.04
524.21	26525.67
524.577	26766.34
524.943	26952.1
525.31	27116.62
525.676	27374.92
526.043	27520.22
526.409	27603.61
526.776	28035.69
527.142	28113.88
527.508	28311.39
527.874	28481.33
528.241	28741.89
528.607	28790.02
528.973	29092.16
529.339	28973.97
529.705	29346.16
530.071	29616.44
530.437	29770.56
530.803	29840.84
531.169	30117.44
531.535	30214.16
531.901	30169.19
532.267	30457.77
532.632	30613.47
532.998	30767.37
533.364	30943.41
533.73	31086.23
534.095	31374.81
534.461	31449.61
534.826	31620.68
535.192	31690.96
535.557	31960.56
535.923	31982.7
536.288	32040.33
536.653	32240.32
537.019	32275.35
537.384	32438.51
537.749	32520.32
538.114	32633.99
538.479	32721.44
538.845	32856.58
539.21	32973.19
539.575	33097.93
539.94	33204.14
540.305	33534.75
540.67	33387.19
541.034	33675.99
541.399	33729.78
541.764	33899.94
542.129	34120.05
542.494	34282.3
542.858	34315.98
543.223	34339.93
543.587	34547.38
543.952	34500.15
544.316	34714.38
544.681	34706.7
545.045	34992.12
545.41	35040.25
545.774	35130.42
546.138	35280.92
546.503	35313.69
546.867	35398.66
547.231	35777.18
547.595	35777.41
547.959	35970.4
548.324	35991.86
548.688	36104.18
549.052	36205.87
549.416	36282.48
549.779	36428.92
550.143	36461.91
550.507	36767.89
550.871	36944.16
551.235	36930.6
551.599	37218.05
551.962	37353.18
552.326	37451.71
552.689	37664.14
553.053	37604.03
553.417	37720.86
553.78	38179.38
554.143	38032.26
554.507	38231.58
554.87	38302.76
555.234	38702.08
555.597	38477
555.96	38858
556.323	38984.55
556.686	39043.76
557.05	39372.79
557.413	39406.69
557.776	39457.08
558.139	39982.27
558.502	39871.31
558.865	39920.57
559.228	40394.69
559.59	40383.39
559.953	40431.3
560.316	40790.16
560.679	40911.28
561.041	41059.53
561.404	41370.71
561.767	41652.51
562.129	41550.59
562.492	41957.13
562.854	41946.74
563.217	41927.75
563.579	42343.56
563.941	42509.66
564.304	42582.65
564.666	42805.92
565.028	43052.24
565.39	43234.84
565.753	43165.91
566.115	43423.08
566.477	43698.55
566.839	43767.48
567.201	44085.66
567.563	44137.41
567.925	44369.72
568.287	44431.19
568.648	44432.09
569.01	44600.23
569.372	44976.94
569.734	44799.09
570.095	45214.22
570.457	45352.97
570.819	45482.91
571.18	45363.37
571.542	45677.71
571.903	45799.52
572.265	45843.58
572.626	45971.04
572.987	45960.42
573.349	46224.14
573.71	46378.94
574.071	46485.6
574.432	46616.9
574.794	46794.52
575.155	46896.66
575.516	46713.16
575.877	46872.48
576.238	47070.9
576.599	47202.19
576.96	47222.53
577.32	47209.2
577.681	47416.42
578.042	47561.73
578.403	47519.47
578.763	47522.18
579.124	47623.42
579.485	47699.13
579.845	47936.41
580.206	47766.02
580.566	47712.01
580.927	47904.55
581.287	48126.01
581.648	47895.73
582.008	47933.47
582.368	47877.43
582.728	48078.78
583.089	48099.12
583.449	48072.68
583.809	48053.92
584.169	48245.1
584.529	48113.81
584.889	48425.44
585.249	48227.7
585.609	48068.16
585.969	48331.88
586.329	48204.42
586.688	48217.76
587.048	48252.33
587.408	48182.73
587.768	48264.08
588.127	48326.46
588.487	48207.14
588.846	48525.32
589.206	48066.58
589.565	48233.35
589.925	48360.58
590.284	48217.31
590.643	48385.44
591.003	48446.68
591.362	48512.44
591.721	48425.66
592.08	48488.03
592.44	48541.36
592.799	48631.31
593.158	48457.07
593.517	48512.44
593.876	48537.3
594.235	48462.04
594.593	48568.48
594.952	48700.46
595.311	48576.17
595.67	48494.59
596.029	48707.24
596.387	48848.25
596.746	48799.89
597.104	48646.67
597.463	48598.76
597.822	48977.29
598.18	48739.1
598.538	48799.66
598.897	49015.7
599.255	48667.46
599.613	49231.52
599.972	48900.9
600.33	49117.62
600.688	48911.52
601.046	49032.43
601.404	49196.71
601.762	49182.25
602.12	49291.63
602.478	49307.9
602.836	49252.76
603.194	49248.92
603.552	49190.16
603.91	49085.08
604.268	49226.09
604.625	49243.49
604.983	49396.03
605.341	49290.27
605.698	49570.26
606.056	49554.9
606.413	49473.09
606.771	49619.3
607.128	49589.7
607.485	49507.44
607.843	49556.03
608.2	49631.51
608.557	49823.14
608.914	49647.78
609.272	49820.43
609.629	49838.51
609.986	50030.37
610.343	49754.44
610.7	50184.71
611.057	50052.96
611.414	49958.5
611.771	49937.94
612.127	50189.91
612.484	50095.67
612.841	50337.48
613.198	50123.24
613.554	50293.64
613.911	50317.82
614.267	50360.3
614.624	50287.08
614.98	50303.13
615.337	50582.44
615.693	50488.43
616.05	50419.51
616.406	50684.36
616.762	50567.53
617.118	50552.16
617.475	50481.65
617.831	50646.85
618.187	50736.11
618.543	50776.33
618.899	50843.68
619.255	50831.25
619.611	50666.51
619.967	50822.43
620.323	50937.01
620.678	50781.31
621.034	50728.2
621.39	50758.71
621.746	50713.74
622.101	51162.09
622.457	50798.71
622.812	50855.2
623.168	50934.75
623.523	50932.49
623.879	51022.88
624.234	50768.88
624.589	50952.15
624.945	50919.83
625.3	50919.38
625.655	50800.97
626.01	50836.45
626.365	50987.85
626.72	50875.99
627.075	50790.12
627.43	50825.6
627.785	50842.77
628.14	50838.71
628.495	50897.91
628.85	50858.82
629.205	50703.34
629.559	50725.94
629.914	50734.3
630.269	50730.01
630.623	50579.28
630.978	50492.95
631.332	50632.16
631.687	50730.23
632.041	50596
632.396	50617.47
632.75	50506.06
633.104	50502.44
633.459	50340.41
633.813	50391.49
634.167	50393.29
634.521	50350.13
634.875	50386.97
635.229	50317.59
635.583	50001.44
635.937	50135.67
636.291	50065.39
636.645	50035.79
636.999	49991.5
637.352	50054.32
637.706	49796.25
638.06	50015.68
638.413	49793.99
638.767	49764.38
639.121	49843.7
639.474	49528.91
639.828	49642.35
640.181	49666.08
640.534	49603.03
640.888	49580.43
641.241	49370.72
641.594	49328.46
641.947	49458.63
642.301	49353.77
642.654	49428.12
643.007	49350.16
643.36	49374.11
643.713	49230.16
644.066	49407.78
644.419	49190.84
644.771	48722.6
645.124	48321.03
645.477	48245.33
645.83	48034.49
646.182	47889.18
646.535	47901.61
646.888	47965.33
647.24	47803.98
647.593	47918.1
647.945	47958.78
648.298	47729.63
648.65	47596.31
649.002	47469.53
649.355	47750.2
649.707	47524.67
650.059	47681.95
650.411	48001.49
650.763	48046.01
651.115	48413.91
651.467	48351.09
651.819	48268.15
652.171	48178.66
652.523	48113.35
652.875	48100.02
653.227	47880.14
653.578	48105.9
653.93	47918.78
654.282	47827.49
654.633	47726.02
654.985	47840.59
655.337	47918.33
655.688	47827.49
656.039	47974.37
656.391	47686.25
656.742	47770.09
657.094	47692.35
657.445	47743.42
657.796	47821.84
658.147	47726.47
658.498	47581.16
658.849	47749.3
659.2	47531
659.551	47432.02
659.902	47559.47
660.253	47479.25
660.604	47450.77
660.955	47413.94
661.306	47492.13
661.656	47459.81
662.007	47413.03
662.358	47380.04
662.708	47279.03
663.059	47338.23
663.409	47007.62
663.76	47437.21
664.11	47404.9
664.461	47421.85
664.811	47387.04
665.161	47338.01
665.511	47257.56
665.862	47170.33
666.212	47335.07
666.562	47419.81
666.912	47294.62
667.262	47120.39
667.612	47085.58
667.962	47181.17
668.312	47139.14
668.662	47302.98
669.011	47146.83
669.361	47062.08
669.711	47066.6
670.06	46877.68
670.41	46824.35
670.76	46720.62
671.109	47017.79
671.459	46818.02
671.808	46807.85
672.157	46834.52
672.507	46704.13
672.856	46656.67
673.205	46771.69
673.554	46768.98
673.904	46660.51
674.253	46870.9
674.602	46666.16
674.951	46063.69
675.3	45948.66
675.649	46597.91
675.998	46602.66
676.346	46532.38
676.695	46607.86
677.044	46232.5
677.393	46471.36
677.741	46537.12
678.09	46267.53
678.438	46204.48
678.787	46176.68
679.135	46366.51
679.484	46048.78
679.832	46166.06
680.181	45815.56
680.529	46209
680.877	46057.81
681.225	45837.03
681.573	46173.74
681.922	45672.51
682.27	45600.65
682.618	45680.2
682.966	45637.71
683.314	45603.59
683.661	45572.63
684.009	45290.6
684.357	45181.45
684.705	45102.36
685.053	45206.76
685.4	45088.57
685.748	44980.1
686.095	45044.73
686.443	44657.85
686.79	44664.86
687.138	44702.14
687.485	44856.26
687.832	44708.7
688.18	44661.01
688.527	44282.72
688.874	44187.81
689.221	44221.48
689.568	44067.13
689.915	43964.76
690.262	43968.38
690.609	43945.33
690.956	43738.1
691.303	43714.37
691.65	43400.26
691.997	43369.52
692.344	43276.19
692.69	43232.35
693.037	43276.19
693.383	42957.56
693.73	43118.91
694.077	42803.66
694.423	42807.05
694.769	42671.24
695.116	42551.47
695.462	42372.04
695.808	42461.52
696.155	42483.22
696.501	42227.18
696.847	42383.56
697.193	41662.45
697.539	41935.66
697.885	41638.95
698.231	41559.63
698.577	41697.48
698.923	41580.19
699.269	41444.15
699.614	41153.31
699.96	41046.65
700.306	41222.01
700.651	40992.41
700.997	40951.51
701.342	40719.65
701.688	40638.97
702.033	40542.03
702.379	40621.35
702.724	40437.62
703.069	40475.36
703.415	39977.97
703.76	39857.75
704.105	40046.45
704.45	39940.24
704.795	39677.87
705.14	39661.15
705.485	39493.24
705.83	39343.64
706.175	39416.18
706.52	39404.43
706.865	39228.84
707.209	39073.14
707.554	38944.1
707.899	39065.23
708.243	39028.39
708.588	38755.63
708.932	38556.32
709.277	38489.65
709.621	38608.07
709.966	38312.71
710.31	38407.62
710.654	38072.26
710.998	38158.59
711.342	38105.48
711.687	37948.65
712.031	37851.25
712.375	37669.79
712.719	37931.7
713.063	37729.9
713.407	37704.36
713.75	37486.74
714.094	37727.86
714.438	37440.64
714.782	37375.1
715.125	37129.46
715.469	37207.43
715.812	37039.29
716.156	36912.74
716.499	36941.67
716.843	36952.97
717.186	36820.77
717.53	36903.25
717.873	36707.78
718.216	36696.48
718.559	36562.92
718.902	36418.97
719.246	36446.99
719.589	36161.58
719.932	36105.08
720.275	36005.88
720.617	36065.99
720.96	36041.58
721.303	36063.73
721.646	36013.56
721.989	35827.8
722.331	35772.44
722.674	35541.93
723.016	35719.56
723.359	35627.35
723.701	35588.71
724.044	35399.56
724.386	35258.55
724.729	35440.92
725.071	35180.36
725.413	35108.27
725.755	35232.79
726.097	35001.83
726.439	35013.59
726.782	34940.37
727.124	35087.71
727.465	34797.77
727.807	34716.19
728.149	34650.43
728.491	34656.31
728.833	34777.21
729.175	34546.25
729.516	34541.28
729.858	34454.73
730.199	34433.04
730.541	34480.94
730.882	34370.44
731.224	34355.3
731.565	34212.25
731.906	34240.27
732.248	34331.57
732.589	33918.92
732.93	33901.98
733.271	33828.31
733.612	33810.9
733.953	33878.02
734.294	33769.78
734.635	33665.37
734.976	33801.19
735.317	33414.98
735.658	33657.46
735.999	33496.34
736.339	33458.82
736.68	33461.76
737.021	33288.66
737.361	33131.37
737.702	33379.96
738.042	33126.85
738.383	33099.74
738.723	33179.96
739.063	33023.81
739.404	32994.66
739.744	32993.07
740.084	32807.09
740.424	32767.99
740.764	32854.77
741.104	32742.46
741.444	32583.82
741.784	32554.67
742.124	32677.83
742.464	32579.75
742.804	32514.22
743.143	32488.68
743.483	32421.79
743.823	32267.89
744.162	32111.97
744.502	32220.66
744.841	32128.92
745.181	32285.97
745.52	31934.34
745.86	32022.03
746.199	31880.33
746.538	31848.92
746.877	31988.35
747.216	31920.11
747.556	31801.24
747.895	31716.27
748.234	31607.12
748.573	31514.02
748.911	31526.9
749.25	31423.17
749.589	31349.05
749.928	31307.47
750.267	31418.43
750.605	31185.21
750.944	31208.71
751.283	30925.56
751.621	31150.41
751.96	30866.8
752.298	30725.56
752.636	30790.87
752.975	30682.17
753.313	30528.51
753.651	30610.31
753.989	30450.09
754.327	30446.25
754.666	30336.65
755.004	30379.81
755.342	30353.82
755.679	30335.06
756.017	30123.54
756.355	30096.2
756.693	29971.01
757.031	29975.53
757.368	29817.56
757.706	29809.43
758.044	29653.95
758.381	29614.63
758.719	29634.97
759.056	29637.46
759.394	29404.92
759.731	29207.86
760.068	29100.29
760.405	29063.68
760.743	29106.85
761.08	29144.13
761.417	28843.13
761.754	28802.67
762.091	28775.78
762.428	28661.89
762.765	28537.6
763.102	28590.03
763.438	28500.76
763.775	28310.48
764.112	28414.21
764.449	28253.31
764.785	28056.71
765.122	28014.67
765.458	27908.01
765.795	27899.65
766.131	27712.99
766.467	27600.67
766.804	27524.97
767.14	27341.02
767.476	27470.96
767.812	27311.64
768.148	27271.19
768.485	27071.19
768.821	27069.84
769.157	26858.77
769.492	26870.97
769.828	26773.35
770.164	26631.66
770.5	26588.04
770.836	26495.16
771.171	26302.18
771.507	26224.66
771.842	26082.07
772.178	26130.43
772.513	26019.92
772.849	25961.17
773.184	25913.94
773.519	25780.16
773.855	25673.27
774.19	25514.63
774.525	25385.82
774.86	25334.29
775.195	25284.58
775.53	25125.71
775.865	25075.99
776.2	24996.67
776.535	24736.57
776.87	24772.05
777.205	24679.85
777.539	24539.96
777.874	24631.94
778.209	24469
778.543	24384.26
778.878	24209.8
779.212	24196.69
779.547	24040.31
779.881	24090.93
780.215	23824.05
780.55	23869.47
780.884	23709.25
781.218	23692.75
781.552	23733.2
781.886	23480.1
782.22	23440.56
782.554	23368.24
782.888	23156.04
783.222	23039.44
783.556	22975.48
783.889	22989.95
784.223	22775.49
784.557	22809.61
784.89	22726.9
785.224	22642.38
785.557	22506.12
785.891	22425.67
786.224	22396.52
786.558	22388.15
786.891	22267.25
787.224	21956.75
787.557	22022.97
787.891	21987.49
788.224	21953.82
788.557	21966.92
788.89	21783.42
789.223	21768.74
789.556	21522.41
789.888	21623.88
790.221	21499.82
790.554	21287.62
790.887	21234.96
791.219	21190.45
791.552	21124.23
791.884	21104.8
792.217	20976.89
792.549	20966.27
792.882	20851.02
793.214	20752.04
793.546	20730.12
793.879	20561.99
794.211	20460.07
794.543	20550.24
794.875	20514.53
795.207	20471.14
795.539	20373.29
795.871	20355.89
796.203	20152.73
796.535	20037.93
796.867	20032.96
797.198	19957.71
797.53	19929.69
797.862	19770.37
798.193	19904.6
798.525	19698.96
798.856	19790.71
799.188	19535.12
799.519	19493.32
799.85	19364.96
800.182	19445.41
800.513	19425.52
800.844	19275.02
801.175	19309.37
801.506	19204.28
801.837	19126.09
802.168	19014.91
802.499	18999.77
802.83	18834.35
803.161	18806.55
803.491	18840.22
803.822	18810.17
804.153	18653.56
804.483	18509.84
804.814	18544.64
805.145	18442.72
805.475	18489.5
805.805	18458.77
806.136	18360.46
806.466	18438.88
806.796	18287.25
807.126	18197.3
807.457	18035.73
807.787	18154.37
808.117	17991.66
808.447	17998.44
808.777	18005.9
809.107	17892
809.436	17907.37
809.766	17844.54
810.096	17750.54
810.426	17622.86
810.755	17699.69
811.085	17611.33
811.414	17595.51
811.744	17341.28
812.073	17436.87
812.403	17374.95
812.732	17209.76
813.061	17230.1
813.39	17168.63
813.719	17102.19
814.049	17211.79
814.378	17115.75
814.707	17025.36
815.036	17016.32
815.365	16925.93
815.693	16908.07
816.022	16808.19
816.351	16787.4
816.68	16680.73
817.008	16784.01
817.337	16626.27
817.665	16548.76
817.994	16641.86
818.322	16561.19
818.651	16401.87
818.979	16422.44
819.307	16527.74
819.636	16482.09
819.964	16337.01
820.292	16462.89
820.62	16353.06
820.948	16308.99
821.276	16367.97
821.604	16261.54
821.932	16384.02
822.259	16268.09
822.587	16257.47
822.915	16166.4
823.243	16296.56
823.57	16207.98
823.898	16235.32
824.225	16067.42
824.553	16163.23
824.88	16203.23
825.207	16277.58
825.535	16106.06
825.862	16153.97
826.189	16039.85
826.516	16222.21
826.843	16179.96
827.17	16200.97
827.497	16240.07
827.824	16194.42
828.151	16216.34
828.478	16123.69
828.805	16185.38
829.131	16083.46
829.458	16094.31
829.785	16017.47
830.111	15986.97
830.438	16070.35
830.764	16106.74
831.09	16090.92
831.417	15915.33
831.743	16063.57
832.069	16025.16
832.395	15948.78
832.722	16023.12
833.048	15932.5
833.374	16015.21
833.7	15885.95
834.026	15965.27
834.351	16002.33
834.677	15854.99
835.003	15973.18
835.329	15985.38
835.654	15805.73
835.98	15826.29
836.306	15787.42
836.631	15811.38
836.956	15827.42
837.282	15816.58
837.607	15765.28
837.932	15737.03
838.258	15686.64
838.583	15631.95
838.908	15507.43
839.233	15651.61
839.558	15588.11
839.883	15596.92
840.208	15466.53
840.533	15475.57
840.858	15422.91
841.182	15488.45
841.507	15479.41
841.832	15318.51
842.156	15342.92
842.481	15232.64
842.805	15268.57
843.13	15255.91
843.454	15164.16
843.778	15144.95
844.103	15081.23
844.427	15116.48
844.751	15033.55
845.075	15021.79
845.399	14953.32
845.723	14795.36
846.047	14892.08
846.371	14716.49
846.695	14808.92
847.019	14585.65
847.343	14554.69
847.666	14511.07
847.99	14436.95
848.313	14401.02
848.637	14376.16
848.96	14282.83
849.284	14217.75
849.607	14116.51
849.931	14137.98
850.254	14065.66
850.577	14003.74
850.9	13880.36
851.223	13836.06
851.546	13858.66
851.869	13638.55
852.192	13853.69
852.515	13627.03
852.838	13531.66
853.161	13554.71
853.483	13472.46
853.806	13489.18
854.129	13446.24
854.451	13444.43
854.774	13359.47
855.096	13321.95
855.419	13258.68
855.741	13153.59
856.063	13202.18
856.385	13067.27
856.708	13041.51
857.03	13044.22
857.352	13025.24
857.674	12973.71
857.996	12917.89
858.318	12824.79
858.64	12858.69
858.961	12777.79
859.283	12808.52
859.605	12731.01
859.926	12745.02
860.248	12701.18
860.57	12652.14
860.891	12588.41
861.212	12486.72
861.534	12538.24
861.855	12538.7
862.176	12512.48
862.498	12507.06
862.819	12506.83
863.14	12417.12
863.461	12462.09
863.782	12347.51
864.103	12364.46
864.424	12319.94
864.745	12296.44
865.065	12199.5
865.386	12226.16
865.707	12269.55
866.027	12225.48
866.348	12173.06
866.668	12156.56
866.989	12150.68
867.309	11990.24
867.63	12098.71
867.95	11951.82
868.27	11940.97
868.59	11988.2
868.91	11963.8
869.23	11984.13
869.55	11951.59
869.87	11924.25
870.19	11965.15
870.51	11942.33
870.83	11940.97
871.15	11794.53
871.469	11744.82
871.789	11792.5
872.109	11791.14
872.428	11710.92
872.748	11770.58
873.067	11688.32
873.386	11674.31
873.706	11714.76
874.025	11627.31
874.344	11571.72
874.663	11614.88
874.982	11576.46
875.301	11574.2
875.62	11562.22
875.939	11501.66
876.258	11465.05
876.577	11516.35
876.896	11472.74
877.214	11390.7
877.533	11455.11
877.852	11439.52
878.17	11357.48
878.489	11441.78
878.807	11390.03
879.125	11258.05
879.444	11320.2
879.762	11230.48
880.08	11308.67
880.398	11181.9
880.716	11213.76
881.034	11135.79
881.352	11199.07
881.67	11162.91
881.988	11118.85
882.306	11205.62
882.624	11136.47
882.941	11033.42
883.259	10979.19
883.577	11009.92
883.894	10958.17
884.212	10863.94
884.529	10916.37
884.846	10905.07
885.164	10863.49
885.481	10821
885.798	10922.69
886.115	10759.76
886.432	10752.53
886.75	10806.31
887.067	10733.55
887.383	10653.1
887.7	10698.29
888.017	10623.94
888.334	10653.1
888.651	10503.27
888.967	10492.87
889.284	10536.71
889.6	10551.63
889.917	10404.51
890.233	10459.2
890.55	10381.01
890.866	10396.61
891.182	10332.2
891.498	10291.52
891.815	10226.67
892.131	10254.46
892.447	10166.78
892.763	10198.87
893.079	10104.64
893.395	10062.15
893.71	10089.72
894.026	10096.27
894.342	10067.8
894.657	9981.47
894.973	9950.52
895.289	9973.34
895.604	9918.88
895.92	9808.82
896.235	9778.77
896.55	9790.75
896.865	9758.43
897.181	9695.61
897.496	9724.98
897.811	9661.71
898.126	9664.65
898.441	9617.19
898.756	9569.73
899.071	9517.76
899.386	9558.89
899.7	9421.72
900.015	9347.14
900.33	9339.01
900.644	9375.62
900.959	9396.41
901.273	9328.61
901.588	9222.85
901.902	9232.79
902.216	9165.68
902.531	9183.08
902.845	9153.25
903.159	9072.8
903.473	9065.11
903.787	8950.77
904.101	9000.26
904.415	8958
904.729	8963.2
905.042	8822.41
905.356	8905.57
905.67	8838.23
905.984	8844.33
906.297	8797.33
906.611	8724.78
906.924	8716.2
907.237	8652.47
907.551	8666.71
907.864	8602.53
908.177	8574.96
908.491	8546.03
908.804	8508.97
909.117	8479.82
909.43	8409.09
909.743	8316.43
910.056	8326.6
910.368	8329.99
910.681	8260.39
910.994	8211.35
911.307	8153.27
911.619	8184.69
911.932	8169.77
912.244	8099.49
912.557	8052.71
912.869	8067.17
913.181	8059.49
913.494	8015.88
913.806	7941.98
914.118	7931.13
914.43	7899.04
914.742	7845.26
915.054	7833.96
915.366	7810.23
915.678	7758.71
915.99	7773.85
916.302	7635.77
916.613	7626.28
916.925	7605.04
917.236	7612.27
917.548	7578.83
917.859	7576.11
918.171	7481.65
918.482	7438.04
918.794	7449.56
919.105	7367.76
919.416	7331.6
919.727	7287.76
920.038	7314.2
920.349	7254.54
920.66	7204.6
920.971	7269.23
921.282	7203.02
921.593	7179.29
921.903	7064.04
922.214	7066.07
922.525	7058.84
922.835	7009.8
923.146	6943.81
923.456	6970.93
923.767	6889.8
924.077	6921.22
924.387	6862.46
924.697	6842.57
925.008	6786.08
925.318	6793.99
925.628	6765.74
925.938	6711.96
926.248	6690.94
926.558	6631.96
926.867	6672.41
927.177	6601.45
927.487	6562.36
927.796	6539.53
928.106	6501.34
928.416	6515.8
928.725	6429.48
929.034	6498.63
929.344	6415.69
929.653	6416.37
929.962	6403.04
930.271	6274.68
930.581	6278.75
930.89	6267.22
931.199	6211.18
931.508	6220.9
931.817	6195.81
932.125	6196.49
932.434	6137.51
932.743	6098.64
933.051	6070.62
933.36	6031.3
933.669	5970.51
933.977	5968.92
934.286	5971.18
934.594	5987
934.902	5918.08
935.21	5848.25
935.519	5881.92
935.827	5857.74
936.135	5808.7
936.443	5713.11
936.751	5722.83
937.059	5726.67
937.367	5694.36
937.674	5740.46
937.982	5702.94
938.29	5643.51
938.597	5655.71
938.905	5589.05
939.213	5542.5
939.52	5533.68
939.827	5514.47
940.135	5502.5
940.442	5455.27
940.749	5469.05
941.056	5454.14
941.363	5390.18
941.67	5383.86
941.977	5316.74
942.284	5276.29
942.591	5267.7
942.898	5257.76
943.205	5221.15
943.511	5179.12
943.818	5227.93
944.125	5176.4
944.431	5130.53
944.738	5156.52
945.044	5090.98
945.35	5110.42
945.657	5044.2
945.963	5073.36
946.269	5036.97
946.575	5000.81
946.881	5014.6
947.187	4934.6
947.493	4948.16
947.799	4952.45
948.105	4889.18
948.41	4870.42
948.716	4851.67
949.022	4827.26
949.327	4824.55
949.633	4729.86
949.938	4777.54
950.244	4734.61
950.549	4743.65
950.854	4691.22
951.16	4723.53
951.465	4640.6
951.77	4598.57
952.075	4624.55
952.38	4594.72
952.685	4606.7
952.99	4534.61
953.294	4552.92
953.599	4505.91
953.904	4479.92
954.209	4514.27
954.513	4455.97
954.818	4411.23
955.122	4423.65
955.426	4344.11
955.731	4369.87
956.035	4414.84
956.339	4328.06
956.643	4354.96
956.948	4279.03
957.252	4293.71
957.556	4286.71
957.86	4217.78
958.163	4232.02
958.467	4196.32
958.771	4198.58
959.075	4195.19
959.378	4161.06
959.682	4149.76
959.985	4117.9
960.289	4103.21
960.592	4084.68
960.896	4091.69
961.199	4062.76
961.502	4011.01
961.805	4032.48
962.108	4004.91
962.411	3963.33
962.714	3925.36
963.017	3957.9
963.32	3959.94
963.623	3876.55
963.926	3941.86
964.228	3868.64
964.531	3827.29
964.833	3872.93
965.136	3824.8
965.438	3807.85
965.741	3761.75
966.043	3766.5
966.345	3754.29
966.648	3768.3
966.95	3705.48
967.252	3659.38
967.554	3703.67
967.856	3657.8
968.158	3645.37
968.46	3684.69
968.761	3653.96
969.063	3613.05
969.365	3577.58
969.666	3568.54
969.968	3540.29
970.269	3519.27
970.571	3520.4
970.872	3529.22
971.174	3489.89
971.475	3446.73
971.776	3432.49
972.077	3450.12
972.378	3440.63
972.679	3423.46
972.98	3452.61
973.281	3399.28
973.582	3371.48
973.883	3397.24
974.183	3349.78
974.484	3377.13
974.785	3296.9
975.085	3329.9
975.386	3304.36
975.686	3256.91
975.986	3286.06
976.287	3260.75
976.587	3234.08
976.887	3223.23
977.187	3209
977.487	3194.53
977.787	3197.02
978.087	3139.62
978.387	3138.72
978.687	3140.98
978.987	3132.16
979.286	3057.36
979.586	3101.43
979.885	3078.83
980.185	3043.8
980.484	3048.55
980.784	3036.8
981.083	3002.9
981.382	2987.31
981.682	2960.19
981.981	2974.65
982.28	2950.93
982.579	2918.16
982.878	2933.3
983.177	2919.29
983.475	2952.06
983.774	2907.54
984.073	2847.43
984.372	2882.45
984.67	2867.31
984.969	2869.12
985.267	2872.96
985.566	2834.32
985.864	2807.43
986.162	2805.39
986.461	2755.45
986.759	2765.85
987.057	2736.47
987.355	2765.85
987.653	2757.03
987.951	2687.43
988.249	2630.03
988.547	2714.1
988.844	2696.47
989.142	2645.17
989.44	2632.74
989.737	2644.72
990.035	2627.54
990.332	2640.2
990.63	2580.99
990.927	2576.47
991.224	2572.4
991.521	2595.45
991.819	2538.05
992.116	2540.77
992.413	2530.6
992.71	2533.76
993.006	2501.22
993.303	2504.16
993.6	2492.18
993.897	2480.66
994.193	2503.93
994.49	2453.76
994.787	2432.52
995.083	2422.35
995.379	2432.29
995.676	2368.34
995.972	2379.87
996.268	2385.52
996.565	2348.68
996.861	2317.72
997.157	2332.86
997.453	2309.36
997.749	2282.69
998.044	2287.21
998.34	2289.93
998.636	2275.01
998.932	2266.2
999.227	2291.06
999.523	2261.68
999.818	2235.92
1000.114	2225.29
1000.409	2189.82
1000.704	2206.09
1001	2162.47
1001.295	2187.1
1001.59	2181.68
1001.885	2161.34
1002.18	2121.34
1002.475	2148.46
1002.77	2123.83
1003.065	2074.11
1003.359	2094.45
1003.654	2103.49
1003.949	2053.55
1004.243	2079.08
1004.538	2035.02
1004.832	2034.57
1005.127	2028.24
1005.421	2031.63
1005.715	1976.04
1006.009	1985.53
1006.304	1952.31
1006.598	1929.94
1006.892	1961.8
1007.186	1937.84
1007.48	1923.38
1007.773	1934.23
1008.067	1932.87
1008.361	1937.17
1008.655	1868.02
1008.948	1897.39
1009.242	1899.43
1009.535	1872.99
1009.829	1840.45
1010.122	1856.04
1010.415	1812.88
1010.708	1809.94
1011.001	1791.18
1011.295	1794.57
1011.588	1796.61
1011.881	1796.61
1012.173	1765.42
1012.466	1753.67
1012.759	1762.71
1013.052	1737.62
1013.344	1728.36
1013.637	1715.93
1013.93	1694.46
1014.222	1677.96
1014.514	1675.7
1014.807	1674.57
1015.099	1647
1015.391	1642.49
1015.683	1625.76
1015.976	1635.93
1016.268	1593.45
1016.56	1585.76
1016.851	1606.1
1017.143	1599.55
1017.435	1589.61
1017.727	1594.58
1018.018	1564.75
1018.31	1540.57
1018.602	1540.34
1018.893	1548.25
1019.185	1536.5
1019.476	1518.19
1019.767	1520.68
1020.058	1479.78
1020.35	1475.26
1020.641	1487.01
1020.932	1452.89
1021.223	1454.24
1021.514	1445.88
1021.804	1440.46
1022.095	1418.54
1022.386	1406.56
1022.677	1412.43
1022.967	1393.45
1023.258	1391.87
1023.548	1376.73
1023.839	1351.87
1024.129	1360.46
1024.419	1350.29
1024.709	1346.9
1025	1336.28
1025.29	1317.07
1025.58	1301.48
1025.87	1318.65
1026.16	1307.8
1026.449	1305.77
1026.739	1283.4
1027.029	1282.27
1027.319	1251.08
1027.608	1251.08
1027.898	1236.85
1028.187	1231.65
1028.477	1223.74
1028.766	1240.01
1029.055	1201.59
1029.344	1187.36
1029.634	1231.65
1029.923	1210.18
1030.212	1233.23
1030.501	1205.89
1030.79	1171.09
1031.078	1174.47
1031.367	1148.49
1031.656	1140.35
1031.945	1130.41
1032.233	1135.61
1032.522	1119.11
1032.81	1114.59
1033.099	1136.06
1033.387	1101.93
1033.675	1076.4
1033.963	1084.31
1034.251	1088.38
1034.54	1071.88
1034.828	1048.6
1035.116	1034.37
1035.403	1046.79
1035.691	1033.24
1035.979	1032.33
1036.267	1039.79
1036.554	1010.19
1036.842	1033.01
1037.129	1001.15
1037.417	1025.33
1037.704	1012.67
1037.992	986.46
1038.279	998.43
1038.566	987.59
1038.853	987.59
1039.14	987.59
