Data from plate_porcelain_FLMS001491_087.txt Node
Date: Tue Feb 07 11:20:03 GMT 2017
User: dcchb
Spectrometer: FLMS00149
Trigger mode: 0
Integration Time (sec): 2.000000E-2
Scans to average: 10
Electric dark correction enabled: true
Nonlinearity correction enabled: false
Boxcar width: 0
XAxis mode: Wavelengths
Number of Pixels in Spectrum: 2048
>>>>>Begin Spectral Data<<<<<
341.393	-19.99
341.776	-19.99
342.16	-19.99
342.543	-67.22
342.927	-71.96
343.31	-62.92
343.693	-90.72
344.077	-69.93
344.46	-69.48
344.843	-58.4
345.226	-40.32
345.61	-39.19
345.993	-21.57
346.376	-9.59
346.759	-3.94
347.142	51.43
347.525	45.1
347.908	70.18
348.291	90.52
348.674	96.62
349.057	112.21
349.44	118.09
349.823	146.56
350.206	184.76
350.588	240.8
350.971	241.02
351.354	259.33
351.737	303.17
352.119	290.06
352.502	289.84
352.884	295.71
353.267	328.71
353.65	329.16
354.032	330.29
354.414	350.4
354.797	340.68
355.179	377.74
355.562	368.03
355.944	381.36
356.326	368.25
356.709	368.93
357.091	387.24
357.473	385.88
357.855	381.81
358.238	381.59
358.62	367.12
359.002	390.17
359.384	396.27
359.766	379.1
360.148	387.69
360.53	383.85
360.912	395.6
361.294	388.37
361.676	383.39
362.057	398.53
362.439	389.27
362.821	392.66
363.203	378.42
363.584	401.7
363.966	380.46
364.348	373.68
364.729	408.48
365.111	390.85
365.493	423.84
365.874	385.43
366.256	383.85
366.637	387.91
367.019	376.16
367.4	374.81
367.781	396.95
368.163	365.32
368.544	373.9
368.925	374.81
369.306	414.58
369.688	414.13
370.069	400.34
370.45	396.5
370.831	400.34
371.212	377.97
371.593	401.47
371.974	407.35
372.355	407.57
372.736	420.46
373.117	398.53
373.498	425.2
373.879	417.52
374.26	411.19
374.641	407.35
375.021	416.84
375.402	448.93
375.783	434.24
376.163	467.69
376.544	450.06
376.925	470.85
377.305	462.26
377.686	436.5
378.066	479.89
378.447	481.47
378.827	460
379.208	473.79
379.588	452.54
379.968	483.96
380.349	461.58
380.729	493.67
381.109	462.26
381.489	479.21
381.87	526.44
382.25	501.81
382.63	494.35
383.01	510.85
383.39	504.97
383.77	514.92
384.15	547.01
384.53	516.27
384.91	554.24
385.29	533.67
385.67	525.54
386.049	537.74
386.429	570.28
386.809	557.85
387.189	550.4
387.568	584.07
387.948	552.2
388.328	587.91
388.707	568.93
389.087	577.51
389.466	589.72
389.846	619.09
390.225	617.06
390.605	603.95
390.984	628.36
391.363	628.36
391.743	620.9
392.122	651.41
392.501	615.93
392.881	643.05
393.26	664.74
393.639	669.94
394.018	668.58
394.397	695.25
394.776	695.93
395.155	697.06
395.534	715.81
395.913	697.51
396.292	716.94
396.671	728.02
397.05	738.19
397.429	733.89
397.808	741.12
398.186	768.24
398.565	735.02
398.944	761.69
399.323	790.61
399.701	780.45
400.08	791.97
400.458	808.47
400.837	784.29
401.215	819.31
401.594	831.74
401.972	829.94
402.351	865.64
402.729	840.78
403.107	869.26
403.486	857.28
403.864	865.64
404.242	895.02
404.62	907
404.999	915.13
405.377	904.74
405.755	945.19
406.133	930.95
406.511	943.83
406.889	967.33
407.267	990.38
407.645	1001.68
408.023	976.82
408.401	1004.17
408.779	1022.47
409.156	1054.11
409.534	1046.43
409.912	1061.79
410.29	1085.07
410.667	1107.89
411.045	1127.1
411.422	1131.62
411.8	1154.9
412.178	1160.1
412.555	1196.71
412.933	1215.24
413.31	1210.04
413.687	1210.94
414.065	1226.31
414.442	1251.85
414.819	1273.77
415.197	1299.3
415.574	1327.55
415.951	1316.93
416.328	1364.39
416.705	1384.5
417.082	1351.28
417.46	1391.05
417.837	1366.87
418.214	1421.78
418.591	1457.26
418.967	1446.64
419.344	1454.55
419.721	1485.06
420.098	1490.48
420.475	1509.47
420.852	1527.09
421.228	1551.27
421.605	1531.39
421.982	1549.46
422.358	1608.22
422.735	1618.16
423.111	1594.44
423.488	1618.62
423.864	1674.66
424.241	1676.92
424.617	1680.31
424.994	1737.26
425.37	1727.31
425.746	1707.88
426.123	1758.05
426.499	1767.99
426.875	1817.93
427.251	1865.39
427.627	1891.6
428.003	1854.99
428.379	1895.9
428.756	1929.12
429.132	1952.39
429.507	1970.24
429.883	1999.62
430.259	2048.89
430.635	2036.01
431.011	2078.49
431.387	2139.28
431.763	2165.27
432.138	2213.63
432.514	2231.48
432.89	2222.44
433.265	2261.31
433.641	2324.13
434.016	2321.65
434.392	2362.32
434.767	2398.48
435.143	2433.06
435.518	2466.5
435.894	2504.92
436.269	2534.98
436.644	2570
437.02	2579.72
437.395	2576.78
437.77	2654.52
438.145	2647.52
438.52	2717.34
438.895	2728.19
439.271	2740.85
439.646	2823.78
440.021	2832.37
440.395	2837.34
440.77	2842.31
441.145	2888.19
441.52	2919.37
441.895	2930.45
442.27	2954.63
442.645	2927.06
443.019	3005.7
443.394	2995.3
443.769	3106.94
444.143	3040.05
444.518	3120.95
444.892	3095.86
445.267	3154.85
445.641	3186.03
446.016	3192.59
446.39	3212.02
446.764	3207.95
447.139	3234.62
447.513	3256.09
447.887	3298.57
448.262	3327.95
448.636	3326.59
449.01	3387.83
449.384	3447.27
449.758	3475.29
450.132	3463.76
450.506	3507.61
450.88	3506.25
451.254	3583.31
451.628	3609.75
452.002	3660.37
452.376	3696.08
452.75	3714.61
453.123	3774.49
453.497	3819.91
453.871	3865.56
454.244	3934.26
454.618	3981.04
454.992	4076.4
455.365	4054.94
455.739	4149.62
456.112	4169.06
456.486	4242.28
456.859	4263.74
457.232	4317.3
457.606	4342.39
457.979	4402.95
458.352	4449.5
458.725	4543.74
459.099	4603.4
459.472	4728.14
459.845	4685.43
460.218	4795.71
460.591	4846.1
460.964	4841.81
461.337	4944.18
461.71	5056.49
462.083	5103.95
462.456	5152.99
462.829	5209.03
463.201	5274.11
463.574	5324.05
463.947	5368.35
464.32	5485.86
464.692	5512.3
465.065	5539.87
465.438	5644.95
465.81	5773.53
466.183	5846.08
466.555	5905.96
466.928	5913.64
467.3	5983.25
467.672	6084.49
468.045	6240.42
468.417	6266.63
468.789	6308.44
469.161	6414.2
469.534	6494.42
469.906	6617.35
470.278	6654.64
470.65	6744.13
471.022	6895.31
471.394	7017.34
471.766	7054.4
472.138	7132.59
472.51	7295.3
472.882	7481.96
473.253	7556.99
473.625	7710.88
473.997	7897.09
474.369	7907.26
474.74	8014.83
475.112	8194.04
475.484	8284.66
475.855	8421.83
476.227	8518.1
476.598	8776.17
476.97	8874.02
477.341	9023.62
477.713	9184.74
478.084	9243.27
478.455	9507
478.827	9587.22
479.198	9892.97
479.569	9936.59
479.94	10202.34
480.311	10315.11
480.682	10539.74
481.053	10800.07
481.424	10947.86
481.795	11035.77
482.166	11206.16
482.537	11341.07
482.908	11556.89
483.279	11678.69
483.65	11884.79
484.021	12229.86
484.391	12267.15
484.762	12401.61
485.133	12619
485.503	12722.5
485.874	13145.32
486.244	13163.4
486.615	13396.84
486.985	13575.36
487.356	13886.77
487.726	13907.56
488.097	14279.75
488.467	14371.95
488.837	14633.41
489.207	14791.6
489.578	15069.34
489.948	15178.49
490.318	15440.63
490.688	15439.95
491.058	15694.4
491.428	15894.4
491.798	16088.52
492.168	16446.02
492.538	16481.28
492.908	16705.22
493.278	16944.99
493.648	16955.61
494.017	17208.71
494.387	17482.61
494.757	17570.96
495.126	17727.12
495.496	17878.98
495.866	17937.96
496.235	18187.67
496.605	18323.26
496.974	18439.19
497.344	18627.89
497.713	18777.26
498.082	18870.82
498.452	19107.65
498.821	19254.08
499.19	19359.62
499.559	19588.09
499.928	19624.7
500.298	19804.13
500.667	19910.11
501.036	19986.49
501.405	20323.89
501.774	20272.59
502.143	20504.67
502.512	20635.52
502.88	20843.87
503.249	20765.91
503.618	21005.45
503.987	21164.99
504.356	21259.46
504.724	21401.37
505.093	21501.26
505.462	21654.02
505.83	21782.15
506.199	22027.8
506.567	22272.99
506.936	22325.19
507.304	22548.69
507.672	22619.42
508.041	22734.67
508.409	22903.93
508.777	23172.4
509.145	23492.84
509.514	23404.94
509.882	23569
510.25	23756.34
510.618	23949.33
510.986	24040.4
511.354	24259.15
511.722	24404.91
512.09	24635.86
512.458	24623.89
512.826	24914.05
513.193	25067.72
513.561	25151.78
513.929	25453.92
514.297	25654.37
514.664	25838.09
515.032	25914.93
515.4	26211.87
515.767	26439.21
516.135	26570.5
516.502	26445.31
516.869	26885.75
517.237	27103.14
517.604	26982.02
517.972	27398.28
518.339	27661.55
518.706	27680.76
519.073	27891.15
519.44	27998.94
519.808	28427.63
520.175	28418.81
520.542	28811.35
520.909	28948.52
521.276	29028.52
521.643	29358.68
522.009	29519.35
522.376	29765.45
522.743	29925.67
523.11	30318.2
523.477	30451.3
523.843	30795.93
524.21	31003.15
524.577	31167.22
524.943	31444.05
525.31	31602.01
525.676	31942.34
526.043	32177.13
526.409	32054.88
526.776	32637.69
527.142	32720.62
527.508	33037.9
527.874	33301.85
528.241	33466.82
528.607	33569.41
528.973	33958.1
529.339	33768.96
529.705	34274.25
530.071	34458.66
530.437	34759.44
530.803	34902.26
531.169	35061.35
531.535	35047.34
531.901	35291.85
532.267	35412.53
532.632	35697.49
532.998	35752.63
533.364	35979.52
533.73	36237.14
534.095	36495.21
534.461	36631.71
534.826	36866.95
535.192	36939.72
535.557	37223.33
535.923	37191.92
536.288	37413.61
536.653	37577.22
537.019	37563.66
537.384	37749.64
537.749	37916.42
538.114	37976.08
538.479	38085.91
538.845	38265.79
539.21	38273.92
539.575	38616.29
539.94	38609.51
540.305	38953.45
540.67	38761.59
541.034	39132.21
541.399	39374.01
541.764	39396.38
542.129	39469.6
542.494	39674.34
542.858	39793.43
543.223	39862.58
543.587	40052.18
543.952	40117.26
544.316	40237.71
544.681	40376.69
545.045	40617.36
545.41	40738.49
545.774	40740.75
546.138	40796.34
546.503	41032.95
546.867	41093.96
547.231	41350.68
547.595	41438.59
547.959	41652.82
548.324	41755.41
548.688	41787.95
549.052	41862.98
549.416	42071.79
549.779	42128.74
550.143	42319.92
550.507	42605.11
550.871	42747.48
551.235	42718.1
551.599	43024.76
551.962	43080.12
552.326	43323.06
552.689	43495.71
553.053	43402.38
553.417	43645.31
553.78	44166.65
554.143	43873.55
554.507	44311.28
554.87	44414.78
555.234	44624.04
555.597	44575.23
555.96	44675.11
556.323	44965.72
556.686	44997.59
557.05	45302.21
557.413	45455.43
557.776	45530.91
558.139	45744.69
558.502	45861.75
558.865	45897.45
559.228	46292.47
559.59	46288.63
559.953	46534.72
560.316	46929.97
560.679	46879.12
561.041	47197.76
561.404	47282.73
561.767	47743.96
562.129	47466.45
562.492	47838.87
562.854	47992.31
563.217	47939.66
563.579	48221.91
563.941	48427.1
564.304	48597.49
564.666	48872.51
565.028	48830.48
565.39	49120.64
565.753	49250.13
566.115	49207.19
566.477	49576.9
566.839	49602.66
567.201	49813.73
567.563	49870
567.925	50135.53
568.287	50244.23
568.648	50178.24
569.01	50492.13
569.372	50660.94
569.734	50623.88
570.095	50839.02
570.457	50954.27
570.819	50944.32
571.18	51068.39
571.542	51194.71
571.903	51349.06
572.265	51477.64
572.626	51445.1
572.987	51529.62
573.349	51700.01
573.71	51842.83
574.071	51877.63
574.432	52005.99
574.794	52216.38
575.155	52149.49
575.516	52150.17
575.877	52257.96
576.238	52376.15
576.599	52446.43
576.96	52523.27
577.32	52516.03
577.681	52577.95
578.042	52703.37
578.403	52718.06
578.763	52816.59
579.124	52818.63
579.485	52972.07
579.845	53062.69
580.206	52962.35
580.566	52966.64
580.927	53037.83
581.287	53139.29
581.648	53055.68
582.008	53255.45
582.368	53137.94
582.728	53177.94
583.089	53116.02
583.449	53109.47
583.809	53209.8
584.169	53298.61
584.529	53244.38
584.889	53397.82
585.249	53231.27
585.609	53255.45
585.969	53350.14
586.329	53393.3
586.688	53380.64
587.048	53325.5
587.408	53213.87
587.768	53303.13
588.127	53342.68
588.487	53282.12
588.846	53530.7
589.206	53268.33
589.565	53283.02
589.925	53485.73
590.284	53419.97
590.643	53475.78
591.003	53538.61
591.362	53486.86
591.721	53497.48
592.08	53546.97
592.44	53597.81
592.799	53639.17
593.158	53556.01
593.517	53593.29
593.876	53633.52
594.235	53591.03
594.593	53527.99
594.952	53685.5
595.311	53572.73
595.67	53590.13
596.029	53792.39
596.387	53765.72
596.746	53841.42
597.104	53773.18
597.463	53750.8
597.822	53864.93
598.18	53756
598.538	53765.49
598.897	53859.73
599.255	53701.54
599.613	54054.98
599.972	53876.68
600.33	53976.11
600.688	53935.43
601.046	54071.25
601.404	54135.88
601.762	54072.83
602.12	54232.83
602.478	54213.39
602.836	54205.93
603.194	54091.36
603.552	54168.19
603.91	54094.07
604.268	54302.65
604.625	54161.64
604.983	54284.35
605.341	54205.03
605.698	54402.99
606.056	54414.74
606.413	54384.69
606.771	54507.17
607.128	54472.37
607.485	54350.79
607.843	54441.18
608.2	54531.57
608.557	54620.61
608.914	54591.23
609.272	54682.98
609.629	54757.78
609.986	54730.44
610.343	54661.74
610.7	54844.79
611.057	54848.18
611.414	54833.71
611.771	54794.62
612.127	55017.44
612.484	54915.29
612.841	55041.17
613.198	54944.9
613.554	54912.81
613.911	55172.01
614.267	55106.02
614.624	55056.31
614.98	55131.33
615.337	55349.41
615.693	55324.55
616.05	55229.64
616.406	55367.94
616.762	55236.87
617.118	55285.68
617.475	55263.31
617.831	55348.5
618.187	55338.56
618.543	55380.37
618.899	55573.81
619.255	55461.72
619.611	55492.23
619.967	55507.37
620.323	55577.87
620.678	55459.46
621.034	55387.15
621.39	55445.45
621.746	55439.57
622.101	55702.62
622.457	55602.28
622.812	55564.99
623.168	55658.32
623.523	55557.08
623.879	55698.1
624.234	55508.95
624.589	55654.93
624.945	55650.87
625.3	55661.49
625.655	55598.89
626.01	55623.75
626.365	55634.14
626.72	55681.37
627.075	55571.1
627.43	55530.42
627.785	55370.65
628.14	55508.05
628.495	55578.78
628.85	55511.66
629.205	55420.82
629.559	55604.31
629.914	55458.78
630.269	55435.28
630.623	55378.11
630.978	55287.94
631.332	55446.13
631.687	55400.25
632.041	55387.15
632.396	55401.61
632.75	55227.6
633.104	55328.39
633.459	55188.96
633.813	55116.64
634.167	55177.89
634.521	55141.28
634.875	55136.3
635.229	55110.54
635.583	54969.08
635.937	54976.76
636.291	54932.24
636.645	55059.7
636.999	54885.24
637.352	54954.61
637.706	54825.58
638.06	54859.48
638.413	54829.87
638.767	54771.79
639.121	54848.18
639.474	54523.21
639.828	54618.35
640.181	54570.44
640.534	54628.52
640.888	54518.24
641.241	54416.78
641.594	54397.79
641.947	54555.75
642.301	54441.18
642.654	54452.93
643.007	54433.72
643.36	54348.75
643.713	54255.65
644.066	54393.73
644.419	54184.01
644.771	53984.24
645.124	53713.97
645.477	53641.43
645.83	53518.04
646.182	53330.93
646.535	53244.15
646.888	53225.62
647.24	53149.92
647.593	53317.6
647.945	53169.35
648.298	53026.3
648.65	52987.21
649.002	52881.67
649.355	53030.6
649.707	53018.17
650.059	53189.01
650.411	53479.17
650.763	53423.13
651.115	53762.78
651.467	53654.31
651.819	53594.2
652.171	53425.62
652.523	53426.97
652.875	53482.79
653.227	53359.63
653.578	53491.6
653.93	53370.48
654.282	53222
654.633	53132.52
654.985	53215
655.337	53257.48
655.688	53189.24
656.039	53331.15
656.391	53115.34
656.742	53196.92
657.094	53147.66
657.445	53339.74
657.796	53213.42
658.147	53068.56
658.498	53107.66
658.849	53192.85
659.2	53124.15
659.551	53029.69
659.902	53128.45
660.253	53003.71
660.604	53022.91
660.955	52834.22
661.306	53033.53
661.656	52965.51
662.007	52965.51
662.358	52852.97
662.708	52873.99
663.059	52760.32
663.409	52706.99
663.76	52884.39
664.11	52803.26
664.461	52863.14
664.811	52813.88
665.161	52901.79
665.511	52823.6
665.862	52754.22
666.212	52846.2
666.562	52815.91
666.912	52765.07
667.262	52866.53
667.612	52707.89
667.962	52739.53
668.312	52653.88
668.662	52765.52
669.011	52620.44
669.361	52613.21
669.711	52618.4
670.06	52592.64
670.41	52567.33
670.76	52536.37
671.109	52572.53
671.459	52599.65
671.808	52450.95
672.157	52522.59
672.507	52319.43
672.856	52384.06
673.205	52419.99
673.554	52482.59
673.904	52388.13
674.253	52453.21
674.602	52358.75
674.951	52009.83
675.3	51678.99
675.649	52293.89
675.998	52230.62
676.346	52264.06
676.695	52335.02
677.044	52085.76
677.393	52176.83
677.741	52170.51
678.09	52069.27
678.438	52033.11
678.787	52068.81
679.135	51983.85
679.484	51939.33
679.832	52125.76
680.181	51819.56
680.529	51976.84
680.877	51765.77
681.225	51796.51
681.573	51877.86
681.922	51700.46
682.27	51638.77
682.618	51665.89
682.966	51552.9
683.314	51579.79
683.661	51471.32
684.009	51290.08
684.357	51130.76
684.705	51297.76
685.053	51327.82
685.4	51174.15
685.748	50981.84
686.095	50921.05
686.443	50770.09
686.79	50767.38
687.138	50704.78
687.485	50826.59
687.832	50693.03
688.18	50850.09
688.527	50461.17
688.874	50484
689.221	50339.37
689.568	50302.08
689.915	50291.01
690.262	50164.46
690.609	50057.57
690.956	49869.1
691.303	49955.88
691.65	49659.84
691.997	49578.48
692.344	49421.43
692.69	49527.86
693.037	49599.05
693.383	49161.55
693.73	49369.9
694.077	49051.27
694.423	49207.42
694.769	49010.82
695.116	48889.92
695.462	48899.63
695.808	48756.36
696.155	48699.41
696.501	48548.91
696.847	48382.36
697.193	48113.89
697.539	48381.45
697.885	48170.84
698.231	48037.51
698.577	48058.52
698.923	47957.74
699.269	47764.07
699.614	47470.74
699.96	47448.82
700.306	47540.8
700.651	47373.8
700.997	47228.04
701.342	47122.05
701.688	47087.48
702.033	46970.64
702.379	46831.44
702.724	46819.91
703.069	46903.53
703.415	46335.41
703.76	46451.79
704.105	46282.07
704.45	46195.52
704.795	45976.32
705.14	45935.19
705.485	45975.64
705.83	45738.36
706.175	45821.75
706.52	45593.05
706.865	45523.22
707.209	45576.33
707.554	45464.92
707.899	45546.73
708.243	45132.05
708.588	45161.43
708.932	44881.21
709.277	44888.44
709.621	44944.93
709.966	44589.46
710.31	44656.81
710.654	44355.12
710.998	44384.04
711.342	44420.2
711.687	44247.33
712.031	44042.81
712.375	43905.64
712.719	44025.18
713.063	43916.71
713.407	44191.96
713.75	43693.22
714.094	43858.86
714.438	43638.08
714.782	43596.49
715.125	43421.81
715.469	43457.29
715.812	43192.44
716.156	43115.83
716.499	43002.39
716.843	43128.71
717.186	42845.78
717.53	42916.51
717.873	43001.93
718.216	42792.9
718.559	42732.11
718.902	42572.12
719.246	42691.89
719.589	42425.9
719.932	42344.78
720.275	42230.88
720.617	42299.35
720.96	42149.98
721.303	42129.64
721.646	42028.17
721.989	41887.39
722.331	42011.45
722.674	41793.6
723.016	41841.51
723.359	41728.52
723.701	41718.58
724.044	41454.4
724.386	41221.87
724.729	41439.94
725.071	41266.16
725.413	41184.13
725.755	41281.08
726.097	41102.1
726.439	40911.82
726.782	40955.43
727.124	41060.29
727.465	40842.67
727.807	40785.72
728.149	40554.77
728.491	40630.25
728.833	40697.14
729.175	40514.09
729.516	40399.74
729.858	40280.2
730.199	40356.35
730.541	40286.07
730.882	40377.6
731.224	40251.95
731.565	39946.2
731.906	40098.73
732.248	40097.6
732.589	39984.16
732.93	39885.18
733.271	39828.23
733.612	39858.74
733.953	39851.73
734.294	39455.81
734.635	39535.36
734.976	39611.51
735.317	39472.99
735.658	39444.06
735.999	39369.71
736.339	39320.9
736.68	39268.47
737.021	39113.45
737.361	39057.63
737.702	39162.71
738.042	38955.04
738.383	38848.37
738.723	38936.28
739.063	38768.6
739.404	38940.35
739.744	38762.5
740.084	38622.16
740.424	38671.2
740.764	38572.45
741.104	38652.67
741.444	38417.87
741.784	38247.93
742.124	38404.99
742.464	38325
742.804	38181.95
743.143	38179.24
743.483	38120.93
743.823	37861.28
744.162	37744.67
744.502	37913.93
744.841	37841.84
745.181	37876.87
745.52	37844.1
745.86	37720.49
746.199	37659.93
746.538	37605.47
746.877	37652.47
747.216	37483.89
747.556	37300.62
747.895	37374.96
748.234	37161.18
748.573	37091.58
748.911	37030.57
749.25	37064.69
749.589	36906.05
749.928	36869.21
750.267	36859.04
750.605	36847.52
750.944	36577.24
751.283	36497.25
751.621	36612.05
751.96	36424.25
752.298	36429.68
752.636	36518.49
752.975	36157.37
753.313	36045.28
753.651	36135.45
753.989	35949.69
754.327	35999.63
754.666	35714.89
755.004	35810.71
755.342	35903.59
755.679	35796.93
756.017	35486.2
756.355	35655.01
756.693	35285.08
757.031	35453.66
757.368	35199.43
757.706	35270.84
758.044	34965.08
758.381	35099.09
758.719	34910.4
759.056	34901.13
759.394	34830.4
759.731	34520.35
760.068	34494.36
760.405	34378.43
760.743	34224.76
761.08	34362.16
761.417	34010.98
761.754	33930.31
762.091	34046.24
762.428	33970.31
762.765	33725.79
763.102	33794.94
763.438	33491
763.775	33391.57
764.112	33385.92
764.449	33303.43
764.785	33159.71
765.122	32840.85
765.458	32978.02
765.795	32819.83
766.131	32856.66
766.467	32574.19
766.804	32407.41
767.14	32261.2
767.476	32244.93
767.812	32056.46
768.148	32188.89
768.485	32007.87
768.821	31768.56
769.157	31753.87
769.492	31709.35
769.828	31741.89
770.164	31326.76
770.5	31238.85
770.836	31183.49
771.171	31095.81
771.507	31041.34
771.842	30865.08
772.178	30753.44
772.513	30828.02
772.849	30692.88
773.184	30609.72
773.519	30411.3
773.855	30340.57
774.19	30141.26
774.525	30110.52
774.86	30038.66
775.195	29977.19
775.53	29702.17
775.865	29526.58
776.2	29572.91
776.535	29315.51
776.87	29315.97
777.205	29261.96
777.539	29073.94
777.874	29186.93
778.209	28810.67
778.543	28782.87
778.878	28630.11
779.212	28639.37
779.547	28493.84
779.881	28509.43
780.215	28301.53
780.55	28383.34
780.884	28183.11
781.218	28031.03
781.552	28047.3
781.886	27823.12
782.22	27741.54
782.554	27619.97
782.888	27396.02
783.222	27297.71
783.556	27160.54
783.889	27284.38
784.223	27026.08
784.557	26938.85
784.89	27030.38
785.224	26749.71
785.557	26659.31
785.891	26685.3
786.224	26450.28
786.558	26424.07
786.891	26215.03
787.224	26095.03
787.557	26039.67
787.891	26041.93
788.224	26083.28
788.557	25921.25
788.89	25856.17
789.223	25840.8
789.556	25650.98
789.888	25584.09
790.221	25360.59
790.554	25309.07
790.887	25025.46
791.219	25173.93
791.552	25065.46
791.884	24866.82
792.217	24943.88
792.549	24855.07
792.882	24623.21
793.214	24579.37
793.546	24549.99
793.879	24429.77
794.211	24214.18
794.543	24310.67
794.875	24182.09
795.207	24257.79
795.539	24077.46
795.871	24137.12
796.203	23894.87
796.535	23723.35
796.867	23708.66
797.198	23675.66
797.53	23575.1
797.862	23550.24
798.193	23481.32
798.525	23383.69
798.856	23390.02
799.188	23136.47
799.519	23112.97
799.85	22933.76
800.182	23026.64
800.513	22939.64
800.844	22834.1
801.175	22912.74
801.506	22854.44
801.837	22618.74
802.168	22635.24
802.499	22520.21
802.83	22403.83
803.161	22302.37
803.491	22335.59
803.822	22201.13
804.153	22211.75
804.483	21955.48
804.814	21872.77
805.145	21935.37
805.475	21861.93
805.805	21720.23
806.136	21763.17
806.466	21689.27
806.796	21679.33
807.126	21551.65
807.457	21496.29
807.787	21581.93
808.117	21310.75
808.447	21233.24
808.777	21325.67
809.107	21191.43
809.436	21157.76
809.766	21090.19
810.096	20948.73
810.426	20969.52
810.755	20927.03
811.085	20889.97
811.414	20839.81
811.744	20698.57
812.073	20651.34
812.403	20550.1
812.732	20551.23
813.061	20492.24
813.39	20355.07
813.719	20299.03
814.049	20432.13
814.378	20247.05
814.707	20245.7
815.036	20122.99
815.365	20064.46
815.693	19916.21
816.022	19902.65
816.351	19906.27
816.68	19802.32
817.008	19843
817.337	19625.6
817.665	19675.54
817.994	19642.77
818.322	19573.17
818.651	19610.68
818.979	19540.4
819.307	19553.29
819.636	19429.9
819.964	19221.99
820.292	19461.99
820.62	19354.65
820.948	19239.62
821.276	19378.83
821.604	19324.59
821.932	19271.71
822.259	19367.08
822.587	19283.91
822.915	19201.2
823.243	19324.82
823.57	19253.63
823.898	19208.89
824.225	19154.65
824.553	19126.63
824.88	19196.91
825.207	19278.49
825.535	19107.65
825.862	19187.87
826.189	19216.8
826.516	19319.17
826.843	19260.86
827.17	19285.5
827.497	19211.15
827.824	19235.33
828.151	19178.15
828.478	19175.89
828.805	19275.1
829.131	19212.05
829.458	19100.42
829.785	19071.49
830.111	19170.92
830.438	19231.26
830.764	19168.21
831.09	19110.36
831.417	19040.08
831.743	19175.89
832.069	19118.27
832.395	18962.57
832.722	19106.74
833.048	19019.51
833.374	19062.68
833.7	18934.09
834.026	18956.92
834.351	19003.7
834.677	18914.21
835.003	18912.62
835.329	18925.28
835.654	18838.73
835.98	18830.59
836.306	18818.84
836.631	18723.02
836.956	18864.26
837.282	18785.85
837.607	18764.83
837.932	18641.67
838.258	18726.19
838.583	18631.28
838.908	18450.49
839.233	18601.67
839.558	18520.32
839.883	18486.65
840.208	18392.41
840.533	18311.51
840.858	18548.57
841.182	18402.81
841.507	18322.81
841.832	18214.11
842.156	18283.26
842.481	18224.28
842.805	18179.31
843.13	18062.03
843.454	18039.88
843.778	17900.45
844.103	17900.22
844.427	17873.33
844.751	17840.56
845.075	17869.04
845.399	17901.8
845.723	17670.62
846.047	17731.41
846.371	17544.98
846.695	17576.16
847.019	17379.33
847.343	17354.02
847.666	17307.02
847.99	17203.97
848.313	17114.93
848.637	16993.8
848.96	16906.12
849.284	16934.82
849.607	16866.8
849.931	16714.94
850.254	16716.52
850.577	16607.37
850.9	16491.67
851.223	16450.09
851.546	16415.51
851.869	16278.12
852.192	16404.44
852.515	16218.23
852.838	16271.56
853.161	16183.2
853.483	15974.85
853.806	15974.17
854.129	15990.44
854.451	15921.52
854.774	15821.18
855.096	15867.05
855.419	15740.05
855.741	15750.9
856.063	15741.41
856.385	15617.34
856.708	15520.85
857.03	15443.11
857.352	15429.1
857.674	15374.86
857.996	15358.14
858.318	15233.17
858.64	15276.56
858.961	15105.72
859.283	15184.59
859.605	15088.54
859.926	15063.23
860.248	14978.72
860.57	14984.14
860.891	14980.75
861.212	14885.16
861.534	14902.11
861.855	14834.54
862.176	14879.96
862.498	14833.18
862.819	14834.99
863.14	14679.29
863.461	14687.65
863.782	14638.16
864.103	14604.71
864.424	14606.3
864.745	14599.74
865.065	14476.36
865.386	14497.83
865.707	14483.81
866.027	14515.45
866.348	14550.7
866.668	14469.58
866.989	14383.25
867.309	14369.47
867.63	14369.69
867.95	14286.76
868.27	14170.83
868.59	14326.53
868.91	14261.45
869.23	14213.09
869.55	14196.36
869.87	14232.75
870.19	14224.61
870.51	14161.79
870.83	14169.25
871.15	13996.37
871.469	14053.77
871.789	14080.43
872.109	13998.18
872.428	13931.74
872.748	14030.94
873.067	13928.8
873.386	13909.59
873.706	13911.17
874.025	13787.79
874.344	13839.54
874.663	13812.42
874.982	13842.48
875.301	13749.82
875.62	13691.97
875.939	13745.08
876.258	13678.41
876.577	13673.67
876.896	13624.63
877.214	13654.46
877.533	13658.07
877.852	13665.76
878.17	13590.05
878.489	13578.75
878.807	13571.75
879.125	13550.28
879.444	13449.49
879.762	13413.11
880.08	13434.8
880.398	13385.31
880.716	13420.11
881.034	13342.38
881.352	13346.44
881.67	13409.94
881.988	13288.14
882.306	13309.61
882.624	13174.47
882.941	13098.99
883.259	13046.34
883.577	13039.33
883.894	13070.97
884.212	12965.89
884.529	12998.2
884.846	12954.14
885.164	12938.09
885.481	12842.28
885.798	12885.44
886.115	12802.28
886.432	12777.42
886.75	12715.05
887.067	12689.96
887.383	12682.96
887.7	12657.42
888.017	12660.13
888.334	12699.68
888.651	12649.74
888.967	12599.34
889.284	12528.61
889.6	12545.11
889.917	12430.53
890.233	12425.56
890.55	12339.46
890.866	12350.31
891.182	12345.79
891.498	12273.93
891.815	12119.58
892.131	12120.94
892.447	12165
892.763	12070.09
893.079	12021.51
893.395	12094.72
893.71	11987.38
894.026	11975.41
894.342	11958.46
894.657	11916.2
894.973	11861.28
895.289	11783.09
895.604	11814.28
895.92	11715.53
896.235	11626.49
896.55	11680.72
896.865	11692.48
897.181	11634.4
897.496	11604.12
897.811	11481.41
898.126	11481.86
898.441	11428.75
898.756	11420.39
899.071	11330.9
899.386	11388.08
899.7	11225.59
900.015	11233.5
900.33	11207.97
900.644	11113.73
900.959	11151.25
901.273	11130.68
901.588	10976.56
901.902	10992.83
902.216	10953.74
902.531	10958.03
902.845	10825.15
903.159	10804.81
903.473	10766.85
903.787	10691.6
904.101	10598.72
904.415	10620.86
904.729	10645.5
905.042	10583.8
905.356	10494.99
905.67	10534.77
905.984	10578.61
906.297	10407.76
906.611	10410.47
906.924	10379.06
907.237	10339.74
907.551	10298.61
907.864	10224.72
908.177	10264.04
908.491	10181.1
908.804	10112.4
909.117	10081.22
909.43	9956.25
909.743	9981.56
910.056	9904.95
910.368	9924.16
910.681	9867.44
910.994	9840.09
911.307	9831.96
911.619	9775.46
911.932	9719.87
912.244	9688.46
912.557	9663.38
912.869	9535.7
913.181	9568.46
913.494	9556.71
913.806	9499.54
914.118	9429.94
914.43	9405.98
914.742	9389.26
915.054	9343.61
915.366	9304.97
915.678	9262.71
915.99	9109.04
916.302	9109.04
916.613	9137.06
916.925	9102.03
917.236	9048.7
917.548	8949.95
917.859	8993.34
918.171	8912.66
918.482	8864.98
918.794	8829.95
919.105	8860.46
919.416	8741.82
919.727	8746.11
920.038	8676.51
920.349	8649.62
920.66	8548.38
920.971	8640.8
921.282	8607.81
921.593	8511.32
921.903	8389.29
922.214	8448.27
922.525	8345.9
922.835	8334.6
923.146	8326.69
923.456	8292.56
923.767	8313.13
924.077	8234.03
924.387	8186.35
924.697	8178.9
925.008	8105
925.318	8057.54
925.628	8087.15
925.938	7992.23
926.248	7889.19
926.558	7925.79
926.867	7935.51
927.177	7852.35
927.487	7888.73
927.796	7789.53
928.106	7806.93
928.416	7724.9
928.725	7712.92
929.034	7723.54
929.344	7647.16
929.653	7592.92
929.962	7575.75
930.271	7535.07
930.581	7454.85
930.89	7450.1
931.199	7418.01
931.508	7370.1
931.817	7380.72
932.125	7365.13
932.434	7314.51
932.743	7281.29
933.051	7198.13
933.36	7205.59
933.669	7159.71
933.977	7113.16
934.286	7131.92
934.594	7038.81
934.902	7039.04
935.21	7016.44
935.519	7031.35
935.827	6949.55
936.135	6896.44
936.443	6859.61
936.751	6832.26
937.059	6820.06
937.367	6800.4
937.674	6799.72
937.982	6746.39
938.29	6706.39
938.597	6691.02
938.905	6702.1
939.213	6609.9
939.52	6602.21
939.827	6631.82
940.135	6560.18
940.442	6557.47
940.749	6559.73
941.056	6491.03
941.363	6384.59
941.67	6388.43
941.977	6368.32
942.284	6321.77
942.591	6340.07
942.898	6249.91
943.205	6287.65
943.511	6245.84
943.818	6160.19
944.125	6204.94
944.431	6082.91
944.738	6048.1
945.044	6053.53
945.35	6032.06
945.657	5986.64
945.963	5994.55
946.269	5968.33
946.575	5969.24
946.881	5907.99
947.187	5954.09
947.493	5845.4
947.799	5842.91
948.105	5804.72
948.41	5770.6
948.716	5724.72
949.022	5734.89
949.327	5699.19
949.633	5658.51
949.938	5680.43
950.244	5650.15
950.549	5595.01
950.854	5600.21
951.16	5586.87
951.465	5555.91
951.77	5474.56
952.075	5536.25
952.38	5466.88
952.685	5491.06
952.99	5414.9
953.294	5455.35
953.599	5353.66
953.904	5344.17
954.209	5327.22
954.513	5329.93
954.818	5251.97
955.122	5214
955.426	5246.09
955.731	5185.08
956.035	5168.58
956.339	5179.2
956.643	5125.42
956.948	5123.61
957.252	5101.01
957.556	5082.03
957.86	5074.12
958.163	5057.62
958.467	5014.91
958.771	4974.23
959.075	4970.62
959.378	4963.61
959.682	4903.5
959.985	4903.05
960.289	4858.98
960.592	4871.41
960.896	4861.02
961.199	4784.18
961.502	4745.99
961.805	4765.2
962.108	4739.89
962.411	4741.47
962.714	4644.98
963.017	4717.07
963.32	4680.91
963.623	4649.95
963.926	4673.68
964.228	4621.7
964.531	4611.08
964.833	4647.01
965.136	4566.33
965.438	4529.05
965.741	4532.89
966.043	4534.25
966.345	4490.4
966.648	4440.24
966.95	4427.58
967.252	4394.81
967.554	4401.14
967.856	4381.03
968.158	4400.01
968.46	4367.24
968.761	4297.64
969.063	4336.96
969.365	4309.39
969.666	4244.08
969.968	4235.27
970.269	4223.07
970.571	4198.21
970.872	4170.19
971.174	4149.85
971.475	4092
971.776	4079.12
972.077	4073.69
972.378	4084.54
972.679	4074.82
972.98	4007.25
973.281	4055.39
973.582	3994.37
973.883	4000.47
974.183	3975.62
974.484	3983.98
974.785	3971.1
975.085	3918.89
975.386	3942.17
975.686	3892.45
975.986	3866.01
976.287	3829.63
976.587	3855.17
976.887	3842.06
977.187	3803.42
977.487	3780.59
977.787	3781.04
978.087	3737.2
978.387	3759.58
978.687	3739.69
978.987	3698.56
979.286	3698.56
979.586	3699.69
979.885	3648.39
980.185	3635.96
980.484	3607.49
980.784	3638.45
981.083	3561.84
981.382	3574.04
981.682	3571.56
981.981	3534.5
982.28	3546.02
982.579	3503.54
982.878	3499.92
983.177	3468.06
983.475	3461.05
983.774	3403.2
984.073	3429.87
984.372	3418.12
984.67	3388.06
984.969	3341.96
985.267	3379.02
985.566	3353.71
985.864	3334.05
986.162	3341.96
986.461	3280.27
986.759	3281.4
987.057	3263.09
987.355	3227.39
987.653	3218.35
987.951	3249.99
988.249	3197.56
988.547	3176.09
988.844	3181.74
989.142	3181.96
989.44	3199.14
989.737	3162.08
990.035	3143.77
990.332	3149.65
990.63	3076.66
990.927	3076.43
991.224	3125.92
991.521	3051.35
991.819	3022.87
992.116	2982.42
992.413	3012.03
992.71	3011.8
993.006	2989.88
993.303	3007.05
993.6	2970.44
993.897	2940.84
994.193	2929.32
994.49	2915.08
994.787	2920.5
995.083	2857.45
995.379	2845.02
995.676	2839.37
995.972	2826.04
996.268	2836.66
996.565	2786.04
996.861	2777
997.157	2751.47
997.453	2761.41
997.749	2783.78
998.044	2746.04
998.34	2707.85
998.636	2715.08
998.932	2671.92
999.227	2670.34
999.523	2666.27
999.818	2660.62
1000.114	2612.49
1000.409	2630.11
1000.704	2595.09
1001	2604.8
1001.295	2532.72
1001.59	2585.14
1001.885	2529.55
1002.18	2549.66
1002.475	2530.68
1002.77	2512.15
1003.065	2485.71
1003.359	2482.77
1003.654	2479.61
1003.949	2449.78
1004.243	2436.45
1004.538	2414.75
1004.832	2416.79
1005.127	2429.67
1005.421	2384.02
1005.715	2371.82
1006.009	2349.22
1006.304	2351.93
1006.598	2280.07
1006.892	2311.7
1007.186	2271.03
1007.48	2289.56
1007.773	2242.78
1008.067	2276
1008.361	2224.7
1008.655	2226.51
1008.948	2221.99
1009.242	2219.73
1009.535	2157.81
1009.829	2184.7
1010.122	2152.16
1010.415	2145.16
1010.708	2152.39
1011.001	2114.42
1011.295	2124.14
1011.588	2124.14
1011.881	2092.5
1012.173	2105.83
1012.466	2065.84
1012.759	2040.07
1013.052	2045.95
1013.344	2036.01
1013.637	2000.75
1013.93	2033.29
1014.222	2002.79
1014.514	1983.13
1014.807	1986.97
1015.099	1968.66
1015.391	1948.55
1015.683	1946.06
1015.976	1893.64
1016.268	1914.65
1016.56	1886.63
1016.851	1898.61
1017.143	1836.46
1017.435	1868.55
1017.727	1845.05
1018.018	1831.04
1018.31	1829.23
1018.602	1793.07
1018.893	1784.26
1019.185	1819.06
1019.476	1780.42
1019.767	1775.22
1020.058	1759.4
1020.35	1746.3
1020.641	1742.91
1020.932	1726.41
1021.223	1702.68
1021.514	1687.77
1021.804	1671.95
1022.095	1717.6
1022.386	1664.49
1022.677	1661.78
1022.967	1648.45
1023.258	1643.25
1023.548	1638.73
1023.839	1616.13
1024.129	1631.72
1024.419	1594.44
1024.709	1575.9
1025	1588.56
1025.29	1548.11
1025.58	1549.46
1025.87	1532.06
1026.16	1539.3
1026.449	1507.66
1026.739	1497.94
1027.029	1500.2
1027.319	1486.87
1027.608	1467.21
1027.898	1454.78
1028.187	1459.07
1028.477	1443.93
1028.766	1441.45
1029.055	1421.56
1029.344	1408.23
1029.634	1395.12
1029.923	1419.52
1030.212	1366.87
1030.501	1361
1030.79	1358.06
1031.078	1343.59
1031.367	1329.81
1031.656	1347.89
1031.945	1338.85
1032.233	1310.15
1032.522	1294.56
1032.81	1303.14
1033.099	1280.09
1033.387	1285.97
1033.675	1245.52
1033.963	1265.86
1034.251	1291.84
1034.54	1238.06
1034.828	1238.51
1035.116	1219.98
1035.403	1208
1035.691	1200.32
1035.979	1176.59
1036.267	1230.38
1036.554	1190.6
1036.842	1195.58
1037.129	1172.3
1037.417	1194.67
1037.704	1144.28
1037.992	1169.81
1038.279	1124.17
1038.566	1123.26
1038.853	1123.26
1039.14	1123.26
