Data from plate_porcelain_FLMS001491_040.txt Node
Date: Tue Feb 07 11:19:14 GMT 2017
User: dcchb
Spectrometer: FLMS00149
Trigger mode: 0
Integration Time (sec): 2.000000E-2
Scans to average: 10
Electric dark correction enabled: true
Nonlinearity correction enabled: false
Boxcar width: 0
XAxis mode: Wavelengths
Number of Pixels in Spectrum: 2048
>>>>>Begin Spectral Data<<<<<
341.393	16.51
341.776	16.51
342.16	16.51
342.543	-47.22
342.927	-72.3
343.31	-66.88
343.693	-62.58
344.077	-69.59
344.46	-50.83
344.843	-51.51
345.226	-35.92
345.61	-45.18
345.993	-20.1
346.376	8.38
346.759	2.73
347.142	19.67
347.525	51.31
347.908	57.19
348.291	84.98
348.674	97.19
349.057	81.14
349.44	127.69
349.823	155.26
350.206	149.39
350.588	229.39
350.971	255.37
351.354	260.57
351.737	290.18
352.119	288.37
352.502	277.97
352.884	295.37
353.267	315.71
353.65	338.31
354.032	335.15
354.414	352.32
354.797	357.97
355.179	358.42
355.562	341.25
355.944	376.5
356.326	393.9
356.709	373.11
357.091	355.94
357.473	382.83
357.855	388.48
358.238	376.28
358.62	396.39
359.002	401.81
359.384	381.7
359.766	390.96
360.148	395.26
360.53	388.25
360.912	390.74
361.294	411.53
361.676	393.45
362.057	392.09
362.439	394.13
362.821	397.29
363.203	374.02
363.584	381.25
363.966	364.07
364.348	384.18
364.729	397.97
365.111	398.87
365.493	378.54
365.874	391.19
366.256	399.1
366.637	377.41
367.019	386.9
367.4	393.45
367.781	397.74
368.163	398.65
368.544	393.9
368.925	406.56
369.306	421.47
369.688	396.84
370.069	407.46
370.45	396.39
370.831	392.55
371.212	409.72
371.593	406.33
371.974	399.78
372.355	421.02
372.736	432.77
373.117	435.71
373.498	427.12
373.879	430.06
374.26	401.36
374.641	410.62
375.021	419.66
375.402	445.43
375.783	436.39
376.163	473.22
376.544	466.44
376.925	460.57
377.305	457.63
377.686	454.47
378.066	467.12
378.447	453.34
378.827	448.14
379.208	464.86
379.588	488.14
379.968	467.35
380.349	470.96
380.729	463.73
381.109	492.43
381.489	496.95
381.87	496.5
382.25	514.35
382.63	484.97
383.01	506.89
383.39	512.99
383.77	500.11
384.15	522.94
384.53	527.23
384.91	544.86
385.29	545.31
385.67	561.13
386.049	564.29
386.429	566.1
386.809	574.69
387.189	550.96
387.568	574.46
387.948	550.96
388.328	585.99
388.707	584.18
389.087	600.68
389.466	609.94
389.846	615.37
390.225	630.28
390.605	650.62
390.984	593.67
391.363	655.82
391.743	652.65
392.122	648.36
392.501	671.41
392.881	675.48
393.26	701.92
393.639	694.46
394.018	705.53
394.397	702.37
394.776	699.2
395.155	707.79
395.534	718.87
395.913	709.37
396.292	725.19
396.671	753.67
397.05	765.42
397.429	762.03
397.808	738.98
398.186	775.59
398.565	756.83
398.944	781.91
399.323	807.68
399.701	778.52
400.08	818.3
400.458	832.99
400.837	834.12
401.215	811.97
401.594	852.65
401.972	861.91
402.351	873.44
402.729	908.92
403.107	863.95
403.486	898.97
403.864	904.17
404.242	930.39
404.62	902.82
404.999	933.32
405.377	941.91
405.755	977.84
406.133	952.08
406.511	984.17
406.889	984.17
407.267	1018.74
407.645	1056.71
408.023	1034.11
408.401	1048.35
408.779	1070.72
409.156	1081.57
409.534	1068.91
409.912	1102.13
410.29	1114.79
410.667	1124.96
411.045	1139.19
411.422	1138.29
411.8	1160.44
412.178	1198.4
412.555	1189.14
412.933	1222.81
413.31	1268.91
413.687	1265.74
414.065	1256.48
414.442	1294.22
414.819	1301.45
415.197	1311.62
415.574	1337.61
415.951	1347.1
416.328	1360.66
416.705	1384.16
417.082	1412.41
417.46	1426.42
417.837	1446.98
418.214	1458.28
418.591	1458.73
418.967	1477.49
419.344	1492.86
419.721	1521.78
420.098	1514.78
420.475	1522.23
420.852	1555.91
421.228	1590.03
421.605	1572.4
421.982	1611.5
422.358	1605.17
422.735	1644.26
423.111	1666.41
423.488	1726.07
423.864	1715.68
424.241	1708.9
424.617	1758.39
424.994	1786.18
425.37	1817.59
425.746	1796.35
426.123	1810.14
426.499	1830.25
426.875	1874.99
427.251	1877.25
427.627	1936.46
428.003	1967.65
428.379	1973.07
428.756	2008.55
429.132	2035.89
429.507	2071.15
429.883	2059.17
430.259	2129.22
430.635	2154.31
431.011	2157.7
431.387	2221.65
431.763	2262.33
432.138	2244.93
432.514	2293.29
432.89	2328.31
433.265	2371.48
433.641	2397.92
434.016	2377.8
434.392	2461.42
434.767	2507.52
435.143	2532.83
435.518	2558.82
435.894	2564.01
436.269	2609.21
436.644	2671.13
437.02	2681.75
437.395	2660.74
437.77	2724.46
438.145	2764.24
438.52	2774.86
438.895	2815.76
439.271	2879.49
439.646	2921.29
440.021	2939.15
440.395	2971.69
440.77	2906.38
441.145	2988.41
441.52	3022.76
441.895	3029.76
442.27	3073.61
442.645	3090.1
443.019	3140.04
443.394	3126.26
443.769	3164.9
444.143	3128.97
444.518	3217.1
444.892	3225.47
445.267	3215.97
445.641	3279.02
446.016	3335.52
446.39	3324.45
446.764	3344.33
447.139	3322.41
447.513	3377.55
447.887	3412.35
448.262	3443.09
448.636	3433.14
449.01	3541.62
449.384	3489.64
449.758	3544.78
450.132	3612.57
450.506	3663.42
450.88	3708.84
451.254	3668.17
451.628	3738.9
452.002	3844.66
452.376	3839.69
452.75	3873.81
453.123	3880.14
453.497	3936.86
453.871	4009.85
454.244	4055.73
454.618	4140.47
454.992	4205.33
455.365	4208.27
455.739	4269.96
456.112	4372.1
456.486	4370.52
456.859	4426.11
457.232	4521.48
457.606	4516.51
457.979	4597.86
458.352	4675.6
458.725	4711.98
459.099	4744.3
459.472	4869.94
459.845	4900.22
460.218	4952.43
460.591	5012.99
460.964	5016.15
461.337	5155.36
461.71	5221.12
462.083	5292.53
462.456	5321.23
462.829	5335.24
463.201	5434.22
463.574	5511.51
463.947	5616.36
464.32	5730.03
464.692	5721.9
465.065	5788.11
465.438	5844.61
465.81	6001.66
466.183	5968.67
466.555	6206.4
466.928	6226.52
467.3	6177.48
467.672	6308.1
468.045	6526.17
468.417	6502.22
468.789	6562.33
469.161	6584.47
469.534	6760.97
469.906	6883.67
470.278	6961.41
470.65	7102.2
471.022	7175.64
471.394	7329.76
471.766	7334.06
472.138	7398.24
472.51	7638.01
472.882	7775.85
473.253	7873.71
473.625	7948.05
473.997	8187.82
474.369	8261.27
474.74	8296.07
475.112	8456.06
475.484	8613.12
475.855	8838.65
476.227	8835.04
476.598	9130.4
476.97	9175.59
477.341	9420.33
477.713	9585.07
478.084	9557.28
478.455	9878.62
478.827	9952.75
479.198	10207.2
479.569	10299.4
479.94	10573.3
480.311	10682.45
480.682	10911.37
481.053	11119.95
481.424	11342.09
481.795	11474.06
482.166	11616.21
482.537	11783.43
482.908	12030.88
483.279	12175.29
483.65	12375.96
484.021	12647.59
484.391	12785.44
484.762	12909.28
485.133	13116.73
485.503	13341.13
485.874	13621.8
486.244	13692.54
486.615	13916.48
486.985	14113.77
487.356	14343.14
487.726	14510.82
488.097	14866.06
488.467	14886.18
488.837	15196.45
489.207	15353.96
489.578	15684.8
489.948	15802.54
490.318	16013.6
490.688	16153.94
491.058	16354.39
491.428	16515.29
491.798	16642.29
492.168	17034.82
492.538	17126.8
492.908	17357.75
493.278	17557.97
493.648	17610.62
494.017	17911.63
494.387	18098.97
494.757	18235.01
495.126	18411.51
495.496	18437.27
495.866	18715.91
496.235	18930.36
496.605	19086.74
496.974	19266.85
497.344	19318.6
497.713	19486.51
498.082	19570.57
498.452	19817.12
498.821	20002.2
499.19	20045.59
499.559	20257.56
499.928	20482.41
500.298	20530.32
500.667	20820.71
501.036	20790.88
501.405	20961.95
501.774	21049.18
502.143	21336.63
502.512	21429.06
502.88	21626.79
503.249	21718.77
503.618	21875.37
503.987	21932.09
504.356	22019.77
504.724	22257.06
505.093	22346.09
505.462	22447.79
505.83	22721.9
506.199	22784.05
506.567	23129.8
506.936	23143.81
507.304	23490.02
507.672	23593.74
508.041	23767.75
508.409	23779.95
508.777	24027.86
509.145	24130.68
509.514	24288.19
509.882	24586.26
510.25	24533.38
510.618	24697.44
510.986	24832.81
511.354	25118.68
511.722	25409.29
512.09	25575.16
512.458	25611.54
512.826	25840.46
513.193	26058.54
513.561	26101.02
513.929	26487.23
514.297	26635.25
514.664	26908.23
515.032	27076.14
515.4	27240.88
515.767	27285.4
516.135	27451.72
516.502	27290.37
516.869	27842.67
517.237	28037.69
517.604	27930.81
517.972	28333.96
518.339	28599.49
518.706	28678.36
519.073	28775.98
519.44	29068.63
519.808	29466.36
520.175	29556.53
520.542	29900.92
520.909	29974.37
521.276	30077.64
521.643	30451.64
522.009	30710.17
522.376	30914.46
522.743	31116.48
523.11	31402.13
523.477	31686.41
523.843	31847.09
524.21	32146.51
524.577	32313.97
524.943	32592.6
525.31	32826.04
525.676	33123.21
526.043	33339.7
526.409	33455.86
526.776	33802.97
527.142	34045.22
527.508	34106.69
527.874	34454.02
528.241	34688.37
528.607	34782.15
528.973	35171.52
529.339	35202.7
529.705	35531.06
530.071	35745.97
530.437	35939.63
530.803	36161.78
531.169	36453.29
531.535	36366.06
531.901	36459.85
532.267	36776
532.632	37026.61
532.998	37209.21
533.364	37462.31
533.73	37623.21
534.095	37857.55
534.461	37935.06
534.826	37999.92
535.192	38347.48
535.557	38610.07
535.923	38475.16
536.288	38773.68
536.653	39015.26
537.019	38842.16
537.384	39238.3
537.749	39194.92
538.114	39397.4
538.479	39568.92
538.845	39755.13
539.21	39771.17
539.575	39949.47
539.94	40156.92
540.305	40356.47
540.67	40366.64
541.034	40552.17
541.399	40746.29
541.764	40802.11
542.129	40907.19
542.494	41006.85
542.858	41297.69
543.223	41357.12
543.587	41621.29
543.952	41464.01
544.316	41698.8
544.681	41826.94
545.045	41877.78
545.41	42275.51
545.774	42257.66
546.138	42089.08
546.503	42464.21
546.867	42572.68
547.231	42746.91
547.595	42905.1
547.959	43028.04
548.324	43072.78
548.688	43221.48
549.052	43242.94
549.416	43402.49
549.779	43680.45
550.143	43637.51
550.507	44113.88
550.871	44181.23
551.235	43959.31
551.599	44462.35
551.962	44594.1
552.326	44679.07
552.689	44811.04
553.053	44798.16
553.417	45009.45
553.78	45550.45
554.143	45354.08
554.507	45696.67
554.87	45681.98
555.234	46092.59
555.597	45949.31
555.96	46232.7
556.323	46382.07
556.686	46395.63
557.05	46766.02
557.413	46748.84
557.776	46901.15
558.139	47230.41
558.502	47324.42
558.865	47467.69
559.228	47742.94
559.59	47811.64
559.953	47855.7
560.316	48331.17
560.679	48291.4
561.041	48403.49
561.404	48711.5
561.767	49014.32
562.129	48739.52
562.492	49197.14
562.854	49247.98
563.217	49329.34
563.579	49510.12
563.941	49783.79
564.304	49957.34
564.666	50148.07
565.028	50227.39
565.39	50320.72
565.753	50483.43
566.115	50643.43
566.477	50751.45
566.839	50841.84
567.201	51064.89
567.563	51012.91
567.925	51254.94
568.287	51418.55
568.648	51327.7
569.01	51557.08
569.372	51791.42
569.734	51778.77
570.095	52049.49
570.457	52043.62
570.819	52123.84
571.18	52176.72
571.542	52373.55
571.903	52446.77
572.265	52617.16
572.626	52594.11
572.987	52678.63
573.349	52842.47
573.71	52964.5
574.071	52995
574.432	53077.49
574.794	53304.38
575.155	53213.76
575.516	53156.81
575.877	53327.43
576.238	53449.23
576.599	53518.38
576.96	53540.53
577.32	53604.48
577.681	53645.61
578.042	53731.26
578.403	53799.73
578.763	53826.17
579.124	53851.48
579.485	53973.28
579.845	53971.25
580.206	53891.25
580.566	53916.34
580.927	54062.32
581.287	54204.92
581.648	54047.18
582.008	54145.48
582.368	54179.38
582.728	54244.46
583.089	54200.17
583.449	54124.47
583.809	54266.61
584.169	54294.18
584.529	54309.09
584.889	54420.96
585.249	54204.46
585.609	54151.58
585.969	54274.75
586.329	54299.15
586.688	54412.82
587.048	54356.55
587.408	54211.02
587.768	54320.39
588.127	54363.33
588.487	54274.29
588.846	54481.07
589.206	54300.96
589.565	54403.33
589.925	54487.62
590.284	54389.77
590.643	54514.96
591.003	54501.18
591.362	54507.73
591.721	54492.59
592.08	54501.63
592.44	54605.36
592.799	54612.59
593.158	54468.41
593.517	54563.78
593.876	54588.18
594.235	54552.03
594.593	54578.47
594.952	54676.09
595.311	54506.15
595.67	54659.14
596.029	54708.63
596.387	54669.76
596.746	54820.04
597.104	54680.16
597.463	54707.95
597.822	54844.9
598.18	54764.45
598.538	54719.93
598.897	54904.33
599.255	54668.86
599.613	55071.33
599.972	54784.11
600.33	55008.74
600.688	54806.93
601.046	54988.17
601.404	55092.8
601.762	54998.79
602.12	55128.96
602.478	55107.94
602.836	55137.77
603.194	54941.17
603.552	55068.62
603.91	54923.32
604.268	55152.46
604.625	55092.8
604.983	55218
605.341	55051.9
605.698	55214.38
606.056	55291.44
606.413	55286.02
606.771	55342.97
607.128	55386.81
607.485	55271.56
607.843	55335.51
608.2	55536.63
608.557	55644.2
608.914	55429.29
609.272	55607.59
609.629	55606.91
609.986	55646.23
610.343	55549.97
610.7	55797.64
611.057	55803.07
611.414	55760.36
611.771	55796.29
612.127	55839.22
612.484	55864.08
612.841	55929.39
613.198	55816.17
613.554	55910.86
613.911	55941.37
614.267	55951.54
614.624	56014.59
614.98	56021.59
615.337	56181.14
615.693	56170.06
616.05	56100.01
616.406	56225.2
616.762	56065.21
617.118	56153.11
617.475	56184.98
617.831	56234.02
618.187	56217.97
618.543	56235.82
618.899	56413.45
619.255	56323.73
619.611	56291.42
619.967	56426.1
620.323	56455.25
620.678	56420.45
621.034	56317.18
621.39	56325.54
621.746	56282.15
622.101	56570.5
622.457	56354.01
622.812	56414.12
623.168	56476.27
623.523	56480.79
623.879	56592.2
624.234	56349.04
624.589	56463.16
624.945	56505.87
625.3	56467.68
625.655	56466.1
626.01	56446.21
626.365	56478.76
626.72	56417.06
627.075	56429.26
627.43	56436.04
627.785	56294.58
628.14	56370.06
628.495	56354.92
628.85	56341.13
629.205	56228.14
629.559	56427.46
629.914	56237.86
630.269	56276.95
630.623	56204.64
630.978	56184.98
631.332	56203.51
631.687	56339.78
632.041	56178.65
632.396	56250.29
632.75	56098.43
633.104	56143.85
633.459	55995.15
633.813	56013
634.167	56086.9
634.521	56014.13
634.875	55978.43
635.229	56028.15
635.583	55866.12
635.937	55779.34
636.291	55855.04
636.645	55777.53
636.999	55716.97
637.352	55809.85
637.706	55683.3
638.06	55774.37
638.413	55676.29
638.767	55644.65
639.121	55670.64
639.474	55467.48
639.828	55444.43
640.181	55544.09
640.534	55470.65
640.888	55434.94
641.241	55314.04
641.594	55384.77
641.947	55451.66
642.301	55340.03
642.654	55337.99
643.007	55330.99
643.36	55192.46
643.713	55196.08
644.066	55287.6
644.419	55129.86
644.771	54931
645.124	54687.84
645.477	54620.72
645.83	54371.92
646.182	54286.72
646.535	54188.65
646.888	54218.48
647.24	54073.62
647.593	54148.65
647.945	54107.97
648.298	53968.76
648.65	53933.06
649.002	53829.11
649.355	54004.47
649.707	53848.99
650.059	54026.39
650.411	54332.82
650.763	54355.2
651.115	54668.18
651.467	54500.28
651.819	54518.35
652.171	54417.79
652.523	54439.03
652.875	54302.77
653.227	54209.44
653.578	54347.06
653.93	54327.85
654.282	54191.13
654.633	54014.19
654.985	54149.32
655.337	54120.85
655.688	54119.5
656.039	54224.13
656.391	53863.46
656.742	54070.91
657.094	54127.4
657.445	54093.96
657.796	54054.86
658.147	53998.82
658.498	53993.62
658.849	54014.41
659.2	53921.53
659.551	53871.14
659.902	54068.2
660.253	53893.06
660.604	53991.36
660.955	53813.74
661.306	53930.57
661.656	53879.05
662.007	53721.77
662.358	53728.09
662.708	53761.31
663.059	53738.94
663.409	53600.86
663.76	53672.5
664.11	53619.17
664.461	53636.34
664.811	53777.13
665.161	53674.54
665.511	53568.1
665.862	53731.26
666.212	53742.33
666.562	53773.29
666.912	53638.83
667.262	53605.38
667.612	53556.12
667.962	53732.39
668.312	53658.72
668.662	53775.78
669.011	53598.6
669.361	53456.46
669.711	53496.69
670.06	53409.23
670.41	53357.93
670.76	53458.04
671.109	53478.16
671.459	53482.68
671.808	53395.67
672.157	53476.8
672.507	53321.78
672.856	53232.29
673.205	53353.64
673.554	53338.95
673.904	53210.37
674.253	53344.6
674.602	53253.08
674.951	52912.07
675.3	52771.28
675.649	53246.98
675.998	53141.22
676.346	53062.12
676.695	53150.71
677.044	52985.51
677.393	53152.74
677.741	53114.55
678.09	53030.94
678.438	52986.87
678.787	52990.49
679.135	52964.95
679.484	52756.59
679.832	53008.79
680.181	52678.4
680.529	52850.38
680.877	52689.93
681.225	52524.73
681.573	52781.23
681.922	52528.35
682.27	52602.02
682.618	52715.92
682.966	52532.64
683.314	52530.38
683.661	52417.17
684.009	52201.81
684.357	52158.64
684.705	52190.96
685.053	52200.9
685.4	52185.31
685.748	51995.71
686.095	51871.64
686.443	51783.74
686.79	51762.72
687.138	51746.22
687.485	51718.65
687.832	51607.7
688.18	51691.54
688.527	51486.34
688.874	51492.9
689.221	51304.43
689.568	51157.77
689.915	51174.71
690.262	51154.6
690.609	51092.68
690.956	51018.56
691.303	50872.35
691.65	50774.72
691.997	50736.53
692.344	50444.56
692.69	50522.98
693.037	50541.96
693.383	50240.5
693.73	50407.5
694.077	50128.64
694.423	50224.46
694.769	49968.64
695.116	49935.42
695.462	49956.67
695.808	49836.9
696.155	49883
696.501	49559.84
696.847	49487.75
697.193	49320.75
697.539	49470.35
697.885	49211.15
698.231	49077.14
698.577	49020.87
698.923	48897.49
699.269	48753.76
699.614	48443.03
699.96	48558.06
700.306	48600.77
700.651	48506.99
700.997	48331.17
701.342	48222.25
701.688	48069.03
702.033	47976.83
702.379	47932.31
702.724	47852.99
703.069	47919.88
703.415	47397.41
703.76	47551.31
704.105	47489.39
704.45	47263.18
704.795	47050.08
705.14	47012.56
705.485	46942.96
705.83	46806.02
706.175	46898.44
706.52	46778.45
706.865	46586.59
707.209	46636.75
707.554	46325.58
707.899	46591.56
708.243	46297.78
708.588	46223.88
708.932	45957.45
709.277	45958.13
709.621	45931.46
709.966	45902.31
710.31	45907.51
710.654	45482.66
710.998	45587.29
711.342	45560.17
711.687	45247.41
712.031	45119.28
712.375	45107.53
712.719	45144.59
713.063	45062.56
713.407	45076.34
713.75	44898.95
714.094	44931.26
714.438	44662.12
714.782	44630.71
715.125	44464.38
715.469	44658.27
715.812	44266.87
716.156	44066.65
716.499	44175.12
716.843	44176.71
717.186	43888.58
717.53	44050.83
717.873	44148.91
718.216	44016.94
718.559	43784.17
718.902	43610.84
719.246	43591.86
719.589	43689.49
719.932	43320.23
720.275	43378.53
720.617	43271.42
720.96	43240.46
721.303	43191.87
721.646	43204.98
721.989	42914.82
722.331	43031.43
722.674	42887.47
723.016	42834.82
723.359	42901.48
723.701	42835.05
724.044	42471.67
724.386	42377.43
724.729	42573.36
725.071	42416.53
725.413	42307.83
725.755	42401.61
726.097	42028.74
726.439	41943.54
726.782	41966.59
727.124	42161.39
727.465	42067.61
727.807	41936.09
728.149	41892.25
728.491	41612.71
728.833	41772.48
729.175	41574.97
729.516	41491.58
729.858	41483.67
730.199	41486.61
730.541	41367.51
730.882	41132.72
731.224	41415.87
731.565	41048.65
731.906	40983.12
732.248	41188.54
732.589	40829.22
732.93	40761.88
733.271	40829.22
733.612	40884.81
733.953	40780.41
734.294	40538.84
734.635	40438.05
734.976	40601.66
735.317	40385.17
735.658	40333.64
735.999	40396.92
736.339	40334.77
736.68	40303.14
737.021	40149.47
737.361	40009.81
737.702	40174.55
738.042	40126.19
738.383	39887.1
738.723	39835.58
739.063	39829.25
739.404	39855.24
739.744	39794.67
740.084	39610.5
740.424	39628.58
740.764	39433.1
741.104	39621.12
741.444	39330.51
741.784	39182.94
742.124	39171.64
742.464	39116.5
742.804	39133.9
743.143	39060.68
743.483	39208.47
743.823	38939.33
744.162	38863.4
744.502	38828.15
744.841	38749.73
745.181	38815.49
745.52	38736.85
745.86	38843.51
746.199	38703.63
746.538	38496.63
746.877	38548.38
747.216	38413.69
747.556	38341.6
747.895	38385.67
748.234	38243.98
748.573	37973.03
748.911	37920.6
749.25	38028.17
749.589	37812.13
749.928	37899.36
750.267	37751.11
750.605	37739.36
750.944	37611
751.283	37427.96
751.621	37561.74
751.96	37373.72
752.298	37233.16
752.636	37340.5
752.975	36976.22
753.313	36883.79
753.651	37118.81
753.989	36796.11
754.327	36794.98
754.666	36703
755.004	36736.22
755.342	36731.7
755.679	36674.08
756.017	36316.12
756.355	36477.25
756.693	36269.12
757.031	36388.21
757.368	36108.9
757.706	36161.78
758.044	35906.41
758.381	36074.55
758.719	35827.32
759.056	35858.51
759.394	35694.89
759.731	35501.45
760.068	35348.92
760.405	35255.81
760.743	35182.37
761.08	35162.25
761.417	34920.45
761.754	34858.08
762.091	34842.49
762.428	34839.55
762.765	34611.53
763.102	34661.25
763.438	34367.7
763.775	34280.24
764.112	34172.22
764.449	34139.46
764.785	33992.79
765.122	33639.58
765.458	33788.05
765.795	33706.7
766.131	33621.73
766.467	33463.99
766.804	33277.78
767.14	33180.61
767.476	33204.79
767.812	32992.37
768.148	32975.42
768.485	32762.54
768.821	32588.08
769.157	32641.64
769.492	32546.73
769.828	32473.74
770.164	32287.75
770.5	32118.94
770.836	32178.15
771.171	31804.83
771.507	31864.49
771.842	31464.5
772.178	31662.46
772.513	31689.35
772.849	31591.73
773.184	31385.4
773.519	31309.7
773.855	31191.06
774.19	30890.95
774.525	30786.55
774.86	30774.57
775.195	30757.4
775.53	30655.93
775.865	30371.42
776.2	30318.09
776.535	30073.57
776.87	30242.16
777.205	29962.16
777.539	29782.28
777.874	29920.81
778.209	29541.84
778.543	29506.81
778.878	29340.71
779.212	29343.42
779.547	29078.57
779.881	29199.02
780.215	28948.63
780.55	29065.46
780.884	28850.78
781.218	28648.98
781.552	28747.73
781.886	28530.56
782.22	28372.38
782.554	28383.22
782.888	27871.37
783.222	28011.93
783.556	27886.29
783.889	27897.36
784.223	27700.08
784.557	27651.94
784.89	27778.04
785.224	27483.13
785.557	27292.86
785.891	27311.16
786.224	27184.16
786.558	27186.19
786.891	26826.65
787.224	26827.11
787.557	26756.6
787.891	26666.88
788.224	26625.08
788.557	26553.44
788.89	26451.3
789.223	26441.58
789.556	26246.1
789.888	26068.26
790.221	26100.8
790.554	25863.06
790.887	25860.35
791.219	25732.44
791.552	25699.68
791.884	25479.8
792.217	25522.96
792.549	25396.41
792.882	25223.98
793.214	25185.34
793.546	25217.66
793.879	24976.53
794.211	24875.74
794.543	24863.54
794.875	24675.3
795.207	24827.61
795.539	24707.16
795.871	24623.77
796.203	24445.02
796.535	24281.41
796.867	24306.72
797.198	24322.31
797.53	24188.3
797.862	24081.41
798.193	24126.84
798.525	23878.26
798.856	23961.64
799.188	23674.87
799.519	23466.29
799.85	23478.27
800.182	23417.7
800.513	23433.97
800.844	23328.89
801.175	23469.91
801.506	23388.78
801.837	23202.79
802.168	23151.27
802.499	23108.79
802.83	23033.08
803.161	22918.73
803.491	22865.63
803.822	22778.62
804.153	22666.76
804.483	22477.39
804.814	22497.5
805.145	22475.58
805.475	22400.56
805.805	22305.87
806.136	22467.22
806.466	22288.24
806.796	22327.34
807.126	22012.32
807.457	21986.33
807.787	22032.2
808.117	21893
808.447	21845.09
808.777	21891.42
809.107	21744.53
809.436	21716.96
809.766	21672.44
810.096	21559.45
810.426	21475.83
810.755	21457.53
811.085	21392.9
811.414	21372.79
811.744	21228.83
812.073	21087.82
812.403	21100.93
812.732	21034.49
813.061	21065.22
813.39	20866.13
813.719	20823.65
814.049	20944.77
814.378	20814.61
814.707	20673.37
815.036	20691.9
815.365	20593.37
815.693	20362.64
816.022	20462.98
816.351	20434.05
816.68	20266.83
817.008	20341.85
817.337	20243.78
817.665	20083.78
817.994	20116.77
818.322	20129.43
818.651	20053.72
818.979	19965.14
819.307	20017.11
819.636	19969.88
819.964	19829.1
820.292	19862.99
820.62	19860.96
820.948	19752.94
821.276	19776.44
821.604	19731.47
821.932	19790
822.259	19732.15
822.587	19723.11
822.915	19637.69
823.243	19814.86
823.57	19668.42
823.898	19680.85
824.225	19553.4
824.553	19670.01
824.88	19626.16
825.207	19746.84
825.535	19517.24
825.862	19643.11
826.189	19600.18
826.516	19697.8
826.843	19795.43
827.17	19777.57
827.497	19666.84
827.824	19656.45
828.151	19755.65
828.478	19548.2
828.805	19655.32
829.131	19632.94
829.458	19640.63
829.785	19582.55
830.111	19566.05
830.438	19760.4
830.764	19559.27
831.09	19709.1
831.417	19431.59
831.743	19567.18
832.069	19454.42
832.395	19467.52
832.722	19502.33
833.048	19513.85
833.374	19414.87
833.7	19365.15
834.026	19467.52
834.351	19373.29
834.677	19419.84
835.003	19348.88
835.329	19363.35
835.654	19326.29
835.98	19260.75
836.306	19270.69
836.631	19279.28
836.956	19242.45
837.282	19263.24
837.607	19154.76
837.932	19088.1
838.258	19148.21
838.583	18993.64
838.908	18877.94
839.233	19025.28
839.558	18838.16
839.883	18949.35
840.208	18869.8
840.533	18847.2
840.858	18867.54
841.182	18835.45
841.507	18776.92
841.832	18715.91
842.156	18628.9
842.481	18622.35
842.805	18474.56
843.13	18507.55
843.454	18427.55
843.778	18392.75
844.103	18354.56
844.427	18249.25
844.751	18301.23
845.075	18206.32
845.399	18214.45
845.723	18176.49
846.047	18165.41
846.371	17955.7
846.695	17992.76
847.019	17805.2
847.343	17807.91
847.666	17499.67
847.99	17575.15
848.313	17599.1
848.637	17431.19
848.96	17421.7
849.284	17446.34
849.607	17184.65
849.931	17239.33
850.254	17120.69
850.577	16955.95
850.9	16921.6
851.223	16885.67
851.546	16875.73
851.869	16604.1
852.192	16753.92
852.515	16603.87
852.838	16432.12
853.161	16565.23
853.483	16421.96
853.806	16380.83
854.129	16363.43
854.451	16266.25
854.774	16258.12
855.096	16152.36
855.419	16135.64
855.741	16147.61
856.063	16012.93
856.385	15963.44
856.708	15869.65
857.03	15807.28
857.352	15849.77
857.674	15745.14
857.996	15707.17
858.318	15591.47
858.64	15593.05
858.961	15593.05
859.283	15494.97
859.605	15478.7
859.926	15470.12
860.248	15365.26
860.57	15395.54
860.891	15395.99
861.212	15159.62
861.534	15178.15
861.855	15195.32
862.176	15152.61
862.498	15172.5
862.819	15117.13
863.14	15024.03
863.461	15030.58
863.782	15025.16
864.103	14930.69
864.424	14887.98
864.745	14953.07
865.065	14909.23
865.386	14878.04
865.707	14834.65
866.027	14811.15
866.348	14738.84
866.668	14775.22
866.989	14803.69
867.309	14612.51
867.63	14656.8
867.95	14612.96
868.27	14509.01
868.59	14624.71
868.91	14536.13
869.23	14593.75
869.55	14523.7
869.87	14513.53
870.19	14478.5
870.51	14480.09
870.83	14491.61
871.15	14233.99
871.469	14342.46
871.789	14285.06
872.109	14325.29
872.428	14250.49
872.748	14275.8
873.067	14259.07
873.386	14301.11
873.706	14220.88
874.025	14106.54
874.344	14107.89
874.663	14128.46
874.982	14088.23
875.301	14084.62
875.62	14035.35
875.939	14013.66
876.258	13878.75
876.577	13892.76
876.896	13932.76
877.214	13913.77
877.533	13957.39
877.852	13903.6
878.17	13896.6
878.489	13888.24
878.807	13841.01
879.125	13792.19
879.444	13774.34
879.762	13716.94
880.08	13801.01
880.398	13662.93
880.716	13751.29
881.034	13653.67
881.352	13662.25
881.67	13546.55
881.988	13653.21
882.306	13509.04
882.624	13502.94
882.941	13494.35
883.259	13485.08
883.577	13351.3
883.894	13319.89
884.212	13361.24
884.529	13248.03
884.846	13222.49
885.164	13229.5
885.481	13091.65
885.798	13148.82
886.115	13095.26
886.432	13053.68
886.75	12992.89
887.067	13025.89
887.383	12954.02
887.7	13060.46
888.017	12994.47
888.334	12959.9
888.651	12901.82
888.967	12810.98
889.284	12782.05
889.6	12723.07
889.917	12801.26
890.233	12697.08
890.55	12632.68
890.866	12575.95
891.182	12573.24
891.498	12525.56
891.815	12442.4
892.131	12376.86
892.447	12427.71
892.763	12364.89
893.079	12446.24
893.395	12288.5
893.71	12240.6
894.026	12231.33
894.342	12199.69
894.657	12210.54
894.973	12150.43
895.289	12082.41
895.604	12035.86
895.92	11951.79
896.235	11929.87
896.55	11903.2
896.865	11838.57
897.181	11835.64
897.496	11822.08
897.811	11812.81
898.126	11728.97
898.441	11726.71
898.756	11668.63
899.071	11563.78
899.386	11563.78
899.7	11538.47
900.015	11443.1
900.33	11434.74
900.644	11362.88
900.959	11431.35
901.273	11327.85
901.588	11275.88
901.902	11250.34
902.216	11169.66
902.531	11208.53
902.845	11125.37
903.159	11015.09
903.473	11067.07
903.787	10978.48
904.101	10927.41
904.415	10839.28
904.729	10870.24
905.042	10823.68
905.356	10859.39
905.67	10751.82
905.984	10828.88
906.297	10747.08
906.611	10661.88
906.924	10663.24
907.237	10555.44
907.551	10526.52
907.864	10446.75
908.177	10390.93
908.491	10388.67
908.804	10387.31
909.117	10345.05
909.43	10210.82
909.743	10185.74
910.056	10082.46
910.368	10097.38
910.681	10068.9
910.994	9992.52
911.307	10033.2
911.619	9926.76
911.932	9994.55
912.244	9862.13
912.557	9911.62
912.869	9833.2
913.181	9749.14
913.494	9718.63
913.806	9684.05
914.118	9647.22
914.43	9620.78
914.742	9649.03
915.054	9509.37
915.366	9437.51
915.678	9435.92
915.99	9394.34
916.302	9302.59
916.613	9348.02
916.925	9301.92
917.236	9251.3
917.548	9198.19
917.859	9202.03
918.171	9137.4
918.482	9092.43
918.794	9005.2
919.105	8925.66
919.416	8933.79
919.727	8929.04
920.038	8892.89
920.349	8873
920.66	8770.4
920.971	8801.82
921.282	8700.12
921.593	8617.87
921.903	8617.64
922.214	8640.01
922.525	8540.13
922.835	8544.65
923.146	8546.91
923.456	8440.24
923.767	8496.29
924.077	8424.43
924.387	8398.66
924.697	8342.39
925.008	8281.83
925.318	8284.54
925.628	8296.52
925.938	8219.23
926.248	8142.17
926.558	8007.71
926.867	8079.58
927.177	8019.46
927.487	8012.46
927.796	7969.3
928.106	7934.49
928.416	7924.55
928.725	7858.56
929.034	7805.91
929.344	7821.28
929.653	7806.14
929.962	7765.69
930.271	7631.45
930.581	7590.77
930.89	7605.69
931.199	7631.9
931.508	7576.99
931.817	7544.45
932.125	7523.21
932.434	7491.12
932.743	7439.14
933.051	7438.91
933.36	7386.94
933.669	7278.92
933.977	7288.18
934.286	7213.61
934.594	7227.39
934.902	7146.94
935.21	7124.57
935.519	7151.92
935.827	7103.78
936.135	7023.78
936.443	6977.46
936.751	7002.32
937.059	6976.55
937.367	6955.99
937.674	6954.86
937.982	6929.1
938.29	6888.65
938.597	6871.02
938.905	6770.23
939.213	6797.12
939.52	6713.96
939.827	6804.13
940.135	6655.88
940.442	6649.1
940.749	6645.04
941.056	6663.57
941.363	6517.36
941.67	6501.76
941.977	6554.42
942.284	6482.56
942.591	6457.92
942.898	6402.11
943.205	6431.03
943.511	6346.74
943.818	6361.65
944.125	6286.63
944.431	6229.45
944.738	6267.42
945.044	6196.01
945.35	6164.6
945.657	6112.17
945.963	6146.52
946.269	6104.94
946.575	6146.29
946.881	6056.13
947.187	6051.15
947.493	5955.11
947.799	6058.16
948.105	5947.65
948.41	5899.52
948.716	5828.79
949.022	5882.35
949.327	5817.26
949.633	5763.03
949.938	5824.95
950.244	5780.65
950.549	5720.77
950.854	5719.86
951.16	5667.89
951.465	5633.09
951.77	5615.01
952.075	5633.99
952.38	5606.42
952.685	5602.35
952.99	5557.38
953.294	5488.91
953.599	5480.1
953.904	5406.43
954.209	5340.44
954.513	5436.48
954.818	5419.98
955.122	5377.05
955.426	5293.21
955.731	5262.93
956.035	5268.12
956.339	5246.2
956.643	5226.54
956.948	5206.66
957.252	5168.47
957.556	5196.49
957.86	5133.21
958.163	5123.95
958.467	5109.03
958.771	5065.19
959.075	5118.07
959.378	5020.9
959.682	5064.06
959.985	4983.84
960.289	5018.87
960.592	4940.45
960.896	4945.19
961.199	4901.35
961.502	4860.9
961.805	4888.93
962.108	4814.35
962.411	4782.49
962.714	4765.54
963.017	4775.03
963.32	4786.1
963.623	4765.99
963.926	4737.52
964.228	4745.88
964.531	4733.67
964.833	4701.13
965.136	4693
965.438	4573.68
965.741	4629.5
966.043	4627.24
966.345	4596.73
966.648	4556.28
966.95	4563.28
967.252	4544.3
967.554	4505.43
967.856	4497.52
968.158	4453.68
968.46	4506.79
968.761	4437.64
969.063	4386.57
969.365	4365.1
969.666	4316.28
969.968	4333.46
970.269	4306.79
970.571	4267.02
970.872	4276.96
971.174	4226.12
971.475	4216.17
971.776	4217.76
972.077	4172.56
972.378	4180.02
972.679	4161.03
972.98	4079
973.281	4106.57
973.582	4093.24
973.883	4099.34
974.183	4065.67
974.484	4034.03
974.785	4029.51
975.085	3966.01
975.386	4006.91
975.686	3958.1
975.986	3948.61
976.287	3920.59
976.587	3933.24
976.887	3898.22
977.187	3916.75
977.487	3878.78
977.787	3812.57
978.087	3847.82
978.387	3824.55
978.687	3808.5
978.987	3759.46
979.286	3736.19
979.586	3749.97
979.885	3698.22
980.185	3688.05
980.484	3695.74
980.784	3670.2
981.083	3652.8
981.382	3644.44
981.682	3656.64
981.981	3595.85
982.28	3604.44
982.579	3569.41
982.878	3577.32
983.177	3570.09
983.475	3550.88
983.774	3506.59
984.073	3545.01
984.372	3440.15
984.67	3478.57
984.969	3451.22
985.267	3480.15
985.566	3384.11
985.864	3441.96
986.162	3376.87
986.461	3385.46
986.759	3354.73
987.057	3329.64
987.355	3316.09
987.653	3290.78
987.951	3301.4
988.249	3279.48
988.547	3227.5
988.844	3250.32
989.142	3256.88
989.44	3199.48
989.737	3192.7
990.035	3178.69
990.332	3190.21
990.63	3137.78
990.927	3136.65
991.224	3155.64
991.521	3094.85
991.819	3108.86
992.116	3083.32
992.413	3074.51
992.71	3050.1
993.006	3010.56
993.303	3024.57
993.6	2972.82
993.897	2947.51
994.193	2979.6
994.49	2952.03
994.787	2954.06
995.083	2921.52
995.379	2913.84
995.676	2893.5
995.972	2891.69
996.268	2840.39
996.565	2872.25
996.861	2840.39
997.157	2816.44
997.453	2799.04
997.749	2778.47
998.044	2775.99
998.34	2752.71
998.636	2756.1
998.932	2768.75
999.227	2715.42
999.523	2710.45
999.818	2679.94
1000.114	2677.01
1000.409	2670.9
1000.704	2655.09
1001	2657.12
1001.295	2605.82
1001.59	2613.05
1001.885	2595.88
1002.18	2562.66
1002.475	2607.86
1002.77	2517.24
1003.065	2550.91
1003.359	2528.54
1003.654	2508.42
1003.949	2490.8
1004.243	2463.23
1004.538	2441.31
1004.832	2421.87
1005.127	2431.81
1005.421	2430.23
1005.715	2402.44
1006.009	2387.75
1006.304	2374.87
1006.598	2343.91
1006.892	2349.56
1007.186	2363.34
1007.48	2322.21
1007.773	2334.42
1008.067	2307.75
1008.361	2281.31
1008.655	2251.93
1008.948	2252.84
1009.242	2252.61
1009.535	2212.39
1009.829	2229.33
1010.122	2186.4
1010.415	2224.59
1010.708	2166.96
1011.001	2162.44
1011.295	2193.18
1011.588	2146.17
1011.881	2104.14
1012.173	2095.78
1012.466	2118.6
1012.759	2081.99
1013.052	2061.65
1013.344	2060.75
1013.637	2053.07
1013.93	2032.96
1014.222	2042.67
1014.514	2026.63
1014.807	2006.06
1015.099	2010.58
1015.391	1976.23
1015.683	1973.52
1015.976	1963.13
1016.268	1922.22
1016.56	1904.37
1016.851	1914.54
1017.143	1929.91
1017.435	1915.9
1017.727	1861.89
1018.018	1881.09
1018.31	1877.03
1018.602	1836.12
1018.893	1847.2
1019.185	1830.47
1019.476	1813.53
1019.767	1793.41
1020.058	1809.68
1020.35	1761.55
1020.641	1759.97
1020.932	1735.34
1021.223	1726.3
1021.514	1697.14
1021.804	1742.12
1022.095	1699.86
1022.386	1719.29
1022.677	1691.95
1022.967	1659.63
1023.258	1681.1
1023.548	1642.91
1023.839	1654.43
1024.129	1605.17
1024.419	1609.46
1024.709	1585.51
1025	1573.31
1025.29	1562.46
1025.58	1577.37
1025.87	1543.48
1026.16	1566.98
1026.449	1537.6
1026.739	1548.45
1027.029	1529.01
1027.319	1465.06
1027.608	1483.36
1027.898	1486.53
1028.187	1445.85
1028.477	1475
1028.766	1438.62
1029.055	1447.66
1029.344	1430.48
1029.634	1417.6
1029.923	1420.32
1030.212	1396.36
1030.501	1399.75
1030.79	1409.69
1031.078	1391.84
1031.367	1378.28
1031.656	1345.52
1031.945	1345.97
1032.233	1350.49
1032.522	1347.32
1032.81	1323.37
1033.099	1292.18
1033.387	1315.69
1033.675	1271.17
1033.963	1293.99
1034.251	1261.9
1034.54	1281.56
1034.828	1248.57
1035.116	1269.13
1035.403	1258.29
1035.691	1251.28
1035.979	1214.22
1036.267	1218.74
1036.554	1228.68
1036.842	1205.63
1037.129	1183.49
1037.417	1176.03
1037.704	1176.25
1037.992	1170.6
1038.279	1134.67
1038.566	1142.81
1038.853	1142.81
1039.14	1142.81
