Data from plate_ceramic_FLMS001491_031.txt Node
Date: Tue Feb 07 11:16:39 GMT 2017
User: dcchb
Spectrometer: FLMS00149
Trigger mode: 0
Integration Time (sec): 2.000000E-2
Scans to average: 10
Electric dark correction enabled: true
Nonlinearity correction enabled: false
Boxcar width: 0
XAxis mode: Wavelengths
Number of Pixels in Spectrum: 2048
>>>>>Begin Spectral Data<<<<<
341.393	7.91
341.776	7.91
342.16	7.91
342.543	-49.04
342.927	-62.15
343.31	-72.09
343.693	-73.22
344.077	-88.81
344.46	-71.86
344.843	-52.65
345.226	-44.52
345.61	-58.76
345.993	-14.01
346.376	4.29
346.759	34.8
347.142	41.81
347.525	50.17
347.908	63.05
348.291	85.87
348.674	91.97
349.057	103.95
349.44	118.87
349.823	156.38
350.206	169.04
350.588	208.58
350.971	223.04
351.354	247.45
351.737	256.72
352.119	275.25
352.502	287.22
352.884	310.05
353.267	315.02
353.65	315.25
354.032	316.15
354.414	317.28
354.797	355.47
355.179	343.27
355.562	354.34
355.944	341.23
356.326	355.7
356.709	366.09
357.091	361.57
357.473	362.48
357.855	380.78
358.238	353.89
358.62	340.56
359.002	365.19
359.384	390.5
359.766	363.83
360.148	379.65
360.53	376.94
360.912	369.03
361.294	368.58
361.676	362.25
362.057	376.71
362.439	351.63
362.821	349.14
363.203	355.02
363.584	354.11
363.966	362.7
364.348	395.92
364.729	362.02
365.111	368.58
365.493	342.36
365.874	361.35
366.256	373.78
366.637	359.09
367.019	352.08
367.4	361.12
367.781	352.76
368.163	364.74
368.544	369.48
368.925	365.41
369.306	376.94
369.688	389.14
370.069	363.83
370.45	361.35
370.831	372.42
371.212	359.54
371.593	350.95
371.974	376.49
372.355	378.52
372.736	380.1
373.117	384.17
373.498	374.45
373.879	395.02
374.26	387.79
374.641	359.76
375.021	406.09
375.402	398.18
375.783	409.25
376.163	394.34
376.544	387.56
376.925	424.85
377.305	406.09
377.686	413.77
378.066	409.93
378.447	436.6
378.827	413.1
379.208	430.05
379.588	428.01
379.968	417.39
380.349	404.74
380.729	425.53
381.109	429.82
381.489	448.12
381.87	449.03
382.25	449.03
382.63	443.6
383.01	431.63
383.39	443.83
383.77	466.65
384.15	469.14
384.53	463.94
384.91	470.5
385.29	459.2
385.67	465.75
386.049	482.02
386.429	464.85
386.809	490.38
387.189	467.33
387.568	494.45
387.948	491.51
388.328	500.78
388.707	520.44
389.087	515.69
389.466	516.6
389.846	519.53
390.225	508.69
390.605	541.45
390.984	539.87
391.363	540.55
391.743	529.25
392.122	548.91
392.501	546.65
392.881	568.57
393.26	571.28
393.639	576.03
394.018	581.45
394.397	579.42
394.776	586.65
395.155	611.06
395.534	606.99
395.913	625.07
396.292	611.51
396.671	617.61
397.05	612.41
397.429	633.2
397.808	638.4
398.186	624.84
398.565	647.21
398.944	637.5
399.323	646.99
399.701	645.86
400.08	648.34
400.458	663.71
400.837	682.92
401.215	685.41
401.594	693.77
401.972	688.12
402.351	704.61
402.729	726.08
403.107	714.56
403.486	737.16
403.864	739.64
404.242	745.52
404.62	722.01
404.999	738.06
405.377	769.47
405.755	773.09
406.133	761.79
406.511	795.46
406.889	802.92
407.267	798.4
407.645	827.32
408.023	831.39
408.401	837.72
408.779	821
409.156	884.27
409.534	853.99
409.912	879.52
410.29	893.08
410.667	889.92
411.045	916.59
411.422	942.8
411.8	937.15
412.178	939.86
412.555	960.43
412.933	963.14
413.31	989.35
413.687	1004.49
414.065	1003.59
414.442	1035.9
414.819	1020.09
415.197	1047.88
415.574	1073.64
415.951	1066.19
416.328	1074.1
416.705	1087.2
417.082	1125.62
417.46	1119.74
417.837	1133.3
418.214	1142.12
418.591	1141.66
418.967	1117.71
419.344	1152.74
419.721	1178.95
420.098	1183.25
420.475	1204.94
420.852	1216.47
421.228	1224.37
421.605	1248.78
421.982	1227.09
422.358	1251.04
422.735	1264.83
423.111	1293.53
423.488	1308.21
423.864	1307.54
424.241	1326.29
424.617	1323.58
424.994	1377.36
425.37	1349.12
425.746	1395.9
426.123	1412.17
426.499	1391.6
426.875	1429.57
427.251	1439.06
427.627	1486.97
428.003	1508.21
428.379	1520.64
428.756	1532.62
429.132	1520.64
429.507	1594.31
429.883	1592.05
430.259	1620.75
430.635	1607.42
431.011	1626.17
431.387	1697.81
431.763	1692.16
432.138	1703.01
432.514	1740.07
432.89	1737.13
433.265	1763.57
433.641	1780.29
434.016	1834.75
434.392	1838.37
434.767	1905.71
435.143	1886.5
435.518	1905.49
435.894	1928.76
436.269	1963.56
436.644	1994.07
437.02	2003.79
437.395	2014.41
437.77	2053.51
438.145	2063.22
438.52	2081.75
438.895	2133.96
439.271	2121.98
439.646	2172.6
440.021	2177.57
440.395	2185.93
440.77	2185.71
441.145	2224.12
441.52	2252.82
441.895	2255.08
442.27	2289.43
442.645	2284.23
443.019	2350.22
443.394	2322.2
443.769	2361.07
444.143	2336.89
444.518	2381.41
444.892	2375.76
445.267	2357.23
445.641	2424.8
446.016	2414.4
446.39	2420.28
446.764	2444.46
447.139	2486.04
447.513	2495.08
447.887	2507.28
448.262	2548.18
448.636	2516.54
449.01	2586.37
449.384	2586.37
449.758	2612.59
450.132	2629.08
450.506	2665.24
450.88	2687.84
451.254	2680.16
451.628	2758.8
452.002	2732.36
452.376	2805.8
452.75	2787.5
453.123	2855.52
453.497	2922.18
453.871	2897.78
454.244	2934.61
454.618	2988.4
454.992	3009.19
455.365	3013.25
455.739	3117.66
456.112	3152.23
456.486	3170.54
456.859	3171.44
457.232	3268.39
457.606	3279.91
457.979	3314.26
458.352	3395.62
458.725	3454.37
459.099	3482.85
459.472	3526.01
459.845	3555.84
460.218	3601.26
460.591	3610.07
460.964	3636.97
461.337	3723.29
461.71	3774.36
462.083	3839.67
462.456	3824.31
462.829	3848.94
463.201	3959.22
463.574	3966.68
463.947	4021.36
464.32	4080.34
464.692	4137.97
465.065	4161.47
465.438	4255.03
465.81	4289.38
466.183	4345.42
466.555	4450.05
466.928	4451.18
467.3	4457.06
467.672	4551.29
468.045	4670.61
468.417	4688.46
468.789	4724.17
469.161	4759.65
469.534	4827.22
469.906	4966.2
470.278	4953.99
470.65	5044.39
471.022	5126.87
471.394	5276.25
471.766	5358.28
472.138	5397.82
472.51	5484.38
472.882	5580.19
473.253	5648.44
473.625	5732.73
473.997	5845.04
474.369	5917.81
474.74	5926.17
475.112	6018.6
475.484	6160.97
475.855	6207.97
476.227	6318.48
476.598	6470.56
476.97	6536.33
477.341	6688.41
477.713	6838.92
478.084	6816.54
478.455	7036.88
478.827	7083.2
479.198	7335.4
479.569	7314.84
479.94	7482.29
480.311	7580.37
480.682	7756.18
481.053	7938.1
481.424	8007.93
481.795	8085.21
482.166	8261.7
482.537	8365.2
482.908	8544.63
483.279	8682.94
483.65	8812.2
484.021	9063.26
484.391	9069.59
484.762	9188.23
485.133	9361.56
485.503	9404.05
485.874	9570.14
486.244	9666.86
486.615	9936.24
486.985	10039.51
487.356	10232.73
487.726	10245.83
488.097	10578.48
488.467	10545.94
488.837	10757.23
489.207	10989.99
489.578	11048.52
489.948	11125.36
490.318	11274.51
490.688	11399.93
491.058	11603.31
491.428	11716.08
491.798	11859.8
492.168	12085.11
492.538	12128.95
492.908	12338.88
493.278	12414.81
493.648	12517.41
494.017	12631.76
494.387	12717.41
494.757	12975.48
495.126	13069.94
495.496	13044.85
495.866	13276.26
496.235	13364.17
496.605	13491.85
496.974	13563.03
497.344	13676.02
497.713	13856.13
498.082	13953.98
498.452	14065.62
498.821	14155.11
499.19	14168.67
499.559	14319.85
499.928	14472.39
500.298	14502.44
500.667	14679.39
501.036	14643
501.405	14870.12
501.774	14861.53
502.143	15080.06
502.512	15112.82
502.88	15300.84
503.249	15284.57
503.618	15440.5
503.987	15567.95
504.356	15682.07
504.724	15786.03
505.093	15799.36
505.462	15823.09
505.83	16038.67
506.199	16225.34
506.567	16355.5
506.936	16411.77
507.304	16641.14
507.672	16640.92
508.041	16734.25
508.409	16841.59
508.777	17033.68
509.145	17232.09
509.514	17151.19
509.882	17390.5
510.25	17413.1
510.618	17556.83
510.986	17723.6
511.354	17905.07
511.722	17877.72
512.09	18206.75
512.458	18134.21
512.826	18418.95
513.193	18432.74
513.561	18515.9
513.929	18761.31
514.297	18824.82
514.664	19014.87
515.032	19172.38
515.4	19375.99
515.767	19395.65
516.135	19520.84
516.502	19428.64
516.869	19873.6
517.237	19894.62
517.604	19959.93
517.972	20141.39
518.339	20352.91
518.706	20332.12
519.073	20479.24
519.44	20702.73
519.808	20934.82
520.175	21033.35
520.542	21291.87
520.909	21304.75
521.276	21249.84
521.643	21610.28
522.009	21789.71
522.376	21970.5
522.743	22121.68
523.11	22238.06
523.477	22553.08
523.843	22699.97
524.21	22828.1
524.577	23012.73
524.943	23231.48
525.31	23319.84
525.676	23490.91
526.043	23569.55
526.409	23758.25
526.776	24115.52
527.142	24216.76
527.508	24395.06
527.874	24603.65
528.241	24663.98
528.607	24856.75
528.973	25149.62
529.339	25119.57
529.705	25329.5
530.071	25530.85
530.437	25734.92
530.803	25853.78
531.169	26141.91
531.535	25952.99
531.901	26080.22
532.267	26278.63
532.632	26324.05
532.998	26549.13
533.364	26720.43
533.73	26969.91
534.095	27120.42
534.461	27230.24
534.826	27251.94
535.192	27501.42
535.557	27695.32
535.923	27659.16
536.288	27818.03
536.653	27889.89
537.019	27963.78
537.384	28048.75
537.749	28164.46
538.114	28265.92
538.479	28290.33
538.845	28481.74
539.21	28525.13
539.575	28620.72
539.94	28770.54
540.305	28976.87
540.67	28924.21
541.034	29141.38
541.399	29431.09
541.764	29322.39
542.129	29473.35
542.494	29501.82
542.858	29708.82
543.223	29717.41
543.587	30088.47
543.952	29929.83
544.316	30060.68
544.681	30112.65
545.045	30328.02
545.41	30354
545.774	30478.29
546.138	30632.41
546.503	30833.09
546.867	30742.47
547.231	31188.78
547.595	31102.23
547.959	31283.92
548.324	31199.18
548.688	31386.75
549.052	31551.71
549.416	31617.47
549.779	31659.51
550.143	31712.61
550.507	31998.71
550.871	32233.95
551.235	32021.53
551.599	32341.52
551.962	32449.09
552.326	32469.2
552.689	32856.09
553.053	32601.85
553.417	32771.34
553.78	33270.31
554.143	32937.44
554.507	33267.15
554.87	33410.65
555.234	33712.79
555.597	33630.75
555.96	33939.67
556.323	33942.38
556.686	34039.33
557.05	34346.67
557.413	34501.69
557.776	34555.48
558.139	34733.78
558.502	34893.09
558.865	34955.69
559.228	35284.95
559.59	35267.32
559.953	35476.81
560.316	35815.1
560.679	35773.07
561.041	36095.55
561.404	36261.65
561.767	36368.31
562.129	36283.79
562.492	36863.89
562.854	36726.27
563.217	36833.83
563.579	37002.42
563.941	37237.89
564.304	37467.72
564.666	37593.81
565.028	37671.33
565.39	37961.04
565.753	38147.47
566.115	38238.09
566.477	38391.53
566.839	38393.11
567.201	38713.11
567.563	38726.44
567.925	38929.82
568.287	39022.02
568.648	39081.68
569.01	39459.53
569.372	39620.43
569.734	39535.91
570.095	39941.1
570.457	40023.35
570.819	40081.43
571.18	40222.9
571.542	40391.71
571.903	40576.33
572.265	40591.02
572.626	40803.9
572.987	40836.67
573.349	40896.55
573.71	41154.4
574.071	41187.84
574.432	41226.03
574.794	41519.36
575.155	41591
575.516	41399.82
575.877	41653.59
576.238	41783.31
576.599	41895.17
576.96	41945.79
577.32	42121.6
577.681	42218.78
578.042	42313.01
578.403	42275.5
578.763	42466.45
579.124	42637.97
579.485	42596.17
579.845	42825.77
580.206	42561.59
580.566	42607.92
580.927	42658.09
581.287	42741.25
581.648	42622.61
582.008	42945.09
582.368	42803.62
582.728	43024.41
583.089	42870.06
583.449	42805.2
583.809	42941.92
584.169	43080.45
584.529	42984.41
584.889	43301.91
585.249	43094.01
585.609	42987.57
585.969	43198.41
586.329	43058.75
586.688	43165.19
587.048	43192.31
587.408	43217.39
587.768	43119.09
588.127	43158.41
588.487	43204.51
588.846	43476.14
589.206	43321.35
589.565	43152.31
589.925	43364.06
590.284	43285.87
590.643	43447.67
591.003	43441.34
591.362	43425.75
591.721	43470.95
592.08	43405.86
592.44	43636.37
592.799	43488.12
593.158	43589.59
593.517	43486.99
593.876	43575.58
594.235	43482.02
594.593	43591.4
594.952	43810.37
595.311	43518.18
595.67	43643.82
596.029	43930.82
596.387	43735.35
596.746	43882.46
597.104	43667.55
597.463	43828
597.822	43972.86
598.18	43828.45
598.538	43849.24
598.897	44013.53
599.255	43777.83
599.613	44298.5
599.972	44225.28
600.33	44280.19
600.688	44141.44
601.046	44138.95
601.404	44332.85
601.762	44341.88
602.12	44400.41
602.478	44424.37
602.836	44480.19
603.194	44201.55
603.552	44375.56
603.91	44307.08
604.268	44573.29
604.625	44451.03
604.983	44646.96
605.341	44575.78
605.698	44706.85
606.056	44874.53
606.413	44762.44
606.771	44875.43
607.128	44912.49
607.485	44741.2
607.843	44871.14
608.2	45142.77
608.557	45112.94
608.914	45030.91
609.272	45188.87
609.629	45181.64
609.986	45276.1
610.343	45079.49
610.7	45414.17
611.057	45345.02
611.414	45354.06
611.771	45525.81
612.127	45681.51
612.484	45522.64
612.841	45608.52
613.198	45674.73
613.554	45650.55
613.911	45910.21
614.267	45914.5
614.624	45832.69
614.98	46032.01
615.337	46130.54
615.693	46113.14
616.05	45968.96
616.406	46117.21
616.762	46030.88
617.118	46055.51
617.475	45991.33
617.831	46140.26
618.187	46091.67
618.543	46191.78
618.899	46327.82
619.255	46378.44
619.611	46166.24
619.967	46457.99
620.323	46625.89
620.678	46345.22
621.034	46357.43
621.39	46343.41
621.746	46397.88
622.101	46637.87
622.457	46398.1
622.812	46401.49
623.168	46594.26
623.523	46530.75
623.879	46578.21
624.234	46412.79
624.589	46550.41
624.945	46659.11
625.3	46507.25
625.655	46497.99
626.01	46525.1
626.365	46611.66
626.72	46623.63
627.075	46589.96
627.43	46485.56
627.785	46383.64
628.14	46495.05
628.495	46523.3
628.85	46494.14
629.205	46507.03
629.559	46669.06
629.914	46346.8
630.269	46415.73
630.623	46288.73
630.978	46227.49
631.332	46391.55
631.687	46383.19
632.041	46241.5
632.396	46301.16
632.75	46099.35
633.104	46203.76
633.459	46059.13
633.813	45957.66
634.167	46031.11
634.521	46050.99
634.875	45928.74
635.229	45852.13
635.583	45814.16
635.937	45778.46
636.291	45701.85
636.645	45594.28
636.999	45599.25
637.352	45656.65
637.706	45477
638.06	45572.81
638.413	45474.96
638.767	45437.22
639.121	45411.69
639.474	45215.76
639.828	45150.68
640.181	45173.73
640.534	45158.81
640.888	45129.21
641.241	44970.57
641.594	45091.24
641.947	45119.04
642.301	44966.28
642.654	44957.24
643.007	44914.75
643.36	44911.59
643.713	44853.51
644.066	44901.42
644.419	44676.34
644.771	44267.76
645.124	43822.8
645.477	43730.38
645.83	43619.64
646.182	43391.63
646.535	43421.46
646.888	43432.08
647.24	43294.23
647.593	43531.28
647.945	43492.64
648.298	43306.66
648.65	43249.48
649.002	43007.23
649.355	43182.14
649.707	43090.84
650.059	43204.74
650.411	43829.36
650.763	43605.41
651.115	44049.69
651.467	43930.14
651.819	43853.76
652.171	43846.08
652.523	43657.38
652.875	43836.59
653.227	43604.5
653.578	43851.28
653.93	43803.82
654.282	43591.17
654.633	43593.66
654.985	43721.34
655.337	43601.34
655.688	43576.48
656.039	43738.51
656.391	43198.41
656.742	43462.59
657.094	43390.95
657.445	43460.78
657.796	43347.79
658.147	43228.47
658.498	43197.96
658.849	43160.9
659.2	43099.66
659.551	43071.41
659.902	43209.26
660.253	43192.54
660.604	43139.43
660.955	42820.12
661.306	43116.83
661.656	43039.77
662.007	43069.15
662.358	42959.55
662.708	43117.51
663.059	43004.52
663.409	42736.28
663.76	43035.93
664.11	42861.25
664.461	43089.71
664.811	43040.45
665.161	43008.59
665.511	42886.78
665.862	42867.12
666.212	42946.22
666.562	42995.93
666.912	42821.25
667.262	42805.43
667.612	42788.71
667.962	42795.26
668.312	42713.45
668.662	43018.3
669.011	42837.74
669.361	42789.38
669.711	42690.63
670.06	42662.61
670.41	42508.49
670.76	42501.26
671.109	42599.33
671.459	42637.52
671.808	42475.49
672.157	42614.25
672.507	42334.03
672.856	42324.99
673.205	42276.18
673.554	42438.66
673.904	42343.07
674.253	42503.29
674.602	42379
674.951	41821.27
675.3	41743.54
675.649	42238.44
675.998	42095.16
676.346	42112.11
676.695	42295.16
677.044	41919.12
677.393	42086.8
677.741	42184.65
678.09	41992.12
678.438	41948.95
678.787	42001.38
679.135	42078.89
679.484	41814.72
679.832	41940.37
680.181	41621.5
680.529	41866.7
680.877	41661.05
681.225	41594.84
681.573	41752.35
681.922	41516.2
682.27	41342.87
682.618	41334.05
682.966	41336.09
683.314	41360.49
683.661	41272.81
684.009	41026.27
684.357	41009.54
684.705	40906.04
685.053	40997.57
685.4	40996.44
685.748	40878.02
686.095	40916.66
686.443	40600.97
686.79	40527.52
687.138	40480.97
687.485	40494.98
687.832	40500.4
688.18	40394.64
688.527	40386.06
688.874	40150.58
689.221	39911.04
689.568	39797.37
689.915	39850.25
690.262	39805.96
690.609	39763.93
690.956	39692.29
691.303	39565.97
691.65	39320.1
691.997	39353.99
692.344	39325.07
692.69	39186.77
693.037	39367.78
693.383	39107.9
693.73	39137.73
694.077	38989.48
694.423	38874.91
694.769	38765.31
695.116	38848.24
695.462	38615.71
695.808	38536.61
696.155	38545.2
696.501	38244.64
696.847	38257.75
697.193	37946.57
697.539	38179.34
697.885	37709.74
698.231	37803.53
698.577	37763.07
698.923	37719.46
699.269	37356.08
699.614	37147.95
699.96	37118.8
700.306	37260.72
700.651	37154.73
700.997	37136.65
701.342	36940.05
701.688	36928.52
702.033	36681.52
702.379	36758.58
702.724	36523.79
703.069	36765.14
703.415	36294.86
703.76	36343.9
704.105	36264.58
704.45	36115.89
704.795	35893.75
705.14	35830.47
705.485	35869.79
705.83	35685.84
706.175	35800.41
706.52	35585.96
706.865	35500.31
707.209	35564.94
707.554	35358.39
707.899	35406.3
708.243	35263.93
708.588	35119.53
708.932	34921.57
709.277	34846.99
709.621	34913.21
709.966	34592.08
710.31	34819.88
710.654	34524.52
710.998	34573.78
711.342	34640.22
711.687	34546.89
712.031	34331.98
712.375	34369.49
712.719	34325.43
713.063	34232.32
713.407	34371.3
713.75	34049.27
714.094	33972.67
714.438	33929.96
714.782	34038.65
715.125	33731.54
715.469	33896.28
715.812	33682.5
716.156	33574.26
716.499	33541.72
716.843	33589.63
717.186	33332.91
717.53	33491.32
717.873	33401.83
718.216	33352.57
718.559	33092.92
718.902	33028.74
719.246	33072.12
719.589	33024.89
719.932	32837.33
720.275	32778.57
720.617	32705.13
720.96	32713.49
721.303	32655.19
721.646	32727.73
721.989	32466.04
722.331	32443.89
722.674	32345.36
723.016	32398.24
723.359	32398.92
723.701	32405.7
724.044	32092.26
724.386	31963.45
724.729	32096.11
725.071	31927.3
725.413	32101.3
725.755	31937.24
726.097	31730.69
726.439	31649.79
726.782	31653.86
727.124	31809.79
727.465	31623.12
727.807	31568.89
728.149	31571.15
728.491	31447.08
728.833	31490.47
729.175	31436.69
729.516	31238.95
729.858	31219.97
730.199	31385.16
730.541	31236.92
730.882	31229.46
731.224	31129.13
731.565	31076.47
731.906	31033.31
732.248	31030.82
732.589	30860.88
732.93	30841.45
733.271	30784.28
733.612	30900.2
733.953	30779.53
734.294	30673.32
734.635	30680.1
734.976	30705.86
735.317	30488.92
735.658	30554.9
735.999	30623.38
736.339	30432.65
736.68	30594.45
737.021	30306.55
737.361	30283.95
737.702	30424.28
738.042	30199.88
738.383	30082.15
738.723	30217.96
739.063	30089.38
739.404	30133.67
739.744	30005.99
740.084	30005.76
740.424	30027.23
740.764	29897.52
741.104	30036.5
741.444	29739.56
741.784	29663.85
742.124	29800.57
742.464	29638.32
742.804	29579.56
743.143	29518.55
743.483	29469.51
743.823	29292.34
744.162	29339.34
744.502	29506.34
744.841	29256.41
745.181	29382.28
745.52	29226.58
745.86	29065.45
746.199	29104.32
746.538	29025.68
746.877	29123.08
747.216	29117.65
747.556	28899.35
747.895	28778
748.234	28856.42
748.573	28783.2
748.911	28716.08
749.25	28800.82
749.589	28578.91
749.928	28599.7
750.267	28587.72
750.605	28472.25
750.944	28472.92
751.283	28225.25
751.621	28373.04
751.96	28199.94
752.298	28103.67
752.636	28139.15
752.975	28110.22
753.313	27956.33
753.651	28142.76
753.989	27907.06
754.327	27928.76
754.666	27780.96
755.004	27737.12
755.342	27737.12
755.679	27717.46
756.017	27547.98
756.355	27473.85
756.693	27433.18
757.031	27377.13
757.368	27204.26
757.706	27171.26
758.044	27022.34
758.381	27191.6
758.719	27011.95
759.056	27088.1
759.394	27009.69
759.731	26823.02
760.068	26559.3
760.405	26613.54
760.743	26691.5
761.08	26677.94
761.417	26427.78
761.754	26350.27
762.091	26313.43
762.428	26202.02
762.765	26053.78
763.102	26187.33
763.438	26070.73
763.775	25975.36
764.112	25989.6
764.449	25941.24
764.785	25794.12
765.122	25573.56
765.458	25443.17
765.795	25475.26
766.131	25390.52
766.467	25384.19
766.804	25167.7
767.14	25023.75
767.476	25005.67
767.812	24901.94
768.148	24950.98
768.485	24868.05
768.821	24512.58
769.157	24617.88
769.492	24571.56
769.828	24509.19
770.164	24292.47
770.5	24205.24
770.836	24264.22
771.171	24226.71
771.507	24087.05
771.842	23916.66
772.178	23926.83
772.513	23780.62
772.849	23673.73
773.184	23526.61
773.519	23567.97
773.855	23396.45
774.19	23264.02
774.525	23263.57
774.86	23190.35
775.195	23244.36
775.53	23165.27
775.865	22913.3
776.2	22770.93
776.535	22643.25
776.87	22589.91
777.205	22668.78
777.539	22461.1
777.874	22487.54
778.209	22349.92
778.543	22325.74
778.878	22124.62
779.212	22190.38
779.547	21974.56
779.881	22081
780.215	21890.95
780.55	21992.64
780.884	21691.18
781.218	21686.66
781.552	21676.94
781.886	21464.75
782.22	21353.34
782.554	21287.12
782.888	21071.99
783.222	21077.64
783.556	21043.97
783.889	20871.09
784.223	20906.57
784.557	20823.63
784.89	20790.19
785.224	20628.16
785.557	20514.71
785.891	20480.37
786.224	20339.13
786.558	20466.58
786.891	20339.58
787.224	20243.54
787.557	20222.75
787.891	20179.58
788.224	20175.29
788.557	20025.01
788.89	19918.12
789.223	19926.48
789.556	19793.83
789.888	19684.91
790.221	19663.44
790.554	19540.5
790.887	19560.39
791.219	19476.1
791.552	19383.9
791.884	19277.23
792.217	19269.78
792.549	19104.81
792.882	19063.91
793.214	18832.95
793.546	18935.1
793.879	18808.54
794.211	18727.19
794.543	18869.56
794.875	18754.31
795.207	18736.91
795.539	18569.68
795.871	18654.42
796.203	18498.5
796.535	18315
796.867	18402.23
797.198	18272.29
797.53	18292.17
797.862	18177.15
798.193	18145.06
798.525	18030.26
798.856	18117.94
799.188	17881.56
799.519	17811.96
799.85	17765.41
800.182	17715.01
800.513	17788.91
800.844	17587.33
801.175	17689.7
801.506	17620.1
801.837	17539.65
802.168	17462.37
802.499	17433.21
802.83	17387.11
803.161	17267.57
803.491	17285.87
803.822	17261.47
804.153	17117.06
804.483	17028.7
804.814	16834.36
805.145	17005.43
805.475	16949.61
805.805	16818.09
806.136	16856.73
806.466	16851.76
806.796	16786.23
807.126	16653.35
807.457	16493.58
807.787	16544.42
808.117	16538.1
808.447	16418.78
808.777	16513.01
809.107	16383.3
809.436	16301.72
809.766	16355.73
810.096	16242.28
810.426	16192.79
810.755	16228.05
811.085	16086.13
811.414	16024.21
811.744	15856.08
812.073	15885.01
812.403	15917.55
812.732	15867.83
813.061	15814.5
813.39	15798.23
813.719	15779.02
814.049	15808.85
814.378	15747.16
814.707	15711.68
815.036	15585.35
815.365	15522.53
815.693	15371.35
816.022	15459.48
816.351	15331.12
816.68	15303.78
817.008	15311.46
817.337	15215.65
817.665	15170
817.994	15198.24
818.322	15171.13
818.651	15015.88
818.979	15025.37
819.307	15190.34
819.636	14989.21
819.964	14950.34
820.292	15007.29
820.62	14977.91
820.948	14788.76
821.276	15006.16
821.604	14884.35
821.932	14919.16
822.259	14961.41
822.587	14957.12
822.915	14915.99
823.243	14965.93
823.57	14935.2
823.898	14986.72
824.225	14882.32
824.553	14920.29
824.88	14835.54
825.207	14822.21
825.535	14772.94
825.862	14824.24
826.189	14825.37
826.516	14931.58
826.843	14872.15
827.17	14883.9
827.497	14953.51
827.824	14809.78
828.151	15007.97
828.478	14892.72
828.805	14992.83
829.131	14813.17
829.458	14713.96
829.785	14692.27
830.111	14754.64
830.438	14854.52
830.764	14758.03
831.09	14777.01
831.417	14712.61
831.743	14775.43
832.069	14751.7
832.395	14604.14
832.722	14733.85
833.048	14554.87
833.374	14656.11
833.7	14615.89
834.026	14590.58
834.351	14628.77
834.677	14654.08
835.003	14655.66
835.329	14607.98
835.654	14626.06
835.98	14429.23
836.306	14573.85
836.631	14456.57
836.956	14567.53
837.282	14451.6
837.607	14383.12
837.932	14306.97
838.258	14386.97
838.583	14354.2
838.908	14245.05
839.233	14303.13
839.558	14297.7
839.883	14211.38
840.208	14177.71
840.533	14155.79
840.858	14234.43
841.182	14245.73
841.507	14170.47
841.832	14115.34
842.156	14007.99
842.481	14086.18
842.805	14017.94
843.13	13943.36
843.454	13953.98
843.778	13954.66
844.103	13886.87
844.427	13841.9
844.751	13823.82
845.075	13758.73
845.399	13794.67
845.723	13713.76
846.047	13707.89
846.371	13578.4
846.695	13521.23
847.019	13455.01
847.343	13400.78
847.666	13292.08
847.99	13309.71
848.313	13267.9
848.637	13200.56
848.96	13170.28
849.284	13146.1
849.607	13019.32
849.931	13039.21
850.254	12888.93
850.577	12850.74
850.9	12720.8
851.223	12703.17
851.546	12661.14
851.869	12528.03
852.192	12689.84
852.515	12631.98
852.838	12483.29
853.161	12470.18
853.483	12408.71
853.806	12399
854.129	12429.96
854.451	12279.23
854.774	12306.8
855.096	12244.65
855.419	12182.96
855.741	12161.04
856.063	12093.69
856.385	12099.12
856.708	11963.75
857.03	12027.93
857.352	11956.07
857.674	11902.29
857.996	11888.5
858.318	11734.61
858.64	11737.09
858.961	11764.21
859.283	11729.86
859.605	11648.51
859.926	11750.43
860.248	11673.59
860.57	11628.85
860.891	11620.03
861.212	11555.63
861.534	11583.88
861.855	11502.75
862.176	11503.65
862.498	11525.35
862.819	11521.96
863.14	11401.96
863.461	11464.56
863.782	11312.24
864.103	11311.79
864.424	11286.93
864.745	11258.69
865.065	11281.96
865.386	11193.15
865.707	11216.43
866.027	11252.81
866.348	11248.07
866.668	11184.11
866.989	11117.45
867.309	11094.4
867.63	11166.71
867.95	11065.47
868.27	10973.04
868.59	11032.48
868.91	11035.64
869.23	11019.6
869.55	10963.78
869.87	11055.98
870.19	10887.17
870.51	10968.3
870.83	10975.76
871.15	10924.46
871.469	10857.79
871.789	10891.01
872.109	10888.08
872.428	10765.82
872.748	10792.48
873.067	10785.71
873.386	10758.59
873.706	10763.56
874.025	10681.3
874.344	10729.44
874.663	10742.77
874.982	10674.3
875.301	10673.62
875.62	10613.73
875.939	10581.19
876.258	10562.66
876.577	10553.62
876.896	10479.05
877.214	10429.33
877.533	10479.05
877.852	10460.29
878.17	10437.69
878.489	10492.38
878.807	10466.62
879.125	10437.69
879.444	10378.48
879.762	10367.86
880.08	10363.57
880.398	10268.88
880.716	10299.16
881.034	10299.16
881.352	10258.71
881.67	10292.38
881.988	10209
882.306	10310.24
882.624	10189.11
882.941	10191.14
883.259	10150.69
883.577	10144.14
883.894	10153.18
884.212	10060.07
884.529	10088.55
884.846	10011.49
885.164	10058.94
885.481	10029.57
885.798	10048.78
886.115	9915.9
886.432	9931.72
886.75	9801.32
887.067	9888.33
887.383	9854.66
887.7	9841.78
888.017	9790.93
888.334	9818.95
888.651	9764.49
888.967	9734.43
889.284	9696.24
889.6	9666.64
889.917	9595.23
890.233	9591.84
890.55	9599.3
890.866	9617.15
891.182	9536.47
891.498	9501.45
891.815	9472.75
892.131	9489.02
892.447	9379.19
892.763	9336.25
893.079	9357.04
893.395	9312.3
893.71	9352.07
894.026	9299.42
894.342	9332.18
894.657	9258.97
894.973	9142.81
895.289	9224.39
895.604	9181.91
895.92	9120.44
896.235	9041.57
896.55	9089.03
896.865	8995.7
897.181	8917.96
897.496	8985.75
897.811	8918.18
898.126	8913.21
898.441	8870.28
898.756	8815.59
899.071	8796.38
899.386	8751.86
899.7	8701.92
900.015	8669.38
900.33	8641.81
900.644	8653.56
900.959	8670.05
901.273	8593.45
901.588	8585.76
901.902	8475.71
902.216	8492.88
902.531	8473
902.845	8374.47
903.159	8327.92
903.473	8339.22
903.787	8293.34
904.101	8281.36
904.415	8286.34
904.729	8206.79
905.042	8198.2
905.356	8195.94
905.67	8208.37
905.984	8171.99
906.297	8093.12
906.611	8057.19
906.924	8058.77
907.237	7995.27
907.551	7981.03
907.864	7967.7
908.177	7918.66
908.491	7886.57
908.804	7869.85
909.117	7777.42
909.43	7796.86
909.743	7743.75
910.056	7712.11
910.368	7679.57
910.681	7649.06
910.994	7627.14
911.307	7571.1
911.619	7538.33
911.932	7561.61
912.244	7532.23
912.557	7514.38
912.869	7485.23
913.181	7384.66
913.494	7374.72
913.806	7339.02
914.118	7341.28
914.43	7237.78
914.742	7244.56
915.054	7194.39
915.366	7173.82
915.678	7174.95
915.99	7119.36
916.302	7105.35
916.613	7069.42
916.925	7060.15
917.236	6995.97
917.548	6955.75
917.859	6955.07
918.171	6882.3
918.482	6863.32
918.794	6884.56
919.105	6845.24
919.416	6823.1
919.727	6830.33
920.038	6784.91
920.349	6684.34
920.66	6641.63
920.971	6673.5
921.282	6631.46
921.593	6595.31
921.903	6546.95
922.214	6547.62
922.525	6559.6
922.835	6498.59
923.146	6390.34
923.456	6499.26
923.767	6434.86
924.077	6344.92
924.387	6306.73
924.697	6338.36
925.008	6312.15
925.318	6256.56
925.628	6242.77
925.938	6179.05
926.248	6143.79
926.558	6166.84
926.867	6146.73
927.177	6110.35
927.487	6059.95
927.796	6035.55
928.106	6037.13
928.416	6017.47
928.725	6024.02
929.034	5950.13
929.344	5930.01
929.653	5929.11
929.962	5821.09
930.271	5872.39
930.581	5775.89
930.89	5807.3
931.199	5736.12
931.508	5737.7
931.817	5749.45
932.125	5745.16
932.434	5669.91
932.743	5662.22
933.051	5593.98
933.36	5626.29
933.669	5564.15
933.977	5600.53
934.286	5542.45
934.594	5551.27
934.902	5426.52
935.21	5426.98
935.519	5426.3
935.827	5401.44
936.135	5409.58
936.443	5383.14
936.751	5324.15
937.059	5316.47
937.367	5285.96
937.674	5302.01
937.982	5240.99
938.29	5246.87
938.597	5264.27
938.905	5217.72
939.213	5236.7
939.52	5163.93
939.827	5090.94
940.135	5085.06
940.442	5068.57
940.749	5039.87
941.056	5010.49
941.363	4994.22
941.67	4968.23
941.977	4980.66
942.284	4904.73
942.591	4925.07
942.898	4892.07
943.205	4854.56
943.511	4896.37
943.818	4840.78
944.125	4841.68
944.431	4775.24
944.738	4816.82
945.044	4769.59
945.35	4761.46
945.657	4648.01
945.963	4703.61
946.269	4696.15
946.575	4690.5
946.881	4603.72
947.187	4570.5
947.493	4625.64
947.799	4551.07
948.105	4545.87
948.41	4534.57
948.716	4537.96
949.022	4481.92
949.327	4485.76
949.633	4459.32
949.938	4406.44
950.244	4385.42
950.549	4401.24
950.854	4417.96
951.16	4346.78
951.465	4368.92
951.77	4314.01
952.075	4376.38
952.38	4269.72
952.685	4312.43
952.99	4258.87
953.294	4263.16
953.599	4236.5
953.904	4203.51
954.209	4164.86
954.513	4181.13
954.818	4132.77
955.122	4107.01
955.426	4071.53
955.731	4117.86
956.035	4069.27
956.339	4083.28
956.643	4032.66
956.948	4018.65
957.252	3975.04
957.556	3995.83
957.86	3963.74
958.163	3924.87
958.467	3954.02
958.771	3907.24
959.075	3914.47
959.378	3855.72
959.682	3827.92
959.985	3851.2
960.289	3794.02
960.592	3800.58
960.896	3819.11
961.199	3732.33
961.502	3746.34
961.805	3772.33
962.108	3712.44
962.411	3717.19
962.714	3678.1
963.017	3626.8
963.32	3635.16
963.623	3629.96
963.926	3591.77
964.228	3660.02
964.531	3591.32
964.833	3580.24
965.136	3578.21
965.438	3560.36
965.741	3540.02
966.043	3480.13
966.345	3533.01
966.648	3504.31
966.95	3480.59
967.252	3484.2
967.554	3469.97
967.856	3427.25
968.158	3424.77
968.46	3439.46
968.761	3391.32
969.063	3377.09
969.365	3380.7
969.666	3321.04
969.968	3303.87
970.269	3276.75
970.571	3281.27
970.872	3296.41
971.174	3256.41
971.475	3266.35
971.776	3248.5
972.077	3243.76
972.378	3239.01
972.679	3169.41
972.98	3203.53
973.281	3196.98
973.582	3171.67
973.883	3165.34
974.183	3108.84
974.484	3115.17
974.785	3118.56
975.085	3067.04
975.386	3095.51
975.686	3058.45
975.986	3060.48
976.287	3040.82
976.587	3023.42
976.887	3058.22
977.187	3021.16
977.487	2988.4
977.787	2960.15
978.087	2920.83
978.387	2932.13
978.687	2918.12
978.987	2916.08
979.286	2870.66
979.586	2890.55
979.885	2872.47
980.185	2821.85
980.484	2828.85
980.784	2860.72
981.083	2815.07
981.382	2801.73
981.682	2796.31
981.981	2794.05
982.28	2769.87
982.579	2763.32
982.878	2762.19
983.177	2794.05
983.475	2732.36
983.774	2698.69
984.073	2694.62
984.372	2721.96
984.67	2711.12
984.969	2707.73
985.267	2664.56
985.566	2656.2
985.864	2639.7
986.162	2625.69
986.461	2612.81
986.759	2599.03
987.057	2559.93
987.355	2574.62
987.653	2553.38
987.951	2569.2
988.249	2535.07
988.547	2532.36
988.844	2500.27
989.142	2520.84
989.44	2487.62
989.737	2468.64
990.035	2482.65
990.332	2442.42
990.63	2431.35
990.927	2416.89
991.224	2412.14
991.521	2415.98
991.819	2408.3
992.116	2398.13
992.413	2365.59
992.71	2397
993.006	2364.46
993.303	2358.58
993.6	2299.6
993.897	2328.98
994.193	2328.3
994.49	2338.02
994.787	2274.29
995.083	2265.25
995.379	2265.25
995.676	2264.35
995.972	2233.84
996.268	2233.84
996.565	2222.77
996.861	2220.28
997.157	2193.84
997.453	2162.65
997.749	2181.86
998.044	2164.24
998.34	2175.99
998.636	2143.45
998.932	2127.85
999.227	2155.65
999.523	2125.59
999.818	2109.78
1000.114	2105.71
1000.409	2094.86
1000.704	2067.06
1001	2071.13
1001.295	2053.05
1001.59	2023.45
1001.885	2041.3
1002.18	2013.28
1002.475	1981.87
1002.77	1983.22
1003.065	1996.11
1003.359	1993.39
1003.654	1994.52
1003.949	1983.9
1004.243	1954.52
1004.538	1942.55
1004.832	1954.3
1005.127	1907.52
1005.421	1892.38
1005.715	1924.7
1006.009	1900.06
1006.304	1886.73
1006.598	1865.71
1006.892	1833.4
1007.186	1825.94
1007.48	1821.87
1007.773	1792.95
1008.067	1795.66
1008.361	1785.04
1008.655	1781.42
1008.948	1770.12
1009.242	1747.3
1009.535	1767.41
1009.829	1737.81
1010.122	1743.91
1010.415	1738.94
1010.708	1736.68
1011.001	1726.73
1011.295	1704.36
1011.588	1691.93
1011.881	1667.07
1012.173	1686.74
1012.466	1670.01
1012.759	1639.73
1013.052	1651.03
1013.344	1632.5
1013.637	1630.69
1013.93	1620.07
1014.222	1591.82
1014.514	1602.9
1014.807	1605.38
1015.099	1554.76
1015.391	1552.05
1015.683	1574.2
1015.976	1532.84
1016.268	1529.9
1016.56	1531.26
1016.851	1544.59
1017.143	1526.29
1017.435	1475.89
1017.727	1485.16
1018.018	1506.18
1018.31	1471.37
1018.602	1463.24
1018.893	1461.2
1019.185	1434.09
1019.476	1428.89
1019.767	1448.32
1020.058	1420.75
1020.35	1416.01
1020.641	1415.33
1020.932	1403.8
1021.223	1391.15
1021.514	1371.04
1021.804	1377.14
1022.095	1329.91
1022.386	1325.16
1022.677	1338.95
1022.967	1331.26
1023.258	1314.09
1023.548	1312.28
1023.839	1300.76
1024.129	1298.5
1024.419	1270.48
1024.709	1278.84
1025	1279.51
1025.29	1296.69
1025.58	1266.41
1025.87	1258.05
1026.16	1240.19
1026.449	1238.39
1026.739	1222.57
1027.029	1229.12
1027.319	1210.82
1027.608	1194.77
1027.898	1190.25
1028.187	1169.01
1028.477	1170.14
1028.766	1172.4
1029.055	1157.03
1029.344	1142.34
1029.634	1148.44
1029.923	1140.99
1030.212	1116.35
1030.501	1114.55
1030.79	1110.03
1031.078	1120.42
1031.367	1111.16
1031.656	1094.43
1031.945	1081.1
1032.233	1098.28
1032.522	1075.9
1032.81	1075.9
1033.099	1096.47
1033.387	1056.24
1033.675	1032.06
1033.963	1039.52
1034.251	1026.19
1034.54	1018.73
1034.828	1010.59
1035.116	1004.27
1035.403	1019.63
1035.691	1007.43
1035.979	1001.78
1036.267	997.04
1036.554	979.41
1036.842	997.26
1037.129	973.99
1037.417	971.05
1037.704	958.62
1037.992	954.1
1038.279	935.34
1038.566	937.38
1038.853	937.38
1039.14	937.38
