Data from plate_porcelain_FLMS001491_024.txt Node
Date: Tue Feb 07 11:19:01 GMT 2017
User: dcchb
Spectrometer: FLMS00149
Trigger mode: 0
Integration Time (sec): 2.000000E-2
Scans to average: 10
Electric dark correction enabled: true
Nonlinearity correction enabled: false
Boxcar width: 0
XAxis mode: Wavelengths
Number of Pixels in Spectrum: 2048
>>>>>Begin Spectral Data<<<<<
341.393	-10.52
341.776	-10.52
342.16	-10.52
342.543	-46
342.927	-63.85
343.31	-71.76
343.693	-75.38
344.077	-66.57
344.46	-54.14
344.843	-51.65
345.226	-55.27
345.61	-23.4
345.993	-17.08
346.376	-15.04
346.759	22.92
347.142	16.14
347.525	41.23
347.908	47.33
348.291	61.11
348.674	115.35
349.057	126.2
349.44	115.8
349.823	130.49
350.206	179.76
350.588	219.98
350.971	229.47
351.354	246.87
351.737	273.76
352.119	287.55
352.502	297.49
352.884	314.21
353.267	332.52
353.65	329.58
354.032	327.32
354.414	352.86
354.797	352.63
355.179	361.9
355.562	365.96
355.944	360.09
356.326	368.45
356.709	393.53
357.091	389.24
357.473	391.28
357.855	387.89
358.238	386.3
358.62	388.56
359.002	378.62
359.384	376.13
359.766	407.55
360.148	402.35
360.53	391.28
360.912	395.12
361.294	402.12
361.676	391.28
362.057	413.2
362.439	398.73
362.821	392.4
363.203	396.02
363.584	396.7
363.966	385.63
364.348	401.22
364.729	396.25
365.111	377.49
365.493	390.37
365.874	402.12
366.256	379.52
366.637	395.34
367.019	407.32
367.4	379.52
367.781	381.78
368.163	391.05
368.544	379.07
368.925	379.07
369.306	412.07
369.688	400.31
370.069	409.13
370.45	411.39
370.831	405.29
371.212	395.79
371.593	397.38
371.974	425.17
372.355	396.02
372.736	407.55
373.117	409.58
373.498	429.47
373.879	424.49
374.26	412.74
374.641	416.59
375.021	429.47
375.402	420.65
375.783	467.43
376.163	478.73
376.544	464.72
376.925	477.37
377.305	448.45
377.686	452.74
378.066	462.91
378.447	461.33
378.827	475.79
379.208	452.97
379.588	496.13
379.968	486.41
380.349	471.05
380.729	484.38
381.109	491.16
381.489	493.87
381.87	506.3
382.25	518.28
382.63	502.23
383.01	503.36
383.39	507.66
383.77	541.33
384.15	544.04
384.53	539.75
384.91	523.25
385.29	548.79
385.67	540.2
386.049	566.19
386.429	557.82
386.809	582.91
387.189	584.49
387.568	583.59
387.948	567.77
388.328	591.95
388.707	595.79
389.087	587.65
389.466	622.23
389.846	624.04
390.225	609.12
390.605	638.27
390.984	632.17
391.363	653.87
391.743	649.8
392.122	658.84
392.501	664.04
392.881	671.27
393.26	676.69
393.639	685.96
394.018	724.15
394.397	716.01
394.776	701.1
395.155	710.81
395.534	731.15
395.913	722.79
396.292	720.76
396.671	726.18
397.05	751.27
397.429	768.89
397.808	779.29
398.186	781.32
398.565	785.39
398.944	807.54
399.323	791.94
399.701	819.06
400.08	822.45
400.458	817.7
400.837	847.31
401.215	850.92
401.594	865.39
401.972	855.44
402.351	853.41
402.729	886.86
403.107	897.02
403.486	888.89
403.864	911.04
404.242	906.29
404.62	915.78
404.999	941.09
405.377	960.07
405.755	972.5
406.133	978.83
406.511	982.45
406.889	1007.3
407.267	1018.6
407.645	1031.71
408.023	1040.75
408.401	1064.03
408.779	1078.94
409.156	1095.44
409.534	1095.66
409.912	1126.62
410.29	1123.69
410.667	1180.41
411.045	1160.97
411.422	1196.9
411.8	1173.63
412.178	1204.36
412.555	1238.26
412.933	1273.51
413.31	1268.09
413.687	1285.04
414.065	1300.63
414.442	1303.79
414.819	1321.87
415.197	1370.01
415.574	1384.02
415.951	1383.11
416.328	1395.32
416.705	1406.84
417.082	1411.81
417.46	1444.58
417.837	1454.07
418.214	1467.86
418.591	1486.84
418.967	1509.44
419.344	1500.17
419.721	1543.56
420.098	1540.4
420.475	1541.3
420.852	1562.32
421.228	1591.02
421.605	1606.84
421.982	1634.18
422.358	1649.77
422.735	1663.33
423.111	1697
423.488	1692.48
423.864	1714.18
424.241	1748.08
424.617	1756.89
424.994	1778.81
425.37	1842.99
425.746	1807.06
426.123	1827.62
426.499	1862.2
426.875	1880.05
427.251	1922.53
427.627	1971.35
428.003	1954.62
428.379	1998.01
428.756	1999.14
429.132	2049.99
429.507	2088.63
429.883	2115.75
430.259	2135.64
430.635	2149.19
431.011	2169.08
431.387	2249.98
431.763	2277.78
432.138	2287.72
432.514	2335.4
432.89	2356.42
433.265	2430.77
433.641	2430.32
434.016	2411.79
434.392	2481.84
434.767	2539.02
435.143	2547.15
435.518	2552.8
435.894	2613.14
436.269	2667.6
436.644	2708.73
437.02	2708.05
437.395	2734.04
437.77	2755.96
438.145	2823.08
438.52	2807.03
438.895	2818.56
439.271	2877.76
439.646	2895.39
440.021	2926.35
440.395	2986.01
440.77	2944.2
441.145	3055.84
441.52	3051.54
441.895	3048.61
442.27	3112.11
442.645	3134.48
443.019	3144.65
443.394	3167.25
443.769	3190.52
444.143	3195.5
444.518	3203.86
444.892	3222.61
445.267	3243.4
445.641	3320.24
446.016	3324.98
446.39	3367.02
446.764	3408.14
447.139	3428.94
447.513	3424.64
447.887	3453.79
448.262	3466
448.636	3483.62
449.01	3551.19
449.384	3579.44
449.758	3612.21
450.132	3674.13
450.506	3683.39
450.88	3696.5
451.254	3685.65
451.628	3807
452.002	3830.96
452.376	3847.46
452.75	3956.61
453.123	3942.59
453.497	4020.33
453.871	4041.35
454.244	4093.78
454.618	4150.72
454.992	4194.56
455.365	4238.63
455.739	4355.46
456.112	4338.52
456.486	4385.52
456.859	4411.51
457.232	4543.93
457.606	4547.32
457.979	4640.2
458.352	4690.6
458.725	4796.36
459.099	4744.15
459.472	4893.76
459.845	4954.32
460.218	5016.24
460.591	5028.22
460.964	5045.39
461.337	5167.42
461.71	5268.89
462.083	5307.76
462.456	5330.81
462.829	5427.53
463.201	5528.09
463.574	5574.42
463.947	5632.49
464.32	5743.45
464.692	5817.35
465.065	5844.46
465.438	5924.24
465.81	6062.31
466.183	6087.62
466.555	6227.96
466.928	6225.92
467.3	6262.08
467.672	6393.38
468.045	6626.59
468.417	6545.01
468.789	6643.77
469.161	6726.02
469.534	6865.23
469.906	6974.6
470.278	6969.18
470.65	7121.95
471.022	7290.75
471.394	7384.09
471.766	7452.11
472.138	7555.38
472.51	7721.7
472.882	7852.32
473.253	7921.7
473.625	8033.79
473.997	8232.2
474.369	8249.37
474.74	8417.96
475.112	8601
475.484	8675.58
475.855	8825.18
476.227	8953.76
476.598	9140.65
476.97	9304.71
477.341	9475.1
477.713	9606.85
478.084	9688.43
478.455	9946.96
478.827	10064.47
479.198	10420.84
479.569	10309.88
479.94	10694.73
480.311	10751.68
480.682	11065.57
481.053	11315.28
481.424	11465.79
481.795	11574.71
482.166	11722.5
482.537	11893.57
482.908	12237.52
483.279	12339.21
483.65	12559.32
484.021	12781.23
484.391	12903.94
484.762	13089.47
485.133	13160.88
485.503	13391.61
485.874	13669.12
486.244	13717.25
486.615	14158.37
486.985	14297.35
487.356	14507.06
487.726	14704.35
488.097	14980.27
488.467	14982.3
488.837	15448.28
489.207	15540.48
489.578	15794.94
489.948	15965.55
490.318	16137.98
490.688	16152.22
491.058	16554.01
491.428	16695.48
491.798	16956.04
492.168	17341.56
492.538	17343.15
492.908	17548.56
493.278	17674.66
493.648	17890.7
494.017	18115.1
494.387	18259.51
494.757	18337.92
495.126	18603.45
495.496	18725.26
495.866	18889.09
496.235	19068.98
496.605	19237.79
496.974	19383.54
497.344	19542.86
497.713	19771.78
498.082	19813.59
498.452	20023.08
498.821	20148.95
499.19	20305.55
499.559	20411.99
499.928	20629.84
500.298	20738.31
500.667	21041.81
501.036	20931.07
501.405	21223.95
501.774	21297.84
502.143	21536.48
502.512	21572.86
502.88	21836.59
503.249	21807.21
503.618	22068.45
503.987	22232.96
504.356	22299.63
504.724	22474.99
505.093	22637.7
505.462	22724.25
505.83	23026.61
506.199	23147.74
506.567	23489.42
506.936	23310.45
507.304	23734.39
507.672	23711.34
508.041	23897.32
508.409	24060.71
508.777	24279.01
509.145	24532.11
509.514	24559.68
509.882	24837.64
510.25	24812.33
510.618	25010.06
510.986	25163.73
511.354	25415.48
511.722	25703.15
512.09	25915.8
512.458	25819.31
512.826	26203.48
513.193	26260.43
513.561	26523.02
513.929	26707.42
514.297	27044.59
514.664	27117.58
515.032	27298.82
515.4	27605.25
515.767	27700.61
516.135	27872.59
516.502	27782.87
516.869	28194.61
517.237	28311.44
517.604	28338.79
517.972	28783.97
518.339	28925.89
518.706	29040.92
519.073	29152.1
519.44	29298.99
519.808	29765.42
520.175	29836.15
520.542	30185.75
520.909	30388
521.276	30451.5
521.643	30835.45
522.009	31057.36
522.376	31328.54
522.743	31391.59
523.11	31796.55
523.477	32080.39
523.843	32221.62
524.21	32626.81
524.577	32777.99
524.943	32993.13
525.31	33187.93
525.676	33477.18
526.043	33629.5
526.409	33876.95
526.776	34282.81
527.142	34475.35
527.508	34590.6
527.874	35014.32
528.241	35066.07
528.607	35194.65
528.973	35546.96
529.339	35527.07
529.705	35955.99
530.071	36317.34
530.437	36423.32
530.803	36779.92
531.169	36807.04
531.535	36779.47
531.901	36929.07
532.267	37334.71
532.632	37511.2
532.998	37719.79
533.364	37881.81
533.73	38174.91
534.095	38282.93
534.461	38462.14
534.826	38616.71
535.192	38883.82
535.557	38981.22
535.923	39051.95
536.288	39243.36
536.653	39434.77
537.019	39409.46
537.384	39821.88
537.749	39804.93
538.114	40016.9
538.479	40042.44
538.845	40165.37
539.21	40262.32
539.575	40446.94
539.94	40585.25
540.305	40870.66
540.67	40692.36
541.034	41037.89
541.399	41281.05
541.764	41240.82
542.129	41525.33
542.494	41504.54
542.858	41697.31
543.223	41868.6
543.587	42087.81
543.952	42129.16
544.316	42167.35
544.681	42340
545.045	42455.93
545.41	42670.62
545.774	42790.39
546.138	42796.26
546.503	43079.64
546.867	43153.54
547.231	43408.68
547.595	43397.83
547.959	43634.66
548.324	43860.64
548.688	43878.72
549.052	44025.38
549.416	44050.01
549.779	44387.41
550.143	44439.83
550.507	44690.68
550.871	44665.59
551.235	44711.92
551.599	45125.92
551.962	45103.77
552.326	45334.95
552.689	45517.55
553.053	45426.7
553.417	45548.05
553.78	46129.73
554.143	45970.42
554.507	46276.4
554.87	46306.9
555.234	46755.03
555.597	46648.36
555.96	46797.29
556.323	46951.63
556.686	47006.77
557.05	47275.92
557.413	47401.79
557.776	47506.42
558.139	47800.42
558.502	47773.53
558.865	47985.96
559.228	48169.23
559.59	48324.25
559.953	48500.29
560.316	48747.07
560.679	48869.1
561.041	49030.45
561.404	49290.33
561.767	49478.35
562.129	49448.74
562.492	49890.54
562.854	49764.67
563.217	49760.15
563.579	50103.19
563.941	50316.97
564.304	50369.85
564.666	50702.95
565.028	50683.96
565.39	50839.44
565.753	51018.64
566.115	51157.4
566.477	51243.27
566.839	51401.23
567.201	51629.02
567.563	51617.95
567.925	51841.45
568.287	51882.35
568.648	51927.55
569.01	52072.85
569.372	52300.64
569.734	52338.16
570.095	52458.61
570.457	52620.18
570.819	52629.45
571.18	52659.05
571.542	52897.47
571.903	53043.68
572.265	53001.19
572.626	53038.7
572.987	53058.14
573.349	53285.03
573.71	53379.26
574.071	53433.95
574.432	53605.24
574.794	53826.71
575.155	53801.4
575.516	53652.47
575.877	53874.84
576.238	53925.69
576.599	54037.55
576.96	53980.15
577.32	54017.44
577.681	54167.94
578.042	54305.79
578.403	54317.31
578.763	54316.18
579.124	54305.79
579.485	54516.41
579.845	54589.62
580.206	54470.08
580.566	54558.89
580.927	54593.92
581.287	54691.99
581.648	54545.33
582.008	54714.37
582.368	54650.19
582.728	54707.36
583.089	54673.46
583.449	54698.55
583.809	54728.83
584.169	54911.2
584.529	54749.85
584.889	54924.76
585.249	54696.97
585.609	54696.29
585.969	54873.01
586.329	54743.74
586.688	54796.85
587.048	54885.89
587.408	54793.46
587.768	54820.8
588.127	54787.13
588.487	54743.97
588.846	54953.91
589.206	54768.83
589.565	54845.21
589.925	54946.68
590.284	54882.5
590.643	54952.55
591.003	55000.01
591.362	55029.61
591.721	54981.03
592.08	55023.28
592.44	55047.01
592.799	55117.52
593.158	55060.8
593.517	55023.06
593.876	55051.98
594.235	55044.75
594.593	55105.77
594.952	55094.47
595.311	55026.9
595.67	55089.72
596.029	55223.28
596.387	55208.36
596.746	55266.67
597.104	55092.21
597.463	55247.01
597.822	55277.74
598.18	55299.66
598.538	55201.59
598.897	55398.42
599.255	55236.84
599.613	55536.72
599.972	55396.83
600.33	55474.57
600.688	55346.89
601.046	55536.72
601.404	55590.05
601.762	55557.51
602.12	55656.71
602.478	55603.16
602.836	55659.65
603.194	55546.89
603.552	55548.24
603.91	55465.76
604.268	55682.02
604.625	55567.68
604.983	55736.49
605.341	55648.13
605.698	55773.32
606.056	55871.17
606.413	55779.65
606.771	55844.51
607.128	55863.04
607.485	55853.32
607.843	55897.61
608.2	55963.37
608.557	55973.32
608.914	55945.97
609.272	56068.91
609.629	56124.27
609.986	56234.33
610.343	56091.73
610.7	56299.18
611.057	56220.99
611.414	56228.9
611.771	56279.3
612.127	56423.93
612.484	56343.02
612.841	56422.12
613.198	56322.23
613.554	56413.53
613.911	56530.59
614.267	56427.54
614.624	56467.99
614.98	56471.38
615.337	56647.2
615.693	56594.09
616.05	56543.7
616.406	56705.73
616.762	56545.96
617.118	56585.96
617.475	56593.87
617.831	56718.61
618.187	56650.13
618.543	56716.8
618.899	56934.42
619.255	56859.85
619.611	56852.39
619.967	56924.25
620.323	56933.07
620.678	56823.46
621.034	56817.59
621.39	56817.14
621.746	56794.54
622.101	57107.75
622.457	56824.14
622.812	56912.5
623.168	56964.02
623.523	56987.53
623.879	57063.46
624.234	56886.96
624.589	56954.76
624.945	56922.22
625.3	56996.79
625.655	56956.79
626.01	56972.61
626.365	57045.83
626.72	56955.21
627.075	56854.2
627.43	56883.12
627.785	56794.31
628.14	56848.32
628.495	56935.55
628.85	56797.7
629.205	56683.13
629.559	56875.44
629.914	56726.29
630.269	56881.09
630.623	56686.52
630.978	56679.74
631.332	56761.77
631.687	56851.03
632.041	56684.03
632.396	56701.21
632.75	56566.52
633.104	56655.78
633.459	56533.08
633.813	56531.72
634.167	56529.91
634.521	56505.96
634.875	56601.1
635.229	56477.26
635.583	56320.43
635.937	56323.59
636.291	56329.92
636.645	56270.94
636.999	56217.6
637.352	56256.25
637.706	56077.72
638.06	56216.93
638.413	56158.62
638.767	56105.74
639.121	56109.81
639.474	55981
639.828	56034.11
640.181	56031.17
640.534	55970.83
640.888	55880.44
641.241	55807.45
641.594	55838.63
641.947	55858.74
642.301	55800.67
642.654	55839.76
643.007	55826.2
643.36	55701.91
643.713	55660.1
644.066	55848.12
644.419	55660.33
644.771	55440.68
645.124	55176.5
645.477	55173.11
645.83	54960.24
646.182	54722.28
646.535	54671.2
646.888	54742.61
647.24	54565.44
647.593	54826.45
647.945	54695.61
648.298	54516.41
648.65	54501.26
649.002	54430.31
649.355	54469.85
649.707	54544.65
650.059	54560.02
650.411	54897.41
650.763	54946.9
651.115	55241.81
651.467	55078.2
651.819	55079.55
652.171	54995.26
652.523	54889.73
652.875	54872.33
653.227	54814.93
653.578	54937.86
653.93	54846.57
654.282	54655.61
654.633	54624.88
654.985	54735.38
655.337	54720.24
655.688	54754.37
656.039	54755.5
656.391	54536.74
656.742	54584.88
657.094	54629.17
657.445	54768.38
657.796	54682.05
658.147	54576.74
658.498	54621.49
658.849	54589.62
659.2	54499.91
659.551	54476.63
659.902	54639.79
660.253	54509.85
660.604	54566.12
660.955	54336.75
661.306	54355.05
661.656	54431.21
662.007	54298.56
662.358	54328.84
662.708	54420.36
663.059	54378.33
663.409	54133.14
663.76	54393.47
664.11	54261.72
664.461	54325.45
664.811	54324.77
665.161	54341.49
665.511	54240.48
665.862	54209.29
666.212	54290.65
666.562	54286.81
666.912	54263.98
667.262	54191.89
667.612	54184.44
667.962	54252.23
668.312	54198.9
668.662	54346.92
669.011	54193.7
669.361	54130.88
669.711	54131.33
670.06	54134.27
670.41	53987.83
670.76	54032.35
671.109	54118.45
671.459	54029.19
671.808	53920.04
672.157	54063.99
672.507	53872.58
672.856	53853.37
673.205	53980.6
673.554	54000.71
673.904	53896.31
674.253	54035.97
674.602	53734.73
674.951	53434.85
675.3	53289.32
675.649	53716.2
675.998	53751.68
676.346	53796.42
676.695	53720.95
677.044	53622.42
677.393	53640.27
677.741	53801.85
678.09	53737.22
678.438	53569.76
678.787	53581.06
679.135	53641.4
679.484	53381.07
679.832	53542.42
680.181	53377.9
680.529	53414.97
680.877	53279.83
681.225	53245.93
681.573	53422.87
681.922	53187.17
682.27	53162.32
682.618	53136.78
682.966	53083
683.314	53159.38
683.661	53040.06
684.009	52892.72
684.357	52762.33
684.705	52842.55
685.053	52872.15
685.4	52751.25
685.748	52622.44
686.095	52552.84
686.443	52458.61
686.79	52245.96
687.138	52380.42
687.485	52371.38
687.832	52298.38
688.18	52262.23
688.527	52193.98
688.874	52168.22
689.221	51968.22
689.568	51949.02
689.915	51974.78
690.262	51845.97
690.609	51735.01
690.956	51737.27
691.303	51649.81
691.65	51413.89
691.997	51333.21
692.344	51177.51
692.69	51243.27
693.037	51331.4
693.383	51001.7
693.73	51053.9
694.077	50847.8
694.423	50853.45
694.769	50729.84
695.116	50641.48
695.462	50680.35
695.808	50471.77
696.155	50592.44
696.501	50312.45
696.847	50356.51
697.193	50052.57
697.539	50132.57
697.885	49941.61
698.231	49889.18
698.577	49846.7
698.923	49706.81
699.269	49566.03
699.614	49297.33
699.96	49291.01
700.306	49386.14
700.651	49154.51
700.997	49149.54
701.342	48947.96
701.688	48988.19
702.033	48704.81
702.379	48734.18
702.724	48597.47
703.069	48767.18
703.415	48269.11
703.76	48321.77
704.105	48240.19
704.45	48141.66
704.795	48001.32
705.14	47775.11
705.485	47765.62
705.83	47687.21
706.175	47670.48
706.52	47586.42
706.865	47543.71
707.209	47420.09
707.554	47370.6
707.899	47403.6
708.243	47202.47
708.588	47006.77
708.932	46845.19
709.277	46790.73
709.621	46891.52
709.966	46609.95
710.31	46685.2
710.654	46204.08
710.998	46473
711.342	46331.54
711.687	46292.67
712.031	46099.68
712.375	45839.35
712.719	46018.32
713.063	45787.82
713.407	46124.54
713.75	45763.64
714.094	45796.18
714.438	45539.47
714.782	45606.13
715.125	45303.09
715.469	45502.63
715.812	45244.33
716.156	44866.26
716.499	44995.75
716.843	45002.76
717.186	44728.41
717.53	44885.02
717.873	44855.64
718.216	44791.24
718.559	44698.13
718.902	44586.72
719.246	44507.4
719.589	44488.87
719.932	44327.97
720.275	44142.67
720.617	44158.03
720.96	44071.71
721.303	44001.88
721.646	44121.2
721.989	43718.5
722.331	43837.82
722.674	43795.56
723.016	43824.26
723.359	43716.24
723.701	43620.87
724.044	43413.87
724.386	43325.74
724.729	43490.93
725.071	43261.33
725.413	43201.45
725.755	43231.05
726.097	42972.3
726.439	42791.29
726.782	42855.47
727.124	43043.03
727.465	42786.54
727.807	42644.85
728.149	42653.44
728.491	42591.97
728.833	42716.94
729.175	42509.49
729.516	42423.62
729.858	42298.2
730.199	42345.43
730.541	42092.55
730.882	42022.95
731.224	42152.44
731.565	41931.2
731.906	41961.48
732.248	42070.63
732.589	41673.35
732.93	41586.8
733.271	41629.74
733.612	41716.29
733.953	41713.13
734.294	41402.85
734.635	41218.68
734.976	41525.11
735.317	41185.46
735.658	41149.3
735.999	41123.31
736.339	41224.1
736.68	41217.32
737.021	40853.94
737.361	40901.85
737.702	41027.72
738.042	40801.51
738.383	40766.94
738.723	40842.87
739.063	40647.62
739.404	40586.6
739.744	40491.24
740.084	40409.21
740.424	40421.63
740.764	40322.43
741.104	40469.09
741.444	40384.8
741.784	40033.4
742.124	40171.25
742.464	40040.18
742.804	39957.01
743.143	40045.37
743.483	40067.75
743.823	39766.06
744.162	39803.12
744.502	39799.28
744.841	39608.1
745.181	39841.99
745.52	39512.28
745.86	39630.92
746.199	39357.71
746.538	39276.58
746.877	39490.13
747.216	39279.07
747.556	39081.78
747.895	39002.46
748.234	38959.75
748.573	38862.13
748.911	38826.87
749.25	38774.45
749.589	38630.5
749.928	38719.31
750.267	38623.26
750.605	38610.84
750.944	38418.07
751.283	38320.22
751.621	38495.81
751.96	38163.62
752.298	38258.3
752.636	38104.86
752.975	37918.2
753.313	37729.05
753.651	37839.78
753.989	37753.46
754.327	37644.08
754.666	37572.44
755.004	37528.6
755.342	37521.82
755.679	37442.5
756.017	37201.38
756.355	37333.58
756.693	37024.21
757.031	37142.85
757.368	36915.29
757.706	36920.03
758.044	36805.68
758.381	36823.31
758.719	36628.97
759.056	36675.97
759.394	36372.02
759.731	36298.81
760.068	36123.44
760.405	35948.98
760.743	35882.55
761.08	35964.12
761.417	35780.18
761.754	35649.78
762.091	35654.98
762.428	35494.08
762.765	35340.41
763.102	35456.12
763.438	35158.95
763.775	35037.14
764.112	34913.31
764.449	34980.65
764.785	34662.92
765.122	34665.18
765.458	34372.98
765.795	34408.01
766.131	34351.74
766.467	34366.2
766.804	34080.78
767.14	33853.45
767.476	33878.3
767.812	33653.9
768.148	33744.3
768.485	33561.02
768.821	33418.2
769.157	33341.14
769.492	33201.94
769.828	33052.79
770.164	32905.67
770.5	32965.56
770.836	32815.28
771.171	32718.79
771.507	32517.66
771.842	32225.47
772.178	32335.97
772.513	32321.51
772.849	32317.22
773.184	32146.6
773.519	32108.41
773.855	31907.96
774.19	31670.23
774.525	31551.59
774.86	31556.56
775.195	31402.44
775.53	31353.17
775.865	31077.7
776.2	31028.21
776.535	30625.73
776.87	30754.77
777.205	30699.63
777.539	30612.4
777.874	30583.25
778.209	30283.37
778.543	30245.41
778.878	30096.93
779.212	30087.9
779.547	29889.48
779.881	29863.72
780.215	29438.87
780.55	29691.52
780.884	29519.1
781.218	29472.54
781.552	29460.12
781.886	29263.06
782.22	29064.42
782.554	28927.02
782.888	28735.61
783.222	28742.17
783.556	28546.69
783.889	28599.8
784.223	28342.18
784.557	28296.3
784.89	28232.8
785.224	28148.74
785.557	28001.62
785.891	27943.32
786.224	27847.95
786.558	27849.54
786.891	27485.7
787.224	27266.27
787.557	27448.87
787.891	27399.15
788.224	27286.84
788.557	27244.35
788.89	27233.28
789.223	27058.6
789.556	26948.09
789.888	26781.99
790.221	26630.81
790.554	26487.09
790.887	26515.79
791.219	26371.61
791.552	26380.87
791.884	26280.09
792.217	26054.56
792.549	26102.01
792.882	25875.58
793.214	25815.24
793.546	25799.87
793.879	25665.19
794.211	25493.89
794.543	25546.09
794.875	25296.83
795.207	25461.8
795.539	25233.56
795.871	25264.29
796.203	25009.61
796.535	25015.49
796.867	24834.47
797.198	24765.78
797.53	24780.24
797.862	24583.41
798.193	24671.09
798.525	24420.47
798.856	24544.09
799.188	24216.64
799.519	24096.41
799.85	24079.47
800.182	24147.26
800.513	24139.8
800.844	23828.4
801.175	24006.02
801.506	23924.44
801.837	23865.91
802.168	23712.02
802.499	23630.66
802.83	23529.2
803.161	23385.25
803.491	23389.09
803.822	23370.56
804.153	23249.21
804.483	23068.19
804.814	23088.53
805.145	22876.11
805.475	22929.89
805.805	22839.72
806.136	22766.96
806.466	22833.17
806.796	22835.2
807.126	22608.32
807.457	22547.53
807.787	22472.73
808.117	22378.95
808.447	22217.59
808.777	22375.33
809.107	22230.02
809.436	22156.58
809.766	22274.77
810.096	22091.72
810.426	22034.77
810.755	21947.77
811.085	21918.17
811.414	21882.91
811.744	21755.91
812.073	21741.9
812.403	21738.06
812.732	21516.82
813.061	21397.73
813.39	21439.31
813.719	21303.49
814.049	21503.26
814.378	21315.24
814.707	21162.93
815.036	21210.84
815.365	21049.26
815.693	20965.42
816.022	20937.18
816.351	20838.2
816.68	20762.94
817.008	20875.26
817.337	20657.63
817.665	20651.08
817.994	20679.56
818.322	20608.37
818.651	20481.82
818.979	20375.83
819.307	20489.05
819.636	20440.01
819.964	20160.92
820.292	20279.11
820.62	20342.61
820.948	20200.25
821.276	20288.6
821.604	20207.25
821.932	20243.18
822.259	20233.69
822.587	20216.29
822.915	20194.37
823.243	20251.09
823.57	20192.11
823.898	20111.21
824.225	20094.03
824.553	20143.98
824.88	20247.48
825.207	20208.83
825.535	20059.23
825.862	20212.67
826.189	20106.24
826.516	20226.01
826.843	20225.78
827.17	20251.09
827.497	20144.88
827.824	20148.5
828.151	20215.16
828.478	20078.67
828.805	20073.02
829.131	20057.88
829.458	19996.18
829.785	19904.66
830.111	19925
830.438	20049.52
830.764	20042.74
831.09	20099.46
831.417	19884.55
831.743	20065.33
832.069	19987.6
832.395	19991.44
832.722	19987.14
833.048	19799.8
833.374	19932.23
833.7	19851.78
834.026	19888.39
834.351	19827.15
834.677	19866.92
835.003	19906.92
835.329	19736.3
835.654	19842.06
835.98	19703.99
836.306	19699.92
836.631	19686.13
836.956	19645.46
837.282	19777.21
837.607	19606.36
837.932	19627.38
838.258	19584.67
838.583	19591
838.908	19396.2
839.233	19390.55
839.558	19415.41
839.883	19294.96
840.208	19303.32
840.533	19267.84
840.858	19231.91
841.182	19225.36
841.507	19262.19
841.832	19189.42
842.156	19123.21
842.481	19059.48
842.805	18988.07
843.13	19001.18
843.454	18837.34
843.778	18798.25
844.103	18831.47
844.427	18708.31
844.751	18779.49
845.075	18711.92
845.399	18607.07
845.723	18589.44
846.047	18546.73
846.371	18458.14
846.695	18379.95
847.019	18292.95
847.343	18172.73
847.666	17952.85
847.99	18032.39
848.313	17920.31
848.637	17913.07
848.96	17817.03
849.284	17762.8
849.607	17654.1
849.931	17696.58
850.254	17608.22
850.577	17316.93
850.9	17260.66
851.223	17321
851.546	17146.99
851.869	17182.7
852.192	17192.64
852.515	17100.67
852.838	16979.31
853.161	17003.72
853.483	16846.89
853.806	16743.39
854.129	16794.91
854.451	16643.05
854.774	16601.24
855.096	16491.19
855.419	16499.33
855.741	16429.05
856.063	16439.21
856.385	16384.07
856.708	16258.65
857.03	16235.38
857.352	16258.65
857.674	16169.62
857.996	16079.9
858.318	15956.06
858.64	16045.78
858.961	15913.13
859.283	15927.82
859.605	15771.66
859.926	15854.6
860.248	15756.52
860.57	15708.84
860.891	15711.32
861.212	15709.97
861.534	15584.32
861.855	15519.46
862.176	15564.89
862.498	15509.3
862.819	15531.44
863.14	15471.33
863.461	15405.8
863.782	15348.85
864.103	15432.46
864.424	15309.3
864.745	15399.92
865.065	15213.26
865.386	15202.19
865.707	15265.69
866.027	15266.14
866.348	15177.78
866.668	15243.31
866.989	15152.02
867.309	15107.05
867.63	15004.45
867.95	15027.05
868.27	14968.74
868.59	15076.99
868.91	14996.09
869.23	15002.64
869.55	14809.65
869.87	14931.46
870.19	14884.23
870.51	14825.92
870.83	14838.58
871.15	14707.51
871.469	14682.88
871.789	14678.13
872.109	14622.99
872.428	14653.27
872.748	14690.33
873.067	14625.7
873.386	14590.45
873.706	14592.94
874.025	14502.09
874.344	14535.08
874.663	14517.91
874.982	14454.63
875.301	14501.86
875.62	14419.38
875.939	14315.88
876.258	14467.52
876.577	14356.11
876.896	14378.93
877.214	14316.56
877.533	14303.45
877.852	14288.31
878.17	14198.6
878.489	14256.67
878.807	14232.94
879.125	14129.44
879.444	14145.04
879.762	14139.39
880.08	14009.22
880.398	14011.93
880.716	14047.41
881.034	14056
881.352	13978.26
881.67	13951.37
881.988	14002.89
882.306	13846.74
882.624	13921.09
882.941	13817.59
883.259	13678.38
883.577	13706.86
883.894	13710.7
884.212	13731.72
884.529	13602.23
884.846	13561.1
885.164	13557.71
885.481	13493.76
885.798	13488.78
886.115	13408.56
886.432	13426.19
886.75	13369.69
887.067	13394.55
887.383	13344.61
887.7	13394.77
888.017	13219.41
888.334	13270.03
888.651	13235.68
888.967	13228.9
889.284	13174.89
889.6	13083.6
889.917	13101.68
890.233	12969.48
890.55	12984.16
890.866	12952.3
891.182	12927.22
891.498	12882.7
891.815	12908.23
892.131	12797.95
892.447	12718.41
892.763	12683.61
893.079	12711.63
893.395	12588.92
893.71	12594.8
894.026	12573.33
894.342	12532.88
894.657	12485.87
894.973	12480.9
895.289	12391.64
895.604	12385.76
895.92	12291.75
896.235	12274.8
896.55	12232.32
896.865	12216.05
897.181	12193
897.496	12181.47
897.811	12101.25
898.126	12117.97
898.441	12071.87
898.756	11980.57
899.071	11875.49
899.386	11961.59
899.7	11786
900.015	11808.6
900.33	11675.95
900.644	11681.83
900.959	11767.47
901.273	11731.77
901.588	11535.16
901.902	11573.81
902.216	11486.58
902.531	11473.92
902.845	11358.22
903.159	11289.07
903.473	11272.34
903.787	11285.45
904.101	11142.86
904.415	11194.61
904.729	11099.02
905.042	10996.87
905.356	11029.19
905.67	11050.2
905.984	10951.45
906.297	11035.29
906.611	10939.25
906.924	10868.97
907.237	10897.89
907.551	10732.25
907.864	10807.5
908.177	10724.11
908.491	10711
908.804	10619.71
909.117	10512.59
909.43	10495.87
909.743	10484.34
910.056	10427.85
910.368	10411.12
910.681	10336.1
910.994	10300.17
911.307	10275.53
911.619	10169.55
911.932	10242.09
912.244	10189.21
912.557	10051.36
912.869	10049.33
913.181	10015.88
913.494	9985.15
913.806	9903.34
914.118	9883.23
914.43	9837.58
914.742	9828.54
915.054	9777.24
915.366	9701.54
915.678	9726.62
915.99	9692.5
916.302	9561.43
916.613	9520.98
916.925	9525.95
917.236	9485.73
917.548	9480.08
917.859	9412.05
918.171	9405.95
918.482	9330.7
918.794	9285.96
919.105	9253.19
919.416	9178.84
919.727	9199.18
920.038	9139.97
920.349	9004.38
920.66	9085.96
920.971	9049.58
921.282	8942.01
921.593	8882.8
921.903	8911.28
922.214	8855.01
922.525	8784.27
922.835	8776.14
923.146	8728.46
923.456	8716.71
923.767	8673.54
924.077	8678.51
924.387	8592.19
924.697	8496.6
925.008	8520.33
925.318	8428.58
925.628	8459.54
925.938	8443.72
926.248	8316.26
926.558	8263.84
926.867	8331.86
927.177	8233.55
927.487	8234.23
927.796	8122.37
928.106	8121.92
928.416	8116.27
928.725	8102.94
929.034	8102.26
929.344	8081.24
929.653	8036.5
929.962	7900
930.271	7892.55
930.581	7839.44
930.89	7829.27
931.199	7762.38
931.508	7801.25
931.817	7758.54
932.125	7722.38
932.434	7731.87
932.743	7592.44
933.051	7555.83
933.36	7533.91
933.669	7424.76
933.977	7463.41
934.286	7449.17
934.594	7438.32
934.902	7355.84
935.21	7348.61
935.519	7309.74
935.827	7287.36
936.135	7245.33
936.443	7172.79
936.751	7131.44
937.059	7109.29
937.367	7084.66
937.674	7114.71
937.982	7139.8
938.29	7021.16
938.597	7050.53
938.905	6956.98
939.213	6956.98
939.52	6914.49
939.827	6947.03
940.135	6873.59
940.442	6804.44
940.749	6799.69
941.056	6825.46
941.363	6691.9
941.67	6691.9
941.977	6712.92
942.284	6663.2
942.591	6677.66
942.898	6574.16
943.205	6567.16
943.511	6529.64
943.818	6499.36
944.125	6429.31
944.431	6435.18
944.738	6400.61
945.044	6380.27
945.35	6384.56
945.657	6348.63
945.963	6313.61
946.269	6294.62
946.575	6251.23
946.881	6239.71
947.187	6227.96
947.493	6150.45
947.799	6152.48
948.105	6191.12
948.41	6022.77
948.716	6117
949.022	6030.45
949.327	6029.09
949.633	5942.54
949.938	5897.57
950.244	5915.2
950.549	5907.06
950.854	5818.25
951.16	5832.26
951.465	5821.19
951.77	5738.93
952.075	5708.88
952.38	5781.64
952.685	5719.5
952.99	5688.99
953.294	5619.16
953.599	5613.74
953.904	5567.64
954.209	5529.9
954.513	5528.54
954.818	5528.32
955.122	5493.06
955.426	5493.06
955.731	5437.92
956.035	5409.22
956.339	5391.14
956.643	5417.36
956.948	5331.94
957.252	5347.98
957.556	5285.61
957.86	5320.41
958.163	5297.59
958.467	5202.45
958.771	5241.54
959.075	5283.8
959.378	5202.22
959.682	5143.92
959.985	5188.44
960.289	5081.1
960.592	5100.76
960.896	5078.16
961.199	5066.86
961.502	5045.84
961.805	4984.6
962.108	4968.78
962.411	4935.56
962.714	4888.78
963.017	4896.47
963.32	4915
963.623	4893.98
963.926	4891.04
964.228	4831.84
964.531	4806.53
964.833	4876.13
965.136	4806.3
965.438	4750.48
965.741	4731.05
966.043	4750.93
966.345	4697.38
966.648	4696.47
966.95	4649.47
967.252	4581.45
967.554	4616.02
967.856	4593.2
968.158	4507.32
968.46	4519.3
968.761	4550.94
969.063	4505.74
969.365	4540.09
969.666	4503.03
969.968	4453.54
970.269	4397.5
970.571	4413.09
970.872	4395.46
971.174	4331.51
971.475	4327.67
971.776	4313.88
972.077	4300.55
972.378	4291.51
972.679	4277.27
972.98	4264.17
973.281	4224.39
973.582	4215.81
973.883	4223.94
974.183	4197.05
974.484	4152.98
974.785	4167.67
975.085	4110.73
975.386	4090.16
975.686	4052.65
975.986	4044.29
976.287	4032.54
976.587	3987.11
976.887	4030.5
977.187	3994.57
977.487	3931.52
977.787	3938.07
978.087	3926.32
978.387	3878.64
978.687	3878.19
978.987	3858.08
979.286	3833.22
979.586	3797.29
979.885	3802.71
980.185	3795.71
980.484	3822.37
980.784	3767.46
981.083	3753.22
981.382	3734.92
981.682	3688.59
981.981	3716.61
982.28	3725.88
982.579	3648.82
982.878	3651.3
983.177	3634.81
983.475	3657.18
983.774	3608.14
984.073	3600.46
984.372	3571.76
984.67	3566.11
984.969	3523.17
985.267	3530.63
985.566	3460.35
985.864	3459.22
986.162	3483.85
986.461	3469.61
986.759	3444.08
987.057	3385.55
987.355	3411.53
987.653	3393.46
987.951	3395.04
988.249	3368.37
988.547	3336.06
988.844	3317.98
989.142	3309.84
989.44	3323.63
989.737	3294.7
990.035	3282.95
990.332	3247.7
990.63	3253.35
990.927	3218.09
991.224	3204.53
991.521	3180.58
991.819	3205.89
992.116	3185.55
992.413	3153.24
992.71	3117.98
993.006	3116.63
993.303	3097.19
993.6	3131.09
993.897	3040.24
994.193	3048.61
994.49	3026.46
994.787	3015.84
995.083	3036.4
995.379	2998.66
995.676	2936.74
995.972	2963.86
996.268	2921.83
996.565	2932.23
996.861	2894.94
997.157	2884.77
997.453	2837.76
997.749	2854.49
998.044	2834.83
998.34	2823.08
998.636	2829.85
998.932	2769.52
999.227	2754.6
999.523	2762.29
999.818	2773.36
1000.114	2750.31
1000.409	2731.33
1000.704	2722.51
1001	2664.66
1001.295	2673.02
1001.59	2704.66
1001.885	2657.43
1002.18	2617.88
1002.475	2598.22
1002.77	2612.46
1003.065	2615.62
1003.359	2584.66
1003.654	2579.01
1003.949	2525.23
1004.243	2519.58
1004.538	2504.21
1004.832	2523.2
1005.127	2554.38
1005.421	2478.9
1005.715	2467.15
1006.009	2451.33
1006.304	2463.08
1006.598	2405.23
1006.892	2387.15
1007.186	2395.74
1007.48	2393.03
1007.773	2387.83
1008.067	2347.38
1008.361	2326.37
1008.655	2327.72
1008.948	2303.09
1009.242	2315.74
1009.535	2311
1009.829	2283.88
1010.122	2267.61
1010.415	2226.03
1010.708	2231.45
1011.001	2230.77
1011.295	2216.31
1011.588	2220.15
1011.881	2155.07
1012.173	2143.77
1012.466	2136.09
1012.759	2136.09
1013.052	2148.29
1013.344	2151.91
1013.637	2097.22
1013.93	2089.54
1014.222	2080.72
1014.514	2053.38
1014.807	2057.22
1015.099	2016.32
1015.391	2030.33
1015.683	2045.92
1015.976	2024
1016.268	1996.66
1016.56	1968.18
1016.851	1969.31
1017.143	1946.26
1017.435	1941.97
1017.727	1954.17
1018.018	1873.04
1018.31	1915.75
1018.602	1886.83
1018.893	1889.31
1019.185	1848.64
1019.476	1814.29
1019.767	1844.57
1020.058	1840.05
1020.35	1814.29
1020.641	1806.83
1020.932	1774.06
1021.223	1789.2
1021.514	1795.98
1021.804	1740.62
1022.095	1736.55
1022.386	1727.96
1022.677	1691.58
1022.967	1705.82
1023.258	1697.23
1023.548	1671.69
1023.839	1688.19
1024.129	1681.18
1024.419	1625.37
1024.709	1605.93
1025	1615.88
1025.29	1628.08
1025.58	1621.98
1025.87	1593.05
1026.16	1572.94
1026.449	1540.85
1026.739	1539.95
1027.029	1568.19
1027.319	1560.28
1027.608	1545.14
1027.898	1532.26
1028.187	1517.35
1028.477	1490
1028.766	1473.28
1029.055	1482.77
1029.344	1461.76
1029.634	1463.11
1029.923	1425.15
1030.212	1432.38
1030.501	1405.03
1030.79	1402.77
1031.078	1386.28
1031.367	1379.27
1031.656	1373.62
1031.945	1393.73
1032.233	1349.44
1032.522	1335.66
1032.81	1341.76
1033.099	1333.62
1033.387	1310.57
1033.675	1330.69
1033.963	1320.52
1034.251	1297.92
1034.54	1285.04
1034.828	1277.35
1035.116	1276.22
1035.403	1248.65
1035.691	1256.34
1035.979	1228.77
1036.267	1217.92
1036.554	1245.72
1036.842	1225.6
1037.129	1225.15
1037.417	1188.32
1037.704	1197.36
1037.992	1195.77
1038.279	1184.93
1038.566	1171.14
1038.853	1171.14
1039.14	1171.14
