Data from plate_ceramic_FLMS001491_017.txt Node
Date: Tue Feb 07 11:16:23 GMT 2017
User: dcchb
Spectrometer: FLMS00149
Trigger mode: 0
Integration Time (sec): 2.000000E-2
Scans to average: 10
Electric dark correction enabled: true
Nonlinearity correction enabled: false
Boxcar width: 0
XAxis mode: Wavelengths
Number of Pixels in Spectrum: 2048
>>>>>Begin Spectral Data<<<<<
341.393	-11.2
341.776	-11.2
342.16	-11.2
342.543	-57.3
342.927	-78.32
343.31	-73.57
343.693	-56.4
344.077	-65.89
344.46	-59.79
344.843	-52.78
345.226	-43.97
345.61	-23.86
345.993	-13.01
346.376	14.56
346.759	3.26
347.142	38.29
347.525	37.39
347.908	59.53
348.291	51.17
348.674	81.45
349.057	103.6
349.44	119.87
349.823	163.48
350.206	170.72
350.588	223.6
350.971	238.96
351.354	252.07
351.737	261.56
352.119	258.85
352.502	288.9
352.884	280.32
353.267	321.67
353.65	308.79
354.032	336.36
354.414	330.26
354.797	338.62
355.179	341.11
355.562	316.02
355.944	346.3
356.326	363.48
356.709	342.24
357.091	358.06
357.473	359.41
357.855	354.67
358.238	366.19
358.62	383.37
359.002	383.37
359.384	366.42
359.766	380.88
360.148	365.06
360.53	368.68
360.912	360.77
361.294	380.65
361.676	369.13
362.057	371.39
362.439	356.02
362.821	346.53
363.203	354.21
363.584	355.34
363.966	358.96
364.348	365.96
364.729	358.51
365.111	386.76
365.493	373.65
365.874	346.53
366.256	344.04
366.637	352.41
367.019	363.25
367.4	368
367.781	358.51
368.163	353.54
368.544	362.12
368.925	362.8
369.306	373.87
369.688	363.03
370.069	366.42
370.45	376.59
370.831	372.52
371.212	373.2
371.593	374.1
371.974	366.64
372.355	359.86
372.736	388.11
373.117	371.39
373.498	382.01
373.879	364.16
374.26	368
374.641	380.2
375.021	379.52
375.402	406.64
375.783	397.6
376.163	393.76
376.544	415.91
376.925	392.63
377.305	399.64
377.686	404.38
378.066	394.44
378.447	388.11
378.827	421.1
379.208	410.71
379.588	399.86
379.968	417.26
380.349	442.8
380.729	420.43
381.109	405.74
381.489	431.27
381.87	426.08
382.25	440.54
382.63	422.23
383.01	439.18
383.39	462.23
383.77	457.04
384.15	449.8
384.53	443.03
384.91	463.82
385.29	450.93
385.67	471.72
386.049	456.13
386.429	479.86
386.809	472.85
387.189	497.94
387.568	478.5
387.948	492.52
388.328	515.34
388.707	523.25
389.087	518.96
389.466	528.45
389.846	506.75
390.225	530.71
390.605	530.03
390.984	538.62
391.363	513.76
391.743	548.56
392.122	551.72
392.501	551.5
392.881	540.65
393.26	575.22
393.639	577.26
394.018	566.86
394.397	563.93
394.776	580.2
395.155	590.82
395.534	587.2
395.913	593.76
396.292	628.33
396.671	610.25
397.05	633.53
397.429	617.03
397.808	610.93
398.186	607.09
398.565	638.5
398.944	623.36
399.323	622.91
399.701	654.54
400.08	668.78
400.458	662.45
400.837	667.2
401.215	673.53
401.594	679.18
401.972	686.41
402.351	675.56
402.729	700.42
403.107	694.77
403.486	726.63
403.864	701.55
404.242	733.41
404.62	716.24
404.999	738.38
405.377	737.03
405.755	737.48
406.133	784.26
406.511	766.63
406.889	804.15
407.267	784.71
407.645	825.61
408.023	820.42
408.401	817.25
408.779	834.43
409.156	849.57
409.534	846.18
409.912	870.81
410.29	879.62
410.667	873.75
411.045	904.71
411.422	888.21
411.8	897.48
412.178	910.81
412.555	948.77
412.933	925.05
413.31	979.96
413.687	972.05
414.065	971.6
414.442	984.93
414.819	1003.01
415.197	1022.9
415.574	1047.53
415.951	1039.62
416.328	1052.05
416.705	1050.24
417.082	1059.96
417.46	1070.81
417.837	1094.99
418.214	1124.59
418.591	1116.91
418.967	1104.48
419.344	1123.01
419.721	1147.87
420.098	1162.1
420.475	1186.06
420.852	1183.12
421.228	1195.77
421.605	1210.24
421.982	1247.52
422.358	1226.06
422.735	1201.65
423.111	1243.91
423.488	1270.12
423.864	1296.34
424.241	1299.27
424.617	1324.36
424.994	1347.18
425.37	1326.39
425.746	1370.91
426.123	1376.56
426.499	1364.36
426.875	1370.23
427.251	1444.35
427.627	1447.29
428.003	1474.86
428.379	1489.33
428.756	1494.3
429.132	1532.04
429.507	1543.56
429.883	1557.12
430.259	1547.18
430.635	1590.34
431.011	1590.34
431.387	1629.66
431.763	1657
432.138	1649.77
432.514	1666.04
432.89	1708.75
433.265	1750.11
433.641	1771.13
434.016	1769.77
434.392	1824.01
434.767	1849.32
435.143	1849.54
435.518	1849.32
435.894	1873.04
436.269	1895.64
436.644	1938.58
437.02	1919.82
437.395	1954.85
437.77	1962.31
438.145	2017.45
438.52	2052.47
438.895	2056.09
439.271	2077.33
439.646	2102.64
440.021	2108.52
440.395	2115.75
440.77	2127.5
441.145	2170.89
441.52	2194.17
441.895	2175.41
442.27	2196.43
442.645	2221.06
443.019	2229.87
443.394	2250.44
443.769	2267.84
444.143	2288.4
444.518	2316.65
444.892	2287.04
445.267	2304.22
445.641	2332.92
446.016	2347.61
446.39	2393.03
446.764	2435.06
447.139	2421.28
447.513	2480.94
447.887	2475.29
448.262	2460.37
448.636	2499.69
449.01	2536.3
449.384	2548.96
449.758	2544.66
450.132	2596.87
450.506	2624.66
450.88	2621.5
451.254	2633.25
451.628	2693.81
452.002	2668.5
452.376	2763.87
452.75	2765.68
453.123	2768.39
453.497	2820.14
453.871	2896.07
454.244	2883.86
454.618	2922.06
454.992	2972
455.365	2989.62
455.739	3045.89
456.112	3058.78
456.486	3079.79
456.859	3107.81
457.232	3170.86
457.606	3178.55
457.979	3216.74
458.352	3304.19
458.725	3346.9
459.099	3348.94
459.472	3447.69
459.845	3473.68
460.218	3527.46
460.591	3522.04
460.964	3525.2
461.337	3660.79
461.71	3694.47
462.083	3758.19
462.456	3730.17
462.829	3718.42
463.201	3864.63
463.574	3917.96
463.947	3907.57
464.32	4013.33
464.692	4012.2
465.065	4062.14
465.438	4107.34
465.81	4177.62
466.183	4229.37
466.555	4328.35
466.928	4357.05
467.3	4343.49
467.672	4453.77
468.045	4498.51
468.417	4540.32
468.789	4588.45
469.161	4633.88
469.534	4760.43
469.906	4861.44
470.278	4851.95
470.65	4901.21
471.022	5041.55
471.394	5075.22
471.766	5172.39
472.138	5194.09
472.51	5396.34
472.882	5419.17
473.253	5457.36
473.625	5562.21
473.997	5678.37
474.369	5714.07
474.74	5797.69
475.112	5931.47
475.484	5966.5
475.855	6072.71
476.227	6092.37
476.598	6351.12
476.97	6345.92
477.341	6460.04
477.713	6602.19
478.084	6612.58
478.455	6785.91
478.827	6892.57
479.198	7124.43
479.569	7147.71
479.94	7327.59
480.311	7339.57
480.682	7509.05
481.053	7768.71
481.424	7828.14
481.795	7982.94
482.166	8077.63
482.537	8179.09
482.908	8328.69
483.279	8405.98
483.65	8579.76
484.021	8753.32
484.391	8859.75
484.762	8923.03
485.133	9035.79
485.503	9124.83
485.874	9372.51
486.244	9449.12
486.615	9676.45
486.985	9695.66
487.356	9908.99
487.726	9998.48
488.097	10214.97
488.467	10322.31
488.837	10496.55
489.207	10613.38
489.578	10761.17
489.948	10820.15
490.318	10970.66
490.688	11069.64
491.058	11259.69
491.428	11413.13
491.798	11532
492.168	11735.38
492.538	11802.95
492.908	11907.13
493.278	12009.5
493.648	12100.12
494.017	12317.97
494.387	12430.96
494.757	12517.74
495.126	12654.46
495.496	12648.81
495.866	12815.13
496.235	12948.68
496.605	13061
496.974	13161.11
497.344	13225.97
497.713	13383.02
498.082	13479.74
498.452	13654.43
498.821	13783.24
499.19	13816.68
499.559	13949.34
499.928	14058.26
500.298	14177.81
500.667	14270.46
501.036	14276.56
501.405	14402.88
501.774	14447.63
502.143	14634.06
502.512	14663.22
502.88	14844.23
503.249	14881.52
503.618	15028.63
503.987	15076.54
504.356	15230.21
504.724	15203.09
505.093	15374.16
505.462	15490.77
505.83	15536.41
506.199	15706.58
506.567	15896.86
506.936	15938.21
507.304	16174.14
507.672	16194.93
508.041	16274.47
508.409	16430.18
508.777	16561.92
509.145	16662.03
509.514	16707.68
509.882	16785.87
510.25	16908.35
510.618	17055.7
510.986	17213.66
511.354	17369.59
511.722	17432.41
512.09	17610.71
512.458	17638.05
512.826	17769.8
513.193	17959.85
513.561	18023.58
513.929	18147.42
514.297	18354.42
514.664	18431.7
515.032	18589.67
515.4	18761.19
515.767	18930.22
516.135	18940.84
516.502	18897.23
516.869	19292.02
517.237	19372.7
517.604	19307.39
517.972	19612.69
518.339	19741.27
518.706	19683.42
519.073	19908.28
519.44	20212.45
519.808	20308.27
520.175	20341.71
520.542	20690.85
520.909	20790.51
521.276	20727.69
521.643	21053.33
522.009	21158.86
522.376	21356.15
522.743	21482.7
523.11	21694.44
523.477	21936.92
523.843	22039.97
524.21	22244.71
524.577	22475.67
524.943	22558.6
525.31	22701.87
525.676	22882.21
526.043	23095.54
526.409	23209.88
526.776	23469.54
527.142	23476.77
527.508	23778.46
527.874	23806.48
528.241	24024.55
528.607	24062.74
528.973	24373.92
529.339	24222.51
529.705	24529.4
530.071	24759.9
530.437	25071.53
530.803	25172.09
531.169	25332.99
531.535	25296.83
531.901	25317.63
532.267	25465.64
532.632	25649.37
532.998	25932.07
533.364	26000.32
533.73	26146.3
534.095	26378.39
534.461	26488.67
534.826	26547.2
535.192	26705.84
535.557	26785.16
535.923	26749.68
536.288	27056.79
536.653	27134.98
537.019	27199.38
537.384	27249.33
537.749	27517.12
538.114	27508.75
538.479	27556.44
538.845	27711.23
539.21	27793.04
539.575	27935.64
539.94	27994.62
540.305	28224.89
540.67	28116.2
541.034	28481.61
541.399	28421.27
541.764	28464.89
542.129	28693.13
542.494	28611.32
542.858	28879.57
543.223	28864.42
543.587	29131.76
543.952	29244.3
544.316	29318.65
544.681	29400.68
545.045	29573.33
545.41	29573.78
545.774	29746.66
546.138	29758.41
546.503	29886.77
546.867	29849.26
547.231	30100.78
547.595	30164.05
547.959	30234.11
548.324	30312.07
548.688	30420.54
549.052	30502.8
549.416	30768.1
549.779	30711.61
550.143	30926.07
550.507	31098.94
550.871	31195.21
551.235	31167.87
551.599	31547.29
551.962	31506.84
552.326	31707.97
552.689	31865.25
553.053	31797.91
553.417	31904.8
553.78	32331.9
554.143	32180.5
554.507	32324.67
554.87	32487.61
555.234	32792.01
555.597	32615.29
555.96	33006.24
556.323	33074.03
556.686	33071.32
557.05	33328.94
557.413	33548.82
557.776	33578.2
558.139	33786.78
558.502	33942.94
558.865	33951.52
559.228	34174.79
559.59	34218.63
559.953	34350.83
560.316	34794.89
560.679	34825.4
561.041	35020.42
561.404	35140.87
561.767	35356.01
562.129	35311.26
562.492	35634.64
562.854	35770.91
563.217	35856.11
563.579	36031.92
563.941	36234.63
564.304	36430.55
564.666	36570.21
565.028	36763.2
565.39	36840.71
565.753	37088.39
566.115	37211.55
566.477	37251.32
566.839	37337.65
567.201	37679.11
567.563	37670.29
567.925	37833.23
568.287	37918.88
568.648	38122.94
569.01	38150.51
569.372	38337.17
569.734	38421.01
570.095	38725.41
570.457	38908.91
570.819	38992.29
571.18	38911.17
571.542	39185.74
571.903	39333.98
572.265	39445.62
572.626	39482.68
572.987	39586.85
573.349	39818.71
573.71	39893.29
574.071	39930.12
574.432	40018.48
574.794	40365.14
575.155	40349.32
575.516	40211.24
575.877	40550.9
576.238	40602.42
576.599	40686.94
576.96	40806.03
577.32	40828.86
577.681	40937.78
578.042	41161.73
578.403	41060.49
578.763	41168.51
579.124	41157.66
579.485	41385.68
579.845	41409.41
580.206	41535.73
580.566	41466.81
580.927	41465.22
581.287	41528.95
581.648	41582.73
582.008	41667.25
582.368	41586.58
582.728	41593.81
583.089	41613.47
583.449	41570.08
583.809	41752.45
584.169	41775.05
584.529	41598.1
584.889	42143.62
585.249	41761.94
585.609	41622.28
585.969	41916.51
586.329	41808.72
586.688	41994.47
587.048	41935.95
587.408	42034.7
587.768	42016.85
588.127	41920.35
588.487	41879.22
588.846	42203.28
589.206	42057.07
589.565	41858.43
589.925	42147.47
590.284	41968.26
590.643	42272.43
591.003	42208.48
591.362	42352.43
591.721	42238.31
592.08	42046.45
592.44	42337.29
592.799	42290.06
593.158	42439.43
593.517	42345.65
593.876	42325.31
594.235	42347.46
594.593	42404.86
594.952	42427.23
595.311	42284.41
595.67	42413.9
596.029	42605.53
596.387	42718.3
596.746	42603.72
597.104	42386.78
597.463	42501.35
597.822	42695.93
598.18	42586.55
598.538	42531.18
598.897	42895.47
599.255	42430.4
599.613	43039.42
599.972	42789.93
600.33	42977.95
600.688	42755.13
601.046	42877.62
601.404	43030.38
601.762	43012.98
602.12	43231.5
602.478	43198.74
602.836	43147.89
603.194	42974.79
603.552	42965.52
603.91	42996.48
604.268	43332.52
604.625	43129.59
604.983	43305.4
605.341	43220.43
605.698	43442.35
606.056	43535
606.413	43314.44
606.771	43580.42
607.128	43592.62
607.485	43428.11
607.843	43478.28
608.2	43704.71
608.557	43824.71
608.914	43649.8
609.272	43845.95
609.629	43916.23
609.986	44038.94
610.343	43833.52
610.7	44148.09
611.057	44019.96
611.414	44058.83
611.771	44107.19
612.127	44286.84
612.484	44387.41
612.841	44442.32
613.198	44197.58
613.554	44240.97
613.911	44395.99
614.267	44509.89
614.624	44506.5
614.98	44581.98
615.337	44771.35
615.693	44760.28
616.05	44665.82
616.406	44899.71
616.762	44717.12
617.118	44737.45
617.475	44803.89
617.831	44801.86
618.187	44971.12
618.543	44941.06
618.899	45097.9
619.255	45094.51
619.611	44920.5
619.967	45188.06
620.323	45224.45
620.678	44979.26
621.034	44993.72
621.39	45109.65
621.746	45079.59
622.101	45508.73
622.457	45182.19
622.812	45279.36
623.168	45379.24
623.523	45275.29
623.879	45423.54
624.234	45275.97
624.589	45265.35
624.945	45241.85
625.3	45247.95
625.655	45252.24
626.01	45302.64
626.365	45337.66
626.72	45191.45
627.075	45305.8
627.43	45156.88
627.785	45105.35
628.14	45172.7
628.495	45261.06
628.85	45108.29
629.205	44963.21
629.559	45240.72
629.914	44943.55
630.269	45063.32
630.623	44882.31
630.978	44816.1
631.332	44884.57
631.687	45101.51
632.041	44902.42
632.396	44873.72
632.75	44757.11
633.104	44739.04
633.459	44491.81
633.813	44660.17
634.167	44649.77
634.521	44552.6
634.875	44672.6
635.229	44534.75
635.583	44181.08
635.937	44292.27
636.291	44411.59
636.645	44277.35
636.999	44173.4
637.352	44173.63
637.706	44181.08
638.06	44230.8
638.413	44076.45
638.767	43990.58
639.121	44067.64
639.474	43684.6
639.828	43726.18
640.181	43869
640.534	43844.6
640.888	43709.68
641.241	43538.62
641.594	43621.55
641.947	43747.65
642.301	43613.42
642.654	43645.5
643.007	43636.92
643.36	43555.79
643.713	43491.38
644.066	43632.85
644.419	43233.09
644.771	42966.43
645.124	42696.83
645.477	42546.1
645.83	42384.3
646.182	42125.32
646.535	42022.04
646.888	42146.56
647.24	41892.1
647.593	42224.3
647.945	42113.79
648.298	41904.76
648.65	41887.36
649.002	41755.61
649.355	41867.47
649.707	41832.45
650.059	41796.06
650.411	42357.18
650.763	42326.44
651.115	42699.09
651.467	42579.09
651.819	42523.05
652.171	42403.73
652.523	42339.78
652.875	42485.54
653.227	42252.32
653.578	42425.88
653.93	42324.86
654.282	42292.77
654.633	42082.38
654.985	42126.22
655.337	42143.62
655.688	42232.66
656.039	42176.84
656.391	41776.63
656.742	41973.68
657.094	41851.65
657.445	42063.63
657.796	41947.02
658.147	41859.34
658.498	41837.42
658.849	41882.16
659.2	41799
659.551	41832.9
659.902	41907.25
660.253	41975.94
660.604	41802.62
660.955	41680.58
661.306	41882.84
661.656	41702.51
662.007	41537.09
662.358	41512.91
662.708	41645.11
663.059	41573.47
663.409	41257.77
663.76	41462.29
664.11	41457.77
664.461	41536.41
664.811	41510.87
665.161	41518.33
665.511	41540.02
665.862	41478.56
666.212	41557.88
666.562	41531.21
666.912	41504.54
667.262	41569.85
667.612	41280.37
667.962	41529.4
668.312	41389.52
668.662	41483.3
669.011	41472.68
669.361	41267.71
669.711	41335.51
670.06	41231.56
670.41	41135.51
670.76	41098.68
671.109	41250.99
671.459	41331.44
671.808	40910.44
672.157	41236.53
672.507	40909.31
672.856	41000.38
673.205	41106.59
673.554	41096.42
673.904	40941.85
674.253	41159.24
674.602	41041.73
674.951	40374.18
675.3	40291.24
675.649	40788.86
675.998	40760.38
676.346	40777.11
676.695	40804
677.044	40553.61
677.393	40813.71
677.741	40758.8
678.09	40769.65
678.438	40465.7
678.787	40605.81
679.135	40605.58
679.484	40470.9
679.832	40563.33
680.181	40363.56
680.529	40467.51
680.877	40227.74
681.225	40158.82
681.573	40325.37
681.922	40063.23
682.27	40064.36
682.618	40216.22
682.966	40045.15
683.314	40047.86
683.661	39843.57
684.009	39687.42
684.357	39609
684.705	39574.2
685.053	39621.43
685.4	39600.64
685.748	39473.19
686.095	39354.77
686.443	39246.07
686.79	39003.14
687.138	39124.04
687.485	39137.83
687.832	38969.92
688.18	39200.88
688.527	38987.1
688.874	38799.3
689.221	38668.01
689.568	38638.4
689.915	38518.18
690.262	38549.59
690.609	38323.38
690.956	38370.16
691.303	38273.44
691.65	38104.41
691.997	38020.57
692.344	37871.42
692.69	37864.64
693.037	37936.28
693.383	37664.19
693.73	37606.12
694.077	37491.54
694.423	37472.79
694.769	37522.73
695.116	37409.28
695.462	37476.63
695.808	37073.7
696.155	37354.14
696.501	36974.04
696.847	36877.55
697.193	36513.04
697.539	36796.19
697.885	36515.07
698.231	36475.75
698.577	36426.26
698.923	36392.59
699.269	36217
699.614	35794.41
699.96	35888.87
700.306	36067.4
700.651	35881.19
700.997	35752.38
701.342	35628.77
701.688	35543.35
702.033	35351.94
702.379	35301.77
702.724	35233.3
703.069	35366.4
703.415	34976.35
703.76	34858.17
704.105	34911.95
704.45	34880.76
704.795	34542.69
705.14	34617.49
705.485	34570.72
705.83	34376.14
706.175	34484.16
706.52	34309.48
706.865	34172.76
707.209	34293.66
707.554	34123.95
707.899	34294.11
708.243	34050.05
708.588	34000.33
708.932	33786.78
709.277	33828.81
709.621	33665.88
709.966	33541.36
710.31	33621.14
710.654	33372.1
710.998	33448.48
711.342	33417.3
711.687	33389.05
712.031	33121.04
712.375	33054.82
712.719	33126.46
713.063	33007.37
713.407	33171.66
713.75	32914.71
714.094	32899.8
714.438	32557.66
714.782	32869.74
715.125	32616.64
715.469	32688.05
715.812	32521.96
716.156	32355.86
716.499	32311.11
716.843	32436.31
717.186	32160.84
717.53	32119.25
717.873	32267.27
718.216	32225.47
718.559	31994.29
718.902	31902.76
719.246	31923.33
719.589	31814.4
719.932	31607.18
720.275	31709.32
720.617	31683.33
720.96	31667.97
721.303	31614.63
721.646	31566.5
721.989	31399.05
722.331	31502.1
722.674	31329.44
723.016	31333.51
723.359	31268.88
723.701	31224.36
724.044	31021.88
724.386	30947.08
724.729	31010.81
725.071	30881.55
725.413	31011.03
725.755	30936.46
726.097	30762.68
726.439	30668.67
726.782	30562.46
727.124	30752.51
727.465	30645.39
727.807	30620.31
728.149	30422.58
728.491	30459.41
728.833	30477.49
729.175	30372.18
729.516	30191.17
729.858	30098.97
730.199	30284.95
730.541	30246.31
730.882	30188.91
731.224	30163.83
731.565	29985.75
731.906	30141.45
732.248	30069.36
732.589	29884.06
732.93	29753.44
733.271	29854.23
733.612	29908.69
733.953	29883.15
734.294	29607
734.635	29595.7
734.976	29722.26
735.317	29493.79
735.658	29449.04
735.999	29557.29
736.339	29461.7
736.68	29595.7
737.021	29441.58
737.361	29234.58
737.702	29369.5
738.042	29256.5
738.383	29178.31
738.723	29202.27
739.063	29118.43
739.404	29161.59
739.744	29015.16
740.084	28970.41
740.424	28972.44
740.764	29045.89
741.104	29076.4
741.444	28808.61
741.784	28720.47
742.124	28824.65
742.464	28732.22
742.804	28669.18
743.143	28602.74
743.483	28673.92
743.823	28407.26
744.162	28384.44
744.502	28474.15
744.841	28373.59
745.181	28440.03
745.52	28115.52
745.86	28253.82
746.199	28176.31
746.538	28139.92
746.877	28074.16
747.216	28096.31
747.556	27921.17
747.895	28002.07
748.234	27858.58
748.573	27809.54
748.911	27799.59
749.25	27841.4
749.589	27699.03
749.928	27594.18
750.267	27672.59
750.605	27594.63
750.944	27668.3
751.283	27520.73
751.621	27462.65
751.96	27336.1
752.298	27261.3
752.636	27263.79
752.975	27193.06
753.313	27019.28
753.651	27179.5
753.989	26984.02
754.327	26873.06
754.666	26808.21
755.004	26934.76
755.342	26819.28
755.679	26761.2
756.017	26595.78
756.355	26659.06
756.693	26353.08
757.031	26636.23
757.368	26467.2
757.706	26327.54
758.044	26253.65
758.381	26389.69
758.719	26181.33
759.056	26187.66
759.394	26087.77
759.731	26024.5
760.068	25785.41
760.405	25791.51
760.743	25634.23
761.08	25749.03
761.417	25574.12
761.754	25494.57
762.091	25542.93
762.428	25416.61
762.765	25155.37
763.102	25344.74
763.438	25251.64
763.775	25002.38
764.112	24981.81
764.449	25024.98
764.785	24747.92
765.122	24563.52
765.458	24617.76
765.795	24627.7
766.131	24536.85
766.467	24353.13
766.804	24250.53
767.14	24158.79
767.476	24241.04
767.812	24069.52
768.148	24238.11
768.485	23908.17
768.821	23883.99
769.157	23728.51
769.492	23695.07
769.828	23757.67
770.164	23444.45
770.5	23481.52
770.836	23398.13
771.171	23343.21
771.507	23340.73
771.842	23137.57
772.178	23069.55
772.513	23070.23
772.849	22900.51
773.184	22770.35
773.519	22816
773.855	22714.98
774.19	22634.53
774.525	22489
774.86	22467.53
775.195	22406.29
775.53	22331.72
775.865	22133.75
776.2	22011.27
776.535	21886.08
776.87	21860.77
777.205	21857.6
777.539	21717.95
777.874	21816.93
778.209	21500.1
778.543	21658.51
778.878	21380.33
779.212	21462.59
779.547	21435.02
779.881	21412.87
780.215	21143.05
780.55	21124.29
780.884	21099.21
781.218	21009.72
781.552	20965.42
781.886	20859.66
782.22	20767.91
782.554	20687.24
782.888	20551.2
783.222	20487.24
783.556	20341.94
783.889	20365.44
784.223	20277.76
784.557	20214.48
784.89	20110.08
785.224	19969.07
785.557	19970.42
785.891	19883.42
786.224	19823.53
786.558	19819.01
786.891	19613.59
787.224	19583.54
787.557	19552.35
787.891	19560.71
788.224	19463.32
788.557	19463.32
788.89	19355.52
789.223	19273.04
789.556	19167.73
789.888	19144
790.221	18952.82
790.554	18825.14
790.887	18801.64
791.219	18845.03
791.552	18721.41
791.884	18757.8
792.217	18569.33
792.549	18538.14
792.882	18493.85
793.214	18365.27
793.546	18289.56
793.879	18209.56
794.211	18190.58
794.543	18209.11
794.875	18167.53
795.207	18103.35
795.539	17963.24
795.871	17968.67
796.203	17791.04
796.535	17767.09
796.867	17704.27
797.198	17606.19
797.53	17662.46
797.862	17547.89
798.193	17568.45
798.525	17398.96
798.856	17364.16
799.188	17287.1
799.519	17273.09
799.85	17184.28
800.182	17182.25
800.513	17183.38
800.844	17061.57
801.175	17171.4
801.506	17072.64
801.837	16907
802.168	16940.44
802.499	16782.26
802.83	16722.6
803.161	16696.83
803.491	16577.97
803.822	16754.23
804.153	16530.06
804.483	16417.07
804.814	16458.42
805.145	16402.15
805.475	16416.39
805.805	16262.95
806.136	16401.02
806.466	16422.27
806.796	16360.8
807.126	16139.56
807.457	16111.09
807.787	16034.48
808.117	16047.13
808.447	15899.12
808.777	15942.05
809.107	15857.99
809.436	15804.2
809.766	15763.3
810.096	15674.94
810.426	15669.97
810.755	15598.56
811.085	15580.93
811.414	15624.32
811.744	15420.48
812.073	15432.01
812.403	15388.85
812.732	15255.29
813.061	15225.01
813.39	15228.17
813.719	15160.6
814.049	15191.56
814.378	15239.47
814.707	15054.62
815.036	15091.91
815.365	15038.35
815.693	14904.79
816.022	14900.5
816.351	14884.68
816.68	14766.04
817.008	14813.72
817.337	14803.55
817.665	14615.99
817.994	14693.95
818.322	14688.75
818.651	14663.44
818.979	14598.36
819.307	14575.08
819.636	14524.69
819.964	14430.91
820.292	14570.79
820.62	14429.55
820.948	14368.99
821.276	14456.44
821.604	14404.47
821.932	14457.57
822.259	14352.26
822.587	14422.54
822.915	14393.39
823.243	14424.58
823.57	14383.22
823.898	14366.95
824.225	14338.03
824.553	14293.96
824.88	14360.63
825.207	14339.83
825.535	14333.96
825.862	14413.51
826.189	14279.05
826.516	14438.59
826.843	14416.22
827.17	14378.03
827.497	14453.05
827.824	14380.29
828.151	14396.78
828.478	14331.25
828.805	14390.23
829.131	14239.05
829.458	14312.49
829.785	14159.5
830.111	14225.49
830.438	14335.32
830.764	14306.84
831.09	14354.52
831.417	14231.59
831.743	14213.96
832.069	14271.14
832.395	14182.1
832.722	14157.01
833.048	14133.74
833.374	14138.03
833.7	14079.28
834.026	14141.42
834.351	14142.78
834.677	14115.21
835.003	14077.47
835.329	14231.59
835.654	14117.24
835.98	14022.1
836.306	14017.58
836.631	13944.59
836.956	14060.29
837.282	14103.91
837.607	13998.83
837.932	13972.39
838.258	13963.57
838.583	13886.74
838.908	13851.49
839.233	13825.27
839.558	13756.57
839.883	13797.02
840.208	13738.72
840.533	13778.72
840.858	13682.68
841.182	13704.82
841.507	13757.48
841.832	13656.69
842.156	13559.52
842.481	13587.09
842.805	13578.5
843.13	13390.93
843.454	13459.63
843.778	13407.43
844.103	13421.67
844.427	13330.14
844.751	13371.72
845.075	13392.74
845.399	13353.87
845.723	13263.25
846.047	13245.4
846.371	13208.57
846.695	13091.51
847.019	13005.41
847.343	12943.04
847.666	12852.42
847.99	12914.79
848.313	12796.82
848.637	12694.23
848.96	12780.78
849.284	12679.54
849.607	12544.63
849.931	12476.38
850.254	12420.34
850.577	12419.43
850.9	12315.26
851.223	12275.71
851.546	12243.84
851.869	12180.8
852.192	12252.66
852.515	12166.11
852.838	12132.44
853.161	12038.88
853.483	11977.64
853.806	11940.8
854.129	11885.66
854.451	11941.93
854.774	11859.45
855.096	11835.72
855.419	11792.78
855.741	11774.48
856.063	11663.07
856.385	11673.46
856.708	11602.28
857.03	11552.79
857.352	11597.53
857.674	11468.95
857.996	11467.37
858.318	11363.19
858.64	11454.71
858.961	11353.02
859.283	11295.4
859.605	11243.87
859.926	11268.73
860.248	11257.88
860.57	11139.92
860.891	11229.41
861.212	11228.5
861.534	11129.07
861.855	11081.16
862.176	11165
862.498	11137.21
862.819	11182.86
863.14	11092.01
863.461	10979.92
863.782	10962.3
864.103	10990.77
864.424	10915.29
864.745	11014.72
865.065	10862.41
865.386	10858.57
865.707	10860.83
866.027	10916.2
866.348	10892.24
866.668	10904.22
866.989	10812.02
867.309	10724.11
867.63	10737.67
867.95	10757.56
868.27	10705.13
868.59	10672.59
868.91	10743.55
869.23	10676.43
869.55	10582.65
869.87	10630.55
870.19	10582.87
870.51	10615.19
870.83	10518.92
871.15	10507.62
871.469	10469.2
871.789	10482.31
872.109	10479.6
872.428	10380.39
872.748	10412.93
873.067	10433.04
873.386	10377.23
873.706	10378.81
874.025	10352.82
874.344	10344.91
874.663	10357.34
874.982	10317.12
875.301	10309.66
875.62	10253.16
875.939	10247.29
876.258	10276.44
876.577	10164.58
876.896	10172.26
877.214	10141.98
877.533	10190.79
877.852	10122.09
878.17	10160.28
878.489	10176.78
878.807	10101.3
879.125	10126.61
879.444	10101.53
879.762	10057.24
880.08	10052.04
880.398	10018.14
880.716	10033.73
881.034	9973.62
881.352	10019.27
881.67	9936.56
881.988	9982.44
882.306	9916.45
882.624	9869.22
882.941	9835.32
883.259	9795.55
883.577	9730.24
883.894	9803
884.212	9832.16
884.529	9746.51
884.846	9695.44
885.164	9734.53
885.481	9722.1
885.798	9665.16
886.115	9534.76
886.432	9584.03
886.75	9520.75
887.067	9622.67
887.383	9567.3
887.7	9594.2
888.017	9438.04
888.334	9526.63
888.651	9402.56
888.967	9452.51
889.284	9480.98
889.6	9389.91
889.917	9315.11
890.233	9287.54
890.55	9304.71
890.866	9290.25
891.182	9215.9
891.498	9254.77
891.815	9120.99
892.131	9073.53
892.447	9128.67
892.763	9063.14
893.079	9093.87
893.395	9073.31
893.71	9028.11
894.026	9027.21
894.342	8965.06
894.657	8936.81
894.973	8966.19
895.289	8842.58
895.604	8903.14
895.92	8816.82
896.235	8731.39
896.55	8726.42
896.865	8687.55
897.181	8696.14
897.496	8699.53
897.811	8680.32
898.126	8681
898.441	8643.49
898.756	8566.65
899.071	8505.41
899.386	8516.71
899.7	8434.45
900.015	8436.71
900.33	8313.1
900.644	8361.46
900.959	8358.75
901.273	8297.73
901.588	8323.72
901.902	8175.93
902.216	8205.31
902.531	8182.03
902.845	8178.41
903.159	8139.77
903.473	8127.12
903.787	8045.31
904.101	8027.23
904.415	7918.53
904.729	7932.32
905.042	7909.04
905.356	7937.29
905.67	7941.58
905.984	7868.37
906.297	7871.53
906.611	7783.4
906.924	7834.24
907.237	7789.72
907.551	7733.68
907.864	7768.48
908.177	7727.58
908.491	7650.07
908.804	7579.56
909.117	7501.82
909.43	7509.05
909.743	7438.55
910.056	7460.02
910.368	7385.67
910.681	7395.16
910.994	7399.9
911.307	7303.86
911.619	7240.81
911.932	7245.11
912.244	7277.65
912.557	7250.53
912.869	7198.78
913.181	7122.62
913.494	7152.23
913.806	7106.8
914.118	7045.56
914.43	7051.44
914.742	7072.91
915.054	6969.41
915.366	6954.72
915.678	6903.19
915.99	6929.18
916.302	6829.07
916.613	6871.56
916.925	6857.32
917.236	6816.42
917.548	6773.93
917.859	6770.32
918.171	6679.92
918.482	6686.02
918.794	6666.14
919.105	6652.35
919.416	6579.81
919.727	6567.61
920.038	6570.55
920.349	6502.98
920.66	6506.59
920.971	6507.05
921.282	6375.3
921.593	6372.59
921.903	6388.18
922.214	6329.65
922.525	6329.88
922.835	6347.28
923.146	6268.18
923.456	6238.8
923.767	6223.89
924.077	6213.04
924.387	6183.67
924.697	6102.99
925.008	6151.12
925.318	6063.22
925.628	6066.38
925.938	6099.6
926.248	5994.29
926.558	5943.22
926.867	5955.87
927.177	5888.08
927.487	5860.96
927.796	5839.49
928.106	5843.11
928.416	5723.79
928.725	5797.23
929.034	5701.87
929.344	5689.89
929.653	5721.08
929.962	5653.96
930.271	5632.49
930.581	5638.59
930.89	5598.82
931.199	5564.02
931.508	5594.98
931.817	5582.55
932.125	5559.27
932.434	5480.41
932.743	5458.26
933.051	5477.92
933.36	5442.22
933.669	5364.25
933.977	5394.53
934.286	5370.13
934.594	5369.9
934.902	5313.86
935.21	5236.12
935.519	5279.96
935.827	5276.34
936.135	5248.1
936.443	5157.48
936.751	5212.39
937.059	5150.02
937.367	5138.95
937.674	5123.35
937.982	5087.42
938.29	5059.85
938.597	5066.86
938.905	5040.87
939.213	5039.97
939.52	4969.23
939.827	5004.49
940.135	4961.32
940.442	4873.87
940.749	4917.48
941.056	4898.05
941.363	4853.3
941.67	4839.29
941.977	4832.06
942.284	4778.05
942.591	4786.19
942.898	4795
943.205	4762.23
943.511	4729.47
943.818	4719.75
944.125	4670.03
944.431	4654.21
944.738	4616.47
945.044	4563.82
945.35	4549.81
945.657	4561.56
945.963	4567.89
946.269	4570.6
946.575	4500.77
946.881	4446.31
947.187	4457.61
947.493	4461
947.799	4436.37
948.105	4400.44
948.41	4398.4
948.716	4392.98
949.022	4378.29
949.327	4370.15
949.633	4317.05
949.938	4328.35
950.244	4294.68
950.549	4312.3
950.854	4252.87
951.16	4240.44
951.465	4237.73
951.77	4231.17
952.075	4223.94
952.38	4166.77
952.685	4151.18
952.99	4151.63
953.294	4150.95
953.599	4054.91
953.904	4041.8
954.209	4030.05
954.513	4011.07
954.818	4027.11
955.122	4006.77
955.426	3956.83
955.731	3956.83
956.035	3952.99
956.339	3959.09
956.643	3937.62
956.948	3882.26
957.252	3909.15
957.556	3918.41
957.86	3854.23
958.163	3812.65
958.467	3824.41
958.771	3794.35
959.075	3757.06
959.378	3759.32
959.682	3789.15
959.985	3732.66
960.289	3715.48
960.592	3707.35
960.896	3696.72
961.199	3691.53
961.502	3640.23
961.805	3629.83
962.108	3607.01
962.411	3607.24
962.714	3603.85
963.017	3578.99
963.32	3578.31
963.623	3536.28
963.926	3551.64
964.228	3524.07
964.531	3550.97
964.833	3484.3
965.136	3445.66
965.438	3435.49
965.741	3404.53
966.043	3384.19
966.345	3446.34
966.648	3386.9
966.95	3390.52
967.252	3374.25
967.554	3354.13
967.856	3329.5
968.158	3309.84
968.46	3317.3
968.761	3274.82
969.063	3294.7
969.365	3320.24
969.666	3262.61
969.968	3236.85
970.269	3232.56
970.571	3216.29
970.872	3203.4
971.174	3213.57
971.475	3164.54
971.776	3167.02
972.077	3153.01
972.378	3124.08
972.679	3104.42
972.98	3134.25
973.281	3055.61
973.582	3103.07
973.883	3072.11
974.183	3031.88
974.484	3051.09
974.785	3043.63
975.085	2993.01
975.386	2972.9
975.686	2950.98
975.986	2959.57
976.287	2969.74
976.587	2939
976.887	2950.76
977.187	2891.77
977.487	2939.46
977.787	2861.72
978.087	2881.38
978.387	2865.56
978.687	2864.43
978.987	2805.9
979.286	2825.34
979.586	2814.04
979.885	2811.32
980.185	2780.36
980.484	2791.89
980.784	2765.22
981.083	2772.68
981.382	2766.81
981.682	2735.62
981.981	2724.77
982.28	2713.02
982.579	2675.06
982.878	2703.98
983.177	2673.47
983.475	2669.41
983.774	2622.85
984.073	2611.78
984.372	2649.29
984.67	2630.31
984.969	2611.1
985.267	2578.79
985.566	2569.75
985.864	2548.05
986.162	2542.4
986.461	2511.9
986.759	2536.98
987.057	2490.2
987.355	2533.14
987.653	2470.77
987.951	2480.49
988.249	2469.19
988.547	2465.34
988.844	2439.13
989.142	2454.95
989.44	2425.57
989.737	2404.56
990.035	2418.57
990.332	2391.9
990.63	2404.56
990.927	2419.02
991.224	2381.96
991.521	2325.01
991.819	2342.41
992.116	2318.91
992.413	2326.82
992.71	2292.47
993.006	2303.99
993.303	2266.71
993.6	2264.9
993.897	2285.91
994.193	2230.55
994.49	2263.54
994.787	2218.35
995.083	2209.53
995.379	2237.78
995.676	2182.19
995.972	2189.19
996.268	2198.46
996.565	2165.47
996.861	2164.56
997.157	2162.53
997.453	2141.29
997.749	2134.96
998.044	2128.18
998.34	2105.81
998.636	2091.34
998.932	2073.04
999.227	2068.75
999.523	2040.05
999.818	2019.71
1000.114	2034.17
1000.409	2034.62
1000.704	1993.94
1001	1985.81
1001.295	1968.41
1001.59	1986.49
1001.885	1986.26
1002.18	1997.11
1002.475	1985.81
1002.77	1927.96
1003.065	1922.99
1003.359	1925.02
1003.654	1931.8
1003.949	1928.64
1004.243	1900.16
1004.538	1891.8
1004.832	1865.36
1005.127	1872.14
1005.421	1864.23
1005.715	1867.39
1006.009	1835.53
1006.304	1847.96
1006.598	1805.7
1006.892	1811.35
1007.186	1815.87
1007.48	1792.82
1007.773	1759.15
1008.067	1780.84
1008.361	1741.75
1008.655	1745.14
1008.948	1702.2
1009.242	1732.26
1009.535	1704.23
1009.829	1702.65
1010.122	1694.07
1010.415	1699.49
1010.708	1691.58
1011.001	1652.48
1011.295	1669.43
1011.588	1667.17
1011.881	1647.74
1012.173	1631.24
1012.466	1619.27
1012.759	1630.56
1013.052	1633.95
1013.344	1617.23
1013.637	1579.04
1013.93	1567.97
1014.222	1569.32
1014.514	1564.8
1014.807	1542.43
1015.099	1538.82
1015.391	1560.06
1015.683	1539.27
1015.976	1538.14
1016.268	1504.47
1016.56	1502.88
1016.851	1487.07
1017.143	1481.64
1017.435	1492.71
1017.727	1464.47
1018.018	1457.46
1018.31	1459.5
1018.602	1440.06
1018.893	1405.94
1019.185	1419.04
1019.476	1392.83
1019.767	1400.74
1020.058	1391.47
1020.35	1397.8
1020.641	1372.04
1020.932	1356
1021.223	1337.46
1021.514	1345.15
1021.804	1345.15
1022.095	1335.43
1022.386	1311.25
1022.677	1308.77
1022.967	1302.66
1023.258	1261.76
1023.548	1275.09
1023.839	1288.2
1024.129	1259.05
1024.419	1258.82
1024.709	1254.3
1025	1243.68
1025.29	1212.95
1025.58	1216.79
1025.87	1200.07
1026.16	1190.12
1026.449	1216.11
1026.739	1211.14
1027.029	1189.67
1027.319	1155.32
1027.608	1179.28
1027.898	1155.77
1028.187	1171.82
1028.477	1154.42
1028.766	1142.89
1029.055	1132.72
1029.344	1099.28
1029.634	1153.97
1029.923	1109.22
1030.212	1095.44
1030.501	1109.9
1030.79	1084.59
1031.078	1094.99
1031.367	1075.1
1031.656	1056.79
1031.945	1064.25
1032.233	1052.27
1032.522	1036.46
1032.81	1016.12
1033.099	1042.78
1033.387	1027.64
1033.675	1050.01
1033.963	1045.95
1034.251	1031.71
1034.54	1011.15
1034.828	1002.78
1035.116	959.62
1035.403	992.62
1035.691	988.77
1035.979	977.7
1036.267	984.71
1036.554	974.08
1036.842	946.97
1037.129	955.55
1037.417	937.25
1037.704	941.77
1037.992	931.15
1038.279	917.36
1038.566	921.66
1038.853	921.66
1039.14	921.66
