Data from plate_ceramic_FLMS001491_035.txt Node
Date: Tue Feb 07 11:16:40 GMT 2017
User: dcchb
Spectrometer: FLMS00149
Trigger mode: 0
Integration Time (sec): 2.000000E-2
Scans to average: 10
Electric dark correction enabled: true
Nonlinearity correction enabled: false
Boxcar width: 0
XAxis mode: Wavelengths
Number of Pixels in Spectrum: 2048
>>>>>Begin Spectral Data<<<<<
341.393	-20.44
341.776	-20.44
342.16	-20.44
342.543	-51.4
342.927	-48.91
343.31	-62.92
343.693	-59.98
344.077	-53.66
344.46	-61.11
344.843	-60.66
345.226	-57.05
345.61	-41.68
345.993	-18.86
346.376	-0.32
346.759	-1.68
347.142	28.83
347.525	47.13
347.908	61.37
348.291	86.9
348.674	94.81
349.057	98.88
349.44	132.1
349.823	139.11
350.206	188.37
350.588	205.77
350.971	235.6
351.354	225.21
351.737	264.07
352.119	284.64
352.502	292.1
352.884	300.46
353.267	304.3
353.65	302.49
354.032	340.23
354.414	315.6
354.797	329.16
355.179	362.15
355.562	346.33
355.944	344.3
356.326	367.12
356.709	349.95
357.091	365.77
357.473	373.22
357.855	354.69
358.238	371.87
358.62	365.54
359.002	380.46
359.384	358.99
359.766	367.58
360.148	359.21
360.53	367.58
360.912	358.31
361.294	358.08
361.676	351.76
362.057	362.38
362.439	360.57
362.821	358.76
363.203	364.19
363.584	348.59
363.966	356.95
364.348	351.3
364.729	356.95
365.111	365.54
365.493	354.92
365.874	367.58
366.256	340.01
366.637	362.15
367.019	351.98
367.4	364.19
367.781	360.8
368.163	371.64
368.544	343.85
368.925	365.54
369.306	359.89
369.688	362.6
370.069	359.67
370.45	357.41
370.831	355.82
371.212	354.92
371.593	374.58
371.974	362.15
372.355	363.73
372.736	385.65
373.117	386.11
373.498	385.88
373.879	390.4
374.26	401.92
374.641	371.19
375.021	381.81
375.402	389.72
375.783	394.24
376.163	422.04
376.544	395.14
376.925	405.77
377.305	405.54
377.686	410.29
378.066	400.57
378.447	418.87
378.827	410.06
379.208	423.84
379.588	417.29
379.968	448.25
380.349	424.75
380.729	418.2
381.109	428.14
381.489	431.98
381.87	436.05
382.25	440.79
382.63	453.67
383.01	432.66
383.39	436.05
383.77	462.71
384.15	453.22
384.53	459.55
384.91	480.34
385.29	464.75
385.67	463.39
386.049	471.08
386.429	493.22
386.809	465.2
387.189	473.79
387.568	462.94
387.948	491.41
388.328	518.53
388.707	509.72
389.087	521.02
389.466	521.7
389.846	515.14
390.225	528.02
390.605	533.22
390.984	521.92
391.363	533.9
391.743	547.01
392.122	562.15
392.501	571.41
392.881	570.73
393.26	569.38
393.639	561.47
394.018	569.15
394.397	568.25
394.776	582.03
395.155	582.48
395.534	590.17
395.913	609.6
396.292	605.99
396.671	597.4
397.05	623.39
397.429	629.26
397.808	633.56
398.186	607.79
398.565	626.55
398.944	636.04
399.323	638.53
399.701	655.25
400.08	673.56
400.458	681.47
400.837	640.79
401.215	687.57
401.594	691.86
401.972	684.18
402.351	697.96
402.729	698.41
403.107	719.66
403.486	730.05
403.864	710.62
404.242	738.41
404.62	722.59
404.999	746.1
405.377	769.37
405.755	754.91
406.133	774.12
406.511	776.15
406.889	799.88
407.267	829.94
407.645	804.85
408.023	829.48
408.401	825.19
408.779	848.69
409.156	847.79
409.534	880.33
409.912	852.76
410.29	874.91
410.667	898.41
411.045	908.13
411.422	938.41
411.8	934.11
412.178	935.02
412.555	952.42
412.933	969.59
413.31	986.32
413.687	984.51
414.065	981.34
414.442	993.77
414.819	1042.59
415.197	1043.26
415.574	1050.04
415.951	1078.97
416.328	1091.62
416.705	1061.79
417.082	1079.65
417.46	1078.97
417.837	1124.39
418.214	1118.06
418.591	1128.01
418.967	1119.87
419.344	1157.61
419.721	1168.91
420.098	1191.28
420.475	1212.75
420.852	1232.86
421.228	1218.17
421.605	1240.77
421.982	1258.17
422.358	1226.54
422.735	1278.74
423.111	1287.32
423.488	1298.4
423.864	1295.46
424.241	1324.84
424.617	1358.06
424.994	1343.14
425.37	1365.51
425.746	1402.8
426.123	1386.31
426.499	1426.3
426.875	1457.72
427.251	1473.76
427.627	1473.99
428.003	1472.18
428.379	1503.14
428.756	1553.76
429.132	1556.7
429.507	1591.95
429.883	1575
430.259	1593.98
430.635	1623.14
431.011	1636.47
431.387	1695.9
431.763	1686.64
432.138	1705.62
432.514	1735
432.89	1752.17
433.265	1749.23
433.641	1804.6
434.016	1793.3
434.392	1874.43
434.767	1894.31
435.143	1861.32
435.518	1940.42
435.894	1930.92
436.269	1947.87
436.644	1983.58
437.02	2002.79
437.395	2028.32
437.77	2050.24
438.145	2072.61
438.52	2083.69
438.895	2090.24
439.271	2114.2
439.646	2175.44
440.021	2197.13
440.395	2180.18
440.77	2193.52
441.145	2203.23
441.52	2253.18
441.895	2221.76
442.27	2284.59
442.645	2258.82
443.019	2288.88
443.394	2325.94
443.769	2327.98
444.143	2341.08
444.518	2394.64
444.892	2361.19
445.267	2395.32
445.641	2386.73
446.016	2405.49
446.39	2464.24
446.764	2424.02
447.139	2481.87
447.513	2485.71
447.887	2477.58
448.262	2531.59
448.636	2554.86
449.01	2584.24
449.384	2572.26
449.758	2614.3
450.132	2631.92
450.506	2645.26
450.88	2677.12
451.254	2700.17
451.628	2733.61
452.002	2736.1
452.376	2800.51
452.75	2821.97
453.123	2820.84
453.497	2858.58
453.871	2912.59
454.244	2959.37
454.618	2978.13
454.992	3025.13
455.365	2986.04
455.739	3098.8
456.112	3108.29
456.486	3192.13
456.859	3223.77
457.232	3276.2
457.606	3257.67
457.979	3319.36
458.352	3406.59
458.725	3399.36
459.099	3409.98
459.472	3514.38
459.845	3537.21
460.218	3583.31
460.591	3628.73
460.964	3595.96
461.337	3704.44
461.71	3774.94
462.083	3818.33
462.456	3846.35
462.829	3894.71
463.201	3917.99
463.574	3917.99
463.947	4040.47
464.32	4112.34
464.692	4118.66
465.065	4191.66
465.438	4251.31
465.81	4300.35
466.183	4356.17
466.555	4410.86
466.928	4484.08
467.3	4459.67
467.672	4503.96
468.045	4625.32
468.417	4654.92
468.789	4724.3
469.161	4768.14
469.534	4854.46
469.906	4947.34
470.278	4980.11
470.65	5020.79
471.022	5135.13
471.394	5242.93
471.766	5295.36
472.138	5336.48
472.51	5435.24
472.882	5551.39
473.253	5633.88
473.625	5660.09
473.997	5876.36
474.369	5826.64
474.74	5896.24
475.112	6007.2
475.484	6101.89
475.855	6269.57
476.227	6327.19
476.598	6468.88
476.97	6533.74
477.341	6695.32
477.713	6817.57
478.084	6826.61
478.455	7024.8
478.827	7080.84
479.198	7277.68
479.569	7364.91
479.94	7456.65
480.311	7598.12
480.682	7792.01
481.053	7958.79
481.424	8075.17
481.795	8121.5
482.166	8263.19
482.537	8391.32
482.908	8611.88
483.279	8733.91
483.65	8822.27
484.021	9028.36
484.391	9068.59
484.762	9254.8
485.133	9269.94
485.503	9441.23
485.874	9651.85
486.244	9683.71
486.615	9859.98
486.985	9984.95
487.356	10169.13
487.726	10321.66
488.097	10463.58
488.467	10503.13
488.837	10791.93
489.207	10902.67
489.578	11073.28
489.948	11129.55
490.318	11321.86
490.688	11331.81
491.058	11639.82
491.428	11775.18
491.798	11907.16
492.168	12087.94
492.538	12158.45
492.908	12315.96
493.278	12468.5
493.648	12561.15
494.017	12623.07
494.387	12808.83
494.757	12863.52
495.126	13048.15
495.496	13066.22
495.866	13134.7
496.235	13397.51
496.605	13493.33
496.974	13544.18
497.344	13691.97
497.713	13802.25
498.082	13923.15
498.452	14001.57
498.821	14131.96
499.19	14212.41
499.559	14307.32
499.928	14405.4
500.298	14522.23
500.667	14698.72
501.036	14658.72
501.405	14791.38
501.774	14846.97
502.143	14987.76
502.512	15227.07
502.88	15205.83
503.249	15285.6
503.618	15510.23
503.987	15533.96
504.356	15679.49
504.724	15756.32
505.093	15928.97
505.462	15922.87
505.83	16011.01
506.199	16118.57
506.567	16358.34
506.936	16367.61
507.304	16652.12
507.672	16648.73
508.041	16758.33
508.409	16975.5
508.777	17099.11
509.145	17135.95
509.514	17181.6
509.882	17416.84
510.25	17311.99
510.618	17554.24
510.986	17688.48
511.354	17840.79
511.722	18147.45
512.09	18183.83
512.458	18135.7
512.826	18282.58
513.193	18492.97
513.561	18546.08
513.929	18754.44
514.297	18788.33
514.664	19100.64
515.032	19118.95
515.4	19334.31
515.767	19376.79
516.135	19605.49
516.502	19456.34
516.869	19856.33
517.237	19913.28
517.604	19829.44
517.972	20207.28
518.339	20382.87
518.706	20426.71
519.073	20533.15
519.44	20616.31
519.808	20819.92
520.175	20972.46
520.542	21249.74
520.909	21414.03
521.276	21340.36
521.643	21710.52
522.009	21827.12
522.376	21954.35
522.743	22067.57
523.11	22333.55
523.477	22500.55
523.843	22671.85
524.21	22940.09
524.577	23038.84
524.943	23202
525.31	23252.62
525.676	23543.01
526.043	23740.52
526.409	23814.42
526.776	24129.66
527.142	24328.3
527.508	24389.09
527.874	24557.45
528.241	24619.82
528.607	24850.55
528.973	25163.76
529.339	24995.4
529.705	25301.16
530.071	25460.93
530.437	25631.09
530.803	25894.36
531.169	25992.21
531.535	26014.36
531.901	26117.63
532.267	26277.18
532.632	26511.75
532.998	26554.68
533.364	26769.14
533.73	26947.67
534.095	27052.52
534.461	27125.97
534.826	27361.44
535.192	27507.65
535.557	27571.83
535.923	27624.71
536.288	27779.06
536.653	27948.09
537.019	27857.93
537.384	27999.62
537.749	28197.13
538.114	28216.33
538.479	28239.38
538.845	28558.47
539.21	28537.68
539.575	28678.02
539.94	28803.66
540.305	29003.66
540.67	28893.38
541.034	29008.86
541.399	29336.76
541.764	29394.16
542.129	29408.62
542.494	29605.68
542.858	29710.53
543.223	29702.17
543.587	29898.55
543.952	29864.2
544.316	29959.57
544.681	30142.16
545.045	30214.25
545.41	30433.45
545.774	30509.38
546.138	30508.93
546.503	30737.85
546.867	30812.88
547.231	31193.66
547.595	31084.06
547.959	31237.72
548.324	31234.79
548.688	31376.93
549.052	31527.66
549.416	31609.92
549.779	31632.06
550.143	31686.07
550.507	32099.4
550.871	32076.35
551.235	32142.56
551.599	32332.16
551.962	32484.92
552.326	32608.08
552.689	32681.98
553.053	32639.27
553.417	32750.45
553.78	33159.03
554.143	33098.24
554.507	33308.18
554.87	33393.15
555.234	33715.17
555.597	33638.79
555.96	33732.35
556.323	33983.64
556.686	34037.88
557.05	34289.85
557.413	34540.01
557.776	34485.1
558.139	34731.87
558.502	34781.81
558.865	34921.02
559.228	35280.33
559.59	35247.34
559.953	35500.44
560.316	35815.91
560.679	35855.68
561.041	36001.44
561.404	36261.55
561.767	36287.53
562.129	36240.08
562.492	36757.35
562.854	36689.11
563.217	36730.23
563.579	37017.01
563.941	37284.12
564.304	37527.95
564.666	37676.2
565.028	37676.42
565.39	37833.93
565.753	38193.47
566.115	38321.61
566.477	38355.95
566.839	38430.3
567.201	38751.65
567.563	38699
567.925	38934.47
568.287	39065.09
568.648	39254.46
569.01	39459.43
569.372	39554.57
569.734	39506.43
570.095	39902.58
570.457	39969.47
570.819	40056.93
571.18	40148.68
571.542	40403.58
571.903	40498.05
572.265	40609
572.626	40745.27
572.987	40809.22
573.349	40962.89
573.71	41113.17
574.071	41047.64
574.432	41179.84
574.794	41460.96
575.155	41342.32
575.516	41446.95
575.877	41625.7
576.238	41677.22
576.599	41813.94
576.96	41910.44
577.32	42065.24
577.681	42198.34
578.042	42400.82
578.403	42347.71
578.763	42307.94
579.124	42528.27
579.485	42582.96
579.845	42816.4
580.206	42707.25
580.566	42622.06
580.927	42562.62
581.287	42842.16
581.648	42624.32
582.008	42879.9
582.368	42779.79
582.728	42975.72
583.089	42830.87
583.449	42840.81
583.809	43036.28
584.169	43059.56
584.529	42907.25
584.889	43432.43
585.249	43021.82
585.609	43036.28
585.969	43209.61
586.329	43028.83
586.688	43092.78
587.048	43281.47
587.408	43117.19
587.768	43097.98
588.127	43094.81
588.487	43179.1
588.846	43438.53
589.206	43059.79
589.565	43138.2
589.925	43327.12
590.284	43365.99
590.643	43498.64
591.003	43487.8
591.362	43558.08
591.721	43602.37
592.08	43511.98
592.44	43625.87
592.799	43616.16
593.158	43458.42
593.517	43402.83
593.876	43572.54
594.235	43511.3
594.593	43581.13
594.952	43784.51
595.311	43671.75
595.67	43594.91
596.029	43862.7
596.387	43893.44
596.746	43959.2
597.104	43769.82
597.463	43735.47
597.822	43965.98
598.18	43710.16
598.538	43895.92
598.897	44176.14
599.255	43753.33
599.613	44196.93
599.972	44022.47
600.33	44130.72
600.688	44008.46
601.046	44075.8
601.404	44396.25
601.762	44102.92
602.12	44402.35
602.478	44524.61
602.836	44349.47
603.194	44179.53
603.552	44348.34
603.91	44222.92
604.268	44501.56
604.625	44391.05
604.983	44703.58
605.341	44421.11
605.698	44737.71
606.056	44858.83
606.413	44648.22
606.771	44832.17
607.128	44978.38
607.485	44782.9
607.843	44809.57
608.2	45015.67
608.557	45115.1
608.914	45017.02
609.272	45053.41
609.629	45141.77
609.986	45246.4
610.343	45156.68
610.7	45489.55
611.057	45348.31
611.414	45440.06
611.771	45355.54
612.127	45602.54
612.484	45528.42
612.841	45757.12
613.198	45658.81
613.554	45656.55
613.911	45826.27
614.267	45793.73
614.624	45868.98
614.98	45778.36
615.337	46040.27
615.693	46046.6
616.05	45926.15
616.406	46148.29
616.762	46028.07
617.118	45885.47
617.475	45980.16
617.831	46126.37
618.187	46027.84
618.543	46233.04
618.899	46367.72
619.255	46258.12
619.611	46322.52
619.967	46468.51
620.323	46516.42
620.678	46443.65
621.034	46296.76
621.39	46360.49
621.746	46261.28
622.101	46960.25
622.457	46354.39
622.812	46432.58
623.168	46550.77
623.523	46522.07
623.879	46627.38
624.234	46334.05
624.589	46686.13
624.945	46651.78
625.3	46609.75
625.655	46510.54
626.01	46609.75
626.365	46735.62
626.72	46594.83
627.075	46562.97
627.43	46499.92
627.785	46414.5
628.14	46560.71
628.495	46669.86
628.85	46529.75
629.205	46323.65
629.559	46585.12
629.914	46461.5
630.269	46364.11
630.623	46307.38
630.978	46284.33
631.332	46447.95
631.687	46461.5
632.041	46156.2
632.396	46396.42
632.75	46031.23
633.104	46158.24
633.459	45945.13
633.813	46078.69
634.167	45961.4
634.521	45981.74
634.875	46026.04
635.229	45851.12
635.583	45661.98
635.937	45803.89
636.291	45790.34
636.645	45591.92
636.999	45525.71
637.352	45696.55
637.706	45379.5
638.06	45678.47
638.413	45340.4
638.767	45448.2
639.121	45413.62
639.474	45019.28
639.828	45268.09
640.181	45201.88
640.534	45220.41
640.888	45092.73
641.241	45000.98
641.594	45120.97
641.947	45181.76
642.301	44985.38
642.654	45069.68
643.007	45000.75
643.36	44782.23
643.713	44753.3
644.066	44963.46
644.419	44655
644.771	44268.79
645.124	44027.44
645.477	43902.02
645.83	43627.68
646.182	43561.69
646.535	43386.78
646.888	43399.44
647.24	43401.02
647.593	43589.94
647.945	43558.3
648.298	43348.82
648.65	43177.07
649.002	43086
649.355	43158.09
649.707	43179.33
650.059	43322.38
650.411	43793.33
650.763	43799.2
651.115	44094.79
651.467	43932.76
651.819	43974.11
652.171	43790.61
652.523	43747.45
652.875	43746.1
653.227	43586.55
653.578	43713.78
653.93	43660.45
654.282	43465.88
654.633	43549.49
654.985	43692.54
655.337	43526.21
655.688	43553.33
656.039	43672.2
656.391	43281.25
656.742	43296.39
657.094	43444.18
657.445	43429.27
657.796	43427.01
658.147	43326.9
658.498	43126.22
658.849	43085.32
659.2	43215.26
659.551	43128.71
659.902	43271.08
660.253	43177.07
660.604	43260.46
660.955	43029.5
661.306	43206.22
661.656	43042.61
662.007	43093.91
662.358	43090.52
662.708	43049.62
663.059	43051.65
663.409	42780.02
663.76	43098.43
664.11	42898.21
664.461	42923.74
664.811	43034.93
665.161	42896.17
665.511	42818.21
665.862	42932.78
666.212	43022.72
666.562	42921.71
666.912	42829.51
667.262	42860.92
667.612	42753.13
667.962	42746.57
668.312	42747.03
668.662	42874.48
669.011	42718.1
669.361	42683.98
669.711	42822.5
670.06	42688.04
670.41	42492.57
670.76	42574.37
671.109	42548.84
671.459	42607.59
671.808	42491.67
672.157	42552.45
672.507	42231.33
672.856	42286.92
673.205	42361.5
673.554	42371.67
673.904	42287.6
674.253	42479.24
674.602	42189.75
674.951	41806.26
675.3	41573.05
675.649	42210.09
675.998	42202.63
676.346	42177.1
676.695	42217.55
677.044	41966.03
677.393	42169.19
677.741	42185.68
678.09	41945.24
678.438	41868.63
678.787	42067.5
679.135	41953.83
679.484	41882.64
679.832	41959.48
680.181	41652.37
680.529	41820.27
680.877	41649.2
681.225	41501.41
681.573	41744.11
681.922	41480.17
682.27	41404.69
682.618	41426.16
682.966	41383.67
683.314	41490.34
683.661	41277.01
684.009	41136.67
684.357	40992.04
684.705	40964.47
685.053	41028.2
685.4	40987.07
685.748	40864.82
686.095	40772.61
686.443	40559.96
686.79	40533.52
687.138	40471.61
687.485	40531.26
687.832	40401.1
688.18	40500.08
688.527	40324.49
688.874	40085.17
689.221	40108.45
689.568	39879.08
689.915	39914.33
690.262	39940.32
690.609	39784.39
690.956	39719.31
691.303	39456.49
691.65	39328.81
691.997	39337.85
692.344	39261.47
692.69	39334.91
693.037	39380.11
693.383	38940.57
693.73	39035.48
694.077	38900.12
694.423	38864.42
694.769	38807.92
695.116	38824.42
695.462	38782.16
695.808	38560.7
696.155	38551.43
696.501	38146.69
696.847	38229.63
697.193	37982.86
697.539	38198.22
697.885	37831.22
698.231	37755.52
698.577	37799.81
698.923	37600.95
699.269	37454.28
699.614	37277.11
699.96	37154.4
700.306	37243.89
700.651	37080.28
700.997	37078.7
701.342	36853.85
701.688	36962.55
702.033	36798.71
702.379	36611.59
702.724	36826.28
703.069	36700.86
703.415	36266.07
703.76	36254.77
704.105	36266.97
704.45	36114.43
704.795	35795.57
705.14	35796.02
705.485	35765.06
705.83	35777.49
706.175	35799.41
706.52	35727.1
706.865	35589.7
707.209	35465.41
707.554	35330.5
707.899	35350.61
708.243	35136.83
708.588	35042.82
708.932	34839.21
709.277	34843.05
709.621	34718.76
709.966	34767.8
710.31	34776.16
710.654	34555.6
710.998	34650.97
711.342	34618.43
711.687	34450.97
712.031	34363.52
712.375	34331.2
712.719	34240.36
713.063	34141.38
713.407	34324.42
713.75	34027.26
714.094	33989.06
714.438	33920.14
714.782	33944.77
715.125	33662.97
715.469	33870.2
715.812	33702.97
716.156	33436.08
716.499	33544.56
716.843	33564.67
717.186	33173.27
717.53	33380.72
717.873	33338.69
718.216	33356.76
718.559	33257.11
718.902	32955.42
719.246	33141.4
719.589	32913.39
719.932	32907.28
720.275	32711.81
720.617	32673.62
720.96	32681.98
721.303	32617.57
721.646	32638.14
721.989	32453.96
722.331	32591.36
722.674	32304.81
723.016	32464.36
723.359	32432.04
723.701	32375.55
724.044	32010.58
724.386	31998.61
724.729	32097.36
725.071	32063.01
725.413	31971.94
725.755	31956.57
726.097	31815.79
726.439	31576.02
726.782	31684.72
727.124	31778.27
727.465	31697.37
727.807	31649.46
728.149	31546.87
728.491	31467.77
728.833	31506.64
729.175	31460.09
729.516	31358.85
729.858	31256.48
730.199	31215.13
730.541	31292.64
730.882	31166.77
731.224	31115.69
731.565	31075.69
731.906	31038.18
732.248	31131.51
732.589	30938.3
732.93	30845.64
733.271	30919.09
733.612	30789.15
733.953	31047.67
734.294	30638.42
734.635	30640.45
734.976	30703.5
735.317	30467.35
735.658	30625.54
735.999	30461.93
736.339	30413.11
736.68	30553.67
737.021	30332.21
737.361	30238.88
737.702	30378.76
738.042	30197.3
738.383	30241.59
738.723	30162.72
739.063	30172.22
739.404	30038.21
739.744	30019.45
740.084	29994.14
740.424	29990.52
740.764	29829.63
741.104	29895.61
741.444	29795.73
741.784	29769.97
742.124	29685
742.464	29725.9
742.804	29562.74
743.143	29438.22
743.483	29514.83
743.823	29352.8
744.162	29331.11
744.502	29315.29
744.841	29259.02
745.181	29287.72
745.52	29207.04
745.86	29251.11
746.199	29008.86
746.538	29085.46
746.877	29124.11
747.216	28928.41
747.556	28844.34
747.895	28861.29
748.234	28803.21
748.573	28767.05
748.911	28811.35
749.25	28675.31
749.589	28491.36
749.928	28594.18
750.267	28612.26
750.605	28432.15
750.944	28388.31
751.283	28370.91
751.621	28315.54
751.96	28104.25
752.298	28115.55
752.636	28122.55
752.975	27941.09
753.313	27932.5
753.651	28112.61
753.989	27764.59
754.327	27871.71
754.666	27685.5
755.004	27829.9
755.342	27739.51
755.679	27727.99
756.017	27497.94
756.355	27604.83
756.693	27380.88
757.031	27509.23
757.368	27208.45
757.706	27272.63
758.044	27157.15
758.381	27070.15
758.719	27103.82
759.056	27092.97
759.394	26888.46
759.731	26764.85
760.068	26662.25
760.405	26708.8
760.743	26585.42
761.08	26586.77
761.417	26456.38
761.754	26400.79
762.091	26309.27
762.428	26210.96
762.765	26000.8
763.102	26132.55
763.438	26040.57
763.775	25852.33
764.112	25862.27
764.449	25882.16
764.785	25787.7
765.122	25574.6
765.458	25544.09
765.795	25602.84
766.131	25418.67
766.467	25342.96
766.804	25115.62
767.14	25178.45
767.476	24985.01
767.812	24934.61
768.148	24984.55
768.485	24846.71
768.821	24656.2
769.157	24575.75
769.492	24607.62
769.828	24542.08
770.164	24273.16
770.5	24302.54
770.836	24240.62
771.171	24169.89
771.507	24024.58
771.842	23919.95
772.178	23907.97
772.513	23853.96
772.849	23650.8
773.184	23552.28
773.519	23546.85
773.855	23377.82
774.19	23376.46
774.525	23245.62
774.86	23263.02
775.195	23115
775.53	23051.5
775.865	22969.69
776.2	22799.3
776.535	22635.01
776.87	22713.43
777.205	22650.38
777.539	22566.31
777.874	22468.91
778.209	22245.19
778.543	22334.91
778.878	22154.35
779.212	22169.49
779.547	22049.26
779.881	22022.15
780.215	21872.09
780.55	21853.34
780.884	21668.26
781.218	21706
781.552	21644.98
781.886	21472.56
782.22	21427.59
782.554	21343.29
782.888	21129.97
783.222	21094.94
783.556	20948.28
783.889	20965
784.223	20896.07
784.557	20719.58
784.89	20861.73
785.224	20599.59
785.557	20578.12
785.891	20456.76
786.224	20369.54
786.558	20386.94
786.891	20249.31
787.224	20222.87
787.557	20225.36
787.891	20122.08
788.224	20086.15
788.557	20078.24
788.89	19968.19
789.223	19950.56
789.556	19806.84
789.888	19755.99
790.221	19709.67
790.554	19524.36
790.887	19497.24
791.219	19500.86
791.552	19365.27
791.884	19271.71
792.217	19372.73
792.549	19162.79
792.882	19029.46
793.214	19031.72
793.546	18940.42
793.879	18828.78
794.211	18760.09
794.543	18798.73
794.875	18698.84
795.207	18835.34
795.539	18686.64
795.871	18564.61
796.203	18458.85
796.535	18450.04
796.867	18309.7
797.198	18367.55
797.53	18329.81
797.862	18118.75
798.193	18316.93
798.525	18055.92
798.856	18127.33
799.188	17881.92
799.519	17791.75
799.85	17778.87
800.182	17813.67
800.513	17784.97
800.844	17563.73
801.175	17676.72
801.506	17625.65
801.837	17514.69
802.168	17461.36
802.499	17415.71
802.83	17386.56
803.161	17274.93
803.491	17259.56
803.822	17201.03
804.153	17098.66
804.483	17022.73
804.814	16941.38
805.145	16908.61
805.475	16951.32
805.805	16912
806.136	16908.38
806.466	16749.97
806.796	16715.62
807.126	16715.85
807.457	16649.86
807.787	16562.18
808.117	16576.19
808.447	16486.25
808.777	16478.79
809.107	16371.22
809.436	16331.9
809.766	16317.89
810.096	16214.39
810.426	16105.47
810.755	16136.2
811.085	16103.21
811.414	16073.6
811.744	15938.47
812.073	15950.44
812.403	15822.54
812.732	15755.42
813.061	15790.22
813.39	15798.58
813.719	15756.55
814.049	15860.95
814.378	15755.42
814.707	15681.52
815.036	15611.47
815.365	15561.98
815.693	15386.16
816.022	15451.92
816.351	15402.21
816.68	15303.23
817.008	15312.94
817.337	15222.55
817.665	15184.13
817.994	15059.84
818.322	15186.85
818.651	15093.06
818.979	15095.32
819.307	15126.74
819.636	15052.39
819.964	14934.2
820.292	14980.98
820.62	14918.83
820.948	14937.14
821.276	14946.17
821.604	14873.86
821.932	14947.76
822.259	15009.68
822.587	14905.27
822.915	14839.06
823.243	14928.77
823.57	14919.96
823.898	14949.79
824.225	14920.86
824.553	14774.88
824.88	14827.76
825.207	14896.68
825.535	14752.51
825.862	14814.65
826.189	14759.97
826.516	14843.8
826.843	14930.13
827.17	14863.01
827.497	14908.21
827.824	14846.74
828.151	14813.75
828.478	14855.1
828.805	14901.88
829.131	14844.48
829.458	14761.77
829.785	14681.77
830.111	14739.63
830.438	14814.43
830.764	14773.07
831.09	14849.68
831.417	14720.19
831.743	14694.2
832.069	14755.22
832.395	14589.57
832.722	14693.53
833.048	14593.87
833.374	14656.92
833.7	14544.6
834.026	14537.6
834.351	14714.54
834.677	14667.76
835.003	14645.17
835.329	14588.9
835.654	14575.56
835.98	14574.89
836.306	14488.56
836.631	14450.37
836.956	14475.45
837.282	14474.55
837.607	14373.99
837.932	14449.69
838.258	14306.64
838.583	14353.2
838.908	14231.17
839.233	14212.86
839.558	14268.45
839.883	14214.89
840.208	14162.69
840.533	14156.37
840.858	14224.84
841.182	14178.74
841.507	14250.6
841.832	14110.94
842.156	14078.18
842.481	14010.83
842.805	13940.33
843.13	13947.33
843.454	13936.26
843.778	13962.92
844.103	13889.25
844.427	13827.79
844.751	13847.22
845.075	13782.14
845.399	13785.53
845.723	13690.39
846.047	13678.41
846.371	13634.12
846.695	13639.99
847.019	13426.44
847.343	13395.71
847.666	13223.96
847.99	13284.98
848.313	13179.44
848.637	13202.94
848.96	13150.29
849.284	13088.14
849.607	12990.97
849.931	13078.2
850.254	12869.85
850.577	12835.72
850.9	12777.42
851.223	12793.01
851.546	12660.36
851.869	12585.78
852.192	12644.54
852.515	12517.76
852.838	12481.38
853.161	12600.93
853.483	12462.4
853.806	12363.64
854.129	12330.65
854.451	12319.8
854.774	12280.03
855.096	12185.34
855.419	12139.47
855.741	12203.2
856.063	12105.8
856.385	12066.93
856.708	12051.11
857.03	12010.21
857.352	12009.98
857.674	11844.34
857.996	11878.68
858.318	11803.88
858.64	11794.39
858.961	11744.68
859.283	11709.65
859.605	11678.92
859.926	11676.88
860.248	11683.44
860.57	11631.46
860.891	11582.2
861.212	11546.26
861.534	11522.99
861.855	11505.59
862.176	11530.67
862.498	11528.64
862.819	11510.11
863.14	11456.32
863.461	11420.39
863.782	11344.91
864.103	11345.37
864.424	11279.6
864.745	11320.06
865.065	11248.42
865.386	11190.57
865.707	11134.3
866.027	11248.19
866.348	11208.87
866.668	11240.06
866.989	11118.25
867.309	11064.47
867.63	11071.25
867.95	11057.92
868.27	10980.63
868.59	11046.84
868.91	11019.5
869.23	11025.83
869.55	10847.3
869.87	11025.15
870.19	11024.02
870.51	11005.94
870.83	10939.05
871.15	10814.31
871.469	10900.63
871.789	10893.17
872.109	10874.87
872.428	10776.57
872.748	10851.59
873.067	10782.22
873.386	10803.46
873.706	10752.61
874.025	10687.76
874.344	10681.88
874.663	10772.73
874.982	10631.71
875.301	10681.88
875.62	10653.18
875.939	10612.05
876.258	10567.76
876.577	10508.33
876.896	10463.13
877.214	10492.28
877.533	10475.11
877.852	10483.92
878.17	10438.95
878.489	10494.54
878.807	10480.3
879.125	10380.19
879.444	10422.9
879.762	10404.15
880.08	10408.22
880.398	10277.37
880.716	10308.78
881.034	10268.56
881.352	10320.08
881.67	10246.64
881.988	10286.64
882.306	10291.16
882.624	10164.83
882.941	10160.76
883.259	10128.67
883.577	10144.49
883.894	10089.81
884.212	10157.83
884.529	10097.49
884.846	10114.89
885.164	10021.33
885.481	10031.73
885.798	9995.57
886.115	9909.25
886.432	9874.22
886.75	9848.46
887.067	9816.59
887.383	9828.34
887.7	9849.13
888.017	9806.2
888.334	9830.83
888.651	9735.46
888.967	9720.78
889.284	9639.87
889.6	9618.63
889.917	9596.71
890.233	9588.12
890.55	9544.06
890.866	9604.17
891.182	9488.24
891.498	9558.97
891.815	9513.55
892.131	9448.69
892.447	9447.11
892.763	9364.17
893.079	9332.99
893.395	9313.33
893.71	9325.98
894.026	9279.66
894.342	9345.87
894.657	9204.4
894.973	9228.59
895.289	9147.01
895.604	9114.46
895.92	9110.17
896.235	9070.17
896.55	9014.13
896.865	8988.82
897.181	8940.91
897.496	8996.73
897.811	8898.42
898.126	8892.32
898.441	8842.61
898.756	8861.82
899.071	8802.16
899.386	8822.04
899.7	8751.08
900.015	8709.73
900.33	8642.84
900.644	8697.75
900.959	8692.55
901.273	8607.58
901.588	8534.82
901.902	8532.11
902.216	8477.42
902.531	8492.33
902.845	8431.77
903.159	8403.75
903.473	8354.48
903.787	8270.64
904.101	8295.73
904.415	8301.38
904.729	8206.24
905.042	8151.33
905.356	8194.49
905.67	8155.62
905.984	8159.01
906.297	8107.94
906.611	8057.54
906.924	8060.48
907.237	7991.78
907.551	7935.06
907.864	7978
908.177	7926.47
908.491	7838.11
908.804	7841.5
909.117	7808.96
909.43	7825.23
909.743	7762.86
910.056	7722.18
910.368	7747.49
910.681	7704.78
910.994	7598.35
911.307	7576.43
911.619	7482.87
911.932	7570.1
912.244	7540.72
912.557	7492.13
912.869	7459.14
913.181	7417.79
913.494	7386.83
913.806	7381.4
914.118	7339.82
914.43	7268.86
914.742	7263.21
915.054	7201.75
915.366	7159.26
915.678	7159.94
915.99	7114.29
916.302	7090.11
916.613	7041.52
916.925	7059.6
917.236	7036.1
917.548	6986.16
917.859	7003.11
918.171	6947.74
918.482	6893.28
918.794	6881.75
919.105	6787.97
919.416	6776.45
919.727	6764.24
920.038	6764.47
920.349	6646.96
920.66	6639.73
920.971	6674.75
921.282	6622.1
921.593	6586.62
921.903	6559.5
922.214	6486.28
922.525	6528.32
922.835	6493.52
923.146	6464.82
923.456	6457.58
923.767	6444.93
924.077	6436.57
924.387	6362.9
924.697	6303.46
925.008	6267.98
925.318	6282.45
925.628	6294.65
925.938	6212.39
926.248	6154.99
926.558	6103.7
926.867	6134.88
927.177	6075
927.487	6065.05
927.796	6041.1
928.106	6058.95
928.416	5970.14
928.725	5979.86
929.034	5878.84
929.344	5885.85
929.653	5905.73
929.962	5854.89
930.271	5844.49
930.581	5862.12
930.89	5820.99
931.199	5719.3
931.508	5721.78
931.817	5706.87
932.125	5719.98
932.434	5690.37
932.743	5606.53
933.051	5601.11
933.36	5622.58
933.669	5531.28
933.977	5536.03
934.286	5515.01
934.594	5530.38
934.902	5464.39
935.21	5394.56
935.519	5420.55
935.827	5417.84
936.135	5369.93
936.443	5348.91
936.751	5335.81
937.059	5312.08
937.367	5296.26
937.674	5267.11
937.982	5178.07
938.29	5255.13
938.597	5234.34
938.905	5196.83
939.213	5209.48
939.52	5148.69
939.827	5128.81
940.135	5088.13
940.442	5104.17
940.749	5063.72
941.056	5012.65
941.363	4984.18
941.67	5008.81
941.977	4907.12
942.284	4920.9
942.591	4887
942.898	4879.09
943.205	4877.29
943.511	4847.91
943.818	4811.98
944.125	4761.58
944.431	4812.88
944.738	4731.3
945.044	4768.14
945.35	4743.05
945.657	4703.28
945.963	4709.83
946.269	4693.34
946.575	4654.92
946.881	4663.51
947.187	4625.54
947.493	4603.17
947.799	4555.26
948.105	4525.66
948.41	4494.02
948.716	4494.92
949.022	4468.94
949.327	4494.47
949.633	4464.87
949.938	4450.63
950.244	4465.55
950.549	4390.52
950.854	4406.11
951.16	4386.45
951.465	4364.76
951.77	4335.83
952.075	4322.73
952.38	4269.62
952.685	4274.14
952.99	4218.55
953.294	4214.93
953.599	4210.19
953.904	4168.38
954.209	4137.42
954.513	4152.33
954.818	4132.22
955.122	4107.14
955.426	4070.53
955.731	4071.43
956.035	4061.26
956.339	4078.21
956.643	4050.19
956.948	4003.41
957.252	3985.11
957.556	3970.19
957.86	3957.76
958.163	3917.99
958.467	3900.59
958.771	3846.13
959.075	3880.25
959.378	3863.53
959.682	3884.32
959.985	3835.28
960.289	3815.62
960.592	3827.15
960.896	3788.5
961.199	3757.54
961.502	3762.06
961.805	3701.5
962.108	3699.24
962.411	3711.22
962.714	3643.42
963.017	3652.23
963.32	3692.46
963.623	3632.35
963.926	3624.21
964.228	3626.92
964.531	3592.12
964.833	3609.07
965.136	3603.87
965.438	3550.09
965.741	3552.58
966.043	3505.8
966.345	3485.69
966.648	3510.09
966.95	3494.05
967.252	3485.69
967.554	3457.66
967.856	3454.05
968.158	3404.56
968.46	3402.52
968.761	3433.48
969.063	3371.34
969.365	3366.37
969.666	3336.31
969.968	3323.43
970.269	3287.72
970.571	3316.42
970.872	3289.76
971.174	3268.52
971.475	3241.62
971.776	3260.83
972.077	3225.58
972.378	3231.45
972.679	3210.66
972.98	3190.55
973.281	3181.74
973.582	3151.46
973.883	3132.47
974.183	3138.35
974.484	3125.47
974.785	3093.38
975.085	3121.17
975.386	3096.09
975.686	3082.53
975.986	3045.24
976.287	3019.93
976.587	2988.75
976.887	2989.65
977.187	3009.54
977.487	2970.9
977.787	2950.11
978.087	2983.55
978.387	2974.29
978.687	2914.17
978.987	2914.4
979.286	2879.83
979.586	2864.68
979.885	2888.86
980.185	2863.55
980.484	2862.42
980.784	2859.03
981.083	2865.59
981.382	2819.49
981.682	2809.32
981.981	2789.43
982.28	2756.89
982.579	2758.7
982.878	2725.93
983.177	2753.05
983.475	2729.32
983.774	2690
984.073	2736.33
984.372	2682.99
984.67	2687.06
984.969	2689.77
985.267	2678.02
985.566	2654.75
985.864	2633.05
986.162	2600.28
986.461	2602.09
986.759	2588.76
987.057	2567.07
987.355	2589.66
987.653	2584.01
987.951	2552.6
988.249	2529.55
988.547	2524.35
988.844	2508.08
989.142	2530.46
989.44	2474.64
989.737	2507.18
990.035	2473.06
990.332	2487.29
990.63	2484.36
990.927	2426.73
991.224	2424.47
991.521	2413.85
991.819	2399.84
992.116	2419.05
992.413	2388.31
992.71	2357.35
993.006	2354.42
993.303	2336.11
993.6	2306.06
993.897	2347.64
994.193	2330.01
994.49	2313.51
994.787	2279.16
995.083	2277.36
995.379	2238.71
995.676	2263.34
995.972	2252.05
996.268	2224.48
996.565	2207.3
996.861	2243.91
997.157	2168.66
997.453	2189.45
997.749	2167.98
998.044	2161.2
998.34	2122.11
998.636	2155.32
998.932	2158.71
999.227	2114.65
999.523	2127.75
999.818	2110.81
1000.114	2071.94
1000.409	2096.12
1000.704	2076
1001	2068.32
1001.295	2033.07
1001.59	2065.61
1001.885	2044.37
1002.18	2018.38
1002.475	2030.58
1002.77	1982.9
1003.065	1991.71
1003.359	1977.25
1003.654	1938.16
1003.949	1946.74
1004.243	1943.35
1004.538	1927.31
1004.832	1942
1005.127	1926.18
1005.421	1902
1005.715	1892.96
1006.009	1878.27
1006.304	1873.75
1006.598	1846.41
1006.892	1859.74
1007.186	1839.85
1007.48	1839.4
1007.773	1795.79
1008.067	1795.56
1008.361	1802.34
1008.655	1818.38
1008.948	1790.36
1009.242	1772.51
1009.535	1751.72
1009.829	1753.98
1010.122	1726.86
1010.415	1710.82
1010.708	1725.96
1011.001	1700.2
1011.295	1703.13
1011.588	1651.84
1011.881	1680.31
1012.173	1685.96
1012.466	1640.54
1012.759	1616.81
1013.052	1634.66
1013.344	1623.36
1013.637	1607.99
1013.93	1611.84
1014.222	1598.73
1014.514	1608.9
1014.807	1596.24
1015.099	1580.88
1015.391	1565.28
1015.683	1553.76
1015.976	1548.11
1016.268	1526.87
1016.56	1514.44
1016.851	1513.31
1017.143	1517.15
1017.435	1477.38
1017.727	1489.13
1018.018	1478.73
1018.31	1456.13
1018.602	1465.63
1018.893	1490.03
1019.185	1445.06
1019.476	1419.75
1019.767	1421.78
1020.058	1418.39
1020.35	1400.77
1020.641	1380.88
1020.932	1373.88
1021.223	1382.24
1021.514	1345.63
1021.804	1356.93
1022.095	1345.4
1022.386	1347.89
1022.677	1349.92
1022.967	1336.36
1023.258	1292.07
1023.548	1297.27
1023.839	1296.59
1024.129	1296.36
1024.419	1278.51
1024.709	1264.5
1025	1259.08
1025.29	1244.61
1025.58	1246.2
1025.87	1218.63
1026.16	1234.22
1026.449	1238.29
1026.739	1205.29
1027.029	1204.62
1027.319	1195.58
1027.608	1206.65
1027.898	1185.41
1028.187	1197.38
1028.477	1175.24
1028.766	1163.26
1029.055	1136.37
1029.344	1135.69
1029.634	1141.34
1029.923	1116.93
1030.212	1124.39
1030.501	1140.44
1030.79	1119.19
1031.078	1097.73
1031.367	1109.7
1031.656	1087.78
1031.945	1103.37
1032.233	1081.23
1032.522	1070.16
1032.81	1071.29
1033.099	1070.83
1033.387	1035.58
1033.675	1008.46
1033.963	1017.73
1034.251	1015.69
1034.54	1009.59
1034.828	995.81
1035.116	1010.5
1035.403	1024.96
1035.691	971.4
1035.979	1020.21
1036.267	969.82
1036.554	980.21
1036.842	975.24
1037.129	963.04
1037.417	963.49
1037.704	940.89
1037.992	972.3
1038.279	948.8
1038.566	948.12
1038.853	948.12
1039.14	948.12
