Data from plate_ceramic_FLMS001491_054.txt Node
Date: Tue Feb 07 11:16:59 GMT 2017
User: dcchb
Spectrometer: FLMS00149
Trigger mode: 0
Integration Time (sec): 2.000000E-2
Scans to average: 10
Electric dark correction enabled: true
Nonlinearity correction enabled: false
Boxcar width: 0
XAxis mode: Wavelengths
Number of Pixels in Spectrum: 2048
>>>>>Begin Spectral Data<<<<<
341.393	-19.66
341.776	-19.66
342.16	-19.66
342.543	-69.83
342.927	-72.77
343.31	-65.76
343.693	-70.28
344.077	-59.66
344.46	-58.53
344.843	-52.65
345.226	-54.46
345.61	-31.19
345.993	-20.11
346.376	-4.75
346.759	12.2
347.142	15.14
347.525	47
347.908	55.82
348.291	83.84
348.674	107.12
349.057	96.27
349.44	125.87
349.823	155.48
350.206	184.18
350.588	203.16
350.971	225.53
351.354	250.61
351.737	258.98
352.119	277.51
352.502	281.57
352.884	289.71
353.267	286.09
353.65	313.44
354.032	314.79
354.414	338.52
354.797	312.31
355.179	357.96
355.562	359.31
355.944	349.6
356.326	357.28
356.709	372.87
357.091	356.6
357.473	344.62
357.855	359.31
358.238	395.02
358.62	350.05
359.002	340.33
359.384	381.01
359.766	371.97
360.148	370.84
360.53	372.42
360.912	339.2
361.294	368.35
361.676	350.27
362.057	365.87
362.439	360.89
362.821	367.45
363.203	356.83
363.584	355.02
363.966	338.97
364.348	348.24
364.729	352.31
365.111	333.55
365.493	358.18
365.874	360.67
366.256	338.52
366.637	357.5
367.019	351.63
367.4	358.41
367.781	345.75
368.163	343.27
368.544	364.96
368.925	378.75
369.306	378.52
369.688	348.24
370.069	377.84
370.45	365.19
370.831	350.5
371.212	363.83
371.593	354.34
371.974	352.08
372.355	357.96
372.736	376.04
373.117	376.94
373.498	372.87
373.879	382.36
374.26	367.67
374.641	380.1
375.021	361.8
375.402	374.68
375.783	385.98
376.163	390.95
376.544	393.89
376.925	408.35
377.305	374.68
377.686	395.92
378.066	421.68
378.447	403.61
378.827	401.12
379.208	412.19
379.588	410.38
379.968	402.7
380.349	425.98
380.729	403.61
381.109	424.85
381.489	441.57
381.87	429.82
382.25	412.19
382.63	439.08
383.01	406.32
383.39	425.07
383.77	435.92
384.15	453.32
384.53	444.51
384.91	463.04
385.29	451.29
385.67	481.8
386.049	452.64
386.429	479.31
386.809	464.17
387.189	462.13
387.568	461.46
387.948	470.95
388.328	483.38
388.707	487.9
389.087	499.87
389.466	503.04
389.846	504.62
390.225	506.2
390.605	515.69
390.984	519.08
391.363	516.6
391.743	519.08
392.122	520.66
392.501	522.02
392.881	552.3
393.26	542.81
393.639	543.49
394.018	577.39
394.397	565.86
394.776	562.25
395.155	550.95
395.534	584.39
395.913	570.61
396.292	592.98
396.671	585.75
397.05	568.35
397.429	612.41
397.808	595.46
398.186	592.53
398.565	639.98
398.944	610.15
399.323	623.26
399.701	621
400.08	632.53
400.458	645.18
400.837	658.97
401.215	626.2
401.594	658.51
401.972	674.56
402.351	665.07
402.729	699.64
403.107	702.58
403.486	679.53
403.864	687.44
404.242	692.19
404.62	716.37
404.999	717.27
405.377	734.44
405.755	715.91
406.133	757.72
406.511	739.64
406.889	761.56
407.267	770.83
407.645	785.06
408.023	787.78
408.401	811.96
408.779	778.51
409.156	826.64
409.534	833.88
409.912	842.69
410.29	844.5
410.667	856.47
411.045	883.59
411.422	884.5
411.8	877.72
412.178	919.3
412.555	908
412.933	920.88
413.31	916.13
413.687	950.71
414.065	958.62
414.442	969.69
414.819	983.25
415.197	1007.43
415.574	999.75
415.951	1012.63
416.328	1036.36
416.705	1013.31
417.082	1053.31
417.46	1057.6
417.837	1068.22
418.214	1058.05
418.591	1083.59
418.967	1086.07
419.344	1091.72
419.721	1109.35
420.098	1135.79
420.475	1111.38
420.852	1147.99
421.228	1158.61
421.605	1190.48
421.982	1180.76
422.358	1200.65
422.735	1218.73
423.111	1222.11
423.488	1216.69
423.864	1252.62
424.241	1267.76
424.617	1257.37
424.994	1287.2
425.37	1281.77
425.746	1324.71
426.123	1314.54
426.499	1329.91
426.875	1339.85
427.251	1366.97
427.627	1363.81
428.003	1400.64
428.379	1452.17
428.756	1446.52
429.132	1482.22
429.507	1465.5
429.883	1488.32
430.259	1554.08
430.635	1538.94
431.011	1552.73
431.387	1573.97
431.763	1607.87
432.138	1609.45
432.514	1652.84
432.89	1642.44
433.265	1697.81
433.641	1712.5
434.016	1678.6
434.392	1748.43
434.767	1781.87
435.143	1793.17
435.518	1806.51
435.894	1821.42
436.269	1834.3
436.644	1872.27
437.02	1882.44
437.395	1915.2
437.77	1925.15
438.145	1948.2
438.52	1943
438.895	1982.09
439.271	1965.37
439.646	2044.24
440.021	2034.97
440.395	2054.41
440.77	2055.77
441.145	2066.61
441.52	2108.65
441.895	2135.99
442.27	2146.84
442.645	2148.19
443.019	2184.12
443.394	2183.67
443.769	2218.92
444.143	2210.34
444.518	2246.27
444.892	2245.59
445.267	2269.32
445.641	2253.95
446.016	2293.73
446.39	2320.62
446.764	2331.92
447.139	2357.45
447.513	2363.78
447.887	2387.28
448.262	2366.04
448.636	2435.64
449.01	2414.63
449.384	2440.16
449.758	2446.49
450.132	2517.22
450.506	2519.48
450.88	2534.4
451.254	2533.49
451.628	2572.81
452.002	2607.62
452.376	2639.03
452.75	2647.39
453.123	2692.36
453.497	2717.44
453.871	2735.75
454.244	2791.57
454.618	2813.26
454.992	2835.86
455.365	2856.87
455.739	2947.49
456.112	2951.11
456.486	2977.1
456.859	3039.47
457.232	3094.38
457.606	3073.37
457.979	3125.34
458.352	3205.34
458.725	3192.91
459.099	3222.74
459.472	3315.17
459.845	3306.58
460.218	3369.85
460.591	3436.97
460.964	3424.99
461.337	3496.63
461.71	3536.86
462.083	3588.83
462.456	3621.37
462.829	3629.28
463.201	3730.75
463.574	3690.52
463.947	3806.45
464.32	3853.46
464.692	3892.33
465.065	3935.49
465.438	3998.09
465.81	4054.58
466.183	4095.26
466.555	4211.64
466.928	4174.58
467.3	4196.27
467.672	4295.48
468.045	4364.86
468.417	4355.82
468.789	4392.43
469.161	4511.07
469.534	4559.2
469.906	4610.95
470.278	4679.88
470.65	4770.5
471.022	4875.58
471.394	4953.09
471.766	4968.91
472.138	5047.1
472.51	5121
472.882	5186.98
473.253	5289.13
473.625	5347.2
473.997	5500.42
474.369	5523.7
474.74	5552.62
475.112	5702.67
475.484	5777.25
475.855	5855.44
476.227	5957.81
476.598	6094.3
476.97	6164.13
477.341	6293.39
477.713	6372.26
478.084	6385.14
478.455	6567.74
478.827	6680.28
479.198	6913.49
479.569	6860.16
479.94	7076.42
480.311	7157.1
480.682	7318.45
481.053	7424.21
481.424	7546.24
481.795	7672.79
482.166	7842.28
482.537	7878.21
482.908	8032.11
483.279	8110.3
483.65	8250.63
484.021	8470.29
484.391	8502.15
484.762	8666.21
485.133	8659.66
485.503	8842.03
485.874	9056.94
486.244	9122.92
486.615	9340.77
486.985	9395.23
487.356	9544.16
487.726	9627.32
488.097	9867.09
488.467	9930.59
488.837	10055.78
489.207	10169.45
489.578	10379.39
489.948	10513.17
490.318	10679.95
490.688	10632.26
491.058	10812.82
491.428	11033.38
491.798	11116.54
492.168	11406.93
492.538	11319.93
492.908	11457.55
493.278	11646.7
493.648	11649.86
494.017	11831.78
494.387	11924.21
494.757	12098.89
495.126	12249.4
495.496	12304.31
495.866	12430.41
496.235	12492.78
496.605	12698.88
496.974	12796.5
497.344	12859.32
497.713	12941.58
498.082	12941.58
498.452	13141.12
498.821	13261.8
499.19	13357.39
499.559	13451.85
499.928	13612.07
500.298	13624.27
500.667	13726.19
501.036	13847.09
501.405	13951.05
501.774	13996.02
502.143	14139.29
502.512	14149.68
502.88	14393.07
503.249	14346.74
503.618	14456.12
503.987	14622.21
504.356	14713.51
504.724	14748.09
505.093	14883.22
505.462	14984.01
505.83	15076.21
506.199	15214.06
506.567	15381.97
506.936	15377.9
507.304	15609.08
507.672	15690.66
508.041	15699.02
508.409	15880.94
508.777	16038
509.145	16140.59
509.514	16161.38
509.882	16306.46
510.25	16337.88
510.618	16491.09
510.986	16594.14
511.354	16745.32
511.722	16927.92
512.09	17117.29
512.458	17061.02
512.826	17234.8
513.193	17361.13
513.561	17439.32
513.929	17641.57
514.297	17738.29
514.664	17929.7
515.032	17979.87
515.4	18094.44
515.767	18330.82
516.135	18394.77
516.502	18331.95
516.869	18688.1
517.237	18772.39
517.604	18820.52
517.972	19014.64
518.339	19074.07
518.706	19190.68
519.073	19226.84
519.44	19446.04
519.808	19620.95
520.175	19749.76
520.542	20102.75
520.909	20057.78
521.276	20167.83
521.643	20368.73
522.009	20459.12
522.376	20661.38
522.743	20672.45
523.11	21038.32
523.477	21243.28
523.843	21313.11
524.21	21537.51
524.577	21699.99
524.943	21806.66
525.31	22023.15
525.676	22196.03
526.043	22277.15
526.409	22429.47
526.776	22668.78
527.142	22828.1
527.508	22876.69
527.874	23113.06
528.241	23174.98
528.607	23391.48
528.973	23603.22
529.339	23588.53
529.705	23737
530.071	23970.9
530.437	24170.21
530.803	24445.91
531.169	24467.38
531.535	24450.66
531.901	24641.84
532.267	24613.82
532.632	24893.13
532.998	24953.92
533.364	25293.57
533.73	25391.2
534.095	25542.83
534.461	25515.26
534.826	25639.55
535.192	25825.31
535.557	26160.89
535.923	25992.08
536.288	26251.29
536.653	26475.69
537.019	26413.99
537.384	26490.15
537.749	26707.32
538.114	26635.91
538.479	26656.02
538.845	26973.08
539.21	26914.77
539.575	27090.14
539.94	27143.47
540.305	27312.73
540.67	27341.65
541.034	27492.84
541.399	27633.62
541.764	27673.85
542.129	27737.58
542.494	27891.47
542.858	27979.15
543.223	28108.19
543.587	28364.68
543.952	28242.42
544.316	28356.09
544.681	28308.18
545.045	28551.79
545.41	28798.56
545.774	28708.62
546.138	28867.04
546.503	28955.62
546.867	29007.6
547.231	29377.76
547.595	29255.5
547.959	29426.57
548.324	29456.63
548.688	29579.56
549.052	29546.34
549.416	29695.49
549.779	29950.85
550.143	29865.66
550.507	30212.76
550.871	30361.46
551.235	30326.43
551.599	30542.93
551.962	30546.32
552.326	30509.71
552.689	30794.67
553.053	30818.4
553.417	30961.45
553.78	31261.55
554.143	31299.74
554.507	31471.49
554.87	31459.29
555.234	31924.58
555.597	31799.62
555.96	31912.83
556.323	31962.78
556.686	31992.38
557.05	32275.31
557.413	32425.59
557.776	32565.25
558.139	32816.99
558.502	32803.43
558.865	32961.17
559.228	33157.77
559.59	33395.05
559.953	33475.73
560.316	33728.15
560.679	33722.96
561.041	33870.75
561.404	34099.67
561.767	34337.63
562.129	34140.12
562.492	34615.81
562.854	34673.21
563.217	34773.1
563.579	34872.76
563.941	35060.55
564.304	35078.63
564.666	35531.04
565.028	35535.34
565.39	35707.99
565.753	35863.69
566.115	36073.85
566.477	36178.94
566.839	36278.82
567.201	36570.34
567.563	36566.27
567.925	36686.27
568.287	36742.54
568.648	36915.87
569.01	37088.29
569.372	37140.72
569.734	37203.54
570.095	37595.85
570.457	37692.57
570.819	37783.64
571.18	37780.48
571.542	38015.05
571.903	38075.38
572.265	38186.11
572.626	38265.43
572.987	38410.06
573.349	38501.36
573.71	38667.01
574.071	38695.25
574.432	38802.14
574.794	38983.16
575.155	39115.58
575.516	39032.19
575.877	39260.21
576.238	39410.04
576.599	39550.37
576.96	39582.01
577.32	39467.89
577.681	39725.74
578.042	39847.09
578.403	39862.91
578.763	39826.52
579.124	39965.28
579.485	40095.89
579.845	40240.07
580.206	40197.59
580.566	40024.71
580.927	40198.04
581.287	40385.15
581.648	40172.28
582.008	40559.39
582.368	40367.98
582.728	40418.6
583.089	40507.41
583.449	40378.6
583.809	40502.44
584.169	40624.69
584.529	40480.52
584.889	40811.13
585.249	40472.16
585.609	40398.94
585.969	40676.67
586.329	40653.85
586.688	40793.96
587.048	40663.56
587.408	40650
587.768	40624.47
588.127	40723.9
588.487	40654.98
588.846	40917.79
589.206	40633.06
589.565	40634.64
589.925	40944.69
590.284	40751.02
590.643	40893.39
591.003	40960.73
591.362	40994.4
591.721	40907.17
592.08	40970
592.44	41069.43
592.799	41094.51
593.158	40970.9
593.517	41177.9
593.876	40984.01
594.235	40939.04
594.593	41031.69
594.952	41187.62
595.311	41057.68
595.67	41107.17
596.029	41258.35
596.387	41238.69
596.746	41387.84
597.104	41144.23
597.463	41231.01
597.822	41421.06
598.18	41209.31
598.538	41382.19
598.897	41517.33
599.255	41197.33
599.613	41577.44
599.972	41479.36
600.33	41635.52
600.688	41539.47
601.046	41651.33
601.404	41852.91
601.762	41714.38
602.12	41858.56
602.478	41775.85
602.836	41891.1
603.194	41710.77
603.552	41787.83
603.91	41705.34
604.268	41986.01
604.625	41800.48
604.983	41965.68
605.341	41815.4
605.698	42109.4
606.056	42150.3
606.413	42075.96
606.771	42236.63
607.128	42336.29
607.485	42224.43
607.843	42304.42
608.2	42464.19
608.557	42475.27
608.914	42323.18
609.272	42604.98
609.629	42604.08
609.986	42740.35
610.343	42461.03
610.7	42892.88
611.057	42682.27
611.414	42816.73
611.771	42909.15
612.127	43051.07
612.484	42982.37
612.841	42946.22
613.198	42964.97
613.554	42922.94
613.911	43022.82
614.267	43115.93
614.624	43223.5
614.98	43224.85
615.337	43480.66
615.693	43413.1
616.05	43397.28
616.406	43654.9
616.762	43330.61
617.118	43378.07
617.475	43377.39
617.831	43644.05
618.187	43441.8
618.543	43595.24
618.899	43708.91
619.255	43662.13
619.611	43649.93
619.967	43724.5
620.323	43880.65
620.678	43869.13
621.034	43586.42
621.39	43567.44
621.746	43694.44
622.101	44194.54
622.457	43771.5
622.812	43957.26
623.168	43969.47
623.523	43981.89
623.879	44071.38
624.234	43898.73
624.589	44069.12
624.945	43937.6
625.3	43860.09
625.655	43940.31
626.01	43898.96
626.365	44010.14
626.72	43967.88
627.075	43938.51
627.43	43859.64
627.785	43671.85
628.14	43806.53
628.495	43955
628.85	43860.32
629.205	43629.14
629.559	43717.95
629.914	43630.72
630.269	43737.83
630.623	43624.39
630.978	43459.2
631.332	43651.51
631.687	43565.63
632.041	43527.67
632.396	43547.78
632.75	43418.97
633.104	43301.23
633.459	43125.65
633.813	43295.81
634.167	43260.78
634.521	43311.4
634.875	43202.71
635.229	43187.11
635.583	42893.34
635.937	42979.21
636.291	42773.11
636.645	42920
636.999	42781.47
637.352	42877.74
637.706	42707.13
638.06	42938.76
638.413	42754.58
638.767	42615.6
639.121	42793
639.474	42468.04
639.828	42455.61
640.181	42470.97
640.534	42623.74
640.888	42346.46
641.241	42109.63
641.594	42227.82
641.947	42337.64
642.301	42194.14
642.654	42224.43
643.007	42323.86
643.36	42020.14
643.713	42029.4
644.066	42275.05
644.419	41975.85
644.771	41607.27
645.124	41331.57
645.477	41119.37
645.83	41080.05
646.182	40638.25
646.535	40655.43
646.888	40805.48
647.24	40488.88
647.593	40871.24
647.945	40753.5
648.298	40541.98
648.65	40503.12
649.002	40273.97
649.355	40511.48
649.707	40417.69
650.059	40683.68
650.411	40986.72
650.763	41022.88
651.115	41367.95
651.467	41256.99
651.819	41208.41
652.171	41047.06
652.523	41053.84
652.875	41003.89
653.227	40953.05
653.578	41159.37
653.93	41052.48
654.282	41051.8
654.633	40778.36
654.985	40757.57
655.337	40903.11
655.688	40765.03
656.039	40842.09
656.391	40518.48
656.742	40579.27
657.094	40606.62
657.445	40835.99
657.796	40672.6
658.147	40522.1
658.498	40572.49
658.849	40633.51
659.2	40405.72
659.551	40621.08
659.902	40592.38
660.253	40508.54
660.604	40504.02
660.955	40386.28
661.306	40362.55
661.656	40308.32
662.007	40344.48
662.358	40284.14
662.708	40301.99
663.059	40244.82
663.409	39955.79
663.76	40125.95
664.11	40161.2
664.461	40223.58
664.811	40072.17
665.161	40297.92
665.511	39982.45
665.862	40050.47
666.212	40290.47
666.562	40398.26
666.912	40124.82
667.262	40039.4
667.612	40127.31
667.962	40163.69
668.312	40050.02
668.662	40184.25
669.011	40181.09
669.361	40059.51
669.711	39938.61
670.06	39890.25
670.41	39820.42
670.76	39804.38
671.109	39841.44
671.459	39833.3
671.808	39655.45
672.157	39927.76
672.507	39647.32
672.856	39628.11
673.205	39596.47
673.554	39814.09
673.904	39550.37
674.253	39746.75
674.602	39678.73
674.951	39189.25
675.3	38987.22
675.649	39598.05
675.998	39363.71
676.346	39321.9
676.695	39523.25
677.044	39212.08
677.393	39431.05
677.741	39431.51
678.09	39203.04
678.438	39274
678.787	39292.53
679.135	39307.22
679.484	39104.73
679.832	39216.14
680.181	39013.44
680.529	39078.07
680.877	38939.09
681.225	38881.24
681.573	39125.3
681.922	38941.12
682.27	38858.87
682.618	38721.69
682.966	38566.9
683.314	38672.2
683.661	38481.25
684.009	38302.04
684.357	38321.48
684.705	38260.46
685.053	38196.28
685.4	38077.19
685.748	38053.69
686.095	38042.62
686.443	37856.41
686.79	37690.99
687.138	37801.27
687.485	37851.66
687.832	37624.77
688.18	37817.31
688.527	37532.12
688.874	37462.74
689.221	37394.95
689.568	37328.51
689.915	37251.22
690.262	37226.59
690.609	37254.61
690.956	37047.16
691.303	36983.89
691.65	36798.13
691.997	36737.11
692.344	36514.07
692.69	36586.16
693.037	36653.73
693.383	36557.91
693.73	36390
694.077	36138.48
694.423	36344.58
694.769	36263
695.116	36218.48
695.462	36110.46
695.808	36017.81
696.155	35967.87
696.501	35611.94
696.847	35574.88
697.193	35379.18
697.539	35533.98
697.885	35242.24
698.231	35228.68
698.577	35257.15
698.923	35011.51
699.269	34855.13
699.614	34567.68
699.96	34731.52
700.306	34839.76
700.651	34533.1
700.997	34609.26
701.342	34558.19
701.688	34305.54
702.033	34072.32
702.379	34313.67
702.724	34198.42
703.069	34116.17
703.415	33751.2
703.76	33872.33
704.105	33741.94
704.45	33666.01
704.795	33418.56
705.14	33323.64
705.485	33220.37
705.83	33115.97
706.175	33215.62
706.52	33121.16
706.865	32972.92
707.209	33001.39
707.554	32920.94
707.899	32917.55
708.243	32890.21
708.588	32771.79
708.932	32536.55
709.277	32492.48
709.621	32543.78
709.966	32337.23
710.31	32321.86
710.654	32246.84
710.998	32136.33
711.342	32238.47
711.687	31981.08
712.031	31909.44
712.375	31819.73
712.719	31884.13
713.063	31822.44
713.407	31927.52
713.75	31739.28
714.094	31670.35
714.438	31473.75
714.782	31522.33
715.125	31278.73
715.469	31426.74
715.812	31367.31
716.156	31102.46
716.499	31083.02
716.843	31031.5
717.186	30788.12
717.53	31001.67
717.873	31074.21
718.216	30938.4
718.559	30913.31
718.902	30707.67
719.246	30770.26
719.589	30772.52
719.932	30482.14
720.275	30619.08
720.617	30379.99
720.96	30425.19
721.303	30439.2
721.646	30407.56
721.989	30110.85
722.331	30150.62
722.674	30162.14
723.016	30172.31
723.359	30090.51
723.701	30085.99
724.044	29813.68
724.386	29749.73
724.729	29933.45
725.071	29817.97
725.413	29657.3
725.755	29776.17
726.097	29537.53
726.439	29485.78
726.782	29388.61
727.124	29598.09
727.465	29402.62
727.807	29403.29
728.149	29287.14
728.491	29163.07
728.833	29322.17
729.175	29185.22
729.516	28982.51
729.858	29032.68
730.199	29032.91
730.541	29055.06
730.882	28956.07
731.224	29025.9
731.565	28862.29
731.906	28924.89
732.248	28878.56
732.589	28714.05
732.93	28541.4
733.271	28472.92
733.612	28682.86
733.953	28515.18
734.294	28399.03
734.635	28348.18
734.976	28444
735.317	28416.2
735.658	28465.24
735.999	28213.5
736.339	28326.71
736.68	28246.71
737.021	28091.69
737.361	28034.74
737.702	28152.48
738.042	28109.77
738.383	27954.75
738.723	28025.25
739.063	28005.37
739.404	27893.96
739.744	27935.08
740.084	27866.84
740.424	27889.21
740.764	27730.57
741.104	27761.08
741.444	27677.01
741.784	27527.19
742.124	27640.18
742.464	27475.21
742.804	27520.63
743.143	27457.81
743.483	27447.87
743.823	27284.25
744.162	27218.04
744.502	27315.21
744.841	27057.37
745.181	27235.22
745.52	27152.73
745.86	27252.62
746.199	26983.92
746.538	26925.85
746.877	26983.92
747.216	26900.31
747.556	26881.78
747.895	26803.59
748.234	26757.94
748.573	26600.43
748.911	26563.6
749.25	26511.39
749.589	26503.94
749.928	26514.33
750.267	26594.78
750.605	26582.58
750.944	26463.26
751.283	26331.06
751.621	26248.58
751.96	26207.45
752.298	26206.77
752.636	26099.2
752.975	26020.33
753.313	25956.83
753.651	25967.23
753.989	25873.67
754.327	25878.42
754.666	25690.17
755.004	25826.44
755.342	25778.31
755.679	25574.92
756.017	25481.14
756.355	25499.44
756.693	25394.36
757.031	25379.9
757.368	25288.37
757.706	25242.05
758.044	25086.8
758.381	25225.1
758.719	25134.48
759.056	25068.27
759.394	25025.33
759.731	24814.71
760.068	24782.85
760.405	24704.89
760.743	24634.38
761.08	24597.77
761.417	24534.72
761.754	24475.97
762.091	24482.07
762.428	24310.1
762.765	24109.87
763.102	24228.52
763.438	24175.18
763.775	24008.41
764.112	23910.11
764.449	23959.6
764.785	23800.96
765.122	23664.46
765.458	23514.18
765.795	23564.13
766.131	23535.2
766.467	23303.34
766.804	23277.13
767.14	23203.23
767.476	23119.62
767.812	23137.47
768.148	23160.97
768.485	22925.27
768.821	23009.34
769.157	22780.19
769.492	22740.19
769.828	22771.38
770.164	22505.62
770.5	22466.75
770.836	22344.05
771.171	22223.37
771.507	22310.15
771.842	22136.82
772.178	22191.96
772.513	22045.75
772.849	21981.12
773.184	21854.34
773.519	21871.52
773.855	21680.11
774.19	21694.34
774.525	21552.2
774.86	21578.87
775.195	21507.68
775.53	21425.2
775.865	21256.39
776.2	21016.17
776.535	20954.7
776.87	20953.35
777.205	20889.62
777.539	20840.36
777.874	20829.73
778.209	20697.99
778.543	20600.81
778.878	20513.13
779.212	20490.99
779.547	20371.67
779.881	20408.5
780.215	20253.7
780.55	20152.69
780.884	20089.19
781.218	20110.21
781.552	20049.19
781.886	19916.54
782.22	19799.71
782.554	19743.21
782.888	19621.63
783.222	19562.2
783.556	19528.3
783.889	19486.49
784.223	19337.12
784.557	19270.45
784.89	19250.12
785.224	19162.66
785.557	19097.35
785.891	18960.41
786.224	18968.77
786.558	18907.98
786.891	18786.4
787.224	18769.45
787.557	18715.89
787.891	18654.2
788.224	18593.64
788.557	18620.3
788.89	18407.2
789.223	18627.31
789.556	18323.59
789.888	18311.38
790.221	18162.46
790.554	18070.26
790.887	18040.88
791.219	18042.46
791.552	17922.24
791.884	17871.85
792.217	17759.08
792.549	17661
792.882	17643.83
793.214	17554.79
793.546	17527.22
793.879	17489.71
794.211	17436.38
794.543	17545.75
794.875	17322.03
795.207	17331.3
795.539	17274.12
795.871	17157.29
796.203	17065.54
796.535	17020.8
796.867	16950.74
797.198	16894.92
797.53	16746.45
797.862	16770.41
798.193	16842.27
798.525	16766.79
798.856	16724.76
799.188	16568.15
799.519	16493.58
799.85	16373.35
800.182	16359.57
800.513	16361.15
800.844	16213.36
801.175	16402.73
801.506	16372.45
801.837	16202.51
802.168	16220.14
802.499	16102.85
802.83	16049.3
803.161	15972.69
803.491	16011.78
803.822	15944.67
804.153	15858.11
804.483	15684.79
804.814	15767.72
805.145	15688.18
805.475	15650.44
805.805	15591.45
806.136	15587.84
806.466	15612.47
806.796	15503.55
807.126	15385.58
807.457	15375.64
807.787	15319.37
808.117	15191.01
808.447	15157.79
808.777	15257.45
809.107	15127.29
809.436	15139.94
809.766	15176.78
810.096	15057.68
810.426	15027.18
810.755	14973.39
811.085	14870.8
811.414	14859.5
811.744	14718.03
812.073	14746.5
812.403	14718.26
812.732	14756.22
813.061	14644.59
813.39	14612.95
813.719	14583.12
814.049	14701.31
814.378	14548.54
814.707	14404.14
815.036	14458.6
815.365	14444.59
815.693	14228.78
816.022	14319.62
816.351	14183.13
816.68	14152.62
817.008	14274.65
817.337	14082.79
817.665	14039.18
817.994	14058.39
818.322	13955.57
818.651	14042.57
818.979	13849.13
819.307	13956.24
819.636	13895.45
819.964	13843.03
820.292	13928.9
820.62	13873.53
820.948	13823.82
821.276	13791.95
821.604	13736.81
821.932	13859.07
822.259	13754.67
822.587	13716.25
822.915	13780.88
823.243	13786.98
823.57	13872.86
823.898	13740.43
824.225	13703.37
824.553	13705.4
824.88	13729.36
825.207	13729.58
825.535	13699.3
825.862	13768
826.189	13710.37
826.516	13789.24
826.843	13779.75
827.17	13795.12
827.497	13793.31
827.824	13770.26
828.151	13748.11
828.478	13682.8
828.805	13715.12
829.131	13692.75
829.458	13689.81
829.785	13631.96
830.111	13692.3
830.438	13703.37
830.764	13677.61
831.09	13731.84
831.417	13551.73
831.743	13622.47
832.069	13657.72
832.395	13483.04
832.722	13532.98
833.048	13516.25
833.374	13641.9
833.7	13510.15
834.026	13546.31
834.351	13538.4
834.677	13545.41
835.003	13566.2
835.329	13537.27
835.654	13396.03
835.98	13422.47
836.306	13454.34
836.631	13358.52
836.956	13416.14
837.282	13493.88
837.607	13317.16
837.932	13311.29
838.258	13358.07
838.583	13311.51
838.908	13151.29
839.233	13278.75
839.558	13243.04
839.883	13162.14
840.208	13178.41
840.533	13112.65
840.858	13154.23
841.182	13178.64
841.507	13087.11
841.832	12980.9
842.156	12997.17
842.481	13077.85
842.805	12987
843.13	12865.65
843.454	12910.17
843.778	12828.14
844.103	12772.09
844.427	12832.43
844.751	12772.32
845.075	12730.06
845.399	12728.93
845.723	12745.2
846.047	12737.29
846.371	12499.78
846.695	12459.11
847.019	12390.18
847.343	12306.57
847.666	12234.93
847.99	12260.69
848.313	12181.15
848.637	12206.46
848.96	12115.16
849.284	12094.82
849.607	12031.1
849.931	11936.18
850.254	11929.18
850.577	11877.65
850.9	11792.91
851.223	11725.34
851.546	11770.09
851.869	11638.79
852.192	11665.23
852.515	11574.38
852.838	11523.76
853.161	11521.96
853.483	11434.28
853.806	11411.68
854.129	11522.86
854.451	11346.37
854.774	11372.81
855.096	11273.15
855.419	11236.54
855.741	11225.02
856.063	11232.25
856.385	11186.15
856.708	11081.74
857.03	10977.79
857.352	11033.61
857.674	11016.43
857.996	10897.79
858.318	10803.78
858.64	10946.15
858.961	10884.23
859.283	10751.36
859.605	10774.41
859.926	10751.13
860.248	10717.01
860.57	10713.39
860.891	10740.51
861.212	10624.81
861.534	10667.06
861.855	10622.09
862.176	10622.77
862.498	10650.57
862.819	10662.77
863.14	10632.26
863.461	10537.35
863.782	10476.56
864.103	10479.72
864.424	10404.47
864.745	10467.75
865.065	10408.77
865.386	10308.2
865.707	10415.77
866.027	10437.24
866.348	10435.43
866.668	10362.21
866.989	10352.95
867.309	10327.41
867.63	10343.23
867.95	10217.36
868.27	10154.31
868.59	10182.11
868.91	10200.86
869.23	10169.45
869.55	10042
869.87	10174.65
870.19	10142.56
870.51	10103.46
870.83	10087.87
871.15	9973.3
871.469	10004.71
871.789	10064.59
872.109	9998.38
872.428	9917.93
872.748	9929.68
873.067	9931.94
873.386	9874.32
873.706	9921.32
874.025	9891.94
874.344	9856.46
874.663	9889.01
874.982	9856.01
875.301	9860.53
875.62	9844.49
875.939	9771.27
876.258	9784.83
876.577	9764.72
876.896	9712.74
877.214	9710.71
877.533	9691.04
877.852	9668.9
878.17	9762.23
878.489	9679.07
878.807	9674.55
879.125	9631.16
879.444	9634.1
879.762	9620.31
880.08	9585.74
880.398	9566.98
880.716	9557.49
881.034	9556.58
881.352	9570.6
881.67	9552.52
881.988	9519.07
882.306	9465.97
882.624	9476.14
882.941	9416.93
883.259	9320.66
883.577	9339.19
883.894	9298.96
884.212	9320.88
884.529	9307.78
884.846	9314.56
885.164	9193.88
885.481	9182.81
885.798	9242.92
886.115	9148.69
886.432	9135.8
886.75	9130.16
887.067	9151.17
887.383	9056.71
887.7	9091.29
888.017	9108.24
888.334	9079.54
888.651	9047.9
888.967	8981.91
889.284	8995.7
889.6	8986.88
889.917	8910.95
890.233	8928.35
890.55	8868.92
890.866	8811.52
891.182	8873.66
891.498	8797.28
891.815	8750.28
892.131	8684.97
892.447	8680.68
892.763	8718.19
893.079	8682.71
893.395	8655.14
893.71	8663.5
894.026	8602.49
894.342	8643.39
894.657	8495.6
894.973	8554.8
895.289	8537.4
895.604	8396.16
895.92	8438.42
896.235	8350.29
896.55	8378.08
896.865	8368.59
897.181	8351.42
897.496	8311.19
897.811	8312.1
898.126	8234.36
898.441	8246.34
898.756	8170.86
899.071	8169.95
899.386	8179.22
899.7	8037.75
900.015	8024.2
900.33	8064.65
900.644	8002.5
900.959	8010.86
901.273	7976.29
901.588	7962.05
901.902	7845.9
902.216	7841.83
902.531	7867.82
902.845	7848.61
903.159	7677.54
903.473	7723.19
903.787	7710.31
904.101	7633.02
904.415	7613.81
904.729	7571.33
905.042	7543.76
905.356	7559.35
905.67	7559.8
905.984	7558.9
906.297	7513.7
906.611	7467.6
906.924	7452.23
907.237	7444.55
907.551	7386.92
907.864	7340.15
908.177	7384.44
908.491	7316.19
908.804	7195.29
909.117	7229.41
909.43	7187.83
909.743	7121.17
910.056	7082.07
910.368	7157.78
910.681	7033.94
910.994	7034.17
911.307	6963.43
911.619	6965.47
911.932	6994.84
912.244	6881.85
912.557	6939.25
912.869	6900.38
913.181	6825.13
913.494	6818.35
913.806	6778.13
914.118	6738.81
914.43	6708.3
914.742	6772.7
915.054	6649.32
915.366	6665.36
915.678	6615.19
915.99	6609.54
916.302	6573.84
916.613	6561.18
916.925	6523.22
917.236	6572.71
917.548	6461.75
917.859	6492.94
918.171	6442.32
918.482	6409.55
918.794	6427.4
919.105	6324.13
919.416	6315.77
919.727	6279.16
920.038	6295.65
920.349	6212.04
920.66	6207.07
920.971	6167.07
921.282	6198.03
921.593	6148.09
921.903	6077.58
922.214	6079.39
922.525	6016.34
922.835	6007.98
923.146	5990.12
923.456	5991.93
923.767	5961.43
924.077	5977.47
924.387	5911.26
924.697	5904.93
925.008	5830.13
925.318	5791.26
925.628	5826.29
925.938	5799.85
926.248	5718.95
926.558	5706.97
926.867	5670.81
927.177	5681.88
927.487	5661.09
927.796	5605.95
928.106	5633.3
928.416	5555.79
928.725	5551.04
929.034	5492.06
929.344	5511.04
929.653	5489.12
929.962	5462.68
930.271	5419.97
930.581	5403.7
930.89	5356.7
931.199	5306.3
931.508	5345.4
931.817	5332.29
932.125	5286.87
932.434	5284.38
932.743	5230.6
933.051	5188.56
933.36	5247.77
933.669	5129.58
933.977	5178.62
934.286	5120.09
934.594	5160.77
934.902	5100.2
935.21	5083.26
935.519	5033.77
935.827	5061.34
936.135	5027.66
936.443	4993.77
936.751	4927.33
937.059	4971.39
937.367	4910.61
937.674	4912.19
937.982	4856.6
938.29	4916.93
938.597	4852.75
938.905	4824.28
939.213	4869.48
939.52	4779.99
939.827	4755.36
940.135	4752.42
940.442	4682.59
940.749	4647.11
941.056	4725.53
941.363	4671.06
941.67	4627
941.977	4631.52
942.284	4580.22
942.591	4551.29
942.898	4553.1
943.205	4570.95
943.511	4535.7
943.818	4510.84
944.125	4460
944.431	4424.52
944.738	4417.96
945.044	4431.97
945.35	4406.44
945.657	4397.4
945.963	4348.36
946.269	4353.78
946.575	4334.58
946.881	4314.01
947.187	4266.78
947.493	4248.25
947.799	4299.77
948.105	4243.28
948.41	4202.15
948.716	4213.22
949.022	4187.91
949.327	4163.28
949.633	4097.29
949.938	4122.6
950.244	4129.83
950.549	4113.11
950.854	4104.52
951.16	4053.23
951.465	4059.78
951.77	4088.03
952.075	4013.91
952.38	4034.92
952.685	4018.43
952.99	3942.27
953.294	3922.61
953.599	3953.34
953.904	3909.28
954.209	3845.32
954.513	3843.74
954.818	3866.11
955.122	3813.23
955.426	3786.79
955.731	3797.64
956.035	3782.5
956.339	3751.54
956.643	3759.68
956.948	3745.44
957.252	3729.17
957.556	3709.73
957.86	3680.58
958.163	3708.83
958.467	3695.5
958.771	3660.92
959.075	3632.45
959.378	3606.68
959.682	3606.01
959.985	3546.35
960.289	3603.97
960.592	3580.47
960.896	3535.73
961.199	3494.82
961.502	3521.49
961.805	3473.81
962.108	3437.2
962.411	3494.37
962.714	3380.25
963.017	3414.6
963.32	3439.46
963.623	3397.42
963.926	3412.11
964.228	3401.27
964.531	3333.02
964.833	3368.95
965.136	3319.46
965.438	3334.38
965.741	3280.82
966.043	3289.18
966.345	3286.92
966.648	3240.82
966.95	3239.69
967.252	3215.96
967.554	3214.15
967.856	3256.19
968.158	3171.67
968.46	3175.51
968.761	3173.02
969.063	3163.31
969.365	3147.94
969.666	3130.31
969.968	3083.53
970.269	3065.23
970.571	3065.91
970.872	3060.03
971.174	3046.93
971.475	3038.79
971.776	3004.21
972.077	3027.72
972.378	2977.1
972.679	3034.95
972.98	2977.1
973.281	2956.53
973.582	2959.7
973.883	2921.05
974.183	2931
974.484	2916.31
974.785	2883.54
975.085	2904.56
975.386	2893.03
975.686	2882.41
975.986	2855.07
976.287	2869.76
976.587	2843.99
976.887	2850.09
977.187	2814.16
977.487	2810.32
977.787	2732.36
978.087	2751.57
978.387	2764
978.687	2744.11
978.987	2729.65
979.286	2710.89
979.586	2666.6
979.885	2678.57
980.185	2691.23
980.484	2634.96
980.784	2667.27
981.083	2663.43
981.382	2631.34
981.682	2629.31
981.981	2594.06
982.28	2620.27
982.579	2582.76
982.878	2595.86
983.177	2590.21
983.475	2571.68
983.774	2521.52
984.073	2545.24
984.372	2496.43
984.67	2517.22
984.969	2507.28
985.267	2497.11
985.566	2487.39
985.864	2471.57
986.162	2449.43
986.461	2466.83
986.759	2418.69
987.057	2430.67
987.355	2395.87
987.653	2381.63
987.951	2383.67
988.249	2372.37
988.547	2389.77
988.844	2349.09
989.142	2364.68
989.44	2319.04
989.737	2314.74
990.035	2321.97
990.332	2329.66
990.63	2293.05
990.927	2317
991.224	2260.96
991.521	2272.48
991.819	2237.91
992.116	2275.65
992.413	2215.08
992.71	2215.76
993.006	2202.65
993.303	2201.52
993.6	2191.81
993.897	2158.59
994.193	2174.86
994.49	2160.4
994.787	2147.74
995.083	2140.51
995.379	2136.67
995.676	2117.01
995.972	2136.67
996.268	2088.08
996.565	2087.4
996.861	2045.82
997.157	2014.41
997.453	2065.03
997.749	2024.35
998.044	2030.91
998.34	2027.97
998.636	2017.8
998.932	1968.76
999.227	1971.47
999.523	2005.15
999.818	1961.53
1000.114	1969.67
1000.409	1949.55
1000.704	1928.08
1001	1906.62
1001.295	1929.44
1001.59	1926.73
1001.885	1921.98
1002.18	1888.76
1002.475	1855.09
1002.77	1843.79
1003.065	1876.79
1003.359	1878.37
1003.654	1851.7
1003.949	1846.96
1004.243	1833.85
1004.538	1817.13
1004.832	1818.26
1005.127	1813.96
1005.421	1795.88
1005.715	1798.37
1006.009	1760.41
1006.304	1749.11
1006.598	1743.23
1006.892	1748.65
1007.186	1714.31
1007.48	1728.09
1007.773	1717.24
1008.067	1712.95
1008.361	1690.8
1008.655	1705.72
1008.948	1678.37
1009.242	1668.2
1009.535	1652.16
1009.829	1634.53
1010.122	1618.71
1010.415	1618.49
1010.708	1647.19
1011.001	1611.03
1011.295	1592.95
1011.588	1595.44
1011.881	1574.65
1012.173	1571.48
1012.466	1550.02
1012.759	1589.34
1013.052	1555.67
1013.344	1553.41
1013.637	1596.34
1013.93	1527.87
1014.222	1514.76
1014.514	1514.99
1014.807	1474.09
1015.099	1472.28
1015.391	1484.03
1015.683	1465.72
1015.976	1467.76
1016.268	1463.01
1016.56	1454.2
1016.851	1450.13
1017.143	1434.99
1017.435	1421.43
1017.727	1401.77
1018.018	1375.11
1018.31	1408.55
1018.602	1376.46
1018.893	1382.79
1019.185	1371.04
1019.476	1357.25
1019.767	1369.68
1020.058	1359.29
1020.35	1337.14
1020.641	1305.05
1020.932	1301.66
1021.223	1279.06
1021.514	1292.17
1021.804	1270.7
1022.095	1284.71
1022.386	1290.36
1022.677	1237.26
1022.967	1274.32
1023.258	1260.98
1023.548	1260.98
1023.839	1246.75
1024.129	1232.51
1024.419	1246.29
1024.709	1220.98
1025	1207.65
1025.29	1209.46
1025.58	1212.17
1025.87	1197.03
1026.16	1178.73
1026.449	1158.84
1026.739	1153.64
1027.029	1140.31
1027.319	1133.76
1027.608	1137.37
1027.898	1130.14
1028.187	1126.07
1028.477	1080.42
1028.766	1111.84
1029.055	1097.37
1029.344	1102.8
1029.634	1102.34
1029.923	1072.29
1030.212	1092.4
1030.501	1057.6
1030.79	1058.73
1031.078	1061.67
1031.367	1045.4
1031.656	1028.45
1031.945	1028.9
1032.233	1040.65
1032.522	1037.26
1032.81	1002.46
1033.099	1006.08
1033.387	1001.56
1033.675	997.71
1033.963	1000.65
1034.251	1017.15
1034.54	961.33
1034.828	982.57
1035.116	960.65
1035.403	950.71
1035.691	955.23
1035.979	947.77
1036.267	929.02
1036.554	931.5
1036.842	937.83
1037.129	914.78
1037.417	898.06
1037.704	910.26
1037.992	903.03
1038.279	906.42
1038.566	898.28
1038.853	898.28
1039.14	898.28
