Data from plate_porcelain_FLMS001491_077.txt Node
Date: Tue Feb 07 11:19:52 GMT 2017
User: dcchb
Spectrometer: FLMS00149
Trigger mode: 0
Integration Time (sec): 2.000000E-2
Scans to average: 10
Electric dark correction enabled: true
Nonlinearity correction enabled: false
Boxcar width: 0
XAxis mode: Wavelengths
Number of Pixels in Spectrum: 2048
>>>>>Begin Spectral Data<<<<<
341.393	-13.86
341.776	-13.86
342.16	-13.86
342.543	-65.38
342.927	-59.73
343.31	-77.58
343.693	-59.05
344.077	-63.35
344.46	-53.18
344.843	-48.43
345.226	-55.21
345.61	-39.62
345.993	-18.38
346.376	-2.1
346.759	4.45
347.142	24.79
347.525	59.81
347.908	53.71
348.291	82.41
348.674	84.45
349.057	107.27
349.44	131.45
349.823	155.86
350.206	149.08
350.588	248.06
350.971	241.05
351.354	278.11
351.737	282.41
352.119	275.4
352.502	307.49
352.884	330.54
353.267	329.41
353.65	328.28
354.032	353.59
354.414	349.75
354.797	366.02
355.179	357.43
355.562	370.54
355.944	385.23
356.326	389.3
356.709	398.56
357.091	385.91
357.473	393.14
357.855	397.66
358.238	394.27
358.62	385
359.002	400.6
359.384	423.87
359.766	405.34
360.148	420.03
360.53	408.28
360.912	421.84
361.294	410.77
361.676	387.26
362.057	420.48
362.439	405.57
362.821	401.95
363.203	432.46
363.584	410.77
363.966	418.22
364.348	405.34
364.729	413.03
365.111	397.43
365.493	404.44
365.874	423.42
366.256	418.22
366.637	406.25
367.019	428.62
367.4	414.83
367.781	382.74
368.163	391.56
368.544	422.74
368.925	416.19
369.306	411.22
369.688	411.22
370.069	431.56
370.45	425.91
370.831	422.07
371.212	423.87
371.593	453.25
371.974	461.84
372.355	413.25
372.736	434.04
373.117	448.05
373.498	450.76
373.879	447.15
374.26	437.21
374.641	436.75
375.021	450.76
375.402	432.01
375.783	476.75
376.163	482.85
376.544	504.55
376.925	480.37
377.305	480.59
377.686	484.89
378.066	494.83
378.447	509.52
378.827	519.69
379.208	512.23
379.588	516.3
379.968	532.8
380.349	522.18
380.729	523.31
381.109	526.02
381.489	537.77
381.87	553.36
382.25	543.42
382.63	535.73
383.01	553.36
383.39	571.89
383.77	564.89
384.15	573.02
384.53	559.69
384.91	591.55
385.29	593.13
385.67	618.44
386.049	610.08
386.429	612.12
386.809	613.92
387.189	645.56
387.568	618.22
387.948	638.33
388.328	651.44
388.707	641.49
389.087	682.4
389.466	665
389.846	692.79
390.225	669.74
390.605	681.04
390.984	699.12
391.363	726.01
391.743	721.04
392.122	722.17
392.501	734.83
392.881	771.21
393.26	747.25
393.639	740.7
394.018	787.03
394.397	769.4
394.776	786.12
395.155	785.67
395.534	780.47
395.913	813.02
396.292	823.64
396.671	829.51
397.05	831.09
397.429	869.06
397.808	868.38
398.186	865.9
398.565	872.9
398.944	890.3
399.323	865.22
399.701	869.96
400.08	898.89
400.458	951.09
400.837	943.63
401.215	962.84
401.594	943.63
401.972	951.99
402.351	976.4
402.729	989.96
403.107	986.57
403.486	1022.05
403.864	1007.81
404.242	1015.5
404.62	1055.49
404.999	1055.27
405.377	1074.03
405.755	1091.43
406.133	1091.2
406.511	1101.14
406.889	1123.06
407.267	1125.32
407.645	1153.8
408.023	1209.84
408.401	1172.55
408.779	1191.99
409.156	1219.56
409.534	1240.57
409.912	1241.03
410.29	1269.95
410.667	1300.91
411.045	1337.75
411.422	1336.39
411.8	1347.92
412.178	1387.46
412.555	1406.22
412.933	1421.13
413.31	1405.32
413.687	1452.09
414.065	1478.76
414.442	1488.7
414.819	1505.2
415.197	1523.73
415.574	1556.5
415.951	1573.67
416.328	1585.2
416.705	1581.81
417.082	1594.92
417.46	1657.29
417.837	1660
418.214	1668.13
418.591	1690.73
418.967	1720.11
419.344	1713.56
419.721	1736.61
420.098	1745.65
420.475	1805.76
420.852	1796.04
421.228	1823.84
421.605	1798.75
421.982	1869.71
422.358	1879.65
422.735	1886.89
423.111	1891.41
423.488	1937.51
423.864	1960.78
424.241	1962.36
424.617	1976.15
424.994	2030.84
425.37	2033.55
425.746	2055.02
426.123	2112.64
426.499	2130.27
426.875	2145.64
427.251	2198.52
427.627	2224.96
428.003	2261.56
428.379	2295.46
428.756	2321.45
429.132	2356.93
429.507	2392.41
429.883	2382.24
430.259	2490.94
430.635	2451.84
431.011	2482.35
431.387	2556.02
431.763	2585.85
432.138	2620.43
432.514	2649.13
432.89	2680.99
433.265	2773.87
433.641	2788.1
434.016	2814.77
434.392	2853.87
434.767	2904.94
435.143	2911.49
435.518	2940.64
435.894	2983.81
436.269	3026.29
436.644	3069.23
437.02	3097.25
437.395	3105.61
437.77	3186.74
438.145	3226.96
438.52	3250.01
438.895	3278.94
439.271	3281.65
439.646	3359.16
440.021	3395.09
440.395	3458.37
440.77	3386.73
441.145	3443.91
441.52	3490.91
441.895	3520.29
442.27	3601.42
442.645	3519.61
443.019	3629.21
443.394	3633.51
443.769	3679.15
444.143	3613.85
444.518	3713.5
444.892	3707.4
445.267	3776.78
445.641	3787.4
446.016	3819.26
446.39	3855.87
446.764	3882.31
447.139	3873.5
447.513	3950.33
447.887	3937.9
448.262	3975.64
448.636	4051.57
449.01	4083.21
449.384	4115.3
449.758	4132.93
450.132	4196.43
450.506	4225.36
450.88	4280.95
451.254	4260.38
451.628	4316.43
452.002	4425.8
452.376	4419.93
452.75	4470.55
453.123	4534.05
453.497	4602.29
453.871	4642.07
454.244	4748.73
454.618	4793.7
454.992	4799.58
455.365	4844.77
455.739	5004.32
456.112	5024.2
456.486	5047.71
456.859	5169.28
457.232	5249.96
457.606	5255.61
457.979	5275.95
458.352	5384.19
458.725	5474.59
459.099	5504.42
459.472	5616.05
459.845	5650.85
460.218	5773.34
460.591	5829.15
460.964	5797.97
461.337	5983.5
461.71	6037.74
462.083	6225.75
462.456	6243.61
462.829	6261.91
463.201	6346.88
463.574	6384.85
463.947	6454.67
464.32	6651.28
464.692	6631.39
465.065	6708.68
465.438	6804.27
465.81	6913.87
466.183	7009.69
466.555	7172.85
466.928	7249.46
467.3	7221.43
467.672	7283.13
468.045	7536.23
468.417	7535.78
468.789	7680.18
469.161	7756.56
469.534	7913.17
469.906	8028.19
470.278	8123.11
470.65	8222.99
471.022	8366.04
471.394	8524.68
471.766	8591.34
472.138	8730.55
472.51	8924.44
472.882	9059.13
473.253	9203.53
473.625	9265.67
473.997	9487.82
474.369	9605.78
474.74	9657.53
475.112	9898.43
475.484	10052.09
475.855	10235.37
476.227	10272.65
476.598	10636.94
476.97	10612.53
477.341	10898.17
477.713	11015.01
478.084	11216.13
478.455	11531.6
478.827	11531.83
479.198	11963
479.569	11901.54
479.94	12391.69
480.311	12500.84
480.682	12690.67
481.053	13034.39
481.424	13176.98
481.795	13401.84
482.166	13617.2
482.537	13823.97
482.908	14038.2
483.279	14171.76
483.65	14455.14
484.021	14767.45
484.391	14891.06
484.762	15047.44
485.133	15267.78
485.503	15409.92
485.874	15853.52
486.244	15952.05
486.615	16296
486.985	16461.87
487.356	16795.87
487.726	16910.67
488.097	17320.6
488.467	17291
488.837	17733.02
489.207	17924.2
489.578	18218.43
489.948	18374.14
490.318	18717.63
490.688	18725.76
491.058	18984.51
491.428	19253.89
491.798	19412.3
492.168	19973.64
492.538	20045.05
492.908	20220.41
493.278	20564.13
493.648	20549.67
494.017	20863.11
494.387	21049.55
494.757	21184.01
495.126	21398.46
495.496	21485.69
495.866	21669.19
496.235	21968.84
496.605	22110.99
496.974	22275.5
497.344	22510.07
497.713	22710.52
498.082	22818.31
498.452	23105.76
498.821	23182.6
499.19	23271.18
499.559	23587.11
499.928	23719.76
500.298	23857.83
500.667	24143.93
501.036	24135.11
501.405	24394.32
501.774	24438.16
502.143	24700.97
502.512	24858.26
502.88	25055.99
503.249	25160.4
503.618	25389.32
503.987	25424.8
504.356	25666.37
504.724	25827.95
505.093	25959.92
505.462	26137.1
505.83	26472
506.199	26516.97
506.567	26910.63
506.936	26791.54
507.304	27111.76
507.672	27343.62
508.041	27440.56
508.409	27670.39
508.777	27916.71
509.145	28161.22
509.514	28198.28
509.882	28482.57
510.25	28487.54
510.618	28652.74
510.986	28884.82
511.354	29203.23
511.722	29418.14
512.09	29602.09
512.458	29613.61
512.826	29998.69
513.193	30139.93
513.561	30288.85
513.929	30692.23
514.297	30842.06
514.664	31088.83
515.032	31235.94
515.4	31487.24
515.767	31785.99
516.135	31889.94
516.502	31710.51
516.869	32293.54
517.237	32410.83
517.604	32596.81
517.972	32947.99
518.339	33256.68
518.706	33214.42
519.073	33351.59
519.44	33623.45
519.808	34087.17
520.175	34168.3
520.542	34611.22
520.909	34778.68
521.276	34806.92
521.643	35315.38
522.009	35459.79
522.376	35682.16
522.743	35851.87
523.11	36376.15
523.477	36589.25
523.843	36735.69
524.21	37229.46
524.577	37509.68
524.943	37745.15
525.31	37855.66
525.676	38193.05
526.043	38504
526.409	38714.84
526.776	39065.57
527.142	39226.69
527.508	39590.3
527.874	39821.93
528.241	40007.69
528.607	40129.04
528.973	40498.53
529.339	40482.25
529.705	40907.55
530.071	41232.97
530.437	41357.03
530.803	41749.57
531.169	42081.08
531.535	41966.51
531.901	42102.33
532.267	42314.97
532.632	42555.65
532.998	42682.2
533.364	43112.02
533.73	43251.45
534.095	43533.47
534.461	43598.11
534.826	43868.15
535.192	44079.45
535.557	44310.85
535.923	44412.77
536.288	44593.79
536.653	44782.71
537.019	44759.2
537.384	44897.51
537.749	45122.36
538.114	45207.1
538.479	45225.86
538.845	45413.2
539.21	45594.21
539.575	45844.15
539.94	45823.81
540.305	46240.52
540.67	46296.57
541.034	46302.67
541.399	46694.75
541.764	46633.28
542.129	46670.34
542.494	46923.44
542.858	47106.49
543.223	47206.6
543.587	47439.81
543.952	47471
544.316	47579.02
544.681	47711.44
545.045	47920.48
545.41	47978.1
545.774	48082.73
546.138	48179.23
546.503	48334.93
546.867	48342.16
547.231	48652.21
547.595	48693.11
547.959	48935.14
548.324	48998.64
548.688	49033.89
549.052	49160.22
549.416	49305.07
549.779	49381
550.143	49458.52
550.507	49866.41
550.871	49788.68
551.235	49920.42
551.599	50170.81
551.962	50296.01
552.326	50333.75
552.689	50623.01
553.053	50582.55
553.417	50614.87
553.78	51028.19
554.143	50912.49
554.507	51122.65
554.87	51250.33
555.234	51657.78
555.597	51579.59
555.96	51644.45
556.323	51769.87
556.686	51815.74
557.05	52119.01
557.413	52221.61
557.776	52326.01
558.139	52500.92
558.502	52537.53
558.865	52607.59
559.228	52900.91
559.59	52923.28
559.953	52967.12
560.316	53345.42
560.679	53261.81
561.041	53558.07
561.404	53664.73
561.767	53932.97
562.129	53748.35
562.492	54058.62
562.854	54076.25
563.217	54164.15
563.579	54326.86
563.941	54504.94
564.304	54650.02
564.666	54871.71
565.028	54834.42
565.39	54970.24
565.753	55127.75
566.115	55242.54
566.477	55313.5
566.839	55419.72
567.201	55574.29
567.563	55638.69
567.925	55818.12
568.287	55767.5
568.648	55882.98
569.01	56049.98
569.372	56206.36
569.734	56172.24
570.095	56289.3
570.457	56439.12
570.819	56532
571.18	56489.97
571.542	56732
571.903	56744.2
572.265	56857.87
572.626	56953.91
572.987	56945.55
573.349	57033.91
573.71	57199.33
574.071	57163.85
574.432	57253.57
574.794	57454.01
575.155	57378.53
575.516	57366.1
575.877	57543.73
576.238	57492.65
576.599	57656.27
576.96	57664.63
577.32	57732.42
577.681	57782.59
578.042	57814.91
578.403	57900.1
578.763	57941.23
579.124	57971.06
579.485	58080.44
579.845	58129.02
580.206	58033.43
580.566	58085.86
580.927	58109.59
581.287	58173.32
581.648	58095.35
582.008	58175.35
582.368	58197.95
582.728	58253.31
583.089	58136.03
583.449	58187.1
583.809	58237.95
584.169	58291.28
584.529	58301
584.889	58499.18
585.249	58261
585.609	58241.11
585.969	58352.75
586.329	58322.69
586.688	58325.85
587.048	58303.48
587.408	58305.97
587.768	58297.61
588.127	58337.6
588.487	58288.79
588.846	58457.38
589.206	58318.4
589.565	58352.07
589.925	58419.64
590.284	58360.88
590.643	58497.37
591.003	58531.5
591.362	58564.49
591.721	58436.58
592.08	58513.65
592.44	58534.66
592.799	58523.81
593.158	58514.77
593.517	58460.77
593.876	58546.41
594.235	58495.11
594.593	58466.19
594.952	58590.71
595.311	58480.88
595.67	58615.79
596.029	58740.53
596.387	58709.57
596.746	58768.1
597.104	58566.98
597.463	58635
597.822	58737.82
598.18	58676.58
598.538	58642.46
598.897	58770.81
599.255	58616.24
599.613	58978.72
599.972	58792.06
600.33	58833.86
600.688	58770.59
601.046	58901.43
601.404	59000.86
601.762	58917.93
602.12	59010.36
602.478	59051.71
602.836	59049
603.194	58869.34
603.552	59006.97
603.91	58940.3
604.268	59090.13
604.625	58973.52
604.983	59123.57
605.341	59015.1
605.698	59110.47
606.056	59182.1
606.413	59205.6
606.771	59229.33
607.128	59306.39
607.485	59171.03
607.843	59161.54
608.2	59262.55
608.557	59418.93
608.914	59346.84
609.272	59432.94
609.629	59490.57
609.986	59529.44
610.343	59361.08
610.7	59616.67
611.057	59538.02
611.414	59537.57
611.771	59536.9
612.127	59565.37
612.484	59640.62
612.841	59744.8
613.198	59640.17
613.554	59700.73
613.911	59768.75
614.267	59754.74
614.624	59800.62
614.98	59907.28
615.337	59950.9
615.693	59968.3
616.05	59883.33
616.406	60042.19
616.762	59882.42
617.118	59936.66
617.475	59953.16
617.831	59969.65
618.187	60049.2
618.543	60003.1
618.899	60105.24
619.255	60126.71
619.611	60051.23
619.967	60144.79
620.323	60171.68
620.678	60156.31
621.034	60108.18
621.39	60076.32
621.746	60061.85
622.101	60341.85
622.457	60102.53
622.812	60166.48
623.168	60137.33
623.523	60176.2
623.879	60239.93
624.234	60120.16
624.589	60195.63
624.945	60209.19
625.3	60166.26
625.655	60192.92
626.01	60241.74
626.365	60231.11
626.72	60216.43
627.075	60217.56
627.43	60227.5
627.785	60115.41
628.14	60124.9
628.495	60181.85
628.85	60135.07
629.205	60055.07
629.559	60170.32
629.914	60021.63
630.269	60089.42
630.623	60030.89
630.978	59963.55
631.332	60039.25
631.687	60102.76
632.041	59964.68
632.396	60042.42
632.75	59895.08
633.104	59893.27
633.459	59782.09
633.813	59813.27
634.167	59799.49
634.521	59810.56
634.875	59799.04
635.229	59692.6
635.583	59652.15
635.937	59666.38
636.291	59624.35
636.645	59611.92
636.999	59557.23
637.352	59625.93
637.706	59444.47
638.06	59564.24
638.413	59485.37
638.767	59441.08
639.121	59448.54
639.474	59284.92
639.828	59347.97
640.181	59355.88
640.534	59290.57
640.888	59276.34
641.241	59198.6
641.594	59131.71
641.947	59291.93
642.301	59149.33
642.654	59186.17
643.007	59178.03
643.36	59057.81
643.713	59034.31
644.066	59144.81
644.419	58950.92
644.771	58806.97
645.124	58566.07
645.477	58521.33
645.83	58351.39
646.182	58266.65
646.535	58195.01
646.888	58253.09
647.24	58135.8
647.593	58233.2
647.945	58134.22
648.298	57974.9
648.65	57882.7
649.002	57832.31
649.355	57898.07
649.707	57966.31
650.059	58028.46
650.411	58296.25
650.763	58304.61
651.115	58531.72
651.467	58423.93
651.819	58416.02
652.171	58378.96
652.523	58368.34
652.875	58251.51
653.227	58191.39
653.578	58337.15
653.93	58256.93
654.282	58098.06
654.633	58099.64
654.985	58137.61
655.337	58170.6
655.688	58115.69
656.039	58241.34
656.391	58028.23
656.742	58076.37
657.094	58120.21
657.445	58224.16
657.796	58054.22
658.147	58007.67
658.498	57970.83
658.849	58113.66
659.2	57927.45
659.551	57977.61
659.902	58031.17
660.253	57927.67
660.604	57922.7
660.955	57858.07
661.306	57917.73
661.656	57863.49
662.007	57904.85
662.358	57767
662.708	57775.36
663.059	57844.28
663.409	57655.36
663.76	57798.18
664.11	57738.75
664.461	57702.59
664.811	57820.56
665.161	57735.81
665.511	57664.18
665.862	57722.03
666.212	57847
666.562	57778.75
666.912	57779.2
667.262	57713.89
667.612	57747.11
667.962	57696.49
668.312	57726.77
668.662	57844.06
669.011	57560.22
669.361	57601.8
669.711	57592.54
670.06	57561.35
670.41	57562.94
670.76	57499.21
671.109	57549.38
671.459	57434.35
671.808	57469.6
672.157	57532.43
672.507	57344.86
672.856	57382.38
673.205	57425.54
673.554	57475.25
673.904	57345.54
674.253	57465.54
674.602	57362.49
674.951	57085.43
675.3	56953.23
675.649	57387.57
675.998	57343.51
676.346	57185.77
676.695	57390.51
677.044	57172.66
677.393	57317.29
677.741	57275.71
678.09	57164.75
678.438	57183.51
678.787	57167.69
679.135	57185.32
679.484	57013.57
679.832	57108.94
680.181	57002.5
680.529	57030.97
680.877	56941.26
681.225	56856.74
681.573	57033.46
681.922	56849.06
682.27	56809.74
682.618	56804.31
682.966	56700.81
683.314	56722.51
683.661	56657.2
684.009	56462.63
684.357	56441.38
684.705	56392.34
685.053	56528.39
685.4	56308.28
685.748	56271.9
686.095	56273.48
686.443	56160.03
686.79	56088.85
687.138	56094.5
687.485	56150.09
687.832	55985.8
688.18	56030.09
688.527	55903.32
688.874	55884.11
689.221	55743.1
689.568	55695.41
689.915	55610.9
690.262	55648.86
690.609	55501.52
690.956	55495.19
691.303	55345.82
691.65	55262.43
691.997	55276.44
692.344	55041.87
692.69	55122.1
693.037	55143.79
693.383	54866.74
693.73	54960.52
694.077	54800.52
694.423	54776.12
694.769	54689.34
695.116	54639.62
695.462	54533.86
695.808	54561.21
696.155	54592.62
696.501	54300.65
696.847	54439.4
697.193	54159.64
697.539	54202.35
697.885	54112.86
698.231	53977.95
698.577	53915.57
698.923	53891.85
699.269	53696.37
699.614	53534.11
699.96	53518.52
700.306	53528.01
700.651	53355.36
700.997	53330.5
701.342	53274.01
701.688	53179.1
702.033	53107.23
702.379	53077.18
702.724	52860.23
703.069	53058.65
703.415	52709.96
703.76	52641.94
704.105	52631.09
704.45	52610.98
704.795	52383.41
705.14	52350.19
705.485	52293.7
705.83	52187.71
706.175	52249.4
706.52	52063.42
706.865	52061.61
707.209	51985.23
707.554	51855.52
707.899	51767.61
708.243	51721.06
708.588	51660.72
708.932	51437.9
709.277	51463.21
709.621	51436.09
709.966	51173.27
710.31	51316.09
710.654	50927.86
710.998	51100.51
711.342	51005.82
711.687	50923.56
712.031	50787.52
712.375	50687.18
712.719	50802.66
713.063	50632.95
713.407	50671.82
713.75	50506.85
714.094	50515.66
714.438	50421.43
714.782	50306.86
715.125	50192.73
715.469	50240.42
715.812	50048.33
716.156	49898.5
716.499	49900.54
716.843	49985.96
717.186	49593.88
717.53	49871.16
717.873	49745.51
718.216	49656.48
718.559	49526.99
718.902	49449.93
719.246	49365.41
719.589	49357.73
719.932	49121.58
720.275	49160.22
720.617	49146.43
720.96	49009.04
721.303	48899.89
721.646	48959.09
721.989	48863.05
722.331	48848.36
722.674	48705.99
723.016	48640.01
723.359	48633.45
723.701	48571.53
724.044	48317.53
724.386	48198.66
724.729	48452.21
725.071	48270.07
725.413	48123.64
725.755	48161.83
726.097	47952.11
726.439	47851.1
726.782	47838.9
727.124	47951.21
727.465	47682.29
727.807	47720.48
728.149	47602.29
728.491	47523.88
728.833	47516.19
729.175	47425.12
729.516	47347.61
729.858	47194.39
730.199	47196.2
730.541	47109.65
730.882	47006.15
731.224	47100.61
731.565	46890.45
731.906	46953.05
732.248	47045.7
732.589	46763.67
732.93	46637.12
733.271	46596.67
733.612	46759.38
733.953	46621.75
734.294	46523
734.635	46294.98
734.976	46401.87
735.317	46323.91
735.658	46145.83
735.999	46214.76
736.339	46013.41
736.68	46117.81
737.021	46056.35
737.361	45820.87
737.702	46113.97
738.042	45878.5
738.383	45716.24
738.723	45809.8
739.063	45602.57
739.404	45656.58
739.744	45565.74
740.084	45364.16
740.424	45529.35
740.764	45280.09
741.104	45405.29
741.444	45165.97
741.784	45098.63
742.124	45169.36
742.464	45106.54
742.804	44907.22
743.143	44794.46
743.483	44902.93
743.823	44656.61
744.162	44484.41
744.502	44649.6
744.841	44380.01
745.181	44650.51
745.52	44344.53
745.86	44383.85
746.199	44295.49
746.538	44236.96
746.877	44342.49
747.216	44140.46
747.556	44050.75
747.895	44019.11
748.234	43721.04
748.573	43707.93
748.911	43669.52
749.25	43735.28
749.589	43438.56
749.928	43510.65
750.267	43429.3
750.605	43340.26
750.944	43337.55
751.283	43103.43
751.621	43132.13
751.96	42888.75
752.298	43052.13
752.636	43046.93
752.975	42739.37
753.313	42612.14
753.651	42602.2
753.989	42454.18
754.327	42382.09
754.666	42294.18
755.004	42261.19
755.342	42406.95
755.679	42219.61
756.017	41965.83
756.355	42056.68
756.693	41814.88
757.031	41751.83
757.368	41437.94
757.706	41575.11
758.044	41472.29
758.381	41478.84
758.719	41170.15
759.056	41319.07
759.394	41087.89
759.731	40864.39
760.068	40768.12
760.405	40623.95
760.743	40438.64
761.08	40571.74
761.417	40326.78
761.754	40390.96
762.091	40128.14
762.428	40144.64
762.765	39837.3
763.102	39915.94
763.438	39734.93
763.775	39565.67
764.112	39412.23
764.449	39371.55
764.785	39180.59
765.122	38993.71
765.458	38895.63
765.795	38908.74
766.131	38869.64
766.467	38634.17
766.804	38434.4
767.14	38210.9
767.476	38231.01
767.812	37965.48
768.148	38128.42
768.485	37821.31
768.821	37800.07
769.157	37664.48
769.492	37611.6
769.828	37507.87
770.164	37179.74
770.5	37064.72
770.836	37126.64
771.171	36989.92
771.507	36760.09
771.842	36503.15
772.178	36426.32
772.513	36493.21
772.849	36350.84
773.184	36185.64
773.519	36172.09
773.855	35794.24
774.19	35720.57
774.525	35633.79
774.86	35647.58
775.195	35614.36
775.53	35472.44
775.865	35242.39
776.2	35015.28
776.535	34846.47
776.87	34752.69
777.205	34638.11
777.539	34455.97
777.874	34455.29
778.209	34323.09
778.543	34284
778.878	34004.23
779.212	33990
779.547	33770.11
779.881	33871.58
780.215	33637.24
780.55	33699.38
780.884	33350.01
781.218	33317.02
781.552	33260.3
781.886	33054.65
782.22	32890.82
782.554	32675
782.888	32561.56
783.222	32440.66
783.556	32287.44
783.889	32186.88
784.223	31991.4
784.557	31959.32
784.89	31997.05
785.224	31767
785.557	31728.59
785.891	31608.14
786.224	31376.51
786.558	31339.9
786.891	31127.92
787.224	31046.8
787.557	30955.95
787.891	30891.77
788.224	30887.93
788.557	30754.83
788.89	30743.53
789.223	30692.46
789.556	30309.87
789.888	30303.99
790.221	30219.02
790.554	29967.73
790.887	30118.01
791.219	29972.7
791.552	29819.48
791.884	29570.9
792.217	29696.1
792.549	29587.85
792.882	29241.65
793.214	29146.28
793.546	29228.31
793.879	28952.61
794.211	28747.2
794.543	28894.08
794.875	28708.78
795.207	28871.94
795.539	28527.09
795.871	28633.53
796.203	28414.78
796.535	28208.45
796.867	28086.42
797.198	28042.13
797.53	28061.11
797.862	27908.57
798.193	27878.97
798.525	27611.18
798.856	27661.35
799.188	27436.95
799.519	27361.7
799.85	27247.12
800.182	27171.64
800.513	27284.64
800.844	26985.43
801.175	27183.4
801.506	26935.04
801.837	26827.7
802.168	26841.71
802.499	26697.76
802.83	26570.3
803.161	26511.77
803.491	26509.97
803.822	26387.71
804.153	26253.7
804.483	26060.71
804.814	26137.77
805.145	25921.06
805.475	25944.78
805.805	25895.75
806.136	25844
806.466	25817.33
806.796	25834.05
807.126	25540.95
807.457	25516.32
807.787	25465.93
808.117	25347.74
808.447	25220.28
808.777	25272.49
809.107	25232.49
809.436	25107.29
809.766	25048.54
810.096	25018.03
810.426	24881.76
810.755	24798.37
811.085	24813.97
811.414	24827.07
811.744	24507.99
812.073	24539.17
812.403	24431.6
812.732	24328.33
813.061	24384.82
813.39	24240.65
813.719	24126.07
814.049	24273.19
814.378	24095.57
814.707	23954.78
815.036	23945.06
815.365	23895.35
815.693	23571.96
816.022	23744.62
816.351	23579.65
816.68	23498.75
817.008	23577.16
817.337	23419.43
817.665	23302.14
817.994	23461.01
818.322	23298.3
818.651	23219.43
818.979	23042.49
819.307	23131.75
819.636	23067.12
819.964	22979.66
820.292	23063.28
820.62	23088.59
820.948	22950.29
821.276	22961.36
821.604	22801.82
821.932	22907.58
822.259	22885.43
822.587	22828.03
822.915	22864.19
823.243	22854.02
823.57	22849.05
823.898	22812.66
824.225	22773.57
824.553	22692.21
824.88	22809.95
825.207	22857.86
825.535	22657.64
825.862	22837.52
826.189	22724.08
826.516	22864.41
826.843	22804.08
827.17	22829.39
827.497	22852.66
827.824	22780.8
828.151	22889.95
828.478	22794.81
828.805	22828.71
829.131	22643.4
829.458	22631.42
829.785	22546.91
830.111	22671.65
830.438	22826.45
830.764	22670.07
831.09	22724.53
831.417	22538.77
831.743	22613.8
832.069	22666.68
832.395	22514.59
832.722	22684.98
833.048	22464.2
833.374	22568.6
833.7	22369.96
834.026	22475.95
834.351	22390.08
834.677	22442.5
835.003	22465.78
835.329	22419.9
835.654	22450.64
835.98	22217.88
836.306	22225.79
836.631	22209.51
836.956	22249.29
837.282	22323.41
837.607	22237.08
837.932	22129.07
838.258	22151.89
838.583	22017.88
838.908	21906.25
839.233	21988.73
839.558	21890.43
839.883	21817.66
840.208	21812.46
840.533	21823.99
840.858	21853.14
841.182	21734.73
841.507	21795.74
841.832	21656.76
842.156	21597.55
842.481	21594.16
842.805	21501.51
843.13	21490.44
843.454	21435.75
843.778	21288.41
844.103	21177.23
844.427	21180.16
844.751	21251.12
845.075	21117.79
845.399	21013.16
845.723	20965.03
846.047	21014.29
846.371	20804.58
846.695	20847.06
847.019	20640.52
847.343	20555.1
847.666	20514.87
847.99	20347.87
848.313	20234.65
848.637	20197.36
848.96	20205.5
849.284	20180.64
849.607	19930.03
849.931	19923.02
850.254	19826.98
850.577	19716.47
850.9	19625.63
851.223	19548.57
851.546	19480.1
851.869	19208.92
852.192	19412.75
852.515	19250.5
852.838	19188.35
853.161	19165.3
853.483	19052.99
853.806	18960.56
854.129	19058.64
854.451	18927.57
854.774	18918.08
855.096	18754.24
855.419	18698.87
855.741	18587.92
856.063	18606.67
856.385	18550.4
856.708	18422.5
857.03	18419.56
857.352	18384.98
857.674	18227.7
857.996	18169.17
858.318	18012.34
858.64	18067.02
858.961	18044.88
859.283	17928.05
859.605	17852.79
859.926	17897.76
860.248	17864.32
860.57	17766.02
860.891	17776.41
861.212	17666.58
861.534	17599.92
861.855	17578
862.176	17650.99
862.498	17658
862.819	17644.66
863.14	17457.55
863.461	17430.88
863.782	17404.9
864.103	17390.43
864.424	17367.38
864.745	17240.83
865.065	17226.82
865.386	17312.02
865.707	17230.21
866.027	17200.16
866.348	17210.32
866.668	17158.57
866.989	17094.17
867.309	16900.5
867.63	16988.64
867.95	16981.63
868.27	16836.55
868.59	16936.89
868.91	16948.41
869.23	16864.12
869.55	16815.76
869.87	16937.79
870.19	16814.18
870.51	16841.52
870.83	16744.35
871.15	16588.87
871.469	16560.85
871.789	16627.51
872.109	16556.56
872.428	16498.03
872.748	16517.01
873.067	16596.33
873.386	16515.88
873.706	16430.23
874.025	16322.21
874.344	16338.93
874.663	16417.35
874.982	16387.07
875.301	16279.28
875.62	16219.16
875.939	16170.8
876.258	16163.35
876.577	16222.1
876.896	16113.4
877.214	16057.36
877.533	16122.67
877.852	16105.49
878.17	16092.61
878.489	16079.28
878.807	15940.75
879.125	15949.34
879.444	15888.1
879.762	15866.63
880.08	15983.01
880.398	15897.36
880.716	15917.48
881.034	15876.12
881.352	15897.82
881.67	15834.09
881.988	15784.83
882.306	15648.56
882.624	15700.76
882.941	15491.05
883.259	15484.72
883.577	15494.21
883.894	15421.67
884.212	15364.05
884.529	15333.09
884.846	15292.18
885.164	15279.75
885.481	15246.31
885.798	15332.41
886.115	15121.11
886.432	15180.32
886.75	15038.86
887.067	15135.8
887.383	15041.79
887.7	15053.54
888.017	14935.13
888.334	14996.37
888.651	14943.72
888.967	14893.32
889.284	14815.36
889.6	14763.61
889.917	14654.23
890.233	14783.27
890.55	14597.74
890.866	14591.18
891.182	14562.94
891.498	14466.44
891.815	14469.15
892.131	14409.49
892.447	14285.43
892.763	14339.21
893.079	14304.41
893.395	14289.05
893.71	14288.82
894.026	14147.35
894.342	14179.9
894.657	14095.83
894.973	14082.04
895.289	14065.55
895.604	14055.38
895.92	13823.75
896.235	13761.38
896.55	13762.28
896.865	13717.31
897.181	13701.04
897.496	13717.31
897.811	13663.3
898.126	13613.58
898.441	13493.36
898.756	13546.92
899.071	13465.79
899.386	13431.44
899.7	13271.44
900.015	13256.08
900.33	13263.54
900.644	13167.94
900.959	13226.25
901.273	13092.92
901.588	13003.2
901.902	12971.79
902.216	12995.52
902.531	12924.34
902.845	12838.01
903.159	12713.49
903.473	12742.65
903.787	12655.87
904.101	12612.93
904.415	12611.12
904.729	12533.39
905.042	12471.47
905.356	12452.03
905.67	12461.07
905.984	12459.94
906.297	12337.91
906.611	12345.82
906.924	12287.74
907.237	12254.97
907.551	12225.37
907.864	12116.45
908.177	12153.73
908.491	12068.31
908.804	11986.28
909.117	11842.78
909.43	11816.12
909.743	11763.01
910.056	11720.53
910.368	11732.73
910.681	11696.57
910.994	11565.73
911.307	11624.26
911.619	11461.1
911.932	11511.27
912.244	11414.09
912.557	11434.88
912.869	11278.28
913.181	11278.73
913.494	11231.95
913.806	11200.31
914.118	11144.5
914.43	11104.72
914.742	11038.06
915.054	11024.05
915.366	10978.62
915.678	10929.59
915.99	10875.35
916.302	10810.27
916.613	10777.73
916.925	10694.34
917.236	10698.86
917.548	10618.18
917.859	10584.51
918.171	10530.05
918.482	10489.82
918.794	10454.34
919.105	10453.67
919.416	10316.72
919.727	10269.49
920.038	10320.11
920.349	10169.38
920.66	10121.7
920.971	10151.3
921.282	10080.12
921.593	10073.11
921.903	9968.93
922.214	9941.59
922.525	9908.14
922.835	9871.08
923.146	9789.5
923.456	9822.72
923.767	9722.61
924.077	9747.92
924.387	9697.98
924.697	9620.69
925.008	9516.97
925.318	9566.91
925.628	9516.74
925.938	9459.79
926.248	9368.04
926.558	9386.12
926.867	9322.62
927.177	9289.85
927.487	9178.67
927.796	9130.54
928.106	9080.37
928.416	9109.29
928.725	9073.59
929.034	8995.85
929.344	9007.83
929.653	8971.9
929.962	8864.78
930.271	8875.4
930.581	8793.82
930.89	8793.6
931.199	8788.17
931.508	8725.12
931.817	8676.09
932.125	8607.39
932.434	8619.59
932.743	8510.89
933.051	8576.2
933.36	8539.59
933.669	8427.73
933.977	8372.36
934.286	8360.16
934.594	8347.05
934.902	8278.58
935.21	8308.41
935.519	8189.32
935.827	8172.6
936.135	8187.74
936.443	8091.69
936.751	8031.13
937.059	8019.38
937.367	7948.42
937.674	8034.97
937.982	7963.34
938.29	7925.82
938.597	7933.51
938.905	7876.56
939.213	7814.41
939.52	7804.02
939.827	7737.35
940.135	7698.48
940.442	7661.87
940.749	7577.81
941.056	7604.93
941.363	7523.8
941.67	7569.9
941.977	7458.72
942.284	7418.27
942.591	7388.21
942.898	7429.11
943.205	7390.7
943.511	7332.84
943.818	7310.47
944.125	7180.98
944.431	7191.6
944.738	7205.84
945.044	7171.49
945.35	7102.12
945.657	7078.84
945.963	7104.83
946.269	7052.85
946.575	7063.47
946.881	6920.88
947.187	6957.03
947.493	6857.38
947.799	6874.1
948.105	6783.03
948.41	6788.9
948.716	6757.27
949.022	6769.92
949.327	6710.94
949.633	6729.24
949.938	6652.18
950.244	6672.3
950.549	6568.8
950.854	6617.38
951.16	6540.77
951.465	6504.62
951.77	6426.65
952.075	6410.83
952.38	6395.92
952.685	6378.52
952.99	6395.02
953.294	6353.89
953.599	6232.31
953.904	6285.19
954.209	6231.4
954.513	6213.55
954.818	6149.15
955.122	6148.92
955.426	6099.66
955.731	6093.55
956.035	6096.94
956.339	6088.13
956.643	6025.53
956.948	5983.5
957.252	5915.03
957.556	5934.46
957.86	5880.23
958.163	5903.73
958.467	5830.51
958.771	5841.58
959.075	5806.33
959.378	5850.62
959.682	5744.19
959.985	5749.61
960.289	5692.44
960.592	5681.36
960.896	5642.94
961.199	5583.96
961.502	5630.74
961.805	5543.29
962.108	5547.58
962.411	5525.43
962.714	5504.64
963.017	5478.2
963.32	5486.79
963.623	5422.39
963.926	5430.07
964.228	5358.88
964.531	5392.78
964.833	5362.73
965.136	5311.2
965.438	5273.46
965.741	5277.53
966.043	5274.37
966.345	5241.37
966.648	5243.18
966.95	5144.88
967.252	5165.67
967.554	5142.17
967.856	5122.28
968.158	4997.09
968.46	5034.37
968.761	5038.44
969.063	5003.41
969.365	5016.75
969.666	4979.69
969.968	4955.28
970.269	4896.3
970.571	4885.22
970.872	4826.24
971.174	4841.38
971.475	4790.09
971.776	4771.78
972.077	4772.91
972.378	4761.84
972.679	4732.01
972.98	4701.05
973.281	4688.85
973.582	4677.77
973.883	4639.36
974.183	4598.23
974.484	4673.48
974.785	4602.97
975.085	4572.01
975.386	4566.14
975.686	4517.1
975.986	4433.49
976.287	4543.76
976.587	4492.92
976.887	4453.15
977.187	4438.46
977.487	4396.65
977.787	4399.36
978.087	4353.26
978.387	4369.08
978.687	4318.01
978.987	4318.01
979.286	4282.98
979.586	4223.32
979.885	4168.41
980.185	4248.18
980.484	4207.73
980.784	4190.1
981.083	4143.55
981.382	4141.74
981.682	4167.73
981.981	4139.03
982.28	4058.35
982.579	4031.01
982.878	4073.95
983.177	4031.91
983.475	4020.16
983.774	3988.3
984.073	3977.45
984.372	3945.36
984.67	3936.55
984.969	3909.21
985.267	3925.48
985.566	3882.99
985.864	3869.66
986.162	3883.22
986.461	3838.25
986.759	3848.64
987.057	3797.34
987.355	3780.39
987.653	3760.28
987.951	3730.68
988.249	3703.33
988.547	3745.59
988.844	3681.64
989.142	3709.21
989.44	3621.76
989.737	3644.58
990.035	3646.16
990.332	3611.13
990.63	3541.98
990.927	3556.45
991.224	3572.26
991.521	3553.06
991.819	3536.79
992.116	3506.73
992.413	3497.69
992.71	3431.25
993.006	3473.96
993.303	3433.96
993.6	3417.47
993.897	3390.35
994.193	3390.57
994.49	3348.09
994.787	3348.99
995.083	3315.55
995.379	3285.27
995.676	3313.97
995.972	3276.91
996.268	3271.93
996.565	3213.4
996.861	3203.46
997.157	3234.42
997.453	3205.27
997.749	3166.17
998.044	3150.58
998.34	3134.31
998.636	3097.93
998.932	3126.63
999.227	3099.51
999.523	3045.27
999.818	3048.21
1000.114	3039.4
1000.409	3005.73
1000.704	2998.04
1001	3023.58
1001.295	2974.31
1001.59	2989.91
1001.885	2921.66
1002.18	2911.94
1002.475	2893.41
1002.77	2885.28
1003.065	2904.26
1003.359	2868.55
1003.654	2846.18
1003.949	2838.5
1004.243	2792.17
1004.538	2786.3
1004.832	2807.77
1005.127	2731.83
1005.421	2731.83
1005.715	2737.26
1006.009	2739.29
1006.304	2696.81
1006.598	2667.66
1006.892	2665.62
1007.186	2636.92
1007.48	2617.04
1007.773	2600.99
1008.067	2598.05
1008.361	2594.21
1008.655	2589.47
1008.948	2577.04
1009.242	2577.49
1009.535	2520.32
1009.829	2505.85
1010.122	2519.64
1010.415	2483.93
1010.708	2464.27
1011.001	2446.42
1011.295	2455.23
1011.588	2430.15
1011.881	2375.01
1012.173	2363.03
1012.466	2422.46
1012.759	2356.93
1013.052	2344.5
1013.344	2311.51
1013.637	2310.83
1013.93	2276.71
1014.222	2284.84
1014.514	2246.42
1014.807	2258.4
1015.099	2255.69
1015.391	2211.85
1015.683	2200.32
1015.976	2209.36
1016.268	2166.2
1016.56	2189.02
1016.851	2162.58
1017.143	2126.65
1017.435	2128.01
1017.727	2118.29
1018.018	2083.49
1018.31	2099.08
1018.602	2088.24
1018.893	2061.12
1019.185	2052.08
1019.476	2010.05
1019.767	2016.6
1020.058	2000.1
1020.35	1998.29
1020.641	2011.4
1020.932	1962.82
1021.223	1957.39
1021.514	1972.31
1021.804	1914.46
1022.095	1900.44
1022.386	1884.63
1022.677	1906.55
1022.967	1838.75
1023.258	1863.38
1023.548	1843.5
1023.839	1817.06
1024.129	1819.32
1024.419	1808.7
1024.709	1781.35
1025	1762.14
1025.29	1761.24
1025.58	1777.28
1025.87	1754.69
1026.16	1704.74
1026.449	1709.94
1026.739	1701.81
1027.029	1678.08
1027.319	1677.63
1027.608	1660.45
1027.898	1650.96
1028.187	1638.08
1028.477	1667
1028.766	1595.14
1029.055	1590.4
1029.344	1598.53
1029.634	1598.76
1029.923	1609.38
1030.212	1572.09
1030.501	1544.75
1030.79	1561.24
1031.078	1528.25
1031.367	1510.4
1031.656	1482.15
1031.945	1494.35
1032.233	1459.33
1032.522	1480.34
1032.81	1445.54
1033.099	1441.93
1033.387	1443.28
1033.675	1429.5
1033.963	1432.21
1034.251	1423.39
1034.54	1373
1034.828	1383.85
1035.116	1381.59
1035.403	1382.04
1035.691	1363.51
1035.979	1350.63
1036.267	1316.73
1036.554	1322.83
1036.842	1286.68
1037.129	1291.19
1037.417	1267.92
1037.704	1252.55
1037.992	1293.23
1038.279	1290.52
1038.566	1281.48
1038.853	1281.48
1039.14	1281.48
