Data from plate_ceramic_FLMS001491_013.txt Node
Date: Tue Feb 07 11:16:22 GMT 2017
User: dcchb
Spectrometer: FLMS00149
Trigger mode: 0
Integration Time (sec): 2.000000E-2
Scans to average: 10
Electric dark correction enabled: true
Nonlinearity correction enabled: false
Boxcar width: 0
XAxis mode: Wavelengths
Number of Pixels in Spectrum: 2048
>>>>>Begin Spectral Data<<<<<
341.393	-3.45
341.776	-3.45
342.16	-3.45
342.543	-68.98
342.927	-72.6
343.31	-78.92
343.693	-81.86
344.077	-61.3
344.46	-36.67
344.843	-47.74
345.226	-32.15
345.61	-38.02
345.993	-24.91
346.376	-17.68
346.759	10.56
347.142	36.78
347.525	53.95
347.908	53.05
348.291	68.19
348.674	94.18
349.057	102.54
349.44	128.98
349.823	141.63
350.206	178.02
350.588	213.27
350.971	238.13
351.354	227.73
351.737	240.62
352.119	276.32
352.502	291.46
352.884	269.54
353.267	306.6
353.65	315.19
354.032	308.64
354.414	340.05
354.797	334.85
355.179	335.98
355.562	364.45
355.944	364.45
356.326	342.99
356.709	373.04
357.091	342.53
357.473	393.83
357.855	376.2
358.238	377.33
358.62	357
359.002	351.8
359.384	366.71
359.766	376.88
360.148	367.62
360.53	370.33
360.912	360.61
361.294	373.72
361.676	369.65
362.057	374.4
362.439	372.59
362.821	378.69
363.203	363.1
363.584	380.72
363.966	389.99
364.348	379.82
364.729	359.93
365.111	356.54
365.493	363.55
365.874	363.55
366.256	359.26
366.637	348.86
367.019	355.87
367.4	371.01
367.781	358.13
368.163	363.32
368.544	371.91
368.925	357
369.306	357
369.688	363.1
370.069	359.48
370.45	373.49
370.831	395.64
371.212	365.58
371.593	373.27
371.974	374.62
372.355	387.28
372.736	377.79
373.117	381.85
373.498	377.79
373.879	377.79
374.26	377.33
374.641	360.61
375.021	363.55
375.402	373.72
375.783	368.3
376.163	417.79
376.544	392.02
376.925	389.54
377.305	418.24
377.686	382.31
378.066	421.85
378.447	420.5
378.827	428.18
379.208	407.62
379.588	431.8
379.968	418.24
380.349	426.37
380.729	448.75
381.109	417.11
381.489	443.32
381.87	439.71
382.25	438.35
382.63	431.12
383.01	448.75
383.39	456.65
383.77	433.83
384.15	451.46
384.53	474.51
384.91	466.15
385.29	483.55
385.67	462.76
386.049	476.54
386.429	487.84
386.809	502.98
387.189	475.19
387.568	482.87
387.948	488.97
388.328	498.46
388.707	499.59
389.087	512.7
389.466	524.9
389.846	514.51
390.225	542.3
390.605	513.83
390.984	559.48
391.363	547.73
391.743	542.53
392.122	525.13
392.501	546.37
392.881	555.18
393.26	551.12
393.639	559.02
394.018	567.16
394.397	596.54
394.776	592.7
395.155	591.11
395.534	591.57
395.913	613.71
396.292	602.87
396.671	586.82
397.05	615.07
397.429	619.36
397.808	611.23
398.186	621.85
398.565	632.47
398.944	652.36
399.323	630.66
399.701	630.89
400.08	645.12
400.458	657.55
400.837	671.56
401.215	686.48
401.594	686.25
401.972	672.92
402.351	704.33
402.729	691.68
403.107	713.82
403.486	711.79
403.864	734.39
404.242	723.77
404.62	743.88
404.999	745.46
405.377	758.79
405.755	746.82
406.133	769.19
406.511	794.05
406.889	790.43
407.267	780.04
407.645	814.61
408.023	828.17
408.401	817.1
408.779	835.85
409.156	870.88
409.534	865.68
409.912	868.85
410.29	883.99
410.667	865.68
411.045	919.24
411.422	918.56
411.8	928.05
412.178	919.02
412.555	985.68
412.933	944.55
413.31	960.14
413.687	990.43
414.065	989.97
414.442	997.66
414.819	987.49
415.197	1033.81
415.574	1007.37
415.951	1054.15
416.328	1032.46
416.705	1062.51
417.082	1064.77
417.46	1079.92
417.837	1125.56
418.214	1112.23
418.591	1123.53
418.967	1120.37
419.344	1115.17
419.721	1137.77
420.098	1148.84
420.475	1158.11
420.852	1197.43
421.228	1239.46
421.605	1225.22
421.982	1222.28
422.358	1224.54
422.735	1259.12
423.111	1261.61
423.488	1295.73
423.864	1281.04
424.241	1296.86
424.617	1316.07
424.994	1320.59
425.37	1312.23
425.746	1336.86
426.123	1382.28
426.499	1410.98
426.875	1396.29
427.251	1458.21
427.627	1455.05
428.003	1450.98
428.379	1476.51
428.756	1490.98
429.132	1527.59
429.507	1529.17
429.883	1549.51
430.259	1594.03
430.635	1593.57
431.011	1622.5
431.387	1623.86
431.763	1669.28
432.138	1662.95
432.514	1713.8
432.89	1711.99
433.265	1743.85
433.641	1796.51
434.016	1771.2
434.392	1825.66
434.767	1855.94
435.143	1824.3
435.518	1871.08
435.894	1873.57
436.269	1905.43
436.644	1930.06
437.02	1936.39
437.395	1946.33
437.77	2002.83
438.145	2030.4
438.52	2045.09
438.895	2084.63
439.271	2057.52
439.646	2097.52
440.021	2133.9
440.395	2121.24
440.77	2106.1
441.145	2137.06
441.52	2179.77
441.895	2199.66
442.27	2190.17
442.645	2233.56
443.019	2241.92
443.394	2255.48
443.769	2283.95
444.143	2263.39
444.518	2343.61
444.892	2324.63
445.267	2344.29
445.641	2357.17
446.016	2353.33
446.39	2380.9
446.764	2404.17
447.139	2391.29
447.513	2428.81
447.887	2434.68
448.262	2480.78
448.636	2483.95
449.01	2545.87
449.384	2546.32
449.758	2545.19
450.132	2581.57
450.506	2611.17
450.88	2651.17
451.254	2604.39
451.628	2659.53
452.002	2692.98
452.376	2721
452.75	2735.69
453.123	2796.25
453.497	2842.81
453.871	2847.78
454.244	2916.25
454.618	2924.16
454.992	2961.22
455.365	2934.56
455.739	3032.63
456.112	3076.25
456.486	3104.04
456.859	3137.94
457.232	3169.58
457.606	3174.1
457.979	3257.48
458.352	3295.68
458.725	3332.51
459.099	3345.17
459.472	3420.19
459.845	3459.29
460.218	3484.37
460.591	3522.56
460.964	3562.11
461.337	3652.5
461.71	3706.74
462.083	3759.84
462.456	3752.39
462.829	3761.2
463.201	3822.22
463.574	3845.04
463.947	3916.22
464.32	3995.09
464.692	4024.7
465.065	4032.83
465.438	4131.59
465.81	4189.66
466.183	4217.91
466.555	4312.15
466.928	4340.85
467.3	4342.43
467.672	4436.66
468.045	4505.36
468.417	4577
468.789	4630.1
469.161	4652.7
469.534	4743.77
469.906	4841.62
470.278	4868.29
470.65	4947.61
471.022	5035.07
471.394	5112.13
471.766	5141.96
472.138	5172.24
472.51	5406.58
472.882	5396.19
473.253	5525.67
473.625	5610.64
473.997	5648.16
474.369	5767.25
474.74	5788.94
475.112	5900.13
475.484	6008.6
475.855	6080.46
476.227	6117.3
476.598	6301.25
476.97	6379.89
477.341	6463.95
477.713	6603.16
478.084	6654.23
478.455	6874.34
478.827	6947.11
479.198	7159.98
479.569	7148.91
479.94	7316.81
480.311	7416.92
480.682	7579.63
481.053	7684.94
481.424	7831.6
481.795	7929.45
482.166	8091.26
482.537	8173.97
482.908	8360.18
483.279	8434.75
483.65	8607.17
484.021	8733.27
484.391	8856.43
484.762	8942.31
485.133	8981.18
485.503	9180.27
485.874	9383.65
486.244	9474.95
486.615	9626.36
486.985	9773.25
487.356	9943.18
487.726	9974.14
488.097	10227.92
488.467	10241.71
488.837	10512.66
489.207	10703.62
489.578	10756.5
489.948	10871.07
490.318	10970.95
490.688	11057.05
491.058	11167.56
491.428	11455.91
491.798	11517.61
492.168	11845.28
492.538	11809.8
492.908	11976.35
493.278	12039.17
493.648	12123.69
494.017	12360.07
494.387	12474.87
494.757	12589.89
495.126	12690.68
495.496	12733.62
495.866	12828.31
496.235	12946.95
496.605	13083.67
496.974	13260.84
497.344	13271.68
497.713	13417.9
498.082	13529.53
498.452	13680.71
498.821	13722.97
499.19	13762.75
499.559	14004.1
499.928	13944.44
500.298	14186.46
500.667	14259.46
501.036	14242.73
501.405	14393.24
501.774	14466.68
502.143	14519.79
502.512	14718.65
502.88	14849.95
503.249	14858.54
503.618	15038.87
503.987	15028.02
504.356	15176.04
504.724	15400.89
505.093	15305.76
505.462	15446.54
505.83	15654
506.199	15692.41
506.567	15868.9
506.936	15919.07
507.304	16127.88
507.672	16260.53
508.041	16217.37
508.409	16467.53
508.777	16597.93
509.145	16613.29
509.514	16688.09
509.882	16772.16
510.25	16933.28
510.618	17063.45
510.986	17189.55
511.354	17334.4
511.722	17512.03
512.09	17712.47
512.458	17669.31
512.826	17845.8
513.193	17949.98
513.561	18063.88
513.929	18197.88
514.297	18326.47
514.664	18576.4
515.032	18625.22
515.4	18846.23
515.767	18901.82
516.135	19010.97
516.502	18934.36
516.869	19299.1
517.237	19310.62
517.604	19383.84
517.972	19638.98
518.339	19745.86
518.706	19829.7
519.073	19945.86
519.44	20184.95
519.808	20380.65
520.175	20302.23
520.542	20663.81
520.909	20736.8
521.276	20726.86
521.643	20991.48
522.009	21222.89
522.376	21339.04
522.743	21532.94
523.11	21656.55
523.477	21947.84
523.843	22054.96
524.21	22344.89
524.577	22421.95
524.943	22551.21
525.31	22656.52
525.676	22824.43
526.043	22957.98
526.409	23162.27
526.776	23408.37
527.142	23522.49
527.508	23677.29
527.874	23843.38
528.241	23964.29
528.607	24154.56
528.973	24359.08
529.339	24317.72
529.705	24640.65
530.071	24729.01
530.437	24967.2
530.803	25124.25
531.169	25331.48
531.535	25265.72
531.901	25345.72
532.267	25575.32
532.632	25681.08
532.998	25849.21
533.364	26074.51
533.73	26148.18
534.095	26368.52
534.461	26448.97
534.826	26573.71
535.192	26775.74
535.557	26823.42
535.923	26878.56
536.288	26945.45
536.653	27192
537.019	27244.42
537.384	27318.55
537.749	27449.84
538.114	27521.71
538.479	27493.01
538.845	27706.79
539.21	27726.67
539.575	28011.18
539.94	28107.23
540.305	28098.41
540.67	28198.98
541.034	28259.09
541.399	28470.38
541.764	28625.41
542.129	28685.29
542.494	28776.36
542.858	28952.18
543.223	28952.85
543.587	29137.48
543.952	29100.42
544.316	29364.37
544.681	29269.46
545.045	29424.03
545.41	29657.24
545.774	29595.78
546.138	29752.16
546.503	29864.92
546.867	29844.36
547.231	30145.37
547.595	30205.48
547.959	30346.26
548.324	30238.92
548.688	30412.93
549.052	30771.56
549.416	30670.78
549.779	30769.98
550.143	30922.97
550.507	31178.78
550.871	31254.71
551.235	31207.26
551.599	31511.43
551.962	31553.01
552.326	31596.63
552.689	31897.41
553.053	31779.45
553.417	31901.93
553.78	32162.71
554.143	32130.62
554.507	32422.37
554.87	32572.65
555.234	32836.14
555.597	32684.06
555.96	33033.88
556.323	33053.54
556.686	33148.45
557.05	33369.46
557.413	33520.64
557.776	33593.18
558.139	33857.13
558.502	33865.72
558.865	33924.7
559.228	34339.38
559.59	34404.46
559.953	34398.59
560.316	34782.08
560.679	34798.58
561.041	35111.34
561.404	35154.95
561.767	35472.01
562.129	35314.72
562.492	35709.06
562.854	35781.6
563.217	35810.08
563.579	35914.93
563.941	36260.01
564.304	36419.32
564.666	36651.41
565.028	36736.38
565.39	36913.55
565.753	37177.72
566.115	37193.09
566.477	37225.86
566.839	37356.02
567.201	37612.97
567.563	37575
567.925	37944.48
568.287	37869.91
568.648	38096.12
569.01	38224.93
569.372	38563.9
569.734	38417.92
570.095	38666.95
570.457	38991.01
570.819	39065.13
571.18	38971.57
571.542	39458.57
571.903	39362.75
572.265	39466.48
572.626	39573.37
572.987	39519.36
573.349	39693.59
573.71	39855.84
574.071	39865.79
574.432	40018.78
574.794	40362.5
575.155	40298.54
575.516	40295.61
575.877	40466.22
576.238	40720
576.599	40794.35
576.96	40693.79
577.32	40847.01
577.681	40993.67
578.042	41155.92
578.403	41086.32
578.763	41181.23
579.124	41255.81
579.485	41497.38
579.845	41426.88
580.206	41492.19
580.566	41398.18
580.927	41661.9
581.287	41736.02
581.648	41591.17
582.008	41677.72
582.368	41562.01
582.728	41631.39
583.089	41723.37
583.449	41515.91
583.809	41765.4
584.169	41753.2
584.529	41764.5
584.889	42018.5
585.249	41821.22
585.609	41658.51
585.969	41891.5
586.329	41820.09
586.688	41978.05
587.048	41949.57
587.408	41932.63
587.768	41964.26
588.127	41906.19
588.487	41708
588.846	42138.95
589.206	42045.62
589.565	42042.68
589.925	42008.78
590.284	41964.94
590.643	42242.9
591.003	42270.47
591.362	42308.89
591.721	42157.71
592.08	42208.1
592.44	42316.12
592.799	42444.48
593.158	42357.47
593.517	42333.52
593.876	42374.87
594.235	42310.02
594.593	42405.61
594.952	42528.77
595.311	42437.7
595.67	42464.14
596.029	42640.63
596.387	42558.37
596.746	42586.17
597.104	42547.3
597.463	42517.92
597.822	42722.44
598.18	42671.14
598.538	42594.08
598.897	42745.49
599.255	42510.46
599.613	43009.21
599.972	42811.93
600.33	42865.71
600.688	42626.39
601.046	42851.47
601.404	43083.33
601.762	43049.66
602.12	43197.45
602.478	43226.15
602.836	43151.58
603.194	42970.79
603.552	43114.52
603.91	42798.14
604.268	43273.38
604.625	43135.98
604.983	43444.45
605.341	43222.99
605.698	43461.17
606.056	43596.09
606.413	43473.83
606.771	43571.23
607.128	43622.98
607.485	43405.13
607.843	43454.17
608.2	43590.21
608.557	43788.62
608.914	43541.62
609.272	43894.61
609.629	43853.93
609.986	44150.42
610.343	43837.43
610.7	44077.65
611.057	44182.51
611.414	44097.77
611.771	44163.75
612.127	44328.95
612.484	44244.43
612.841	44441.26
613.198	44168.95
613.554	44371.88
613.911	44447.81
614.267	44385.67
614.624	44414.82
614.98	44462.28
615.337	44797.41
615.693	44682.61
616.05	44676.51
616.406	44870.85
616.762	44666.11
617.118	44733
617.475	44781.36
617.831	44883.74
618.187	44939.55
618.543	44952.43
618.899	45074.01
619.255	45056.84
619.611	44908.82
619.967	45136.38
620.323	45267.68
620.678	45118.31
621.034	44878.76
621.39	45087.12
621.746	44991.53
622.101	45549.71
622.457	45001.25
622.812	45103.84
623.168	45237.17
623.523	45247.79
623.879	45453.66
624.234	45201.24
624.589	45288.92
624.945	45309.03
625.3	45323.5
625.655	45250.96
626.01	45260.67
626.365	45216.61
626.72	45309.94
627.075	45174.57
627.43	45144.75
627.785	45142.26
628.14	45127.12
628.495	45223.84
628.85	45075.82
629.205	45032.21
629.559	45266.78
629.914	44909.72
630.269	45056.39
630.623	45061.13
630.978	44777.3
631.332	45054.8
631.687	45039.66
632.041	44820.69
632.396	45003.51
632.75	44624.76
633.104	44734.81
633.459	44562.39
633.813	44583.63
634.167	44663.85
634.521	44693.23
634.875	44616.4
635.229	44582.73
635.583	44284.88
635.937	44302.06
636.291	44239.68
636.645	44360.36
636.999	44180.02
637.352	44316.52
637.706	44072.68
638.06	44275.62
638.413	44099.12
638.767	43996.07
639.121	44067.26
639.474	43844.89
639.828	43756.08
640.181	43948.39
640.534	43858.68
640.888	43820.26
641.241	43578.46
641.594	43662.98
641.947	43702.3
642.301	43678.12
642.654	43608.06
643.007	43668.63
643.36	43550.66
643.713	43508.63
644.066	43560.83
644.419	43308.18
644.771	42966.5
645.124	42682.21
645.477	42512.95
645.83	42243.58
646.182	42072.06
646.535	41920.42
646.888	42139.85
647.24	41910.03
647.593	42218.04
647.945	42092.85
648.298	41935.79
648.65	41810.37
649.002	41726.98
649.355	41927.43
649.707	41788.68
650.059	41835.91
650.411	42314.99
650.763	42310.02
651.115	42581.87
651.467	42559.73
651.819	42517.02
652.171	42527.86
652.523	42357.93
652.875	42291.26
653.227	42230.92
653.578	42591.14
653.93	42430.92
654.282	42237.93
654.633	42087.2
654.985	42234.99
655.337	42280.64
655.688	42153.41
656.039	42148.89
656.391	41862.35
656.742	41927.65
657.094	41938.05
657.445	42195.9
657.796	42016.01
658.147	42006.3
658.498	41855.34
658.849	41905.06
659.2	41967.88
659.551	41780.54
659.902	41966.52
660.253	41808.34
660.604	41795.23
660.955	41578.06
661.306	41689.69
661.656	41579.87
662.007	41633.88
662.358	41640.43
662.708	41653.76
663.059	41477.05
663.409	41300.33
663.76	41576.03
664.11	41525.41
664.461	41543.94
664.811	41584.16
665.161	41492.64
665.511	41443.6
665.862	41425.75
666.212	41371.29
666.562	41550.72
666.912	41513.88
667.262	41417.39
667.612	41537.38
667.962	41378.74
668.312	41281.34
668.662	41531.73
669.011	41491.06
669.361	41418.74
669.711	41393.43
670.06	41176.26
670.41	41196.37
670.76	41062.37
671.109	41215.36
671.459	41206.09
671.808	41042.48
672.157	41289.25
672.507	41027.57
672.856	41030.96
673.205	40987.79
673.554	41143.04
673.904	40917.06
674.253	41033.89
674.602	41046.55
674.951	40496.05
675.3	40060.13
675.649	40876.61
675.998	40859.89
676.346	40749.38
676.695	40841.58
677.044	40545.77
677.393	40772.66
677.741	40867.8
678.09	40597.75
678.438	40522.95
678.787	40715.94
679.135	40772.43
679.484	40386.68
679.832	40443.85
680.181	40240.24
680.529	40316.85
680.877	40216.29
681.225	40184.42
681.573	40358.66
681.922	40154.37
682.27	40171.77
682.618	40079.12
682.966	39874.38
683.314	40082.96
683.661	39820.37
684.009	39623.76
684.357	39648.39
684.705	39608.39
685.053	39675.06
685.4	39517.55
685.748	39445.23
686.095	39357.78
686.443	39244.11
686.79	39049.09
687.138	39161.63
687.485	39169.99
687.832	38912.14
688.18	39144.45
688.527	38908.98
688.874	38757.57
689.221	38786.04
689.568	38642.54
689.915	38553.51
690.262	38589.89
690.609	38342.66
690.956	38360.29
691.303	38310.12
691.65	38122.1
691.997	38087.3
692.344	37907.65
692.69	37918.27
693.037	38066.97
693.383	37656.81
693.73	37830.81
694.077	37582.23
694.423	37439.19
694.769	37548.33
695.116	37441.22
695.462	37344.95
695.808	37189.02
696.155	37173.43
696.501	36902.48
696.847	36901.57
697.193	36615.7
697.539	36831.29
697.885	36519.66
698.231	36438.08
698.577	36463.39
698.923	36328.48
699.269	36183.4
699.614	36031.09
699.96	36012.33
700.306	36007.13
700.651	35832.22
700.997	35763.07
701.342	35699.57
701.688	35624.54
702.033	35429.29
702.379	35405.57
702.724	35262.29
703.069	35353.82
703.415	35080.6
703.76	34919.03
704.105	35013.71
704.45	34750.22
704.795	34574.85
705.14	34601.29
705.485	34744.34
705.83	34414.86
706.175	34435.2
706.52	34341.64
706.865	34219.38
707.209	34253.28
707.554	34242.43
707.899	34224.58
708.243	33980.97
708.588	33857.36
708.932	33729.45
709.277	33739.85
709.621	33746.63
709.966	33534.2
710.31	33577.59
710.654	33258.28
710.998	33355.9
711.342	33405.39
711.687	33237.26
712.031	33151.16
712.375	33037.49
712.719	33079.98
713.063	32958.17
713.407	33171.95
713.75	32907.78
714.094	32786.88
714.438	32710.72
714.782	32855.8
715.125	32533.55
715.469	32727.9
715.812	32496.94
716.156	32478.19
716.499	32275.48
716.843	32293.11
717.186	32023.51
717.53	32386.44
717.873	32293.33
718.216	32121.81
718.559	32022.83
718.902	31915.49
719.246	31962.27
719.589	31834.59
719.932	31830.97
720.275	31731.54
720.617	31700.8
720.96	31671.2
721.303	31571.99
721.646	31642.5
721.989	31328.16
722.331	31525.44
722.674	31348.95
723.016	31275.05
723.359	31163.87
723.701	31228.27
724.044	31001.16
724.386	30983.54
724.729	31194.15
725.071	30779.02
725.413	31123.87
725.755	30887.94
726.097	30739.7
726.439	30780.6
726.782	30639.14
727.124	30711.68
727.465	30546.03
727.807	30615.41
728.149	30560.04
728.491	30471.68
728.833	30558.69
729.175	30354.85
729.516	30259.94
729.858	30156.89
730.199	30204.57
730.541	30175.65
730.882	30279.83
731.224	30321.86
731.565	30184.01
731.906	30038.02
732.248	30033.73
732.589	29802.32
732.93	29761.19
733.271	29800.52
733.612	29822.44
733.953	29653.18
734.294	29665.38
734.635	29582.44
734.976	29675.1
735.317	29434.88
735.658	29491.37
735.999	29419.06
736.339	29350.36
736.68	29517.81
737.021	29471.03
737.361	29186.52
737.702	29480.07
738.042	29280.3
738.383	29191.04
738.723	29251.38
739.063	29105.84
739.404	29144.04
739.744	29136.13
740.084	28942.23
740.424	29109.01
740.764	28960.99
741.104	29104.04
741.444	28791.05
741.784	28758.96
742.124	28832.18
742.464	28875.34
742.804	28696.59
743.143	28566.2
743.483	28690.94
743.823	28463.83
744.162	28421.12
744.502	28425.41
744.841	28341.12
745.181	28299.54
745.52	28249.6
745.86	28247.34
746.199	28208.92
746.538	28029.94
746.877	28114.46
747.216	28099.54
747.556	27988.36
747.895	27902.26
748.234	27783.85
748.573	27817.52
748.911	27737.29
749.25	27743.39
749.589	27668.14
749.928	27750.4
750.267	27759.21
750.605	27564.64
750.944	27524.19
751.283	27411.65
751.621	27596.05
751.96	27275.38
752.298	27164.2
752.636	27245.33
752.975	27191.54
753.313	27159.68
753.651	27089.17
753.989	26990.42
754.327	27006.24
754.666	26766.25
755.004	26850.76
755.342	26766.47
755.679	26838.79
756.017	26666.81
756.355	26705.68
756.693	26443.32
757.031	26484.9
757.368	26431.79
757.706	26430.43
758.044	26274.05
758.381	26379.14
758.719	26164.23
759.056	26272.02
759.394	26126.49
759.731	25965.14
760.068	25872.71
760.405	25879.26
760.743	25740.28
761.08	25786.61
761.417	25725.82
761.754	25573.73
762.091	25439.5
762.428	25455.09
762.765	25279.05
763.102	25345.94
763.438	25092.62
763.775	25098.72
764.112	25045.16
764.449	24982.56
764.785	24863.92
765.122	24668.9
765.458	24529.24
765.795	24568.56
766.131	24504.61
766.467	24445.18
766.804	24336.93
767.14	24246.76
767.476	24240.44
767.812	24183.26
768.148	24140.55
768.485	23895.59
768.821	23831.86
769.157	23894.23
769.492	23845.19
769.828	23807.68
770.164	23637.29
770.5	23478.65
770.836	23470.06
771.171	23326.34
771.507	23277.75
771.842	23127.25
772.178	23050.41
772.513	23075.27
772.849	22921.37
773.184	22828.04
773.519	22858.33
773.855	22713.92
774.19	22675.73
774.525	22539.24
774.86	22459.92
775.195	22298.11
775.53	22399.35
775.865	22192.81
776.2	22015.86
776.535	21903.1
776.87	21915.53
777.205	21883.44
777.539	21772.7
777.874	21785.13
778.209	21575.87
778.543	21597.12
778.878	21546.27
779.212	21496.1
779.547	21379.04
779.881	21340.4
780.215	21095.66
780.55	21186.28
780.884	21055.21
781.218	20944.03
781.552	20962.1
781.886	20840.98
782.22	20761.43
782.554	20631.94
782.888	20452.06
783.222	20469.01
783.556	20423.59
783.889	20356.92
784.223	20292.52
784.557	20189.24
784.89	20192.18
785.224	19982.02
785.557	19922.36
785.891	19848.24
786.224	19700.89
786.558	19884.39
786.891	19697.28
787.224	19505.19
787.557	19505.42
787.891	19583.38
788.224	19426.78
788.557	19479.43
788.89	19377.06
789.223	19318.76
789.556	19128.48
789.888	19076.73
790.221	18993.12
790.554	18869.05
790.887	18905.66
791.219	18807.81
791.552	18632.45
791.884	18750.41
792.217	18620.7
792.549	18515.61
792.882	18412.79
793.214	18384.09
793.546	18401.72
793.879	18150.88
794.211	18217.77
794.543	18206.02
794.875	18196.75
795.207	18181.16
795.539	17997.44
795.871	18022.75
796.203	17874.05
796.535	17761.28
796.867	17735.3
797.198	17628.18
797.53	17698.69
797.862	17573.27
798.193	17622.76
798.525	17525.36
798.856	17478.58
799.188	17290.11
799.519	17293.95
799.85	17128.31
800.182	17139.38
800.513	17151.81
800.844	16964.92
801.175	17166.27
801.506	17092.38
801.837	17023.22
802.168	16995.88
802.499	16804.93
802.83	16795.21
803.161	16743.46
803.491	16703.91
803.822	16745.94
804.153	16663.46
804.483	16497.59
804.814	16403.81
805.145	16422.34
805.475	16418.95
805.805	16307.54
806.136	16290.81
806.466	16281.1
806.796	16232.74
807.126	16173.98
807.457	16193.19
807.787	16073.87
808.117	15983.03
808.447	15926.53
808.777	15906.19
809.107	15931.28
809.436	15765.86
809.766	15783.94
810.096	15658.06
810.426	15651.28
810.755	15741.68
811.085	15593.66
811.414	15599.53
811.744	15381.91
812.073	15341.91
812.403	15457.39
812.732	15289.94
813.061	15261.92
813.39	15184.63
813.719	15204.06
814.049	15252.65
814.378	15219.66
814.707	15098.98
815.036	15125.2
815.365	14994.13
815.693	14979.89
816.022	14893.11
816.351	14858.08
816.68	14717.97
817.008	14869.38
817.337	14728.37
817.665	14592.78
817.994	14750.06
818.322	14789.39
818.651	14663.29
818.979	14597.07
819.307	14613.34
819.636	14623.51
819.964	14400.69
820.292	14402.73
820.62	14456.74
820.948	14411.32
821.276	14471.2
821.604	14470.75
821.932	14453.12
822.259	14451.54
822.587	14359.79
822.915	14360.47
823.243	14394.82
823.57	14350.3
823.898	14449.96
824.225	14299.91
824.553	14344.43
824.88	14302.39
825.207	14347.59
825.535	14322.28
825.862	14404.08
826.189	14353.24
826.516	14396.18
826.843	14436.17
827.17	14400.69
827.497	14399.56
827.824	14368.38
828.151	14359.57
828.478	14330.64
828.805	14385.55
829.131	14212.23
829.458	14275.5
829.785	14191.89
830.111	14313.24
830.438	14351.43
830.764	14302.39
831.09	14350.3
831.417	14308.72
831.743	14255.39
832.069	14264.65
832.395	14082.06
832.722	14210.64
833.048	14099.46
833.374	14210.87
833.7	14120.02
834.026	14163.64
834.351	14144.66
834.677	14175.16
835.003	14139.68
835.329	14092.23
835.654	14087.48
835.98	13989.18
836.306	14083.19
836.631	14060.14
836.956	13990.31
837.282	14052.23
837.607	13868.05
837.932	13919.8
838.258	13941.72
838.583	13914.83
838.908	13823.31
839.233	13839.35
839.558	13757.55
839.883	13701.73
840.208	13680.26
840.533	13788.06
840.858	13704.22
841.182	13756.87
841.507	13703.76
841.832	13713.48
842.156	13663.31
842.481	13647.04
842.805	13553.94
843.13	13506.93
843.454	13515.07
843.778	13440.27
844.103	13406.82
844.427	13412.25
844.751	13374.96
845.075	13369.54
845.399	13294.28
845.723	13245.02
846.047	13268.97
846.371	13168.18
846.695	13080.28
847.019	12948.76
847.343	12893.62
847.666	12874.86
847.99	12836.44
848.313	12831.02
848.637	12684.58
848.96	12678.71
849.284	12628.31
849.607	12588.77
849.931	12507.19
850.254	12466.96
850.577	12412.72
850.9	12361.43
851.223	12344.25
851.546	12224.48
851.869	12169.34
852.192	12247.98
852.515	12089.12
852.838	12073.07
853.161	12113.75
853.483	12061.55
853.806	11982.23
854.129	11989.91
854.451	11919.86
854.774	11903.59
855.096	11745.4
855.419	11778.39
855.741	11798.5
856.063	11657.49
856.385	11736.81
856.708	11553.09
857.03	11568.68
857.352	11504.73
857.674	11512.18
857.996	11375.69
858.318	11429.47
858.64	11414.56
858.961	11405.29
859.283	11264.28
859.605	11219.31
859.926	11258.4
860.248	11194.68
860.57	11197.84
860.891	11219.99
861.212	11266.99
861.534	11092.76
861.855	11183.83
862.176	11144.96
862.498	11136.83
862.819	11172.31
863.14	11095.47
863.461	11028.81
863.782	11031.07
864.103	10949.49
864.424	10932.31
864.745	10930.05
865.065	10850.28
865.386	10841.01
865.707	10864.29
866.027	10877.62
866.348	10834.69
866.668	10872.88
866.989	10890.05
867.309	10841.24
867.63	10741.58
867.95	10756.27
868.27	10699.32
868.59	10663.39
868.91	10661.81
869.23	10735.03
869.55	10609.16
869.87	10640.79
870.19	10638.53
870.51	10546.11
870.83	10539.1
871.15	10439.89
871.469	10478.99
871.789	10511.53
872.109	10443.28
872.428	10416.84
872.748	10455.04
873.067	10439.67
873.386	10398.31
873.706	10418.2
874.025	10323.06
874.344	10403.06
874.663	10366.9
874.982	10322.38
875.301	10277.64
875.62	10276.28
875.939	10273.57
876.258	10231.99
876.577	10180.47
876.896	10202.84
877.214	10102.95
877.533	10144.08
877.852	10083.29
878.17	10112.45
878.489	10086.23
878.807	10152.9
879.125	10135.04
879.444	10089.4
879.762	10053.46
880.08	9991.09
880.398	10020.92
880.716	10071.32
881.034	9980.7
881.352	10043.75
881.67	9969.17
881.988	9972.34
882.306	9900.93
882.624	9827.71
882.941	9804.88
883.259	9811.66
883.577	9763.3
883.894	9791.55
884.212	9745
884.529	9813.24
884.846	9709.74
885.164	9675.62
885.481	9667.49
885.798	9687.82
886.115	9612.8
886.432	9565.34
886.75	9605.57
887.067	9557.88
887.383	9492.35
887.7	9574.61
888.017	9600.6
888.334	9500.48
888.651	9464.55
888.967	9391.11
889.284	9469.53
889.6	9384.56
889.917	9347.27
890.233	9283.99
890.55	9205.8
890.866	9231.57
891.182	9279.93
891.498	9203.54
891.815	9115.64
892.131	9130.32
892.447	9078.35
892.763	9118.57
893.079	9097.56
893.395	9109.76
893.71	9087.16
894.026	9053.94
894.342	8969.43
894.657	8924.23
894.973	8892.14
895.289	8921.74
895.604	8869.09
895.92	8766.94
896.235	8760.62
896.55	8771.24
896.865	8731.92
897.181	8602.88
897.496	8717.23
897.811	8662.77
898.126	8618.47
898.441	8575.99
898.756	8564.46
899.071	8510.45
899.386	8563.79
899.7	8442.43
900.015	8438.37
900.33	8396.78
900.644	8383.68
900.959	8341.19
901.273	8308.65
901.588	8274.3
901.902	8201.76
902.216	8195.21
902.531	8230.69
902.845	8223
903.159	8096.68
903.473	8078.15
903.787	8045.61
904.101	7960.41
904.415	7928.1
904.729	7979.85
905.042	7901.43
905.356	7858.95
905.67	7957.02
905.984	7926.51
906.297	7877.25
906.611	7781.89
906.924	7827.31
907.237	7770.36
907.551	7747.54
907.864	7714.54
908.177	7647.65
908.491	7627.77
908.804	7576.47
909.117	7543.25
909.43	7560.2
909.743	7544.15
910.056	7536.02
910.368	7401.1
910.681	7401.1
910.994	7316.59
911.307	7315.01
911.619	7304.38
911.932	7297.15
912.244	7199.75
912.557	7312.97
912.869	7166.53
913.181	7156.14
913.494	7154.78
913.806	7152.52
914.118	7063.94
914.43	7042.92
914.742	7033.2
915.054	6969.93
915.366	6955.24
915.678	6918.41
915.99	6864.85
916.302	6847.45
916.613	6848.35
916.925	6816.04
917.236	6781.69
917.548	6762.93
917.859	6814.91
918.171	6734.46
918.482	6717.51
918.794	6630.28
919.105	6671.86
919.416	6604.06
919.727	6606.32
920.038	6532.88
920.349	6504.63
920.66	6468.02
920.971	6444.07
921.282	6436.16
921.593	6378.53
921.903	6313
922.214	6307.57
922.525	6325.65
922.835	6296.05
923.146	6199.78
923.456	6240.68
923.767	6195.03
924.077	6251.76
924.387	6178.76
924.697	6112.1
925.008	6078.2
925.318	6092.21
925.628	6028.03
925.938	6028.03
926.248	5966.79
926.558	5941.93
926.867	5952.56
927.177	5931.54
927.487	5899.45
927.796	5846.8
928.106	5835.5
928.416	5827.13
928.725	5807.7
929.034	5693.13
929.344	5714.6
929.653	5710.3
929.962	5702.62
930.271	5673.47
930.581	5589.63
930.89	5569.51
931.199	5563.64
931.508	5590.98
931.817	5618.78
932.125	5512.34
932.434	5574.94
932.743	5446.13
933.051	5480.25
933.36	5473.02
933.669	5397.32
933.977	5348.05
934.286	5333.59
934.594	5368.39
934.902	5354.6
935.21	5308.28
935.519	5300.37
935.827	5240.94
936.135	5245
936.443	5255.62
936.751	5181.28
937.059	5183.99
937.367	5152.35
937.674	5090.21
937.982	5145.12
938.29	5129.75
938.597	5076.87
938.905	5051.79
939.213	5054.95
939.52	5024.9
939.827	5019.02
940.135	4984.45
940.442	4904.22
940.749	4919.36
941.056	4886.37
941.363	4859.93
941.67	4890.44
941.977	4874.39
942.284	4778.8
942.591	4794.62
942.898	4744.68
943.205	4760.95
943.511	4739.25
943.818	4711.68
944.125	4671.69
944.431	4643.21
944.738	4619.48
945.044	4583.33
945.35	4614.29
945.657	4527.96
945.963	4499.03
946.269	4567.51
946.575	4506.72
946.881	4485.7
947.187	4504.23
947.493	4425.82
947.799	4442.31
948.105	4435.99
948.41	4403.9
948.716	4393.27
949.022	4375.65
949.327	4342.88
949.633	4331.13
949.938	4261.3
950.244	4318.7
950.549	4275.54
950.854	4278.48
951.16	4263.11
951.465	4246.61
951.77	4165.48
952.075	4224.92
952.38	4193.51
952.685	4144.24
952.99	4137.91
953.294	4124.13
953.599	4097.69
953.904	4073.51
954.209	4030.57
954.513	4020.18
954.818	4041.42
955.122	3995.54
955.426	4024.47
955.731	3935.43
956.035	3930.24
956.339	3934.53
956.643	3945.6
956.948	3873.06
957.252	3900.41
957.556	3879.16
957.86	3870.58
958.163	3871.48
958.467	3851.59
958.771	3819.28
959.075	3748.77
959.378	3769.79
959.682	3733.4
959.985	3728.89
960.289	3702.9
960.592	3716.23
960.896	3672.16
961.199	3648.89
961.502	3646.4
961.805	3641.66
962.108	3606.85
962.411	3592.84
962.714	3555.78
963.017	3581.32
963.32	3584.71
963.623	3553.07
963.926	3592.39
964.228	3538.38
964.531	3545.39
964.833	3530.7
965.136	3454.32
965.438	3437.37
965.741	3476.24
966.043	3438.5
966.345	3428.55
966.648	3396.01
966.95	3400.53
967.252	3347.65
967.554	3353.75
967.856	3369.12
968.158	3323.92
968.46	3289.12
968.761	3306.07
969.063	3244.83
969.365	3233.3
969.666	3279.63
969.968	3241.89
970.269	3197.6
970.571	3211.38
970.872	3211.38
971.174	3131.61
971.475	3193.31
971.776	3180.88
972.077	3126.64
972.378	3138.62
972.679	3112.18
972.98	3078.05
973.281	3076.25
973.582	3090.94
973.883	3078.73
974.183	3066.3
974.484	3031.95
974.785	2993.09
975.085	3045.29
975.386	3033.76
975.686	2975.23
975.986	2954.67
976.287	2968.23
976.587	2968.23
976.887	2912.41
977.187	2908.79
977.487	2919.41
977.787	2852.75
978.087	2861.34
978.387	2869.25
978.687	2848.68
978.987	2862.24
979.286	2827.44
979.586	2769.81
979.885	2819.76
980.185	2725.75
980.484	2805.07
980.784	2778.63
981.083	2758.06
981.382	2745.86
981.682	2737.27
981.981	2732.98
982.28	2724.62
982.579	2711.96
982.878	2684.62
983.177	2689.36
983.475	2697.05
983.774	2655.01
984.073	2659.31
984.372	2635.81
984.67	2583.83
984.969	2601.91
985.267	2589.71
985.566	2582.93
985.864	2535.24
986.162	2524.85
986.461	2542.7
986.759	2523.27
987.057	2508.35
987.355	2478.07
987.653	2488.69
987.951	2474.91
988.249	2518.52
988.547	2476.94
988.844	2451.4
989.142	2451.86
989.44	2435.13
989.737	2443.72
990.035	2374.57
990.332	2381.58
990.63	2387.45
990.927	2399.2
991.224	2360.79
991.521	2354.23
991.819	2364.18
992.116	2360.56
992.413	2321.01
992.71	2311.07
993.006	2295.02
993.303	2264.97
993.6	2284.4
993.897	2273.33
994.193	2285.76
994.49	2252.54
994.787	2221.13
995.083	2234.46
995.379	2224.97
995.676	2191.3
995.972	2206.67
996.268	2186.55
996.565	2182.94
996.861	2152.88
997.157	2134.35
997.453	2114.01
997.749	2117.4
998.044	2094.13
998.34	2115.37
998.636	2107.68
998.932	2119.44
999.227	2113.11
999.523	2067.69
999.818	2045.99
1000.114	2052.32
1000.409	1992.21
1000.704	1987.24
1001	1996.95
1001.295	1996.5
1001.59	2005.99
1001.885	1969.16
1002.18	1971.42
1002.475	1968.03
1002.77	1936.16
1003.065	1953.11
1003.359	1915.83
1003.654	1930.06
1003.949	1911.98
1004.243	1907.46
1004.538	1875.15
1004.832	1879.22
1005.127	1870.85
1005.421	1878.31
1005.715	1801.03
1006.009	1832.89
1006.304	1821.59
1006.598	1810.29
1006.892	1848.48
1007.186	1807.35
1007.48	1787.24
1007.773	1774.59
1008.067	1810.29
1008.361	1730.29
1008.655	1717.64
1008.948	1695.27
1009.242	1701.59
1009.535	1707.7
1009.829	1703.63
1010.122	1689.62
1010.415	1683.06
1010.708	1701.82
1011.001	1689.16
1011.295	1682.84
1011.588	1612.56
1011.881	1624.31
1012.173	1662.72
1012.466	1611.2
1012.759	1610.07
1013.052	1594.25
1013.344	1618.21
1013.637	1588.38
1013.93	1571.88
1014.222	1575.72
1014.514	1564.87
1014.807	1532.11
1015.099	1539.79
1015.391	1553.12
1015.683	1530.07
1015.976	1545.67
1016.268	1481.26
1016.56	1489.4
1016.851	1477.64
1017.143	1470.64
1017.435	1486.01
1017.727	1464.54
1018.018	1460.47
1018.31	1438.78
1018.602	1421.6
1018.893	1429.51
1019.185	1398.1
1019.476	1411.66
1019.767	1387.7
1020.058	1390.19
1020.35	1408.49
1020.641	1380.25
1020.932	1351.77
1021.223	1332.34
1021.514	1350.19
1021.804	1339.57
1022.095	1334.82
1022.386	1366.69
1022.677	1321.49
1022.967	1300.7
1023.258	1298.21
1023.548	1301.83
1023.839	1293.69
1024.129	1261.83
1024.419	1260.25
1024.709	1273.81
1025	1251.44
1025.29	1262.06
1025.58	1228.39
1025.87	1232.45
1026.16	1211.89
1026.449	1208.73
1026.739	1190.87
1027.029	1204.21
1027.319	1184.55
1027.608	1184.77
1027.898	1159.91
1028.187	1166.92
1028.477	1141.83
1028.766	1145.45
1029.055	1140.25
1029.344	1126.47
1029.634	1137.31
1029.923	1082.63
1030.212	1115.62
1030.501	1112.91
1030.79	1092.34
1031.078	1048.96
1031.367	1090.99
1031.656	1075.62
1031.945	1055.51
1032.233	1067.03
1032.522	1059.35
1032.81	1041.95
1033.099	1048.05
1033.387	997.88
1033.675	1046.47
1033.963	1038.33
1034.251	1010.54
1034.54	1004.66
1034.828	989.75
1035.116	989.75
1035.403	994.72
1035.691	982.52
1035.979	970.77
1036.267	958.34
1036.554	959.92
1036.842	965.79
1037.129	956.53
1037.417	938
1037.704	947.04
1037.992	921.05
1038.279	942.07
1038.566	944.1
1038.853	944.1
1039.14	944.1
