Data from plate_porcelain_FLMS001491_028.txt Node
Date: Tue Feb 07 11:19:02 GMT 2017
User: dcchb
Spectrometer: FLMS00149
Trigger mode: 0
Integration Time (sec): 2.000000E-2
Scans to average: 10
Electric dark correction enabled: true
Nonlinearity correction enabled: false
Boxcar width: 0
XAxis mode: Wavelengths
Number of Pixels in Spectrum: 2048
>>>>>Begin Spectral Data<<<<<
341.393	-23.56
341.776	-23.56
342.16	-23.56
342.543	-74.4
342.927	-73.95
343.31	-70.34
343.693	-65.37
344.077	-77.79
344.46	-51.81
344.843	-47.29
345.226	-60.62
345.61	-36.44
345.993	-3.45
346.376	7.4
346.759	17.8
347.142	22.32
347.525	36.33
347.908	49.89
348.291	73.84
348.674	87.4
349.057	118.13
349.44	121.97
349.823	121.75
350.206	163.78
350.588	246.26
350.971	227.73
351.354	253.04
351.737	277.68
352.119	269.54
352.502	287.39
352.884	297.11
353.267	312.93
353.65	312.48
354.032	350.44
354.414	337.79
354.797	358.8
355.179	358.58
355.562	355.41
355.944	375.3
356.326	372.14
356.709	378.01
357.091	358.13
357.473	391.12
357.855	378.69
358.238	387.05
358.62	387.5
359.002	379.37
359.384	395.87
359.766	397.22
360.148	388.18
360.53	389.54
360.912	385.24
361.294	376.2
361.676	378.92
362.057	377.33
362.439	394.28
362.821	386.6
363.203	376.88
363.584	392.93
363.966	394.28
364.348	391.8
364.729	382.08
365.111	361.29
365.493	374.85
365.874	405.13
366.256	389.54
366.637	401.06
367.019	387.5
367.4	386.83
367.781	377.33
368.163	382.31
368.544	395.87
368.925	390.67
369.306	395.41
369.688	385.92
370.069	418.46
370.45	385.47
370.831	426.37
371.212	398.8
371.593	388.86
371.974	407.39
372.355	378.92
372.736	408.29
373.117	409.65
373.498	418.24
373.879	406.71
374.26	411.91
374.641	387.28
375.021	421.85
375.402	414.17
375.783	459.37
376.163	482.64
376.544	466.82
376.925	450.33
377.305	447.84
377.686	452.14
378.066	462.98
378.447	484.45
378.827	462.53
379.208	465.92
379.588	457.78
379.968	468.63
380.349	487.84
380.729	489.65
381.109	490.55
381.489	474.73
381.87	508.18
382.25	490.33
382.63	504.11
383.01	510.21
383.39	515.64
383.77	528.97
384.15	517.9
384.53	527.39
384.91	535.07
385.29	549.31
385.67	546.14
386.049	560.38
386.429	559.25
386.809	568.74
387.189	571.45
387.568	576.2
387.948	587.72
388.328	582.98
388.707	591.11
389.087	598.35
389.466	589.76
389.846	613.03
390.225	611.68
390.605	620.04
390.984	632.02
391.363	652.13
391.743	638.8
392.122	665.46
392.501	662.75
392.881	674.95
393.26	686.03
393.639	685.58
394.018	694.16
394.397	696.2
394.776	698
395.155	722.41
395.534	693.26
395.913	728.96
396.292	732.35
396.671	770.54
397.05	738.23
397.429	772.35
397.808	777.1
398.186	765.12
398.565	794.5
398.944	771.67
399.323	779.81
399.701	808.96
400.08	808.51
400.458	820.03
400.837	854.61
401.215	836.76
401.594	830.2
401.972	846.02
402.351	875.85
402.729	889.41
403.107	889.41
403.486	888.96
403.864	913.37
404.242	908.39
404.62	907.26
404.999	936.19
405.377	947.72
405.755	965.79
406.133	948.62
406.511	964.89
406.889	1001.27
407.267	996.75
407.645	1027.71
408.023	1031.55
408.401	1068.84
408.779	1060.93
409.156	1089.41
409.534	1092.8
409.912	1110.87
410.29	1122.4
410.667	1150.65
411.045	1145.45
411.422	1160.82
411.8	1184.77
412.178	1216.86
412.555	1232.68
412.933	1246.92
413.31	1251.89
413.687	1286.92
414.065	1314.26
414.442	1313.36
414.819	1320.81
415.197	1356.29
415.574	1391.55
415.951	1364.65
416.328	1377.31
416.705	1417.76
417.082	1413.24
417.46	1423.86
417.837	1429.74
418.214	1462.5
418.591	1471.77
418.967	1485.78
419.344	1516.74
419.721	1507.02
420.098	1546.57
420.475	1546.8
420.852	1546.8
421.228	1594.03
421.605	1617.08
421.982	1636.74
422.358	1656.17
422.735	1691.42
423.111	1640.35
423.488	1714.47
423.864	1703.18
424.241	1757.86
424.617	1768.94
424.994	1751.54
425.37	1803.29
425.746	1809.84
426.123	1838.09
426.499	1836.51
426.875	1878.99
427.251	1946.33
427.627	1940.01
428.003	1968.48
428.379	2015.26
428.756	2005.77
429.132	2042.15
429.507	2072.88
429.883	2088.93
430.259	2143.39
430.635	2154.92
431.011	2182.94
431.387	2250.05
431.763	2269.04
432.138	2271.75
432.514	2336.38
432.89	2346.55
433.265	2391.07
433.641	2402.59
434.016	2472.65
434.392	2497.05
434.767	2512.87
435.143	2551.51
435.518	2578.86
435.894	2612.08
436.269	2631.06
436.644	2640.33
437.02	2714.9
437.395	2713.32
437.77	2764.62
438.145	2736.37
438.52	2842.13
438.895	2853.65
439.271	2864.73
439.646	2958.74
440.021	2922.8
440.395	2997.38
440.77	2984.95
441.145	2969.36
441.52	3052.29
441.895	3060.65
442.27	3050.48
442.645	3083.25
443.019	3126.87
443.394	3103.14
443.769	3167.09
444.143	3184.94
444.518	3286.86
444.892	3221.78
445.267	3275.34
445.641	3332.06
446.016	3310.36
446.39	3386.52
446.764	3342.45
447.139	3385.84
447.513	3454.09
447.887	3430.59
448.262	3485.73
448.636	3435.79
449.01	3600.53
449.384	3579.28
449.758	3609.79
450.132	3710.13
450.506	3695.67
450.88	3725.04
451.254	3698.38
451.628	3777.92
452.002	3797.81
452.376	3838.94
452.75	3910.35
453.123	3938.6
453.497	4009.56
453.871	4002.78
454.244	4143.79
454.618	4134.3
454.992	4197.57
455.365	4212.49
455.739	4320.73
456.112	4364.8
456.486	4431.24
456.859	4477.57
457.232	4525.25
457.606	4506.27
457.979	4611.57
458.352	4684.57
458.725	4762.3
459.099	4807.27
459.472	4877.33
459.845	4942.41
460.218	4967.72
460.591	5017.89
460.964	5042.3
461.337	5198
461.71	5276.64
462.083	5334.04
462.456	5388.05
462.829	5418.78
463.201	5506.92
463.574	5483.87
463.947	5604.77
464.32	5739.68
464.692	5797.98
465.065	5832.33
465.438	5888.38
465.81	6029.39
466.183	6105.09
466.555	6227.58
466.928	6256.05
467.3	6260.8
467.672	6353.67
468.045	6584.63
468.417	6536.49
468.789	6596.61
469.161	6679.32
469.534	6866.2
469.906	6911.4
470.278	7054.22
470.65	7109.36
471.022	7286.98
471.394	7385.06
471.766	7460.76
472.138	7610.14
472.51	7747.76
472.882	7891.49
473.253	7941.88
473.625	8089
473.997	8253.06
474.369	8225.26
474.74	8346.84
475.112	8489.66
475.484	8723.33
475.855	8822.08
476.227	8892.59
476.598	9178.69
476.97	9248.06
477.341	9468.17
477.713	9636.3
478.084	9693.7
478.455	9960.36
478.827	10025.22
479.198	10397.18
479.569	10385.43
479.94	10678.53
480.311	10769.15
480.682	11036.49
481.053	11264.05
481.424	11423.6
481.795	11544.72
482.166	11771.61
482.537	11826.3
482.908	12192.17
483.279	12246.4
483.65	12546.28
484.021	12782.43
484.391	12859.27
484.762	13005.25
485.133	13179.71
485.503	13429.19
485.874	13656.08
486.244	13873.7
486.615	14158.44
486.985	14261.72
487.356	14565.44
487.726	14750.74
488.097	14965.43
488.467	14971.08
488.837	15363.16
489.207	15594.56
489.578	15758.4
489.948	15944.38
490.318	16180.99
490.688	16203.59
491.058	16494.43
491.428	16648.09
491.798	16830.46
492.168	17237.23
492.538	17380.5
492.908	17538.92
493.278	17757.89
493.648	17802.19
494.017	18040.37
494.387	18218.67
494.757	18471.77
495.126	18626.57
495.496	18704.54
495.866	18819.34
496.235	19070.85
496.605	19330.06
496.974	19366.89
497.344	19622.7
497.713	19657.96
498.082	19828.8
498.452	20093.88
498.821	20228.79
499.19	20216.14
499.559	20413.87
499.928	20571.38
500.298	20813.41
500.667	21132.95
501.036	21002.78
501.405	21246.16
501.774	21192.83
502.143	21488.64
502.512	21721.41
502.88	21881.4
503.249	21933.15
503.618	22064.67
503.987	22158.23
504.356	22430.77
504.724	22458.79
505.093	22593.7
505.462	22677.54
505.83	22917.31
506.199	23130.41
506.567	23476.39
506.936	23291.76
507.304	23786.21
507.672	23745.99
508.041	23873.89
508.409	24182.36
508.777	24396.36
509.145	24555.68
509.514	24554.78
509.882	24857.14
510.25	24892.62
510.618	24968.78
510.986	25236.34
511.354	25548.65
511.722	25568.54
512.09	25924.23
512.458	25826.38
512.826	26144.57
513.193	26263.66
513.561	26500.72
513.929	26744.1
514.297	26819.58
514.664	27180.7
515.032	27301.82
515.4	27566.9
515.767	27627.69
516.135	27922.6
516.502	27715.82
516.869	28281.46
517.237	28363.49
517.604	28432.87
517.972	28845.29
518.339	28964.15
518.706	29089.57
519.073	29129.8
519.44	29409.34
519.808	29751.7
520.175	29972.71
520.542	30224.69
520.909	30321.41
521.276	30439.6
521.643	30788.96
522.009	31107.37
522.376	31270.76
522.743	31594.59
523.11	31710.52
523.477	32034.36
523.843	32254.69
524.21	32555.92
524.577	32804.5
524.943	32929.7
525.31	33211.73
525.676	33604.94
526.043	33667.76
526.409	33882.22
526.776	34232.94
527.142	34432.48
527.508	34665.02
527.874	34916.31
528.241	35131
528.607	35282.86
528.973	35655.96
529.339	35628.16
529.705	36050.97
530.071	36190.4
530.437	36330.97
530.803	36652.09
531.169	36888.47
531.535	36849.6
531.901	36955.81
532.267	37234.67
532.632	37416.59
532.998	37560.09
533.364	37831.49
533.73	38050.69
534.095	38396.45
534.461	38483.45
534.826	38634.86
535.192	38870.56
535.557	39053.61
535.923	39064.45
536.288	39304.67
536.653	39505.57
537.019	39388.74
537.384	39531.33
537.749	39709.63
538.114	39904.88
538.479	40112.11
538.845	40207.93
539.21	40213.12
539.575	40506
539.94	40565.43
540.305	40824.86
540.67	40825.54
541.034	41092.87
541.399	41265.3
541.764	41321.57
542.129	41482.69
542.494	41677.94
542.858	41721.33
543.223	41736.47
543.587	42170.13
543.952	42001.55
544.316	42236.57
544.681	42379.17
545.045	42469.79
545.41	42726.96
545.774	42787.97
546.138	42720.4
546.503	43015.08
546.867	42977.34
547.231	43575.97
547.595	43537.33
547.959	43769.87
548.324	43681.96
548.688	43779.81
549.052	43978.22
549.416	44022.74
549.779	44194.04
550.143	44370.75
550.507	44627.24
550.871	44849.39
551.235	44916.28
551.599	45165.54
551.962	45103.16
552.326	45320.33
552.689	45493.89
553.053	45431.74
553.417	45608.01
553.78	46085.51
554.143	45800.32
554.507	46146.53
554.87	46359.63
555.234	46725.72
555.597	46513.07
555.96	46864.7
556.323	46949.67
556.686	46994.87
557.05	47339.49
557.413	47373.84
557.776	47681.4
558.139	47721.63
558.502	47899.7
558.865	48042.3
559.228	48255.17
559.59	48340.59
559.953	48418.11
560.316	48845.44
560.679	48799.56
561.041	49187.58
561.404	49325.2
561.767	49394.12
562.129	49433.67
562.492	49755.02
562.854	49837.28
563.217	49913.21
563.579	49931.06
563.941	50234.55
564.304	50389.58
564.666	50716.58
565.028	50723.58
565.39	50907.98
565.753	50948.43
566.115	51137.58
566.477	51232.49
566.839	51371.7
567.201	51639.72
567.563	51660.51
567.925	51862.08
568.287	51908.41
568.648	51883.33
569.01	52186.59
569.372	52303.2
569.734	52202.86
570.095	52445.12
570.457	52559.24
570.819	52580.71
571.18	52730.53
571.542	52927.82
571.903	52921.72
572.265	52993.58
572.626	53045.1
572.987	53243.97
573.349	53312.67
573.71	53452.32
574.071	53520.12
574.432	53592.88
574.794	53756.27
575.155	53714.46
575.516	53701.81
575.877	53864.52
576.238	53897.28
576.599	53954.46
576.96	53971.63
577.32	54019.31
577.681	54175.92
578.042	54257.73
578.403	54285.07
578.763	54398.74
579.124	54356.48
579.485	54502.01
579.845	54556.25
580.206	54482.35
580.566	54503.82
580.927	54594.89
581.287	54662.69
581.648	54552.86
582.008	54736.81
582.368	54609.81
582.728	54755.11
583.089	54647.77
583.449	54668.56
583.809	54798.05
584.169	54856.81
584.529	54744.94
584.889	54953.3
585.249	54749.01
585.609	54663.59
585.969	54796.02
586.329	54754.44
586.688	54928.89
587.048	54795.34
587.408	54740.43
587.768	54762.8
588.127	54789.01
588.487	54693.42
588.846	54979.74
589.206	54800.99
589.565	54823.36
589.925	54928.44
590.284	54883.25
590.643	54942.68
591.003	54992.17
591.362	55070.36
591.721	54937.03
592.08	54987.88
592.44	55127.31
592.799	55073.3
593.158	55045.28
593.517	55042.34
593.876	55132.28
594.235	55040.53
594.593	55074.43
594.952	55221.54
595.311	55074.43
595.67	55098.16
596.029	55167.98
596.387	55306.29
596.746	55266.06
597.104	55110.36
597.463	55172.28
597.822	55307.42
598.18	55163.92
598.538	55205.5
598.897	55403.01
599.255	55135.89
599.613	55552.83
599.972	55365.72
600.33	55403.46
600.688	55298.38
601.046	55445.49
601.404	55565.26
601.762	55434.42
602.12	55592.15
602.478	55620.4
602.836	55664.47
603.194	55586.96
603.552	55561.87
603.91	55507.64
604.268	55609.55
604.625	55612.04
604.983	55711.47
605.341	55604.36
605.698	55715.09
606.056	55752.15
606.413	55725.03
606.771	55795.54
607.128	55914.63
607.485	55793.28
607.843	55760.29
608.2	55932.26
608.557	56055.64
608.914	55959.15
609.272	56117.56
609.629	56097.68
609.986	56134.51
610.343	56047.51
610.7	56299.71
611.057	56222.19
611.414	56222.19
611.771	56244.57
612.127	56339.93
612.484	56333.6
612.841	56461.51
613.198	56356.88
613.554	56421.28
613.911	56429.42
614.267	56464.67
614.624	56508.97
614.98	56476.2
615.337	56655.85
615.693	56594.84
616.05	56606.14
616.406	56750.09
616.762	56630.54
617.118	56602.52
617.475	56686.14
617.831	56786.92
618.187	56737.66
618.543	56716.87
618.899	56880.48
619.255	56803.87
619.611	56808.17
619.967	56854.95
620.323	56947.6
620.678	56806.81
621.034	56801.16
621.39	56776.08
621.746	56811.78
622.101	57014.04
622.457	56845.68
622.812	56874.38
623.168	56961.84
623.523	56924.77
623.879	56990.54
624.234	56861.27
624.589	56942.4
624.945	56972.23
625.3	56973.36
625.655	56926.13
626.01	56956.41
626.365	56976.75
626.72	56932.46
627.075	56930.88
627.43	56905.34
627.785	56820.6
628.14	56894.94
628.495	56860.6
628.85	56771.11
629.205	56746.47
629.559	56934.72
629.914	56725.01
630.269	56827.15
630.623	56739.24
630.978	56611.79
631.332	56792.8
631.687	56750.32
632.041	56684.55
632.396	56749.86
632.75	56627.16
633.104	56642.3
633.459	56532.47
633.813	56518.46
634.167	56525.46
634.521	56543.77
634.875	56525.46
635.229	56445.24
635.583	56383.09
635.937	56374.05
636.291	56328.18
636.645	56294.96
636.999	56210.89
637.352	56345.35
637.706	56155.53
638.06	56181.97
638.413	56164.34
638.767	56096.1
639.121	56188.97
639.474	55975.87
639.828	55969.32
640.181	56039.37
640.534	56009.77
640.888	55919.83
641.241	55739.72
641.594	55908.08
641.947	55903.56
642.301	55837.35
642.654	55770.68
643.007	55789.66
643.36	55739.04
643.713	55707.63
644.066	55818.36
644.419	55598.71
644.771	55454.08
645.124	55146.29
645.477	55147.87
645.83	54930.25
646.182	54740.65
646.535	54689.58
646.888	54768.67
647.24	54589.47
647.593	54722.12
647.945	54754.44
648.298	54476.03
648.65	54521
649.002	54436.7
649.355	54588.11
649.707	54488.68
650.059	54605.74
650.411	54938.39
650.763	54915.34
651.115	55076.01
651.467	55059.74
651.819	55127.08
652.171	55019.06
652.523	54894.09
652.875	54885.96
653.227	54705.85
653.578	54891.83
653.93	54893.42
654.282	54754.89
654.633	54618.17
654.985	54754.21
655.337	54709.69
655.688	54767.32
656.039	54769.8
656.391	54527.55
656.742	54681.67
657.094	54654.1
657.445	54849.57
657.796	54709.69
658.147	54498.62
658.498	54513.09
658.849	54647.09
659.2	54599.19
659.551	54432.86
659.902	54533.42
660.253	54480.32
660.604	54582.46
660.955	54349.47
661.306	54424.95
661.656	54389.93
662.007	54384.5
662.358	54361.9
662.708	54307.89
663.059	54363.94
663.409	54166.43
663.76	54318.97
664.11	54247.78
664.461	54335.69
664.811	54322.36
665.161	54329.36
665.511	54167.33
665.862	54250.95
666.212	54396.25
666.562	54332.53
666.912	54183.38
667.262	54245.75
667.612	54205.52
667.962	54288.46
668.312	54166.43
668.662	54295.24
669.011	54205.07
669.361	54138.41
669.711	54143.15
670.06	54115.13
670.41	53954.68
670.76	53998.52
671.109	54105.19
671.459	54040.56
671.808	54018.64
672.157	54087.56
672.507	53949.71
672.856	53900.9
673.205	53925.31
673.554	53844.63
673.904	53823.84
674.253	54036.94
674.602	53871.07
674.951	53401.25
675.3	53268.37
675.649	53779.77
675.998	53738.64
676.346	53747.68
676.695	53866.1
677.044	53605.99
677.393	53742.26
677.741	53704.07
678.09	53657.29
678.438	53597.4
678.787	53635.37
679.135	53613.68
679.484	53509.95
679.832	53549.04
680.181	53414.81
680.529	53489.16
680.877	53268.37
681.225	53203.06
681.573	53491.42
681.922	53199.67
682.27	53128.49
682.618	53139.11
682.966	53138.89
683.314	53057.31
683.661	52920.59
684.009	52866.35
684.357	52747.26
684.705	52832
685.053	52844.88
685.4	52705.9
685.748	52526.47
686.095	52594.72
686.443	52416.42
686.79	52354.73
687.138	52446.47
687.485	52425.46
687.832	52293.03
688.18	52380.71
688.527	52173.71
688.874	52158.12
689.221	51947.28
689.568	51902.08
689.915	51884
690.262	51846.26
690.609	51755.87
690.956	51622.54
691.303	51630.68
691.65	51401.76
691.997	51408.99
692.344	51160.86
692.69	51257.35
693.037	51316.11
693.383	51020.3
693.73	51076.11
694.077	50758.83
694.423	50895.1
694.769	50686.29
695.116	50723.36
695.462	50565.85
695.808	50568.56
696.155	50584.6
696.501	50307.77
696.847	50215.8
697.193	50022.36
697.539	50078.17
697.885	50043.37
698.231	49970.61
698.577	49917.28
698.923	49795.47
699.269	49462.6
699.614	49459.89
699.96	49234.36
700.306	49275.94
700.651	49238.42
700.997	49102.16
701.342	49070.52
701.688	48826
702.033	48704.88
702.379	48777.42
702.724	48644.54
703.069	48732.67
703.415	48347.15
703.76	48380.37
704.105	48296.3
704.45	48190.77
704.795	47844.79
705.14	47848.85
705.485	47772.25
705.83	47718.46
706.175	47756.2
706.52	47536.77
706.865	47487.73
707.209	47470.11
707.554	47208.19
707.899	47384.69
708.243	47160.06
708.588	47056.79
708.932	46832.61
709.277	46796.91
709.621	46827.41
709.966	46598.04
710.31	46669.45
710.654	46308.78
710.998	46431.49
711.342	46396.01
711.687	46233.76
712.031	46170.25
712.375	45990.82
712.719	46068.11
713.063	45864.27
713.407	45913.31
713.75	45768.91
714.094	45669.03
714.438	45541.34
714.782	45586.77
715.125	45388.81
715.469	45397.39
715.812	45076.95
716.156	44960.34
716.499	45013.9
716.843	44996.27
717.186	44741.37
717.53	44921.02
717.873	44851.42
718.216	44807.35
718.559	44769.84
718.902	44519.68
719.246	44583.4
719.589	44488.04
719.932	44273.13
720.275	44189.97
720.617	44203.3
720.96	44103.19
721.303	44107.48
721.646	44083.53
721.989	43757.66
722.331	43956.53
722.674	43805.12
723.016	43895.29
723.359	43699.36
723.701	43715.63
724.044	43422.08
724.386	43114.29
724.729	43470.44
725.071	43143.22
725.413	43157.23
725.755	43248.3
726.097	43012.15
726.439	42791.81
726.782	42902.77
727.124	42930.79
727.465	42558.37
727.807	42701.65
728.149	42596.56
728.491	42568.54
728.833	42548.88
729.175	42505.72
729.516	42394.31
729.858	42230.92
730.199	42408.09
730.541	41968.11
730.882	41953.42
731.224	42120.19
731.565	41792.06
731.906	41962.23
732.248	41880.88
732.589	41665.51
732.93	41595.46
733.271	41681.56
733.612	41684.05
733.953	41728.56
734.294	41500.77
734.635	41354.11
734.976	41444.28
735.317	41224.85
735.658	41160.9
735.999	41165.87
736.339	41043.16
736.68	41273.66
737.021	41020.33
737.361	40887.91
737.702	41077.51
738.042	40786.89
738.383	40911.64
738.723	40906.66
739.063	40583.74
739.404	40681.81
739.744	40586.45
740.084	40430.74
740.424	40576.96
740.764	40420.8
741.104	40396.4
741.444	40240.69
741.784	40054.26
742.124	40200.69
742.464	40159.57
742.804	39986.69
743.143	39932
743.483	39887.48
743.823	39661.05
744.162	39786.02
744.502	39830.99
744.841	39667.6
745.181	39670.54
745.52	39455.18
745.86	39509.41
746.199	39473.48
746.538	39341.28
746.877	39477.78
747.216	39334.5
747.556	39043.89
747.895	39076.2
748.234	38914.17
748.573	38819.94
748.911	38899.49
749.25	38747.17
749.589	38606.61
749.928	38794.86
750.267	38620.4
750.605	38507.86
750.944	38390.57
751.283	38279.16
751.621	38465.15
751.96	38085.95
752.298	38114.2
752.636	38163.91
752.975	37866.07
753.313	37839.17
753.651	37874.88
753.989	37724.38
754.327	37722.57
754.666	37480.54
755.004	37620.42
755.342	37488.22
755.679	37638.95
756.017	37172.75
756.355	37345.18
756.693	37058.4
757.031	37276.03
757.368	36978.86
757.706	36882.59
758.044	36673.78
758.381	36713.55
758.719	36624.74
759.056	36618.64
759.394	36549.26
759.731	36132.1
760.068	36178.43
760.405	35991.31
760.743	35827.7
761.08	36011.2
761.417	35773.47
761.754	35716.74
762.091	35579.12
762.428	35614.6
762.765	35262.75
763.102	35405.11
763.438	35181.39
763.775	34982.53
764.112	34975.75
764.449	35009.19
764.785	34628.19
765.122	34474.29
765.458	34521.97
765.795	34412.37
766.131	34312.71
766.467	34212.15
766.804	34011.7
767.14	33962.21
767.476	33905.72
767.812	33699.85
768.148	33769.9
768.485	33520.64
768.821	33423.92
769.157	33256.92
769.492	33255.79
769.828	33158.39
770.164	32787.33
770.5	32793.88
770.836	32828.91
771.171	32665.98
771.507	32547.56
771.842	32225.31
772.178	32331.97
772.513	32349.38
772.849	32168.36
773.184	32243.16
773.519	31984.64
773.855	31877.98
774.19	31759.56
774.525	31666.91
774.86	31517.08
775.195	31387.82
775.53	31310.76
775.865	31114.38
776.2	30896.76
776.535	30816.53
776.87	30868.51
777.205	30584.9
777.539	30477.56
777.874	30513.27
778.209	30232.59
778.543	30294.74
778.878	29959.16
779.212	30025.82
779.547	29799.61
779.881	29913.73
780.215	29552.84
780.55	29674.64
780.884	29532.95
781.218	29490.69
781.552	29411.37
781.886	29150.59
782.22	29130.03
782.554	29022.01
782.888	28762.8
783.222	28709.47
783.556	28608.91
783.889	28532.98
784.223	28235.81
784.557	28154.01
784.89	28324.4
785.224	28073.1
785.557	27952.2
785.891	27944.52
786.224	27761.25
786.558	27697.75
786.891	27406.68
787.224	27408.04
787.557	27493.46
787.891	27346.12
788.224	27315.38
788.557	27330.3
788.89	27095.73
789.223	27081.94
789.556	26845.57
789.888	26748.17
790.221	26763.76
790.554	26433.15
790.887	26516.53
791.219	26280.83
791.552	26364.22
791.884	26098.24
792.217	26111.35
792.549	25960.16
792.882	25878.13
793.214	25768.76
793.546	25752.26
793.879	25543
794.211	25481.08
794.543	25542.32
794.875	25411.93
795.207	25463.45
795.539	25245.16
795.871	25286.28
796.203	25047.19
796.535	24881.55
796.867	24843.13
797.198	24928.78
797.53	24950.02
797.862	24552.97
798.193	24629.8
798.525	24446.76
798.856	24461.67
799.188	24186.43
799.519	24178.97
799.85	24013.1
800.182	24060.1
800.513	23994.11
800.844	23913.21
801.175	23978.52
801.506	23829.37
801.837	23699.21
802.168	23698.98
802.499	23679.09
802.83	23469.16
803.161	23364.07
803.491	23419.21
803.822	23367.46
804.153	23201.14
804.483	23088.83
804.814	22944.42
805.145	23012.9
805.475	22971.54
805.805	22722.51
806.136	22822.62
806.466	22825.33
806.796	22701.72
807.126	22600.03
807.457	22533.14
807.787	22467.38
808.117	22263.99
808.447	22330.66
808.777	22304.44
809.107	22278.23
809.436	22302.63
809.766	22177.89
810.096	22085.92
810.426	22030.78
810.755	22023.09
811.085	21953.04
811.414	21842.53
811.744	21636.66
812.073	21739.26
812.403	21602.99
812.732	21586.72
813.061	21523.67
813.39	21398.93
813.719	21367.07
814.049	21526.84
814.378	21386.5
814.707	21245.49
815.036	21124.36
815.365	21117.13
815.693	20883.24
816.022	20917.81
816.351	20840.07
816.68	20797.36
817.008	20799.17
817.337	20578.39
817.665	20629.46
817.994	20749.68
818.322	20635.11
818.651	20491.16
818.979	20462.46
819.307	20519.86
819.636	20418.16
819.964	20356.47
820.292	20376.13
820.62	20324.83
820.948	20203.48
821.276	20338.17
821.604	20207.32
821.932	20287.55
822.259	20275.57
822.587	20240.54
822.915	20167.1
823.243	20260.43
823.57	20210.26
823.898	20122.13
824.225	20157.61
824.553	20077.83
824.88	20243.48
825.207	20177.94
825.535	20161.22
825.862	20211.62
826.189	20238.06
826.516	20213.42
826.843	20224.04
827.17	20261.11
827.497	20207.55
827.824	20224.5
828.151	20185.18
828.478	20071.51
828.805	20167.77
829.131	20052.52
829.458	20024.73
829.785	19982.24
830.111	19994.45
830.438	20106.08
830.764	20083.71
831.09	20034.22
831.417	20027.44
831.743	20087.78
832.069	19972.3
832.395	19939.98
832.722	20010.26
833.048	19826.31
833.374	19957.61
833.7	19792.42
834.026	19945.18
834.351	19922.81
834.677	19830.61
835.003	19916.48
835.329	19804.39
835.654	19809.37
835.98	19730.05
836.306	19675.36
836.631	19683.04
836.956	19723.27
837.282	19697.96
837.607	19638.52
837.932	19599.88
838.258	19514.68
838.583	19542.25
838.908	19318.53
839.233	19486.66
839.558	19401.92
839.883	19335.93
840.208	19328.02
840.533	19280.11
840.858	19302.26
841.182	19305.42
841.507	19290.06
841.832	19053
842.156	19105.88
842.481	19064.98
842.805	19005.32
843.13	18949.5
843.454	18994.25
843.778	18855.04
844.103	18862.5
844.427	18743.63
844.751	18748.38
845.075	18637.42
845.399	18631.77
845.723	18632.45
846.047	18607.36
846.371	18429.97
846.695	18453.24
847.019	18263.42
847.343	18121.73
847.666	18146.36
847.99	17886.93
848.313	17922.86
848.637	17765.13
848.96	17879.25
849.284	17679.48
849.607	17691
849.931	17558.35
850.254	17556.32
850.577	17407.85
850.9	17308.41
851.223	17327.4
851.546	17220.73
851.869	17143.22
852.192	17168.98
852.515	16971.7
852.838	16949.1
853.161	16953.62
853.483	16832.04
853.806	16815.32
854.129	16818.71
854.451	16722.44
854.774	16676.34
855.096	16605.38
855.419	16513.18
855.741	16491.71
856.063	16318.38
856.385	16376.01
856.708	16299.85
857.03	16210.36
857.352	16206.97
857.674	16141.44
857.996	16045.85
858.318	15944.83
858.64	16019.64
858.961	15896.02
859.283	15843.14
859.605	15775.57
859.926	15805.63
860.248	15786.2
860.57	15673.43
860.891	15691.96
861.212	15633.88
861.534	15559.31
861.855	15573.32
862.176	15567.22
862.498	15507.56
862.819	15501
863.14	15457.39
863.461	15441.8
863.782	15395.7
864.103	15343.49
864.424	15312.31
864.745	15323.38
865.065	15268.47
865.386	15220.11
865.707	15277.73
866.027	15287.68
866.348	15237.28
866.668	15193.89
866.989	15183.95
867.309	15018.98
867.63	15056.04
867.95	15012.43
868.27	14959.78
868.59	15060.34
868.91	14911.64
869.23	14976.27
869.55	14843.4
869.87	14957.97
870.19	14912.32
870.51	14817.18
870.83	14828.25
871.15	14634.36
871.469	14616.51
871.789	14638.43
872.109	14666.9
872.428	14602.27
872.748	14654.25
873.067	14638.65
873.386	14628.94
873.706	14565.89
874.025	14520.24
874.344	14568.83
874.663	14566.11
874.982	14451.09
875.301	14504.65
875.62	14489.05
875.939	14331.54
876.258	14333.13
876.577	14313.92
876.896	14258.55
877.214	14296.52
877.533	14318.44
877.852	14250.19
878.17	14280.47
878.489	14250.64
878.807	14168.84
879.125	14195.95
879.444	14120.7
879.762	14091.55
880.08	14114.83
880.398	13950.54
880.716	14127.03
881.034	14033.25
881.352	14063.53
881.67	13941.72
881.988	13960.93
882.306	13914.83
882.624	13847.26
882.941	13779.92
883.259	13697.21
883.577	13716.19
883.894	13700.37
884.212	13648.62
884.529	13601.17
884.846	13614.5
885.164	13576.08
885.481	13428.07
885.798	13483.66
886.115	13467.39
886.432	13392.13
886.75	13306.94
887.067	13435.07
887.383	13310.33
887.7	13329.31
888.017	13279.59
888.334	13341.29
888.651	13215.64
888.967	13231.01
889.284	13086.83
889.6	13192.59
889.917	13111.46
890.233	13128.19
890.55	13050.67
890.866	13041.18
891.182	12870.11
891.498	12880.51
891.815	12773.17
892.131	12824.47
892.447	12763.68
892.763	12671.25
893.079	12707.41
893.395	12704.24
893.71	12592.83
894.026	12586.28
894.342	12455.89
894.657	12450.69
894.973	12444.59
895.289	12414.53
895.604	12403.69
895.92	12218.38
896.235	12221.77
896.55	12199.62
896.865	12185.84
897.181	12234.2
897.496	12205.05
897.811	12127.08
898.126	12101.09
898.441	12020.42
898.756	11978.16
899.071	11937.48
899.386	11950.82
899.7	11822.46
900.015	11776.13
900.33	11733.42
900.644	11674.21
900.959	11717.83
901.273	11633.08
901.588	11521.45
901.902	11560.77
902.216	11544.5
902.531	11376.59
902.845	11452.75
903.159	11297.73
903.473	11290.49
903.787	11205.75
904.101	11125.53
904.415	11135.7
904.729	11074.68
905.042	11011.63
905.356	11055.02
905.67	11009.37
905.984	11082.82
906.297	10983.38
906.611	10890.96
906.924	10913.33
907.237	10843.27
907.551	10796.27
907.864	10692.32
908.177	10715.82
908.491	10652.54
908.804	10620.23
909.117	10564.41
909.43	10484.19
909.743	10384.53
910.056	10436.96
910.368	10298.43
910.681	10289.84
910.994	10287.81
911.307	10233.35
911.619	10171.2
911.932	10185.66
912.244	10140.69
912.557	10061.6
912.869	10021.83
913.181	9996.97
913.494	10009.85
913.806	9964.2
914.118	9939.8
914.43	9849.18
914.742	9846.24
915.054	9811.44
915.366	9792.91
915.678	9695.96
915.99	9632.01
916.302	9568.05
916.613	9511.11
916.925	9530.31
917.236	9509.52
917.548	9398.57
917.859	9440.83
918.171	9355.86
918.482	9317.21
918.794	9298.91
919.105	9239.25
919.416	9168.06
919.727	9203.77
920.038	9150.66
920.349	9034.73
920.66	9029.76
920.971	9021.18
921.282	8993.61
921.593	8885.36
921.903	8856.43
922.214	8821.41
922.525	8762.2
922.835	8758.36
923.146	8721.97
923.456	8753.84
923.767	8670.68
924.077	8647.85
924.387	8583.45
924.697	8511.58
925.008	8484.01
925.318	8412.6
925.628	8451.92
925.938	8446.95
926.248	8250.8
926.558	8322.44
926.867	8334.41
927.177	8233.17
927.487	8186.62
927.796	8155.21
928.106	8176.68
928.416	8088.77
928.725	8142.1
929.034	8016.23
929.344	8052.61
929.653	8023.01
929.962	7908.21
930.271	7884.93
930.581	7857.14
930.89	7841.77
931.199	7784.82
931.508	7760.87
931.817	7725.39
932.125	7729.23
932.434	7754.09
932.743	7547.99
933.051	7618.5
933.36	7518.84
933.669	7522.23
933.977	7494.21
934.286	7401.33
934.594	7450.6
934.902	7345.97
935.21	7378.28
935.519	7329.24
935.827	7289.92
936.135	7282.24
936.443	7161.34
936.751	7144.84
937.059	7166.53
937.367	7077.05
937.674	7124.5
937.982	7097.16
938.29	7060.32
938.597	7026.65
938.905	6963.15
939.213	6975.35
939.52	6926.32
939.827	6911.17
940.135	6847.22
940.442	6842.48
940.749	6829.82
941.056	6814.45
941.363	6711.63
941.67	6716.83
941.977	6742.14
942.284	6637.06
942.591	6625.08
942.898	6574.69
943.205	6545.31
943.511	6514.35
943.818	6480
944.125	6469.83
944.431	6390.51
944.738	6435.03
945.044	6438.87
945.35	6340.57
945.657	6351.41
945.963	6344.41
946.269	6255.37
946.575	6263.51
946.881	6201.81
947.187	6189.61
947.493	6145.09
947.799	6101.93
948.105	6105.55
948.41	6080.46
948.716	6070.52
949.022	6019.9
949.327	6028.94
949.633	5917.98
949.938	5934.02
950.244	5921.82
950.549	5863.74
950.854	5857.64
951.16	5848.15
951.465	5813.58
951.77	5755.72
952.075	5731.32
952.38	5738.78
952.685	5669.62
952.99	5674.82
953.294	5643.18
953.599	5607.48
953.904	5621.04
954.209	5510.08
954.513	5531.32
954.818	5455.85
955.122	5497.43
955.426	5456.52
955.731	5449.74
956.035	5423.76
956.339	5461.49
956.643	5379.92
956.948	5360.93
957.252	5330.2
957.556	5335.62
957.86	5297.21
958.163	5323.42
958.467	5238.68
958.771	5231.9
959.075	5171.78
959.378	5191.67
959.682	5125.01
959.985	5163.65
960.289	5106.7
960.592	5054.05
960.896	4991.45
961.199	5062.86
961.502	4954.39
961.805	4976.31
962.108	4961.62
962.411	4904.22
962.714	4905.35
963.017	4891.79
963.32	4924.56
963.623	4840.27
963.926	4831
964.228	4773.38
964.531	4825.81
964.833	4809.53
965.136	4784.45
965.438	4727.5
965.741	4802.53
966.043	4731.34
966.345	4711.23
966.648	4635.08
966.95	4664.45
967.252	4610.22
967.554	4607.05
967.856	4560.05
968.158	4547.17
968.46	4526.83
968.761	4531.58
969.063	4481.41
969.365	4440.73
969.666	4468.98
969.968	4412.26
970.269	4439.37
970.571	4434.63
970.872	4384.91
971.174	4342.2
971.475	4334.29
971.776	4296.78
972.077	4293.16
972.378	4270.11
972.679	4256.55
972.98	4252.26
973.281	4219.95
973.582	4179.49
973.883	4157.57
974.183	4108.99
974.484	4163.22
974.785	4121.42
975.085	4112.38
975.386	4083.23
975.686	4088.42
975.986	4039.61
976.287	4060.85
976.587	3991.93
976.887	3997.35
977.187	3971.59
977.487	3941.99
977.787	3934.98
978.087	3896.56
978.387	3868.99
978.687	3880.07
978.987	3881.65
979.286	3808.88
979.586	3785.61
979.885	3779.51
980.185	3775.66
980.484	3765.72
980.784	3740.41
981.083	3712.16
981.382	3729.34
981.682	3725.04
981.981	3728.43
982.28	3675.1
982.579	3654.76
982.878	3646.85
983.177	3642.33
983.475	3602.56
983.774	3583.13
984.073	3584.03
984.372	3534.54
984.67	3508.78
984.969	3572.73
985.267	3540.19
985.566	3477.59
985.864	3498.38
986.162	3479.85
986.461	3483.47
986.759	3459.29
987.057	3433.3
987.355	3389.23
987.653	3372.96
987.951	3383.36
988.249	3376.8
988.547	3307.2
988.844	3317.6
989.142	3346.3
989.44	3321.44
989.737	3297.94
990.035	3270.82
990.332	3275.56
990.63	3230.37
990.927	3236.92
991.224	3188.11
991.521	3196.02
991.819	3164.61
992.116	3123.7
992.413	3174.1
992.71	3149.24
993.006	3084.38
993.303	3076.92
993.6	3066.3
993.897	3040.32
994.193	3037.38
994.49	3015.91
994.787	2987.89
995.083	2974.33
995.379	3005.06
995.676	2986.98
995.972	2926.87
996.268	2922.35
996.565	2901.34
996.861	2909.25
997.157	2919.19
997.453	2895.46
997.749	2846.42
998.044	2842.58
998.34	2864.27
998.636	2802.58
998.932	2795.35
999.227	2762.13
999.523	2738.18
999.818	2721.91
1000.114	2728.01
1000.409	2751.51
1000.704	2701.79
1001	2670.61
1001.295	2688.91
1001.59	2668.8
1001.885	2648.69
1002.18	2626.54
1002.475	2641
1002.77	2599.88
1003.065	2587.9
1003.359	2566.43
1003.654	2549.26
1003.949	2547.9
1004.243	2552.87
1004.538	2524.62
1004.832	2483.27
1005.127	2471.52
1005.421	2484.4
1005.715	2496.83
1006.009	2468.13
1006.304	2400.33
1006.598	2426.09
1006.892	2395.36
1007.186	2373.21
1007.48	2383.84
1007.773	2364.63
1008.067	2370.73
1008.361	2288.7
1008.655	2347.68
1008.948	2285.08
1009.242	2292.09
1009.535	2314.01
1009.829	2263.16
1010.122	2248.25
1010.415	2261.13
1010.708	2234.69
1011.001	2235.82
1011.295	2194.46
1011.588	2176.38
1011.881	2186.33
1012.173	2173.67
1012.466	2132.77
1012.759	2128.02
1013.052	2140
1013.344	2081.47
1013.637	2087.8
1013.93	2101.58
1014.222	2081.47
1014.514	2088.93
1014.807	2032.43
1015.099	2047.35
1015.391	2032.88
1015.683	2009.83
1015.976	2020.68
1016.268	1976.84
1016.56	1982.49
1016.851	1947.24
1017.143	1964.41
1017.435	1968.71
1017.727	1950.63
1018.018	1915.15
1018.31	1900.91
1018.602	1885.77
1018.893	1878.31
1019.185	1866.79
1019.476	1838.54
1019.767	1862.04
1020.058	1834.7
1020.35	1820.69
1020.641	1780.01
1020.932	1813.23
1021.223	1774.59
1021.514	1766.22
1021.804	1763.29
1022.095	1742.5
1022.386	1747.47
1022.677	1683.74
1022.967	1683.97
1023.258	1697.07
1023.548	1675.83
1023.839	1701.59
1024.129	1648.71
1024.419	1645.78
1024.709	1646.68
1025	1639.22
1025.29	1589.96
1025.58	1616.17
1025.87	1571.88
1026.16	1577.98
1026.449	1553.57
1026.739	1543.86
1027.029	1552.9
1027.319	1513.12
1027.608	1521.94
1027.898	1474.26
1028.187	1522.62
1028.477	1484.88
1028.766	1471.54
1029.055	1473.13
1029.344	1450.3
1029.634	1439
1029.923	1451.66
1030.212	1430.19
1030.501	1407.14
1030.79	1410.53
1031.078	1410.98
1031.367	1408.49
1031.656	1372.11
1031.945	1380.7
1032.233	1337.08
1032.522	1363.52
1032.81	1351.32
1033.099	1362.39
1033.387	1324.2
1033.675	1291.21
1033.963	1285.33
1034.251	1289.63
1034.54	1298.21
1034.828	1269.29
1035.116	1277.88
1035.403	1246.01
1035.691	1260.48
1035.979	1238.1
1036.267	1229.74
1036.554	1239.68
1036.842	1198.56
1037.129	1206.47
1037.417	1198.1
1037.704	1208.73
1037.992	1209.18
1038.279	1175.73
1038.566	1165.34
1038.853	1165.34
1039.14	1165.34
