Data from plate_porcelain_FLMS001491_039.txt Node
Date: Tue Feb 07 11:19:13 GMT 2017
User: dcchb
Spectrometer: FLMS00149
Trigger mode: 0
Integration Time (sec): 2.000000E-2
Scans to average: 10
Electric dark correction enabled: true
Nonlinearity correction enabled: false
Boxcar width: 0
XAxis mode: Wavelengths
Number of Pixels in Spectrum: 2048
>>>>>Begin Spectral Data<<<<<
341.393	-11.85
341.776	-11.85
342.16	-11.85
342.543	-62.47
342.927	-70.83
343.31	-64.96
343.693	-69.7
344.077	-74.67
344.46	-77.16
344.843	-53.43
345.226	-34.9
345.61	-30.38
345.993	-28.12
346.376	-18.4
346.759	6.45
347.142	36.28
347.525	55.27
347.908	69.5
348.291	71.76
348.674	94.81
349.057	117.64
349.44	89.84
349.823	146.34
350.206	149.28
350.588	207.13
350.971	226.79
351.354	247.35
351.737	278.09
352.119	281.93
352.502	276.73
352.884	297.75
353.267	319.44
353.65	318.54
354.032	316.05
354.414	335.71
354.797	328.25
355.179	342.27
355.562	355.37
355.944	350.63
356.326	352.66
356.709	373.9
357.091	367.12
357.473	392.89
357.855	370.96
358.238	373.68
358.62	384.52
359.002	390.17
359.384	405.31
359.766	393.56
360.148	384.07
360.53	389.04
360.912	396.73
361.294	365.77
361.676	362.83
362.057	383.85
362.439	400.57
362.821	391.76
363.203	374.35
363.584	374.13
363.966	385.65
364.348	384.75
364.729	372.77
365.111	367.8
365.493	382.49
365.874	394.92
366.256	389.72
366.637	375.71
367.019	378.42
367.4	385.2
367.781	388.14
368.163	387.69
368.544	371.64
368.925	386.33
369.306	417.07
369.688	389.27
370.069	409.38
370.45	387.46
370.831	396.27
371.212	405.31
371.593	374.13
371.974	415.03
372.355	395.14
372.736	413
373.117	422.04
373.498	405.09
373.879	419.78
374.26	402.6
374.641	398.31
375.021	419.78
375.402	424.07
375.783	434.24
376.163	458.42
376.544	467.91
376.925	444.64
377.305	439.21
377.686	442.83
378.066	437.86
378.447	452.77
378.827	454.8
379.208	459.32
379.588	441.47
379.968	471.53
380.349	458.42
380.729	497.74
381.109	508.81
381.489	492.32
381.87	486.22
382.25	495.26
382.63	503.84
383.01	509.72
383.39	506.1
383.77	484.18
384.15	496.84
384.53	513.11
384.91	528.25
385.29	537.74
385.67	548.36
386.049	534.35
386.429	536.38
386.809	569.83
387.189	555.14
387.568	553.33
387.948	581.58
388.328	586.1
388.707	570.28
389.087	594.01
389.466	592.65
389.846	597.4
390.225	619.77
390.605	612.77
390.984	605.76
391.363	622.71
391.743	638.08
392.122	607.57
392.501	682.6
392.881	658.19
393.26	650.96
393.639	668.58
394.018	655.7
394.397	690.28
394.776	705.42
395.155	700.22
395.534	714.46
395.913	725.98
396.292	704.52
396.671	737.73
397.05	734.57
397.429	741.8
397.808	748.58
398.186	759.2
398.565	763.72
398.944	782.48
399.323	768.02
399.701	787.9
400.08	791.29
400.458	824.29
400.837	818.18
401.215	843.04
401.594	831.52
401.972	832.42
402.351	851.63
402.729	880.33
403.107	876.94
403.486	877.84
403.864	889.6
404.242	909.03
404.62	916.26
404.999	936.15
405.377	953.1
405.755	954.68
406.133	953.1
406.511	962.81
406.889	981.34
407.267	992.87
407.645	1005.75
408.023	1043.26
408.401	1031.06
408.779	1035.58
409.156	1072.42
409.534	1084.84
409.912	1107.22
410.29	1110.61
410.667	1132.07
411.045	1133.43
411.422	1153.54
411.8	1157.84
412.178	1171.17
412.555	1225.63
412.933	1235.57
413.31	1248.68
413.687	1271.51
414.065	1260.88
414.442	1261.56
414.819	1325.74
415.197	1316.02
415.574	1333.65
415.951	1354.89
416.328	1351.28
416.705	1405.74
417.082	1402.35
417.46	1422.46
417.837	1410.03
418.214	1445.96
418.591	1439.64
418.967	1457.72
419.344	1474.21
419.721	1484.16
420.098	1523.48
420.475	1539.52
420.852	1533.65
421.228	1559.18
421.605	1614.1
421.982	1586.53
422.358	1632.85
422.735	1640.31
423.111	1636.92
423.488	1665.39
423.864	1665.62
424.241	1711.72
424.617	1742.68
424.994	1736.58
425.37	1767.09
425.746	1782.23
426.123	1791.27
426.499	1829.23
426.875	1862.45
427.251	1895.67
427.627	1951.26
428.003	1947.65
428.379	1964.82
428.756	1991.49
429.132	2035.78
429.507	2065.84
429.883	2043.24
430.259	2109.68
430.635	2114.65
431.011	2117.36
431.387	2241.42
431.763	2242.1
432.138	2276.9
432.514	2311.93
432.89	2285.49
433.265	2339.73
433.641	2369.78
434.016	2427.63
434.392	2425.6
434.767	2490.91
435.143	2503.56
435.518	2532.26
435.894	2603.22
436.269	2614.75
436.644	2652.94
437.02	2696.33
437.395	2676.89
437.77	2694.75
438.145	2761.64
438.52	2797.34
438.895	2833.27
439.271	2849.54
439.646	2881.41
440.021	2913.72
440.395	2948.07
440.77	2941.74
441.145	2957.11
441.52	3080.95
441.895	3014.96
442.27	3033.27
442.645	3043.89
443.019	3098.12
443.394	3097.67
443.769	3157.78
444.143	3117.79
444.518	3189.87
444.892	3191.68
445.267	3255.86
445.641	3279.14
446.016	3290.89
446.39	3293.15
446.764	3341.51
447.139	3321.62
447.513	3412.47
447.887	3414.05
448.262	3443.43
448.636	3449.3
449.01	3540.37
449.384	3538.79
449.758	3553.71
450.132	3588.96
450.506	3636.19
450.88	3639.58
451.254	3680.26
451.628	3742.4
452.002	3808.61
452.376	3830.08
452.75	3845.68
453.123	3840.25
453.497	3892.45
453.871	4024.43
454.244	4067.82
454.618	4108.95
454.992	4167.48
455.365	4171.09
455.739	4247.47
456.112	4321.82
456.486	4369.73
456.859	4403.18
457.232	4488.6
457.606	4485.66
457.979	4562.49
458.352	4686.11
458.725	4721.81
459.099	4750.51
459.472	4860.34
459.845	4895.14
460.218	4950.73
460.591	4985.76
460.964	5029.15
461.337	5172.65
461.71	5264.85
462.083	5317.5
462.456	5333.77
462.829	5314.56
463.201	5458.06
463.574	5469.36
463.947	5576.93
464.32	5695.34
464.692	5690.37
465.065	5798.84
465.438	5848.33
465.81	5960.2
466.183	6013.53
466.555	6104.6
466.928	6177.59
467.3	6203.58
467.672	6302.79
468.045	6509.79
468.417	6457.58
468.789	6515.21
469.161	6632.27
469.534	6738.26
469.906	6892.6
470.278	6915.88
470.65	6988.87
471.022	7152.71
471.394	7295.98
471.766	7420.27
472.138	7497.33
472.51	7617.33
472.882	7783.65
473.253	7802.63
473.625	7969.64
473.997	8170.99
474.369	8218.89
474.74	8246.92
475.112	8396.97
475.484	8583.86
475.855	8786.34
476.227	8860.69
476.598	9090.74
476.97	9174.8
477.341	9353.33
477.713	9502.48
478.084	9626.77
478.455	9886.42
478.827	9965.97
479.198	10303.59
479.569	10241.44
479.94	10565.73
480.311	10644.82
480.682	10920.29
481.053	11174.3
481.424	11292.49
481.795	11464.68
482.166	11582.87
482.537	11791.23
482.908	12041.39
483.279	12215.63
483.65	12439.12
484.021	12666.46
484.391	12791.43
484.762	12948.04
485.133	13086.79
485.503	13278.65
485.874	13599.54
486.244	13657.85
486.615	13953.66
486.985	14155.24
487.356	14390.71
487.726	14566.98
488.097	14841.54
488.467	14929.23
488.837	15188.65
489.207	15334.87
489.578	15625.25
489.948	15683.78
490.318	15965.58
490.688	16070.67
491.058	16361.5
491.428	16502.07
491.798	16787.48
492.168	17043.52
492.538	17113.12
492.908	17271.31
493.278	17584.98
493.648	17637.86
494.017	17816.61
494.387	18115.81
494.757	18224.28
495.126	18403.26
495.496	18466.53
495.866	18650.71
496.235	18922.57
496.605	19130.02
496.974	19221.32
497.344	19357.81
497.713	19511.7
498.082	19638.03
498.452	19933.61
498.821	19979.26
499.19	19946.27
499.559	20271.01
499.928	20396.65
500.298	20470.78
500.667	20824.66
501.036	20805.46
501.405	20913.7
501.774	20966.13
502.143	21207.71
502.512	21379.9
502.88	21473.91
503.249	21585.77
503.618	21847.91
503.987	21934.47
504.356	22157.96
504.724	22303.95
505.093	22414.9
505.462	22515.47
505.83	22748.91
506.199	22906.42
506.567	23119.75
506.936	23178.73
507.304	23560.41
507.672	23552.05
508.041	23605.38
508.409	23844.02
508.777	24058.48
509.145	24230
509.514	24247.85
509.882	24497.79
510.25	24521.29
510.618	24783.2
510.986	24832.47
511.354	25221.61
511.722	25389.29
512.09	25674.25
512.458	25544.54
512.826	25883.06
513.193	25954.02
513.561	26040.8
513.929	26399.43
514.297	26710.84
514.664	26864.28
515.032	27088.45
515.4	27234.89
515.767	27310.6
516.135	27586.97
516.502	27447.09
516.869	27876
517.237	27991.48
517.604	27894.08
517.972	28469.21
518.339	28597.79
518.706	28739.71
519.073	28725.7
519.44	29049.76
519.808	29365.46
520.175	29528.39
520.542	29849.29
520.909	29934.26
521.276	29989.17
521.643	30491.75
522.009	30723.39
522.376	30962.48
522.743	31035.47
523.11	31401.79
523.477	31583.48
523.843	31816.24
524.21	32083.13
524.577	32408.31
524.943	32521.53
525.31	32632.72
525.676	33042.65
526.043	33241.29
526.409	33411.68
526.776	33803.76
527.142	33930.99
527.508	34053.69
527.874	34414.59
528.241	34610.97
528.607	34741.13
528.973	35075.36
529.339	35038.75
529.705	35431.96
530.071	35809.58
530.437	36076.92
530.803	36203.69
531.169	36337.93
531.535	36420.19
531.901	36419.06
532.267	36757.13
532.632	37046.16
532.998	37223.1
533.364	37469.2
533.73	37511.01
534.095	37906.02
534.461	37904.67
534.826	38202.74
535.192	38374.49
535.557	38715.04
535.923	38510.3
536.288	38737.19
536.653	38896.51
537.019	38848.15
537.384	39127.69
537.749	39245.65
538.114	39438.64
538.479	39580.33
538.845	39699.87
539.21	39743.94
539.575	39909.59
539.94	40014.44
540.305	40352.96
540.67	40229.35
541.034	40560.64
541.399	40663.92
541.764	40676.12
542.129	40795.66
542.494	41078.37
542.858	41144.36
543.223	41265.93
543.587	41633.61
543.952	41526.72
544.316	41759.93
544.681	41721.52
545.045	41938.46
545.41	42128.51
545.774	42234.95
546.138	42335.29
546.503	42455.96
546.867	42450.76
547.231	42787.7
547.595	42803.97
547.959	43134.13
548.324	42983.4
548.688	43155.15
549.052	43337.74
549.416	43592.88
549.779	43433.11
550.143	43776.83
550.507	44086.88
550.871	44082.36
551.235	44151.28
551.599	44384.5
551.962	44562.8
552.326	44744.94
552.689	44967.53
553.053	44756.24
553.417	45027.64
553.78	45429.67
554.143	45374.53
554.507	45518.03
554.87	45769.32
555.234	46207.95
555.597	45914.17
555.96	46182.64
556.323	46235.07
556.686	46445.23
557.05	46746.92
557.413	46830.53
557.776	46869.63
558.139	47269.39
558.502	47265.55
558.865	47504.87
559.228	47672.09
559.59	47643.17
559.953	47875.7
560.316	48190.05
560.679	48229.59
561.041	48542.35
561.404	48729.24
561.767	48899.18
562.129	48838.39
562.492	49095.11
562.854	49258.49
563.217	49316.57
563.579	49498.49
563.941	49732.15
564.304	49838.14
564.666	50093.5
565.028	50162.42
565.39	50334.62
565.753	50432.93
566.115	50635.86
566.477	50833.59
566.839	50848.06
567.201	51029.52
567.563	51178.44
567.925	51401.71
568.287	51358.55
568.648	51356.97
569.01	51617.98
569.372	51804.19
569.734	51734.36
570.095	51969.61
570.457	52063.84
570.819	52146.78
571.18	52135.03
571.542	52285.31
571.903	52445.98
572.265	52514.68
572.626	52595.81
572.987	52754.67
573.349	52798.29
573.71	52861.79
574.071	52979.53
574.432	53067.88
574.794	53208.67
575.155	53151.05
575.516	53205.28
575.877	53386.52
576.238	53383.81
576.599	53492.73
576.96	53511.04
577.32	53536.12
577.681	53672.61
578.042	53738.15
578.403	53784.93
578.763	53872.16
579.124	53864.7
579.485	53923.91
579.845	54033.73
580.206	53954.64
580.566	53924.81
580.927	54040.06
581.287	54147.86
581.648	54044.36
582.008	54176.78
582.368	54160.06
582.728	54289.77
583.089	54133.39
583.449	54219.94
583.809	54245.03
584.169	54235.31
584.529	54241.64
584.889	54435.31
585.249	54257.91
585.609	54214.97
585.969	54382.88
586.329	54347.17
586.688	54380.17
587.048	54312.6
587.408	54295.2
587.768	54315.54
588.127	54308.98
588.487	54233.5
588.846	54582.87
589.206	54294.29
589.565	54344.01
589.925	54516.21
590.284	54401.63
590.643	54420.62
591.003	54468.53
591.362	54519.37
591.721	54465.36
592.08	54432.14
592.44	54584.23
592.799	54546.26
593.158	54617.67
593.517	54607.28
593.876	54598.69
594.235	54542.87
594.593	54516.66
594.952	54639.14
595.311	54610.44
595.67	54563.44
596.029	54728.86
596.387	54763.88
596.746	54800.95
597.104	54738.57
597.463	54640.5
597.822	54788.29
598.18	54662.19
598.538	54668.97
598.897	54851.57
599.255	54625.58
599.613	55034.39
599.972	54871.9
600.33	54951.45
600.688	54806.14
601.046	54988.51
601.404	55003.2
601.762	55020.83
602.12	55059.47
602.478	55087.04
602.836	55188.28
603.194	55008.85
603.552	55044.56
603.91	55079.81
604.268	55065.35
604.625	55142.18
604.983	55236.19
605.341	55132.46
605.698	55232.35
606.056	55201.61
606.413	55259.92
606.771	55357.54
607.128	55444.32
607.485	55280.93
607.843	55355.73
608.2	55467.37
608.557	55600.7
608.914	55419.46
609.272	55575.61
609.629	55584.43
609.986	55763.41
610.343	55534.49
610.7	55789.39
611.057	55748.04
611.414	55783.75
611.771	55784.2
612.127	55877.3
612.484	55824.87
612.841	55981.71
613.198	55842.27
613.554	55874.36
613.911	56064.64
614.267	55943.74
614.624	56019.22
614.98	56058.09
615.337	56083.17
615.693	56051.76
616.05	56085.66
616.406	56180.8
616.762	56119.1
617.118	56042.5
617.475	56204.52
617.831	56207.24
618.187	56247.46
618.543	56263.05
618.899	56411.53
619.255	56300.12
619.611	56259.44
619.967	56366.78
620.323	56495.14
620.678	56377.18
621.034	56249.04
621.39	56297.4
621.746	56275.26
622.101	56620.56
622.457	56341.7
622.812	56403.62
623.168	56514.35
623.523	56395.71
623.879	56483.39
624.234	56312.09
624.589	56415.59
624.945	56441.13
625.3	56379.66
625.655	56414.69
626.01	56449.72
626.365	56451.98
626.72	56417.85
627.075	56372.88
627.43	56350.51
627.785	56326.1
628.14	56300.57
628.495	56386.89
628.85	56326.33
629.205	56193.45
629.559	56329.95
629.914	56210.85
630.269	56275.94
630.623	56268.25
630.978	56165.2
631.332	56258.53
631.687	56338.08
632.041	56146.9
632.396	56204.07
632.75	56138.76
633.104	56142.83
633.459	56061.25
633.813	55992.55
634.167	55967.24
634.521	56007.92
634.875	56085.21
635.229	55953.91
635.583	55843.86
635.937	55848.38
636.291	55836.85
636.645	55837.75
636.999	55736.29
637.352	55723.18
637.706	55640.7
638.06	55756.4
638.413	55689.51
638.767	55601.15
639.121	55610.42
639.474	55535.84
639.828	55420.59
640.181	55492.45
640.534	55533.36
640.888	55442.06
641.241	55281.61
641.594	55389.86
641.947	55462.17
642.301	55336.3
642.654	55312.8
643.007	55303.53
643.36	55180.37
643.713	55120.26
644.066	55237.32
644.419	55032.8
644.771	54899.25
645.124	54619.26
645.477	54569.77
645.83	54425.36
646.182	54307.4
646.535	54257.68
646.888	54182.88
647.24	54048.65
647.593	54230.57
647.945	54202.77
648.298	53930.91
648.65	53882.1
649.002	53823.8
649.355	53889.78
649.707	53881.65
650.059	54071.7
650.411	54442.99
650.763	54373.16
651.115	54661.06
651.467	54407.96
651.819	54485.47
652.171	54378.36
652.523	54385.82
652.875	54385.14
653.227	54226.05
653.578	54322.31
653.93	54299.94
654.282	54145.6
654.633	54043.9
654.985	54093.62
655.337	54181.08
655.688	54161.19
656.039	54257.23
656.391	53925.26
656.742	53917.35
657.094	54087.97
657.445	54108.76
657.796	54114.41
658.147	54062.21
658.498	53913.74
658.849	54028.31
659.2	53895.21
659.551	53846.39
659.902	53943.12
660.253	53910.8
660.604	53858.82
660.955	53753.06
661.306	53861.31
661.656	53762.78
662.007	53755.78
662.358	53805.49
662.708	53748.77
663.059	53648.89
663.409	53532.28
663.76	53753.06
664.11	53706.51
664.461	53711.71
664.811	53751.03
665.161	53684.37
665.511	53579.96
665.862	53592.62
666.212	53761.43
666.562	53705.83
666.912	53682.78
667.262	53649.11
667.612	53544.03
667.962	53680.98
668.312	53588.32
668.662	53731.14
669.011	53591.94
669.361	53545.84
669.711	53565.95
670.06	53455.9
670.41	53353.53
670.76	53428.33
671.109	53541.77
671.459	53414.32
671.808	53452.28
672.157	53452.05
672.507	53221.33
672.856	53274.43
673.205	53329.35
673.554	53397.14
673.904	53269.23
674.253	53345.62
674.602	53299.06
674.951	52882.35
675.3	52649.36
675.649	53241.44
675.998	53195.56
676.346	53129.35
676.695	53218.84
677.044	53050.26
677.393	53106.08
677.741	53248.67
678.09	53062.23
678.438	53024.27
678.787	53061.56
679.135	52997.6
679.484	52775.46
679.832	53019.3
680.181	52712.64
680.529	52794.22
680.877	52697.95
681.225	52661.57
681.573	52876.02
681.922	52622.25
682.27	52554.9
682.618	52500.67
682.966	52387.45
683.314	52424.96
683.661	52282.82
684.009	52233.1
684.357	52144.97
684.705	52208.47
685.053	52085.09
685.4	52156.72
685.748	51907.91
686.095	51925.77
686.443	51761.7
686.79	51679.9
687.138	51674.7
687.485	51642.16
687.832	51589.73
688.18	51724.42
688.527	51490.98
688.874	51406.01
689.221	51349.06
689.568	51214.6
689.915	51147.93
690.262	51240.36
690.609	51054.15
690.956	50883.76
691.303	50882.63
691.65	50744.1
691.997	50723.31
692.344	50473.38
692.69	50559.7
693.037	50471.79
693.383	50205.13
693.73	50363.55
694.077	50154.06
694.423	50119.94
694.769	50065.25
695.116	49922.43
695.462	49949.1
695.808	49815.54
696.155	49842.88
696.501	49559.05
696.847	49498.94
697.193	49291.49
697.539	49393.4
697.885	49095.79
698.231	48983.47
698.577	49121.55
698.923	49030.25
699.269	48723.59
699.614	48575.35
699.96	48523.6
700.306	48560.43
700.651	48474.33
700.997	48299.42
701.342	48205.19
701.688	48070.95
702.033	47904.86
702.379	47927.23
702.724	47800.45
703.069	47910.05
703.415	47449.27
703.76	47514.13
704.105	47484.3
704.45	47214.25
704.795	47077.08
705.14	47014.94
705.485	46936.97
705.83	46860.36
706.175	46910.08
706.52	46835.73
706.865	46631.44
707.209	46619.01
707.554	46428.51
707.899	46607.04
708.243	46380.83
708.588	46087.28
708.932	45975.19
709.277	46014.28
709.621	45938.13
709.966	45651.58
710.31	45816.32
710.654	45441.19
710.998	45564.58
711.342	45532.49
711.687	45297.69
712.031	45082.56
712.375	44931.15
712.719	45120.3
713.063	45033.52
713.407	45171.82
713.75	44846.63
714.094	44915.78
714.438	44619.52
714.782	44643.7
715.125	44687.54
715.469	44572.74
715.812	44382.91
716.156	44078.29
716.499	44206.65
716.843	44045.3
717.186	43935.47
717.53	44003.72
717.873	44174.11
718.216	44036.03
718.559	43838.07
718.902	43618.19
719.246	43651.41
719.589	43599.43
719.932	43477.85
720.275	43383.85
720.617	43290.29
720.96	43243.74
721.303	43129.39
721.646	43106.34
721.989	42893.24
722.331	42978.66
722.674	42926.68
723.016	43054.81
723.359	42868.38
723.701	42845.78
724.044	42508.61
724.386	42436.3
724.729	42550.19
725.071	42278.56
725.413	42343.19
725.755	42257.1
726.097	42071.34
726.439	41856.88
726.782	41904.79
727.124	42196.31
727.465	41827.73
727.807	41738.92
728.149	41727.62
728.491	41652.59
728.833	41769.2
729.175	41518.81
729.516	41516.32
729.858	41420.51
730.199	41509.54
730.541	41218.03
730.882	41266.61
731.224	41458.7
731.565	41086.5
731.906	41002.66
732.248	41172.15
732.589	40854.87
732.93	40934.87
733.271	40925.15
733.612	40973.97
733.953	40736.01
734.294	40733.07
734.635	40517.48
734.976	40584.37
735.317	40364.49
735.658	40375.79
735.999	40285.17
736.339	40348.22
736.68	40420.53
737.021	40125.17
737.361	40018.51
737.702	40209.69
738.042	39903.94
738.383	40073.2
738.723	40032.52
739.063	39713.21
739.404	39840.21
739.744	39686.54
740.084	39668.24
740.424	39695.13
740.764	39473.89
741.104	39642.02
741.444	39414.46
741.784	39221.02
742.124	39277.96
742.464	38990.74
742.804	39058.08
743.143	39029.61
743.483	38978.31
743.823	38764.53
744.162	38948.48
744.502	38895.15
744.841	38762.95
745.181	38899.44
745.52	38714.59
745.86	38800.24
746.199	38643.4
746.538	38508.72
746.877	38590.3
747.216	38477.76
747.556	38358.89
747.895	38225.34
748.234	38023.53
748.573	38068.96
748.911	38040.03
749.25	37907.38
749.589	37809.75
749.928	37855.4
750.267	37774.05
750.605	37641.17
750.944	37643.43
751.283	37452.7
751.621	37564.79
751.96	37271.24
752.298	37254.74
752.636	37167.51
752.975	37108.3
753.313	36882.77
753.651	37082.54
753.989	36838.93
754.327	36847.97
754.666	36616.11
755.004	36710.12
755.342	36832.6
755.679	36617.24
756.017	36396.46
756.355	36520.97
756.693	36360.08
757.031	36368.89
757.368	36123.02
757.706	36114.66
758.044	35948.79
758.381	35989.01
758.719	35755.8
759.056	35828.56
759.394	35689.58
759.731	35467.9
760.068	35349.48
760.405	35246.66
760.743	35075.14
761.08	35187.22
761.417	34854.58
761.754	34974.8
762.091	34889.38
762.428	34829.72
762.765	34478.99
763.102	34584.98
763.438	34286.46
763.775	34259.11
764.112	34110.19
764.449	34226.8
764.785	34098.21
765.122	33890.08
765.458	33771.89
765.795	33663.42
766.131	33636.53
766.467	33465.69
766.804	33328.52
767.14	33235.64
767.476	33149.31
767.812	32808.53
768.148	33048.98
768.485	32690.57
768.821	32534.41
769.157	32615.54
769.492	32518.37
769.828	32394.98
770.164	32186.63
770.5	32192.73
770.836	32103.92
771.171	31780.53
771.507	31753.87
771.842	31487.89
772.178	31668.22
772.513	31653.76
772.849	31599.75
773.184	31400.66
773.519	31324.73
773.855	31120.21
774.19	30862.37
774.525	30786.89
774.86	30730.84
775.195	30736.49
775.53	30536.95
775.865	30411.3
776.2	30261.48
776.535	30174.93
776.87	30043.86
777.205	29987.59
777.539	29790.76
777.874	29942.39
778.209	29506.47
778.543	29574.49
778.878	29296.76
779.212	29352.8
779.547	29167.72
779.881	29183.54
780.215	28944
780.55	28929.31
780.884	28834.85
781.218	28809.99
781.552	28695.19
781.886	28475.99
782.22	28356.44
782.554	28183.79
782.888	28049.33
783.222	27964.82
783.556	27925.95
783.889	27870.81
784.223	27595.56
784.557	27669.23
784.89	27628.1
785.224	27473.3
785.557	27368.9
785.891	27189.02
786.224	27141.56
786.558	27026.08
786.891	26893.66
787.224	26749.25
787.557	26714.9
787.891	26697.73
788.224	26647.11
788.557	26541.8
788.89	26488.7
789.223	26417.74
789.556	26260.23
789.888	26255.26
790.221	25980.23
790.554	25817.75
790.887	25906.79
791.219	25705.89
791.552	25661.6
791.884	25449.18
792.217	25442.85
792.549	25483.3
792.882	25242.85
793.214	25117.21
793.546	25194.72
793.879	25029.07
794.211	24811.23
794.543	24899.59
794.875	24763.77
795.207	24822.53
795.539	24580.05
795.871	24552.02
796.203	24414.85
796.535	24317.68
796.867	24288.98
797.198	24140.51
797.53	24244.24
797.862	24039.5
798.193	24009.67
798.525	23735.77
798.856	23985.03
799.188	23646.06
799.519	23580.75
799.85	23373.07
800.182	23592.28
800.513	23519.51
800.844	23344.15
801.175	23463.69
801.506	23363.81
801.837	23277.93
802.168	23096.69
802.499	23153.64
802.83	22881.56
803.161	22867.32
803.491	22813.31
803.822	22889.02
804.153	22552.98
804.483	22502.36
804.814	22451.51
805.145	22483.83
805.475	22461.01
805.805	22301.69
806.136	22362.93
806.466	22268.02
806.796	22187.79
807.126	22067.57
807.457	21931.98
807.787	21898.31
808.117	21803.62
808.447	21750.06
808.777	21872.09
809.107	21749.61
809.436	21671.2
809.766	21725.88
810.096	21545.55
810.426	21541.26
810.755	21399.56
811.085	21374.93
811.414	21378.55
811.744	21154.15
812.073	21141.04
812.403	20984.66
812.732	21045
813.061	20947.37
813.39	20909.86
813.719	20822.4
814.049	20989.18
814.378	20761.16
814.707	20606.14
815.036	20668.51
815.365	20558.46
815.693	20488.63
816.022	20387.61
816.351	20386.94
816.68	20322.76
817.008	20346.26
817.337	20127.06
817.665	20130.22
817.994	20191.46
818.322	20112.59
818.651	20118.24
818.979	19875.99
819.307	20103.1
819.636	19901.98
819.964	19791.7
820.292	19831.92
820.62	19894.29
820.948	19770
821.276	19836.44
821.604	19730.91
821.932	19737.01
822.259	19769.1
822.587	19715.77
822.915	19721.42
823.243	19725.71
823.57	19649.33
823.898	19631.02
824.225	19622.21
824.553	19537.47
824.88	19710.57
825.207	19716.22
825.535	19633.74
825.862	19675.09
826.189	19683.9
826.516	19691.59
826.843	19801.64
827.17	19823.79
827.497	19582.21
827.824	19718.7
828.151	19679.84
828.478	19681.19
828.805	19685.94
829.131	19588.99
829.458	19630.57
829.785	19459.5
830.111	19607.3
830.438	19712.38
830.764	19596.22
831.09	19539.73
831.417	19461.99
831.743	19558.48
832.069	19508.09
832.395	19462.89
832.722	19483.68
833.048	19486.17
833.374	19508.31
833.7	19374.31
834.026	19450.69
834.351	19387.19
834.677	19407.75
835.003	19357.36
835.329	19366.4
835.654	19333.63
835.98	19136.35
836.306	19229.68
836.631	19169.11
836.956	19251.37
837.282	19199.17
837.607	19109
837.932	19123.24
838.258	19042.34
838.583	19047.08
838.908	18849.35
839.233	18937.71
839.558	18897.03
839.883	18910.36
840.208	18842.57
840.533	18794.66
840.858	18851.38
841.182	18820.42
841.507	18793.98
841.832	18659.75
842.156	18681.67
842.481	18550.37
842.805	18525.06
843.13	18424.73
843.454	18468.34
843.778	18389.93
844.103	18347.67
844.427	18263.6
844.751	18292.75
845.075	18241
845.399	18189.71
845.723	18092.08
846.047	18122.81
846.371	18038.07
846.695	17952.42
847.019	17825.87
847.343	17712.66
847.666	17539.55
847.99	17554.02
848.313	17529.38
848.637	17352.44
848.96	17408.26
849.284	17483.28
849.607	17213.01
849.931	17268.15
850.254	17145.89
850.577	17047.36
850.9	16862.73
851.223	16851.21
851.546	16875.39
851.869	16740.7
852.192	16745.22
852.515	16650.54
852.838	16540.48
853.161	16516.3
853.483	16444.44
853.806	16311.79
854.129	16389.53
854.451	16265.24
854.774	16218.46
855.096	16199.02
855.419	16150.21
855.741	16096.65
856.063	16001.97
856.385	15915.87
856.708	15880.39
857.03	15824.57
857.352	15904.79
857.674	15794.51
857.996	15715.65
858.318	15644.24
858.64	15575.76
858.961	15479.27
859.283	15453.28
859.605	15433.85
859.926	15512.26
860.248	15408.08
860.57	15295.77
860.891	15316.56
861.212	15278.82
861.534	15198.82
861.855	15126.51
862.176	15189.33
862.498	15099.39
862.819	15157.69
863.14	15022.33
863.461	15027.53
863.782	14992.28
864.103	15027.08
864.424	14954.31
864.745	14936.91
865.065	14873.18
865.386	14832.28
865.707	14862.79
866.027	14891.26
866.348	14791.6
866.668	14730.81
866.989	14758.84
867.309	14685.16
867.63	14708.89
867.95	14599.74
868.27	14531.5
868.59	14605.39
868.91	14599.97
869.23	14573.98
869.55	14462.35
869.87	14611.49
870.19	14496.47
870.51	14519.29
870.83	14459.63
871.15	14368.56
871.469	14317.72
871.789	14363.59
872.109	14333.31
872.428	14243.14
872.748	14286.98
873.067	14273.42
873.386	14261.67
873.706	14214.67
874.025	14100.77
874.344	14054.45
874.663	14150.72
874.982	14088.57
875.301	14073.2
875.62	13940.33
875.939	13976.26
876.258	14000.44
876.577	13950.04
876.896	13949.59
877.214	13878.63
877.533	13909.59
877.852	13911.85
878.17	13874.79
878.489	13833.66
878.807	13828.01
879.125	13754.12
879.444	13764.06
879.762	13675.25
880.08	13742.59
880.398	13690.84
880.716	13746.43
881.034	13701.69
881.352	13654.01
881.67	13632.31
881.988	13608.13
882.306	13508.92
882.624	13512.54
882.941	13436.16
883.259	13393
883.577	13313.22
883.894	13359.55
884.212	13291.08
884.529	13263.51
884.846	13259.44
885.164	13190.74
885.481	13215.82
885.798	13116.17
886.115	13019.22
886.432	13087.47
886.75	13054.47
887.067	13028.94
887.383	13002.05
887.7	13014.47
888.017	12954.36
888.334	12879.34
888.651	12867.13
888.967	12844.76
889.284	12875.95
889.6	12746.23
889.917	12731.09
890.233	12706.69
890.55	12661.26
890.866	12624.88
891.182	12656.07
891.498	12567.71
891.815	12513.7
892.131	12443.87
892.447	12388.95
892.763	12386.92
893.079	12382.63
893.395	12319.13
893.71	12275.51
894.026	12214.95
894.342	12184.44
894.657	12115.06
894.973	12097.21
895.289	12086.14
895.604	12104.44
895.92	11997.55
896.235	11912.58
896.55	11939.7
896.865	11922.07
897.181	11820.38
897.496	11853.6
897.811	11815.18
898.126	11744.23
898.441	11694.51
898.756	11666.49
899.071	11576.32
899.386	11631.46
899.7	11470.56
900.015	11465.14
900.33	11389.21
900.644	11385.14
900.959	11384.91
901.273	11321.64
901.588	11326.16
901.902	11212.94
902.216	11217.91
902.531	11108.08
902.845	11102.21
903.159	11068.54
903.473	11063.34
903.787	10946.96
904.101	10855.21
904.415	10850.01
904.729	10883
905.042	10805.27
905.356	10833.97
905.67	10759.84
905.984	10710.35
906.297	10717.13
906.611	10600.98
906.924	10563.69
907.237	10603.46
907.551	10543.35
907.864	10505.61
908.177	10420.19
908.491	10388.55
908.804	10368.22
909.117	10309.01
909.43	10263.81
909.743	10198.5
910.056	10169.35
910.368	10065.63
910.681	10051.84
910.994	10047.55
911.307	9977.04
911.619	9832.18
911.932	9891.39
912.244	9824.95
912.557	9866.99
912.869	9744.73
913.181	9788.8
913.494	9737.27
913.806	9638.29
914.118	9658.18
914.43	9520.78
914.742	9612.08
915.054	9513.1
915.366	9522.14
915.678	9469.48
915.99	9374.12
916.302	9317.17
916.613	9269.94
916.925	9338.41
917.236	9243.73
917.548	9181.35
917.859	9194.01
918.171	9116.5
918.482	9095.26
918.794	9061.58
919.105	9013.68
919.416	8899.1
919.727	8920.12
920.038	8865.2
920.349	8816.84
920.66	8789.5
920.971	8818.65
921.282	8754.93
921.593	8683.06
921.903	8584.99
922.214	8613.91
922.525	8542.28
922.835	8550.86
923.146	8513.35
923.456	8480.81
923.767	8462.5
924.077	8438.32
924.387	8353.58
924.697	8242.17
925.008	8286.01
925.318	8203.75
925.628	8195.39
925.938	8187.03
926.248	8139.8
926.558	8105.45
926.867	8047.83
927.177	8030.88
927.487	7998.33
927.796	7872.69
928.106	7881.28
928.416	7885.57
928.725	7899.81
929.034	7843.76
929.344	7836.76
929.653	7784.78
929.962	7721.51
930.271	7719.92
930.581	7687.16
930.89	7611
931.199	7501.4
931.508	7552.02
931.817	7516.09
932.125	7500.49
932.434	7424.11
932.743	7385.92
933.051	7380.27
933.36	7389.09
933.669	7245.36
933.977	7291.91
934.286	7288.3
934.594	7228.86
934.902	7145.48
935.21	7101.41
935.519	7128.3
935.827	7096.21
936.135	6990.9
936.443	7009.21
936.751	6955.42
937.059	6936.44
937.367	6894.64
937.674	6913.39
937.982	6821.64
938.29	6844.92
938.597	6783.45
938.905	6730.12
939.213	6744.58
939.52	6751.36
939.827	6740.06
940.135	6738.03
940.442	6686.28
940.749	6662.55
941.056	6627.07
941.363	6501.65
941.67	6505.49
941.977	6497.13
942.284	6503.01
942.591	6466.62
942.898	6413.52
943.205	6395.89
943.511	6351.15
943.818	6362.45
944.125	6246.29
944.431	6255.1
944.738	6239.74
945.044	6184.6
945.35	6220.98
945.657	6188.44
945.963	6142.11
946.269	6133.53
946.575	6161.1
946.881	6041.1
947.187	6064.37
947.493	6070.93
947.799	5963.81
948.105	5920.42
948.41	5887.43
948.716	5882.91
949.022	5842.01
949.327	5875.9
949.633	5771.5
949.938	5800.43
950.244	5767.21
950.549	5682.01
950.854	5707.32
951.16	5688.11
951.465	5642.46
951.77	5627.1
952.075	5614.89
952.38	5574.67
952.685	5558.17
952.99	5506.87
953.294	5554.78
953.599	5449.93
953.904	5462.81
954.209	5386.2
954.513	5405.41
954.818	5344.17
955.122	5357.95
955.426	5358.4
955.731	5278.63
956.035	5293.55
956.339	5285.41
956.643	5252.64
956.948	5197.73
957.252	5217.84
957.556	5207.9
957.86	5149.6
958.163	5094.68
958.467	5123.61
958.771	5119.31
959.075	5056.04
959.378	4978.98
959.682	5062.82
959.985	4997.28
960.289	4945.08
960.592	4944.63
960.896	4878.42
961.199	4836.61
961.502	4880.45
961.805	4884.07
962.108	4769.95
962.411	4833.67
962.714	4812.66
963.017	4758.87
963.32	4783.73
963.623	4736.05
963.926	4733.56
964.228	4657.86
964.531	4636.39
964.833	4738.53
965.136	4640.46
965.438	4621.25
965.741	4626.45
966.043	4555.26
966.345	4575.15
966.648	4537.18
966.95	4535.83
967.252	4484.98
967.554	4467.13
967.856	4491.08
968.158	4437.75
968.46	4423.51
968.761	4395.49
969.063	4346.68
969.365	4384.42
969.666	4350.75
969.968	4299.68
970.269	4296.51
970.571	4252.44
970.872	4308.26
971.174	4267.13
971.475	4263.74
971.776	4191.2
972.077	4194.82
972.378	4205.44
972.679	4163.18
972.98	4075.27
973.281	4096.74
973.582	4118.66
973.883	4061.49
974.183	4027.82
974.484	4026.01
974.785	4062.85
975.085	3953.02
975.386	3982.85
975.686	3970.19
975.986	3919.57
976.287	3912.57
976.587	3915.73
976.887	3845.9
977.187	3858.56
977.487	3888.16
977.787	3841.61
978.087	3799.58
978.387	3759.8
978.687	3800.48
978.987	3770.2
979.286	3762.97
979.586	3718.9
979.885	3724.32
980.185	3663.76
980.484	3688.17
980.784	3687.71
981.083	3654.49
981.382	3629.64
981.682	3652.46
981.981	3608.62
982.28	3588.51
982.579	3559.13
982.878	3548.96
983.177	3519.13
983.475	3499.02
983.774	3528.62
984.073	3476.42
984.372	3500.15
984.67	3473.48
984.969	3413.6
985.267	3428.51
985.566	3413.14
985.864	3391
986.162	3401.17
986.461	3368.17
986.759	3337.89
987.057	3332.69
987.355	3311.9
987.653	3281.4
987.951	3273.26
988.249	3231.91
988.547	3254.73
988.844	3203.88
989.142	3221.74
989.44	3205.24
989.737	3159.82
990.035	3177.67
990.332	3186.71
990.63	3157.56
990.927	3186.94
991.224	3113.94
991.521	3089.09
991.819	3069.42
992.116	3071.68
992.413	3053.83
992.71	3035.08
993.006	2992.14
993.303	3026.04
993.6	2991.23
993.897	2991.23
994.193	2970.22
994.49	2979.94
994.787	2919.6
995.083	2929.99
995.379	2920.73
995.676	2912.59
995.972	2859.71
996.268	2821.75
996.565	2835.31
996.861	2808.87
997.157	2837.34
997.453	2769.32
997.749	2780.39
998.044	2772.48
998.34	2753.73
998.636	2704.24
998.932	2719.38
999.227	2711.24
999.523	2683.22
999.818	2673.96
1000.114	2652.49
1000.409	2654.29
1000.704	2640.06
1001	2591.92
1001.295	2596.22
1001.59	2615.43
1001.885	2577.01
1002.18	2569.55
1002.475	2577.69
1002.77	2529.1
1003.065	2528.2
1003.359	2531.13
1003.654	2500.85
1003.949	2473.51
1004.243	2469.89
1004.538	2465.15
1004.832	2458.37
1005.127	2423.57
1005.421	2393.74
1005.715	2368.2
1006.009	2381.08
1006.304	2375.21
1006.598	2363.23
1006.892	2395.32
1007.186	2358.26
1007.48	2337.47
1007.773	2292.95
1008.067	2273.06
1008.361	2278.71
1008.655	2271.93
1008.948	2259.05
1009.242	2295.89
1009.535	2257.24
1009.829	2223.12
1010.122	2173.63
1010.415	2211.37
1010.708	2144.7
1011.001	2177.92
1011.295	2163.23
1011.588	2149.22
1011.881	2131.37
1012.173	2102.67
1012.466	2101.99
1012.759	2094.76
1013.052	2057.7
1013.344	2007.76
1013.637	2042.56
1013.93	2011.6
1014.222	2005.95
1014.514	2011.37
1014.807	1993.97
1015.099	1999.62
1015.391	1970.47
1015.683	1943.35
1015.976	1972.96
1016.268	1935.44
1016.56	1943.13
1016.851	1900.64
1017.143	1929.57
1017.435	1896.57
1017.727	1878.5
1018.018	1844.37
1018.31	1833.53
1018.602	1833.53
1018.893	1831.04
1019.185	1839.85
1019.476	1800.76
1019.767	1790.36
1020.058	1774.54
1020.35	1776.58
1020.641	1775.22
1020.932	1751.72
1021.223	1713.3
1021.514	1710.59
1021.804	1743.81
1022.095	1712.4
1022.386	1704.72
1022.677	1681.89
1022.967	1646.19
1023.258	1617.49
1023.548	1660.87
1023.839	1615.23
1024.129	1617.03
1024.419	1590.59
1024.709	1567.09
1025	1586.07
1025.29	1599.63
1025.58	1532.97
1025.87	1534.55
1026.16	1548.79
1026.449	1562.12
1026.739	1516.92
1027.029	1513.76
1027.319	1481.67
1027.608	1466.98
1027.898	1453.42
1028.187	1468.56
1028.477	1456.13
1028.766	1452.97
1029.055	1410.49
1029.344	1453.65
1029.634	1399.19
1029.923	1410.26
1030.212	1374.55
1030.501	1383.82
1030.79	1385.85
1031.078	1356.48
1031.367	1335.69
1031.656	1334.56
1031.945	1335.23
1032.233	1345.85
1032.522	1327.55
1032.81	1310.83
1033.099	1301.56
1033.387	1306.76
1033.675	1297.49
1033.963	1281.9
1034.251	1262.01
1034.54	1224.73
1034.828	1273.54
1035.116	1231.96
1035.403	1211.85
1035.691	1222.69
1035.979	1211.17
1036.267	1215.91
1036.554	1201.68
1036.842	1157.84
1037.129	1193.09
1037.417	1182.69
1037.704	1141.34
1037.992	1168.01
1038.279	1150.61
1038.566	1170.27
1038.853	1170.27
1039.14	1170.27
