Data from plate_porcelain_FLMS001491_073.txt Node
Date: Tue Feb 07 11:19:51 GMT 2017
User: dcchb
Spectrometer: FLMS00149
Trigger mode: 0
Integration Time (sec): 2.000000E-2
Scans to average: 10
Electric dark correction enabled: true
Nonlinearity correction enabled: false
Boxcar width: 0
XAxis mode: Wavelengths
Number of Pixels in Spectrum: 2048
>>>>>Begin Spectral Data<<<<<
341.393	-24.69
341.776	-24.69
342.16	-24.69
342.543	-70.34
342.927	-56.33
343.31	-57.46
343.693	-60.62
344.077	-74.63
344.46	-53.39
344.843	-41.19
345.226	-44.8
345.61	-45.48
345.993	-3.67
346.376	14.86
346.759	3.79
347.142	-2.32
347.525	22.54
347.908	48.08
348.291	67.29
348.674	101.41
349.057	125.59
349.44	115.65
349.823	154.06
350.206	169.2
350.588	215.31
350.971	240.62
351.354	249.2
351.737	279.48
352.119	297.79
352.502	290.11
352.884	342.76
353.267	326.04
353.65	352.25
354.032	332.59
354.414	364.45
354.797	348.18
355.179	373.49
355.562	375.75
355.944	381.63
356.326	382.98
356.709	381.18
357.091	381.85
357.473	398.13
357.855	403.32
358.238	394.51
358.62	394.96
359.002	408.07
359.384	399.03
359.766	419.59
360.148	403.77
360.53	430.67
360.912	389.54
361.294	391.57
361.676	392.25
362.057	404
362.439	401.29
362.821	398.8
363.203	391.57
363.584	404.45
363.966	399.71
364.348	393.83
364.729	395.19
365.111	381.18
365.493	421.18
365.874	390.89
366.256	406.49
366.637	402.87
367.019	409.65
367.4	418.92
367.781	422.31
368.163	397.67
368.544	412.14
368.925	398.8
369.306	421.63
369.688	407.84
370.069	411.01
370.45	419.59
370.831	425.7
371.212	427.05
371.593	431.12
371.974	452.14
372.355	447.16
372.736	430.89
373.117	436.09
373.498	457.11
373.879	430.21
374.26	418.92
374.641	438.12
375.021	432.93
375.402	425.7
375.783	495.3
376.163	494.62
376.544	510.66
376.925	490.55
377.305	480.16
377.686	476.99
378.066	511.12
378.447	484.22
378.827	483.09
379.208	517.44
379.588	506.6
379.968	493.04
380.349	527.84
380.729	524.68
381.109	530.55
381.489	539.14
381.87	531.68
382.25	550.44
382.63	551.12
383.01	578.69
383.39	567.39
383.77	570.1
384.15	545.01
384.53	566.26
384.91	577.78
385.29	595.18
385.67	593.15
386.049	613.26
386.429	622.75
386.809	620.27
387.189	621.85
387.568	621.17
387.948	651.68
388.328	669.53
388.707	661.4
389.087	636.99
389.466	676.76
389.846	676.31
390.225	699.13
390.605	686.25
390.984	667.95
391.363	711.11
391.743	699.13
392.122	716.99
392.501	723.09
392.881	741.62
393.26	763.09
393.639	753.14
394.018	766.48
394.397	785.46
394.776	804.67
395.155	797.89
395.534	802.41
395.913	785.46
396.292	823.88
396.671	847.38
397.05	824.1
397.429	847.38
397.808	838.11
398.186	859.81
398.565	884.44
398.944	886.93
399.323	884.44
399.701	880.82
400.08	910.2
400.458	890.77
400.837	929.18
401.215	939.81
401.594	949.75
401.972	945.46
402.351	983.19
402.729	971.22
403.107	994.49
403.486	975.74
403.864	1029.97
404.242	1025.45
404.62	1039.92
404.999	1047.6
405.377	1039.92
405.755	1065.9
406.133	1109.07
406.511	1089.86
406.889	1101.61
407.267	1164.43
407.645	1177.31
408.023	1178.9
408.401	1170.99
408.779	1201.49
409.156	1234.04
409.534	1234.71
409.912	1263.19
410.29	1292.79
410.667	1275.62
411.045	1299.8
411.422	1307.93
411.8	1344.54
412.178	1376.4
412.555	1382.51
412.933	1418.89
413.31	1420.25
413.687	1447.82
414.065	1472.45
414.442	1467.7
414.819	1519
415.197	1503.86
415.574	1537.53
415.951	1568.72
416.328	1573.46
416.705	1566
417.082	1618.43
417.46	1592.9
417.837	1613.23
418.214	1661.82
418.591	1673.8
418.967	1688.49
419.344	1728.03
419.721	1755.83
420.098	1735.94
420.475	1782.95
420.852	1775.49
421.228	1837.64
421.605	1848.71
421.982	1855.26
422.358	1898.65
422.735	1932.77
423.111	1907.24
423.488	1965.99
423.864	1937.52
424.241	1952.21
424.617	1998.76
424.994	2016.39
425.37	2024.07
425.746	2071.98
426.123	2067.23
426.499	2108.59
426.875	2144.75
427.251	2202.37
427.627	2233.11
428.003	2276.49
428.379	2292.99
428.756	2309.94
429.132	2338.41
429.507	2387.45
429.883	2388.58
430.259	2454.12
430.635	2462.48
431.011	2484.62
431.387	2536.6
431.763	2594
432.138	2609.59
432.514	2640.78
432.89	2655.24
433.265	2751.06
433.641	2726.43
434.016	2793.32
434.392	2840.09
434.767	2913.54
435.143	2888.23
435.518	2940.21
435.894	2939.98
436.269	3013.2
436.644	3038.06
437.02	3056.81
437.395	3131.84
437.77	3172.52
438.145	3168.9
438.52	3208.22
438.895	3311.27
439.271	3262.23
439.646	3402.79
440.021	3415.22
440.395	3423.13
440.77	3374.32
441.145	3442.11
441.52	3549.45
441.895	3500.87
442.27	3540.19
442.645	3561.66
443.019	3640.3
443.394	3608.66
443.769	3665.84
444.143	3651.37
444.518	3718.72
444.892	3743.12
445.267	3732.73
445.641	3781.54
446.016	3856.57
446.39	3854.53
446.764	3876.23
447.139	3876.23
447.513	3992.61
447.887	3945.6
448.262	4006.84
448.636	4015.88
449.01	4083.23
449.384	4116.45
449.758	4138.59
450.132	4221.08
450.506	4233.73
450.88	4278.48
451.254	4235.76
451.628	4339.72
452.002	4391.24
452.376	4437.79
452.75	4479.83
453.123	4503.55
453.497	4576.32
453.871	4664.91
454.244	4716.88
454.618	4718.92
454.992	4818.35
455.365	4801.17
455.739	4988.29
456.112	4981.51
456.486	5057.21
456.859	5138.79
457.232	5245.46
457.606	5253.59
457.979	5328.16
458.352	5431.89
458.725	5447.48
459.099	5475.96
459.472	5632.79
459.845	5669.4
460.218	5728.61
460.591	5832.78
460.964	5785.78
461.337	5974.93
461.71	6101.03
462.083	6141.25
462.456	6185.32
462.829	6167.46
463.201	6325.65
463.574	6351.41
463.947	6477.29
464.32	6580.79
464.692	6641.12
465.065	6721.35
465.438	6771.97
465.81	6915.92
466.183	6997.5
466.555	7141.9
466.928	7240.21
467.3	7185.07
467.672	7399.52
468.045	7512.29
468.417	7507.77
468.789	7696.01
469.161	7721.32
469.534	7907.31
469.906	8034.08
470.278	8105.49
470.65	8253.29
471.022	8371.47
471.394	8522.88
471.766	8608.53
472.138	8747.74
472.51	8864.34
472.882	8983.44
473.253	9191.79
473.625	9281.28
473.997	9490.09
474.369	9590.43
474.74	9608.73
475.112	9867.25
475.484	10064.99
475.855	10218.21
476.227	10328.49
476.598	10621.81
476.97	10646.67
477.341	10963.27
477.713	11107.22
478.084	11158.75
478.455	11458.85
478.827	11588.34
479.198	11950.82
479.569	11983.36
479.94	12329.79
480.311	12487.75
480.682	12731.36
481.053	13013.84
481.424	13187.39
481.795	13335.19
482.166	13562.3
482.537	13781.5
482.908	13964.77
483.279	14220.13
483.65	14442.73
484.021	14795.49
484.391	14880.91
484.762	15064.63
485.133	15210.62
485.503	15552.53
485.874	15825.29
486.244	15955.46
486.615	16280.19
486.985	16401.77
487.356	16743.91
487.726	16917.01
488.097	17243.78
488.467	17370.11
488.837	17685.58
489.207	17892.81
489.578	18238.33
489.948	18372.57
490.318	18718.55
490.688	18708.15
491.058	19017.97
491.428	19316.5
491.798	19432.88
492.168	19875.35
492.538	19865.41
492.908	20213.42
493.278	20475.34
493.648	20493.19
494.017	20809.11
494.387	21043.68
494.757	21201.42
495.126	21407.29
495.496	21452.94
495.866	21731.58
496.235	21996.88
496.605	22135.41
496.974	22278.23
497.344	22532.91
497.713	22662.62
498.082	22820.81
498.452	23067.13
498.821	23109.39
499.19	23312.55
499.559	23610.4
499.928	23745.31
500.298	23864.4
500.667	24176.48
501.036	24161.34
501.405	24482.01
501.774	24543.7
502.143	24664.38
502.512	24848.1
502.88	24992.96
503.249	25131.94
503.618	25358.37
503.987	25441.31
504.356	25631.36
504.724	25864.35
505.093	26015.08
505.462	26162.65
505.83	26170.1
506.199	26653.25
506.567	26825.68
506.936	26819.13
507.304	27236.97
507.672	27166.46
508.041	27499.11
508.409	27710.18
508.777	27859.1
509.145	28183.16
509.514	28137.96
509.882	28424.05
510.25	28527.33
510.618	28722.13
510.986	28850.03
511.354	29207.76
511.722	29507.19
512.09	29670.8
512.458	29692.5
512.826	30013.62
513.193	30095.42
513.561	30321.41
513.929	30529.31
514.297	30897.44
514.664	31027.15
515.032	31256.75
515.4	31626.23
515.767	31691.09
516.135	31915.04
516.502	31706.91
516.869	32268.02
517.237	32475.47
517.604	32456.94
517.972	32957.5
518.339	33058.96
518.706	33153.87
519.073	33399.74
519.44	33786.17
519.808	34106.39
520.175	34081.99
520.542	34536.89
520.909	34883.55
521.276	34792.7
521.643	35132.13
522.009	35373.25
522.376	35764.88
522.743	35974.59
523.11	36279.22
523.477	36698.64
523.843	36812.31
524.21	37156.93
524.577	37456.59
524.943	37659.07
525.31	37817.93
525.676	38270.58
526.043	38445.03
526.409	38618.82
526.776	39107.39
527.142	39254.96
527.508	39336.99
527.874	39816.75
528.241	40012
528.607	40089.06
528.973	40416.06
529.339	40543.06
529.705	41081.12
530.071	41272.53
530.437	41509.59
530.803	41667.77
531.169	42066.63
531.535	42039.29
531.901	42113.64
532.267	42389.56
532.632	42624.13
532.998	42864.81
533.364	43084.91
533.73	43168.75
534.095	43600.83
534.461	43676.31
534.826	43869.98
535.192	43928.96
535.557	44415.72
535.923	44451.2
536.288	44468.6
536.653	44762.83
537.019	44634.02
537.384	44883.51
537.749	45078.76
538.114	45237.4
538.479	45333.44
538.845	45585.86
539.21	45601.23
539.575	45847.1
539.94	45948.11
540.305	46189.46
540.67	46163.93
541.034	46368.67
541.399	46458.83
541.764	46649.34
542.129	46781.99
542.494	46897.69
542.858	47193.73
543.223	47273.5
543.587	47422.65
543.952	47520.73
544.316	47415.87
544.681	47673.04
545.045	47811.12
545.41	47977.21
545.774	48067.61
546.138	48181.95
546.503	48282.97
546.867	48360.93
547.231	48692.22
547.595	48741.71
547.959	48783.29
548.324	48862.39
548.688	49051.99
549.052	49154.36
549.416	49212.43
549.779	49452.43
550.143	49448.59
550.507	49787.33
550.871	49968.35
551.235	49973.77
551.599	50284.27
551.962	50281.11
552.326	50289.47
552.689	50609.46
553.053	50426.19
553.417	50618.95
553.78	51044.7
554.143	50843.35
554.507	51130.35
554.87	51222.78
555.234	51543.67
555.597	51497.12
555.96	51692.14
556.323	51752.26
556.686	51863.89
557.05	52114.96
557.413	52229.98
557.776	52199.02
558.139	52481.95
558.502	52515.85
558.865	52613.7
559.228	52871.1
559.59	52930.08
559.953	53033.8
560.316	53288.49
560.679	53289.39
561.041	53488.03
561.404	53634.01
561.767	53874.46
562.129	53807.12
562.492	54073.1
562.854	54072.87
563.217	54202.36
563.579	54323.49
563.941	54564.38
564.304	54615.46
564.666	54776.36
565.028	54797.15
565.39	54960.08
565.753	55118.04
566.115	55215.44
566.477	55306.96
566.839	55383.35
567.201	55516
567.563	55629.22
567.925	55741.75
568.287	55773.84
568.648	55899.72
569.01	56019.04
569.372	56178.81
569.734	56098.81
570.095	56369.76
570.457	56468.52
570.819	56505.8
571.18	56505.12
571.542	56677.55
571.903	56726.14
572.265	56823.08
572.626	56871.89
572.987	56932.91
573.349	57036.18
573.71	57149.85
574.071	57157.76
574.432	57217.42
574.794	57423.29
575.155	57345.1
575.516	57366.8
575.877	57468.94
576.238	57592.1
576.599	57630.97
576.96	57621.93
577.32	57643.85
577.681	57780.57
578.042	57833.23
578.403	57888.82
578.763	57897.18
579.124	57973.11
579.485	57993.45
579.845	58054.91
580.206	58040.45
580.566	57966.55
580.927	58051.75
581.287	58161.58
581.648	58047.46
582.008	58225.31
582.368	58176.27
582.728	58249.03
583.089	58202.71
583.449	58235.7
583.809	58256.26
584.169	58340.56
584.529	58287.22
584.889	58373.1
585.249	58287.22
585.609	58204.29
585.969	58352.76
586.329	58301.01
586.688	58335.81
587.048	58330.16
587.408	58335.13
587.768	58331.74
588.127	58308.24
588.487	58316.6
588.846	58426.2
589.206	58343.04
589.565	58356.6
589.925	58456.94
590.284	58369.93
590.643	58409.48
591.003	58482.25
591.362	58512.3
591.721	58450.61
592.08	58412.19
592.44	58492.64
592.799	58550.72
593.158	58472.76
593.517	58501.46
593.876	58548.69
594.235	58424.62
594.593	58539.2
594.952	58574.45
595.311	58521.79
595.67	58591.62
596.029	58753.65
596.387	58665.75
596.746	58741.68
597.104	58531.06
597.463	58626.2
597.822	58802.69
598.18	58628.91
598.538	58684.73
598.897	58808.11
599.255	58634.11
599.613	58993.87
599.972	58757.04
600.33	58802.47
600.688	58776.25
601.046	58893.54
601.404	58955.68
601.762	58840.88
602.12	59005.4
602.478	59021.67
602.836	59054.89
603.194	58926.53
603.552	58968.56
603.91	58879.3
604.268	59047.88
604.625	58988.45
604.983	59146.41
605.341	59039.75
605.698	59122.68
606.056	59203.81
606.413	59218.27
606.771	59240.19
607.128	59289.23
607.485	59184.6
607.843	59244.71
608.2	59313.64
608.557	59396.35
608.914	59297.14
609.272	59418.27
609.629	59439.96
609.986	59554.08
610.343	59390.25
610.7	59621.43
611.057	59550.02
611.414	59510.24
611.771	59579.39
612.127	59644.48
612.484	59621.2
612.841	59729.67
613.198	59622.1
613.554	59680.86
613.911	59849.44
614.267	59787.52
614.624	59773.06
614.98	59813.74
615.337	59914.3
615.693	59984.58
616.05	59916.33
616.406	60002.43
616.762	59828.65
617.118	59909.33
617.475	59945.49
617.831	59951.81
618.187	59992.26
618.543	59988.87
618.899	60189.77
619.255	60103.67
619.611	60054.18
619.967	60117.91
620.323	60222.09
620.678	60082.88
621.034	60063.9
621.39	60059.16
621.746	60063.22
622.101	60335.31
622.457	60089.44
622.812	60159.04
623.168	60194.52
623.523	60205.59
623.879	60282.43
624.234	60126.05
624.589	60228.64
624.945	60186.38
625.3	60203.33
625.655	60153.39
626.01	60214.41
626.365	60242.65
626.72	60216.67
627.075	60165.14
627.43	60133.5
627.785	60129.21
628.14	60105.26
628.495	60194.52
628.85	60120.85
629.205	59995.2
629.559	60207.17
629.914	60022.77
630.269	60110.23
630.623	59977.35
630.978	59928.76
631.332	60043.79
631.687	60034.3
632.041	59937.8
632.396	59933.96
632.75	59846.96
633.104	59923.11
633.459	59776
633.813	59792.04
634.167	59758.6
634.521	59766.28
634.875	59770.8
635.229	59738.03
635.583	59636.34
635.937	59636.34
636.291	59550.69
636.645	59546.4
636.999	59570.35
637.352	59624.82
637.706	59455.33
638.06	59558.15
638.413	59554.54
638.767	59427.76
639.121	59483.35
639.474	59270.93
639.828	59238.39
640.181	59361.77
640.534	59340.76
640.888	59207.43
641.241	59089.46
641.594	59186.18
641.947	59270.02
642.301	59160.42
642.654	59116.81
643.007	59155
643.36	59067.77
643.713	59051.5
644.066	59181.66
644.419	58976.25
644.771	58799.53
645.124	58547.33
645.477	58505.98
645.83	58370.16
646.182	58225.76
646.535	58191.18
646.888	58198.19
647.24	58054.46
647.593	58206.1
647.945	58117.51
648.298	58001.58
648.65	57955.03
649.002	57869.16
649.355	58014.46
649.707	57916.16
650.059	58051.52
650.411	58357.73
650.763	58317.51
651.115	58530.61
651.467	58426.88
651.819	58417.62
652.171	58356.83
652.523	58327.45
652.875	58293.55
653.227	58161.58
653.578	58348.01
653.93	58215.81
654.282	58142.14
654.633	58095.14
654.985	58104.4
655.337	58197.51
655.688	58114.57
656.039	58180.79
656.391	57927.01
656.742	58035.03
657.094	58087.91
657.445	58210.62
657.796	58122.71
658.147	58016.5
658.498	57971.07
658.849	58019.89
659.2	57964.75
659.551	57932.43
659.902	58025.08
660.253	57957.97
660.604	57897.18
660.955	57836.84
661.306	57949.61
661.656	57830.51
662.007	57866.67
662.358	57849.27
662.708	57757.97
663.059	57740.8
663.409	57632.1
663.76	57750.52
664.11	57757.52
664.461	57748.71
664.811	57762.94
665.161	57720.01
665.511	57672.78
665.862	57710.29
666.212	57855.37
666.562	57876.84
666.912	57719.1
667.262	57781.93
667.612	57681.14
667.962	57710.74
668.312	57706.22
668.662	57737.63
669.011	57674.81
669.361	57636.39
669.711	57613.12
670.06	57558.88
670.41	57452.44
670.76	57532.89
671.109	57578.54
671.459	57546
671.808	57450.41
672.157	57522.72
672.507	57382.39
672.856	57394.82
673.205	57487.47
673.554	57461.94
673.904	57340.81
674.253	57500.8
674.602	57347.59
674.951	57113.02
675.3	56963.19
675.649	57287.48
675.998	57271.21
676.346	57237.99
676.695	57353.92
677.044	57156.86
677.393	57266.69
677.741	57289.28
678.09	57276.86
678.438	57188.95
678.787	57167.71
679.135	57218.1
679.484	57045.22
679.832	57112.57
680.181	56898.11
680.529	56990.76
680.877	56925.68
681.225	56951.89
681.573	57050.65
681.922	56855.85
682.27	56748.96
682.618	56760.71
682.966	56655.18
683.314	56785.57
683.661	56616.99
684.009	56489.53
684.357	56387.39
684.705	56327.28
685.053	56497.89
685.4	56388.74
685.748	56310.78
686.095	56203.44
686.443	56156.89
686.79	56029.43
687.138	56111.24
687.485	56083.21
687.832	56019.94
688.18	56059.94
688.527	55852.49
688.874	55835.99
689.221	55747.18
689.568	55607.97
689.915	55649.33
690.262	55590.35
690.609	55598.26
690.956	55482.1
691.303	55439.16
691.65	55273.52
691.997	55265.16
692.344	55137.25
692.69	55040.3
693.037	55156.23
693.383	54988.33
693.73	54976.58
694.077	54795.11
694.423	54808.45
694.769	54685.29
695.116	54679.86
695.462	54595.34
695.808	54559.86
696.155	54549.02
696.501	54351.73
696.847	54351.73
697.193	54101.35
697.539	54232.42
697.885	53987.45
698.231	53878.3
698.577	53987.9
698.923	53888.24
699.269	53654.13
699.614	53527.35
699.96	53532.77
700.306	53592.43
700.651	53483.06
700.997	53415.49
701.342	53270.63
701.688	53229.5
702.033	53058.66
702.379	53024.09
702.724	52988.61
703.069	53043.07
703.415	52645.79
703.76	52661.16
704.105	52646.92
704.45	52567.15
704.795	52413.93
705.14	52333.26
705.485	52303.88
705.83	52214.62
706.175	52159.25
706.52	52137.78
706.865	51886.26
707.209	51999.25
707.554	51928.97
707.899	51843.1
708.243	51848.3
708.588	51692.14
708.932	51374.19
709.277	51438.82
709.621	51477.46
709.966	51137.13
710.31	51312.27
710.654	50997.92
710.998	51056.91
711.342	51016.91
711.687	50961.77
712.031	50791.15
712.375	50693.07
712.719	50773.07
713.063	50664.37
713.407	50645.62
713.75	50444.49
714.094	50544.15
714.438	50324.04
714.782	50353.2
715.125	50243.82
715.469	50285.63
715.812	50039.08
716.156	49860.55
716.499	49779.88
716.843	49882.25
717.186	49626.89
717.53	49738.75
717.873	49655.81
718.216	49746.66
718.559	49539.88
718.902	49344.63
719.246	49416.27
719.589	49272.09
719.932	49073.91
720.275	49197.29
720.617	48923.85
720.96	48993.23
721.303	48966.57
721.646	48997.3
721.989	48690.64
722.331	48857.64
722.674	48758.89
723.016	48642.51
723.359	48628.04
723.701	48638.44
724.044	48244.32
724.386	48229.86
724.729	48325.68
725.071	48095.18
725.413	48064.44
725.755	48175.63
726.097	47918.01
726.439	47854.96
726.782	47762.08
727.124	47941.28
727.465	47730.44
727.807	47756.43
728.149	47595.08
728.491	47564.34
728.833	47688.63
729.175	47511.01
729.516	47353.27
729.858	47277.12
730.199	47256.55
730.541	47226.27
730.882	47036.67
731.224	47213.17
731.565	46926.85
731.906	46750.13
732.248	46929.56
732.589	46774.98
732.93	46605.05
733.271	46663.8
733.612	46602.79
733.953	46709.68
734.294	46382.68
734.635	46337.71
734.976	46600.3
735.317	46185.4
735.658	46209.12
735.999	46236.02
736.339	46109.69
736.68	46296.35
737.021	46032.41
737.361	45863.6
737.702	46020.65
738.042	45895.46
738.383	45687.1
738.723	45870.15
739.063	45631.29
739.404	45737.27
739.744	45517.84
740.084	45333.21
740.424	45338.64
740.764	45283.95
741.104	45455.25
741.444	45090.74
741.784	45007.8
742.124	45020.23
742.464	44955.82
742.804	44967.8
743.143	44877.86
743.483	44954.92
743.823	44617.98
744.162	44676.51
744.502	44698.43
744.841	44454.37
745.181	44551.77
745.52	44438.32
745.86	44424.99
746.199	44298.21
746.538	44229.74
746.877	44316.74
747.216	44157.43
747.556	43964.44
747.895	43885.57
748.234	43670.21
748.573	43845.8
748.911	43719.47
749.25	43615.75
749.589	43401.29
749.928	43611.9
750.267	43472.25
750.605	43325.13
750.944	43203.1
751.283	43126.27
751.621	43145.93
751.96	42850.79
752.298	42961.75
752.636	42962.66
752.975	42781.19
753.313	42640.4
753.651	42739.84
753.989	42464.82
754.327	42421.43
754.666	42255.1
755.004	42244.48
755.342	42372.84
755.679	42294.2
756.017	41922.46
756.355	42022.79
756.693	41886.3
757.031	41916.58
757.368	41533.99
757.706	41475.92
758.044	41365.64
758.381	41407.67
758.719	41257.16
759.056	41401.79
759.394	41230.05
759.731	40996.15
760.068	40754.13
760.405	40739.89
760.743	40542.83
761.08	40598.42
761.417	40421.25
761.754	40210.41
762.091	40287.7
762.428	40023.75
762.765	39930.64
763.102	39923.87
763.438	39740.82
763.775	39499.02
764.112	39462.86
764.449	39442.75
764.785	39149.65
765.122	38918.02
765.458	38978.13
765.795	38890.67
766.131	38777
766.467	38605.26
766.804	38400.97
767.14	38267.41
767.476	38173.63
767.812	38027.87
768.148	38030.36
768.485	37862.45
768.821	37700.42
769.157	37572.74
769.492	37715.56
769.828	37489.58
770.164	37187.89
770.5	37151.28
770.836	37174.33
771.171	36782.03
771.507	36614.8
771.842	36567.12
772.178	36598.53
772.513	36497.06
772.849	36401.92
773.184	36203.06
773.519	36153.8
773.855	35984.76
774.19	35750.87
774.525	35725.11
774.86	35667.03
775.195	35487.37
775.53	35378.9
775.865	35278.11
776.2	34954.5
776.535	34876.77
776.87	34819.59
777.205	34713.16
777.539	34464.12
777.874	34550
778.209	34346.61
778.543	34157.92
778.878	33974.87
779.212	34063.68
779.547	33735.78
779.881	33926.74
780.215	33646.06
780.55	33660.3
780.884	33359.07
781.218	33354.32
781.552	33265.51
781.886	33028.68
782.22	32984.61
782.554	32814.67
782.888	32514.12
783.222	32462.37
783.556	32341.01
783.889	32187.8
784.223	31952.55
784.557	32001.14
784.89	31986.22
785.224	31831.42
785.557	31565.89
785.891	31522.73
786.224	31329.29
786.558	31347.59
786.891	31244.55
787.224	31049.52
787.557	30971.56
787.891	31002.29
788.224	30884.78
788.557	30832.13
788.89	30649.08
789.223	30600.04
789.556	30440.5
789.888	30385.13
790.221	30026.27
790.554	29934.52
790.887	29945.14
791.219	29814.98
791.552	29812.72
791.884	29622.44
792.217	29541.99
792.549	29480.52
792.882	29240.98
793.214	29209.57
793.546	29244.6
793.879	29012.29
794.211	28758.96
794.543	28617.27
794.875	28609.59
795.207	28770.94
795.539	28547.44
795.871	28555.58
796.203	28316.94
796.535	28229.03
796.867	28116.27
797.198	28140.9
797.53	28133.44
797.862	27944.52
798.193	27799.44
798.525	27659.78
798.856	27711.76
799.188	27443.97
799.519	27367.13
799.85	27304.76
800.182	27321.94
800.513	27222.28
800.844	27011.44
801.175	27180.92
801.506	26963.08
801.837	26836.53
802.168	26803.98
802.499	26650.99
802.83	26603.54
803.161	26486.03
803.491	26379.36
803.822	26458
804.153	26324
804.483	26057.56
804.814	26064.34
805.145	25938.92
805.475	26026.83
805.805	25824.58
806.136	25740.96
806.466	25726.72
806.796	25746.61
807.126	25588.42
807.457	25532.15
807.787	25460.52
808.117	25335.1
808.447	25229.34
808.777	25366.06
809.107	25230.69
809.436	25171.94
809.766	25163.12
810.096	25067.31
810.426	24885.16
810.755	24905.73
811.085	24764.26
811.414	24740.08
811.744	24553.65
812.073	24442.01
812.403	24492.18
812.732	24294.67
813.061	24376.25
813.39	24155.01
813.719	24067.33
814.049	24287.67
814.378	24129.48
814.707	23968.13
815.036	23969.71
815.365	23839.77
815.693	23639.77
816.022	23780.79
816.351	23647.91
816.68	23480.68
817.008	23579.66
817.337	23312.32
817.665	23355.71
817.994	23371.98
818.322	23265.32
818.651	23204.53
818.979	23019.68
819.307	23189.62
819.636	23102.61
819.964	22947.36
820.292	23008.6
820.62	23013.35
820.948	22833.47
821.276	22971.32
821.604	22830.98
821.932	22935.84
822.259	22927.7
822.587	22828.04
822.915	22753.24
823.243	22857.42
823.57	22837.76
823.898	22860.59
824.225	22706.01
824.553	22770.42
824.88	22738.78
825.207	22733.81
825.535	22689.29
825.862	22873.01
826.189	22738.78
826.516	22823.75
826.843	22949.4
827.17	22909.4
827.497	22847.25
827.824	22827.37
828.151	22923.41
828.478	22714.83
828.805	22843.18
829.131	22712.57
829.458	22638.9
829.785	22549.86
830.111	22617.43
830.438	22707.6
830.764	22757.31
831.09	22680.93
831.417	22446.13
831.743	22687.48
832.069	22673.25
832.395	22541.27
832.722	22628.05
833.048	22486.36
833.374	22545.11
833.7	22434.61
834.026	22519.8
834.351	22420.14
834.677	22439.81
835.003	22424.89
835.329	22451.56
835.654	22371.11
835.98	22119.81
836.306	22292.24
836.631	22175.41
836.956	22347.15
837.282	22308.06
837.607	22191.68
837.932	22161.39
838.258	22194.61
838.583	22122.3
838.908	21944.23
839.233	21961.63
839.558	21941.51
839.883	21889.54
840.208	21719.15
840.533	21797.79
840.858	21860.39
841.182	21769.99
841.507	21729.99
841.832	21725.02
842.156	21667.4
842.481	21545.59
842.805	21508.76
843.13	21472.15
843.454	21341.76
843.778	21307.18
844.103	21252.94
844.427	21188.76
844.751	21194.64
845.075	21192.83
845.399	21077.13
845.723	20994.19
846.047	20968.88
846.371	20874.42
846.695	20794.2
847.019	20650.02
847.343	20572.96
847.666	20494.55
847.99	20407.99
848.313	20307.21
848.637	20177.27
848.96	20170.71
849.284	20080.09
849.607	19892.53
849.931	19898.63
850.254	19879.42
850.577	19724.4
850.9	19535.93
851.223	19518.75
851.546	19325.09
851.869	19319.44
852.192	19440.56
852.515	19253
852.838	19153.79
853.161	19083.74
853.483	19029.95
853.806	19027.24
854.129	18986.56
854.451	18837.19
854.774	18721.94
855.096	18748.38
855.419	18677.64
855.741	18652.33
856.063	18645.55
856.385	18500.25
856.708	18435.84
857.03	18362.62
857.352	18321.95
857.674	18164.66
857.996	18120.6
858.318	18049.41
858.64	18139.13
858.961	18034.95
859.283	17932.35
859.605	17792.02
859.926	17958.79
860.248	17786.14
860.57	17697.11
860.891	17783.2
861.212	17675.64
861.534	17659.14
861.855	17506.83
862.176	17663.89
862.498	17619.14
862.819	17671.12
863.14	17529.43
863.461	17467.51
863.782	17356.1
864.103	17490.78
864.424	17308.41
864.745	17311.8
865.065	17149.32
865.386	17225.93
865.707	17215.76
866.027	17297.57
866.348	17145.48
866.668	17195.2
866.989	17026.39
867.309	16959.5
867.63	17007.63
867.95	17031.81
868.27	16746.17
868.59	16847.18
868.91	16965.83
869.23	16889.22
869.55	16757.02
869.87	16939.61
870.19	16816.22
870.51	16785.49
870.83	16726.96
871.15	16658.94
871.469	16667.75
871.789	16623.91
872.109	16561.32
872.428	16484.93
872.748	16526.51
873.067	16622.11
873.386	16481.54
873.706	16458.72
874.025	16430.02
874.344	16341.21
874.663	16430.92
874.982	16419.17
875.301	16349.12
875.62	16275.45
875.939	16259.18
876.258	16197.48
876.577	16138.73
876.896	16155.22
877.214	16012.18
877.533	16148.45
877.852	16127.88
878.17	16042.69
878.489	16088.11
878.807	16069.8
879.125	15889.92
879.444	15997.71
879.762	15893.31
880.08	15892.86
880.398	15798.4
880.716	15876.81
881.034	15800.43
881.352	15865.29
881.67	15726.08
881.988	15761.56
882.306	15759.98
882.624	15667.1
882.941	15532.87
883.259	15452.19
883.577	15444.06
883.894	15507.56
884.212	15336.26
884.529	15344.62
884.846	15287.68
885.164	15259.2
885.481	15188.24
885.798	15293.55
886.115	15160.45
886.432	15034.8
886.75	15084.74
887.067	15039.55
887.383	14981.02
887.7	15054.91
888.017	14932.43
888.334	14979.66
888.651	14892.66
888.967	14833.68
889.284	14788.03
889.6	14823.96
889.917	14656.51
890.233	14702.16
890.55	14613.34
890.866	14614.93
891.182	14416.29
891.498	14477.08
891.815	14398.66
892.131	14378.77
892.447	14393.01
892.763	14232.56
893.079	14324.54
893.395	14238.21
893.71	14205.45
894.026	14251.32
894.342	14187.82
894.657	14055.39
894.973	14062.17
895.289	13960.03
895.604	13935.62
895.92	13757.32
896.235	13797.32
896.55	13786.47
896.865	13747.6
897.181	13700.6
897.496	13702.86
897.811	13641.39
898.126	13532.24
898.441	13570.66
898.756	13532.24
899.071	13427.16
899.386	13407.27
899.7	13370.89
900.015	13235.53
900.33	13154.4
900.644	13211.12
900.959	13275.75
901.273	13090.67
901.588	13050.22
901.902	12904.91
902.216	12978.36
902.531	12921.41
902.845	12763.9
903.159	12731.59
903.473	12719.84
903.787	12619.72
904.101	12584.7
904.415	12624.92
904.729	12442.33
905.042	12488.65
905.356	12408.66
905.67	12440.29
905.984	12405.04
906.297	12328.66
906.611	12295.89
906.924	12293.18
907.237	12305.61
907.551	12156.01
907.864	12103.35
908.177	12155.78
908.491	12024.71
908.804	11977.48
909.117	11913.75
909.43	11780.2
909.743	11719.64
910.056	11722.35
910.368	11730.03
910.681	11603.48
910.994	11576.36
911.307	11482.35
911.619	11409.36
911.932	11492.07
912.244	11365.52
912.557	11408.01
912.869	11259.53
913.181	11243.72
913.494	11250.72
913.806	11246.2
914.118	11142.02
914.43	11036.49
914.742	11067.9
915.054	11009.37
915.366	10924.85
915.678	10879.66
915.99	10861.13
916.302	10786.33
916.613	10685.31
916.925	10706.55
917.236	10736.61
917.548	10602.83
917.859	10623.17
918.171	10584.75
918.482	10436.28
918.794	10393.79
919.105	10401.48
919.416	10323.06
919.727	10397.86
920.038	10252.33
920.349	10275.15
920.66	10114.48
920.971	10108.83
921.282	10093.92
921.593	9942.28
921.903	9973.92
922.214	9926.69
922.525	9869.51
922.835	9845.33
923.146	9843.3
923.456	9781.16
923.767	9754.04
924.077	9654.15
924.387	9667.03
924.697	9483.99
925.008	9554.72
925.318	9498.9
925.628	9507.49
925.938	9442.86
926.248	9316.31
926.558	9313.37
926.867	9354.05
927.177	9232.02
927.487	9146.6
927.796	9177.56
928.106	9139.36
928.416	9072.47
928.725	9114.73
929.034	9054.85
929.344	9018.69
929.653	8999.93
929.962	8892.82
930.271	8775.76
930.581	8785.93
930.89	8797.45
931.199	8692.6
931.508	8711.13
931.817	8763.33
932.125	8684.23
932.434	8608.3
932.743	8523.56
933.051	8515.65
933.36	8468.87
933.669	8476.1
933.977	8401.98
934.286	8289.67
934.594	8310.23
934.902	8281.99
935.21	8213.29
935.519	8208.77
935.827	8185.72
936.135	8160.41
936.443	8032.5
936.751	8043.12
937.059	7994.76
937.367	7983.91
937.674	7932.62
937.982	7954.31
938.29	7928.32
938.597	7921.54
938.905	7762.9
939.213	7875.89
939.52	7682
939.827	7801.09
940.135	7731.72
940.442	7653.3
940.749	7587.09
941.056	7602
941.363	7522.23
941.67	7502.57
941.977	7532.17
942.284	7501.67
942.591	7436.36
942.898	7410.6
943.205	7374.89
943.511	7329.02
943.818	7281.56
944.125	7254.44
944.431	7185.29
944.738	7178.51
945.044	7164.27
945.35	7174.44
945.657	7093.09
945.963	7067.55
946.269	7032.75
946.575	7002.7
946.881	6978.97
947.187	6927.22
947.493	6923.15
947.799	6926.09
948.105	6787.34
948.41	6783.27
948.716	6752.31
949.022	6717.96
949.327	6674.12
949.633	6585.76
949.938	6597.28
950.244	6591.41
950.549	6520.45
950.854	6576.95
951.16	6541.47
951.465	6472.77
951.77	6460.34
952.075	6387.35
952.38	6432.54
952.685	6423.05
952.99	6366.78
953.294	6374.69
953.599	6248.14
953.904	6307.57
954.209	6174.92
954.513	6246.33
954.818	6200.46
955.122	6143.51
955.426	6112.33
955.731	6109.61
956.035	6103.74
956.339	6055.83
956.643	6005.89
956.948	6008.15
957.252	5930.64
957.556	5920.01
957.86	5927.47
958.163	5877.76
958.467	5875.27
958.771	5823.75
959.075	5794.82
959.378	5767.93
959.682	5773.35
959.985	5727.02
960.289	5710.3
960.592	5678.66
960.896	5677.76
961.199	5611.32
961.502	5601.38
961.805	5549.63
962.108	5526.58
962.411	5468.95
962.714	5468.95
963.017	5485.22
963.32	5485
963.623	5459.69
963.926	5453.13
964.228	5384.43
964.531	5363.42
964.833	5358.22
965.136	5316.64
965.438	5338.11
965.741	5334.49
966.043	5248.17
966.345	5254.95
966.648	5164.33
966.95	5192.58
967.252	5121.62
967.554	5164.33
967.856	5078.45
968.158	5086.14
968.46	5059.25
968.761	5018.57
969.063	4996.65
969.365	4972.47
969.666	4953.03
969.968	4928.63
970.269	4952.58
970.571	4882.3
970.872	4845.01
971.174	4885.46
971.475	4811.34
971.776	4820.38
972.077	4763.43
972.378	4757.33
972.679	4707.62
972.98	4754.39
973.281	4683.21
973.582	4672.14
973.883	4631.46
974.183	4590.33
974.484	4615.87
974.785	4590.56
975.085	4583.33
975.386	4567.06
975.686	4547.39
975.986	4475.53
976.287	4480.96
976.587	4423.33
976.887	4447.06
977.187	4400.73
977.487	4438.02
977.787	4387.17
978.087	4381.98
978.387	4346.5
978.687	4374.74
978.987	4331.58
979.286	4288.64
979.586	4270.34
979.885	4231.02
980.185	4212.26
980.484	4188.99
980.784	4133.17
981.083	4143.11
981.382	4148.08
981.682	4135.43
981.981	4115.32
982.28	4071.7
982.579	4055.43
982.878	4070.34
983.177	4033.74
983.475	4042.1
983.774	3993.06
984.073	3925.26
984.372	3925.26
984.67	3940.18
984.969	3936.56
985.267	3919.84
985.566	3899.95
985.864	3850.46
986.162	3855.89
986.461	3793.29
986.759	3837.81
987.057	3756.91
987.355	3772.5
987.653	3833.29
987.951	3736.34
988.249	3727.53
988.547	3735.89
988.844	3679.17
989.142	3667.87
989.44	3691.15
989.737	3632.62
990.035	3587.65
990.332	3594.65
990.63	3599.17
990.927	3576.35
991.224	3586.06
991.521	3525.5
991.819	3497.48
992.116	3516.46
992.413	3473.75
992.71	3453.86
993.006	3411.15
993.303	3407.54
993.6	3393.98
993.897	3394.88
994.193	3373.19
994.49	3351.27
994.787	3345.39
995.083	3332.29
995.379	3308.78
995.676	3286.86
995.972	3251.61
996.268	3229.92
996.565	3251.84
996.861	3236.92
997.157	3229.01
997.453	3177.04
997.749	3157.15
998.044	3138.17
998.34	3118.96
998.636	3099.3
998.932	3121.22
999.227	3085.96
999.523	3074.44
999.818	3072.41
1000.114	3015.91
1000.409	3002.58
1000.704	2981.33
1001	2971.62
1001.295	2943.14
1001.59	2983.37
1001.885	2960.09
1002.18	2928.68
1002.475	2905.18
1002.77	2864.95
1003.065	2837.38
1003.359	2867.66
1003.654	2864.27
1003.949	2808.91
1004.243	2774.11
1004.538	2786.99
1004.832	2756.93
1005.127	2751.28
1005.421	2732.08
1005.715	2720.55
1006.009	2711.51
1006.304	2685.3
1006.598	2654.56
1006.892	2678.97
1007.186	2648.91
1007.48	2629.25
1007.773	2612.76
1008.067	2565.75
1008.361	2576.6
1008.655	2542.48
1008.948	2562.36
1009.242	2548.58
1009.535	2539.31
1009.829	2512.19
1010.122	2496.15
1010.415	2480.56
1010.708	2437.17
1011.001	2437.62
1011.295	2416.38
1011.588	2422.93
1011.881	2417.06
1012.173	2361.46
1012.466	2343.16
1012.759	2386.77
1013.052	2329.15
1013.344	2275.82
1013.637	2332.09
1013.93	2283.5
1014.222	2267.91
1014.514	2259.09
1014.807	2259.77
1015.099	2217.29
1015.391	2209.15
1015.683	2199.43
1015.976	2193.56
1016.268	2205.31
1016.56	2164.18
1016.851	2135.71
1017.143	2135.25
1017.435	2135.93
1017.727	2114.01
1018.018	2094.35
1018.31	2069.04
1018.602	2073.56
1018.893	2053.22
1019.185	2047.57
1019.476	2008.48
1019.767	2001.02
1020.058	2010.96
1020.35	1981.59
1020.641	1973.68
1020.932	1969.16
1021.223	1940.68
1021.514	1937.75
1021.804	1886
1022.095	1860.69
1022.386	1939.33
1022.677	1881.02
1022.967	1887.13
1023.258	1853.23
1023.548	1813
1023.839	1827.69
1024.129	1794.02
1024.419	1791.99
1024.709	1797.64
1025	1765.77
1025.29	1773.68
1025.58	1761.25
1025.87	1761.93
1026.16	1727.81
1026.449	1669.73
1026.739	1702.5
1027.029	1670.41
1027.319	1678.54
1027.608	1669.05
1027.898	1646
1028.187	1648.49
1028.477	1638.09
1028.766	1601.71
1029.055	1612.33
1029.344	1596.29
1029.634	1582.27
1029.923	1587.7
1030.212	1572.33
1030.501	1535.5
1030.79	1538.43
1031.078	1534.37
1031.367	1514.93
1031.656	1518.55
1031.945	1474.26
1032.233	1505.89
1032.522	1479.23
1032.81	1464.31
1033.099	1447.59
1033.387	1446.91
1033.675	1433.58
1033.963	1392.22
1034.251	1416.63
1034.54	1390.64
1034.828	1387.03
1035.116	1385.44
1035.403	1367.82
1035.691	1360.81
1035.979	1332.11
1036.267	1336.86
1036.554	1349.74
1036.842	1334.15
1037.129	1337.54
1037.417	1287.37
1037.704	1283.07
1037.992	1272
1038.279	1272.45
1038.566	1247.14
1038.853	1247.14
1039.14	1247.14
