Data from plate_porcelain_FLMS001491_079.txt Node
Date: Tue Feb 07 11:19:53 GMT 2017
User: dcchb
Spectrometer: FLMS00149
Trigger mode: 0
Integration Time (sec): 2.000000E-2
Scans to average: 10
Electric dark correction enabled: true
Nonlinearity correction enabled: false
Boxcar width: 0
XAxis mode: Wavelengths
Number of Pixels in Spectrum: 2048
>>>>>Begin Spectral Data<<<<<
341.393	6.03
341.776	6.03
342.16	6.03
342.543	-73.06
342.927	-57.92
343.31	-65.38
343.693	-76.9
344.077	-78.94
344.46	-49.79
344.843	-39.62
345.226	-24.25
345.61	-36.45
345.993	-41.2
346.376	-12.05
346.759	-2.1
347.142	39.25
347.525	52.36
347.908	53.49
348.291	80.83
348.674	75.18
349.057	125.58
349.44	113.6
349.823	144.11
350.206	197.21
350.588	253.93
350.971	268.85
351.354	273.37
351.737	309.75
352.119	307.94
352.502	326.47
352.884	339.13
353.267	342.29
353.65	346.59
354.032	359.02
354.414	373.03
354.797	342.07
355.179	392.24
355.562	372.8
355.944	387.94
356.326	401.27
356.709	389.07
357.091	392.01
357.473	396.98
357.855	425
358.238	414.16
358.62	418.68
359.002	410.09
359.384	427.49
359.766	410.99
360.148	416.42
360.53	418.22
360.912	439.01
361.294	415.74
361.676	395.85
362.057	420.03
362.439	408.51
362.821	394.95
363.203	399.01
363.584	397.89
363.966	397.43
364.348	419.58
364.729	412.57
365.111	400.82
365.493	421.61
365.874	399.24
366.256	402.86
366.637	408.51
367.019	399.92
367.4	420.71
367.781	425
368.163	413.93
368.544	409.86
368.925	410.99
369.306	428.39
369.688	445.79
370.069	420.03
370.45	432.91
370.831	437.43
371.212	451.44
371.593	447.6
371.974	429.52
372.355	442.63
372.736	481.95
373.117	462.52
373.498	448.05
373.879	466.58
374.26	434.04
374.641	453.48
375.021	436.53
375.402	437.21
375.783	478.33
376.163	506.81
376.544	500.71
376.925	500.26
377.305	492.12
377.686	517.43
378.066	492.8
378.447	489.41
378.827	525.11
379.208	515.85
379.588	522.18
379.968	536.19
380.349	532.57
380.729	508.62
381.109	531.44
381.489	564.43
381.87	547.26
382.25	541.38
382.63	541.84
383.01	555.85
383.39	551.55
383.77	577.09
384.15	573.47
384.53	591.33
384.91	586.81
385.29	594.94
385.67	617.09
386.049	626.81
386.429	605.79
386.809	606.47
387.189	625.45
387.568	621.38
387.948	641.95
388.328	660.48
388.707	652.12
389.087	677.43
389.466	679.46
389.846	673.58
390.225	682.17
390.605	680.59
390.984	719.91
391.363	721.72
391.743	738.67
392.122	731.66
392.501	748.38
392.881	755.16
393.26	730.98
393.639	763.07
394.018	764.66
394.397	790.64
394.776	789.97
395.155	816.41
395.534	784.54
395.913	837.65
396.292	828.16
396.671	850.3
397.05	851.43
397.429	846.69
397.808	856.86
398.186	885.56
398.565	887.36
398.944	879.23
399.323	887.82
399.701	919.45
400.08	903.63
400.458	944.99
400.837	967.59
401.215	966.46
401.594	948.83
401.972	960.58
402.351	987.47
402.729	991.09
403.107	1000.36
403.486	1004.42
403.864	1007.13
404.242	1039.22
404.62	1041.26
404.999	1049.17
405.377	1064.53
405.755	1099.11
406.133	1103.4
406.511	1155.38
406.889	1123.06
407.267	1154.93
407.645	1175.04
408.023	1173.68
408.401	1220.24
408.779	1226.79
409.156	1227.69
409.534	1246.45
409.912	1287.35
410.29	1300.01
410.667	1298.2
411.045	1303.17
411.422	1342.72
411.8	1355.15
412.178	1359.67
412.555	1392.89
412.933	1426.56
413.31	1455.71
413.687	1452.55
414.065	1489.61
414.442	1500.45
414.819	1520.34
415.197	1482.38
415.574	1547.01
415.951	1567.12
416.328	1548.36
416.705	1600.11
417.082	1598.31
417.46	1607.8
417.837	1660.9
418.214	1691.18
418.591	1704.74
418.967	1709.49
419.344	1714.69
419.721	1761.46
420.098	1749.49
420.475	1806.44
420.852	1804.63
421.228	1857.06
421.605	1865.87
421.982	1864.74
422.358	1877.62
422.735	1907.22
423.111	1918.07
423.488	1946.09
423.864	1995.81
424.241	1972.08
424.617	2022.02
424.994	2034.45
425.37	2060.44
425.746	2071.06
426.123	2081.91
426.499	2144.28
426.875	2142.92
427.251	2194.9
427.627	2259.31
428.003	2251.4
428.379	2286.65
428.756	2306.76
429.132	2358.96
429.507	2337.95
429.883	2411.39
430.259	2444.16
430.635	2481.45
431.011	2504.95
431.387	2565.74
431.763	2566.87
432.138	2608.22
432.514	2666.3
432.89	2671.05
433.265	2738.61
433.641	2800.08
434.016	2799.63
434.392	2879.4
434.767	2939.74
435.143	2901.55
435.518	2956.69
435.894	2980.42
436.269	3072.39
436.644	3111.71
437.02	3103.12
437.395	3115.78
437.77	3144.93
438.145	3221.77
438.52	3254.76
438.895	3293.18
439.271	3324.59
439.646	3380.18
440.021	3402.78
440.395	3405.26
440.77	3428.77
441.145	3478.03
441.52	3516.9
441.895	3518.03
442.27	3543.11
442.645	3545.37
443.019	3621.98
443.394	3605.48
443.769	3679.83
444.143	3646.39
444.518	3728.64
444.892	3682.09
445.267	3744.69
445.641	3822.65
446.016	3810.68
446.39	3855.42
446.764	3904.23
447.139	3890
447.513	3975.19
447.887	3962.99
448.262	3978.81
448.636	3985.59
449.01	4074.62
449.384	4105.81
449.758	4125.92
450.132	4212.02
450.506	4238.01
450.88	4240.72
451.254	4292.25
451.628	4355.52
452.002	4422.64
452.376	4404.79
452.75	4456.54
453.123	4511
453.497	4620.6
453.871	4627.15
454.244	4724.55
454.618	4753.25
454.992	4843.87
455.365	4899.46
455.739	4922.29
456.112	5041.6
456.486	5082.96
456.859	5136.52
457.232	5231.88
457.606	5263.52
457.979	5308.49
458.352	5378.32
458.725	5523.63
459.099	5521.14
459.472	5660.57
459.845	5686.56
460.218	5739.21
460.591	5808.59
460.964	5837.74
461.337	6015.36
461.71	6087.68
462.083	6157.73
462.456	6170.84
462.829	6189.37
463.201	6370.61
463.574	6325.19
463.947	6427.33
464.32	6619.19
464.692	6655.12
465.065	6690.37
465.438	6868.9
465.81	6970.82
466.183	6999.75
466.555	7216.46
466.928	7205.84
467.3	7203.13
467.672	7337.82
468.045	7560.63
468.417	7566.06
468.789	7676.34
469.161	7749.56
469.534	7942.77
469.906	8067.74
470.278	8079.72
470.65	8261.41
471.022	8357.68
471.394	8558.8
471.766	8621.4
472.138	8747.95
472.51	8892.8
472.882	9063.65
473.253	9189.74
473.625	9239.23
473.997	9456.63
474.369	9561.49
474.74	9667.92
475.112	9884.87
475.484	10005.54
475.855	10231.3
476.227	10314.23
476.598	10575.47
476.97	10688.46
477.341	10957.83
477.713	11189.47
478.084	11142.24
478.455	11490.93
478.827	11622.67
479.198	11986.73
479.569	12015.88
479.94	12358.25
480.311	12465.82
480.682	12751.23
481.053	13057.44
481.424	13245
481.795	13434.83
482.166	13579.46
482.537	13806.8
482.908	14057.64
483.279	14109.61
483.65	14453.11
484.021	14802.48
484.391	14956.37
484.762	15080.21
485.133	15194.78
485.503	15368.11
485.874	15727.65
486.244	15964.26
486.615	16249.67
486.985	16531.7
487.356	16719.72
487.726	16978.69
488.097	17288.74
488.467	17331.45
488.837	17640.6
489.207	17933.92
489.578	18204.65
489.948	18463.85
490.318	18673.79
490.688	18667.46
491.058	18988.36
491.428	19267.67
491.798	19505.86
492.168	19869.69
492.538	19904.72
492.908	20292.5
493.278	20460.41
493.648	20561.65
494.017	20930.23
494.387	20924.35
494.757	21236.21
495.126	21348.07
495.496	21533.6
495.866	21695.63
496.235	21911.67
496.605	22118.9
496.974	22267.59
497.344	22536.51
497.713	22652.89
498.082	22882.27
498.452	23208.81
498.821	23277.51
499.19	23296.27
499.559	23643.6
499.928	23687.44
500.298	23918.4
500.667	24293.3
501.036	24120.2
501.405	24393.41
501.774	24527.42
502.143	24727.41
502.512	24831.14
502.88	25053.06
503.249	25135.77
503.618	25369.66
503.987	25492.37
504.356	25593.83
504.724	25800.38
505.093	25983.2
505.462	26055.97
505.83	26370.99
506.199	26455.73
506.567	26934.59
506.936	26799.22
507.304	27191.53
507.672	27357.85
508.041	27574.35
508.409	27684.85
508.777	27916.71
509.145	28157.16
509.514	28237.83
509.882	28295.68
510.25	28625.39
510.618	28799.4
510.986	28934.31
511.354	29263.57
511.722	29394.64
512.09	29691.8
512.458	29650.45
512.826	29976.54
513.193	30219.25
513.561	30343.31
513.929	30637.54
514.297	30840.47
514.664	31227.58
515.032	31237.75
515.4	31585.99
515.767	31798.64
516.135	31841.35
516.502	31738.53
516.869	32375.8
517.237	32452.18
517.604	32576.47
517.972	32924.94
518.339	33184.14
518.706	33267.53
519.073	33435.43
519.44	33641.08
519.808	34108.86
520.175	34286.94
520.542	34542.3
520.909	34753.59
521.276	34819.8
521.643	35271.77
522.009	35489.84
522.376	35695.49
522.743	35883.05
523.11	36201.01
523.477	36614.33
523.843	36797.83
524.21	37225.84
524.577	37483.46
524.943	37577.25
525.31	37831.03
525.676	38245.7
526.043	38463.1
526.409	38761.17
526.776	39113.03
527.142	39303.98
527.508	39448.38
527.874	39808.83
528.241	40065.32
528.607	40157.97
528.973	40564.06
529.339	40564.74
529.705	40788.01
530.071	41239.97
530.437	41541.66
530.803	41844.93
531.169	42036.11
531.535	41947.3
531.901	42101.87
532.267	42237.24
532.632	42773.04
532.998	42812.59
533.364	43104.78
533.73	43218
534.095	43516.98
534.461	43647.14
534.826	43809.4
535.192	43949.73
535.557	44274.7
535.923	44329.39
536.288	44539.55
536.653	44786.55
537.019	44724.63
537.384	45015.69
537.749	45094.79
538.114	45161.45
538.479	45288
538.845	45599.41
539.21	45416.81
539.575	45794.66
539.94	45942.9
540.305	46217.47
540.67	46137.02
541.034	46402.1
541.399	46645.26
541.764	46621.75
542.129	46799.83
542.494	46890
542.858	47149.2
543.223	47069.2
543.587	47462.86
543.952	47383.77
544.316	47595.51
544.681	47576.76
545.045	47881.38
545.41	47999.8
545.774	48039.8
546.138	48110.53
546.503	48327.02
546.867	48300.81
547.231	48657.63
547.595	48763.39
547.959	48873.22
548.324	48910.96
548.688	49072.76
549.052	49137.62
549.416	49356.15
549.779	49336.26
550.143	49416.03
550.507	49797.26
550.871	49968.33
551.235	49995
551.599	50280.87
551.962	50262.56
552.326	50330.13
552.689	50611.48
553.053	50369.68
553.417	50594.08
553.78	51050.56
554.143	50875.88
554.507	51127.62
554.87	51262.54
555.234	51510.67
555.597	51542.75
555.96	51628.63
556.323	51848.74
556.686	51868.62
557.05	52060.93
557.413	52148.16
557.776	52226.8
558.139	52457.31
558.502	52498.89
558.865	52591.77
559.228	52859.56
559.59	52913.79
559.953	53067.91
560.316	53364.18
560.679	53290.51
561.041	53581.8
561.404	53624.28
561.767	53844.62
562.129	53776.59
562.492	54100.43
562.854	54137.71
563.217	54168.22
563.579	54382.45
563.941	54461.32
564.304	54635.33
564.666	54814.31
565.028	54898.15
565.39	54988.99
565.753	55063.11
566.115	55217.91
566.477	55377.46
566.839	55432.82
567.201	55596.66
567.563	55567.28
567.925	55802.53
568.287	55833.26
568.648	55844.56
569.01	56081.62
569.372	56220.6
569.734	56186.93
570.095	56353.25
570.457	56512.12
570.819	56562.28
571.18	56610.19
571.542	56746.01
571.903	56698.1
572.265	56876.4
572.626	56927.92
572.987	56975.83
573.349	57024.19
573.71	57097.86
574.071	57136.73
574.432	57247.01
574.794	57457.85
575.155	57423.5
575.516	57274.81
575.877	57481.36
576.238	57596.38
576.599	57661.46
576.96	57674.12
577.32	57614.69
577.681	57766.32
578.042	57867.33
578.403	57853.78
578.763	57921.8
579.124	57963.83
579.485	58011.74
579.845	58049.7
580.206	57996.14
580.566	58119.76
580.927	58052.41
581.287	58152.52
581.648	58090.15
582.008	58218.96
582.368	58109.59
582.728	58263.93
583.089	58200.21
583.449	58194.78
583.809	58237.49
584.169	58323.59
584.529	58296.93
584.889	58407.66
585.249	58267.1
585.609	58231.62
585.969	58365.63
586.329	58337.38
586.688	58401.56
587.048	58368.34
587.408	58328.11
587.768	58362.69
588.127	58335.34
588.487	58281.33
588.846	58458.51
589.206	58310.26
589.565	58382.35
589.925	58420.77
590.284	58392.52
590.643	58470.03
591.003	58453.76
591.362	58525.62
591.721	58430.26
592.08	58453.99
592.44	58478.84
592.799	58503.93
593.158	58502.35
593.517	58500.76
593.876	58586.41
594.235	58400.88
594.593	58504.15
594.952	58586.86
595.311	58561.78
595.67	58581.89
596.029	58711.61
596.387	58672.06
596.746	58672.74
597.104	58619.63
597.463	58663.47
597.822	58778.72
598.18	58670.48
598.538	58652.4
598.897	58806.07
599.255	58592.51
599.613	58979.62
599.972	58797.25
600.33	58825.28
600.688	58776.24
601.046	58871.6
601.404	58988.89
601.762	58943.24
602.12	59021.88
602.478	59067.53
602.836	59061.88
603.194	58882.45
603.552	58959.74
603.91	58891.94
604.268	59047.87
604.625	58965.16
604.983	59122.67
605.341	58966.06
605.698	59124.93
606.056	59152.05
606.413	59152.5
606.771	59244.25
607.128	59268.2
607.485	59109.79
607.843	59227.98
608.2	59289.22
608.557	59406.73
608.914	59297.13
609.272	59440.63
609.629	59477.01
609.986	59563.79
610.343	59399.5
610.7	59607.18
611.057	59553.39
611.414	59560.17
611.771	59548.65
612.127	59697.34
612.484	59558.59
612.841	59703.44
613.198	59624.12
613.554	59635.2
613.911	59760.62
614.267	59737.34
614.624	59742.99
614.98	59775.53
615.337	59991.35
615.693	59882.65
616.05	59849.43
616.406	60039.93
616.762	59945.92
617.118	59911.12
617.475	59960.61
617.831	59949.09
618.187	60044
618.543	59988.86
618.899	60182.3
619.255	60128.74
619.611	60058.24
619.967	60111.12
620.323	60208.74
620.678	60125.13
621.034	60025.02
621.39	60077.22
621.746	60077.22
622.101	60304.56
622.457	60111.57
622.812	60166.93
623.168	60184.56
623.523	60167.39
623.879	60256.65
624.234	60140.95
624.589	60257.33
624.945	60197.89
625.3	60238.12
625.655	60213.04
626.01	60216.65
626.365	60267.95
626.72	60192.7
627.075	60176.65
627.43	60115.64
627.785	60098.46
628.14	60115.86
628.495	60165.13
628.85	60130.1
629.205	60067.05
629.559	60099.59
629.914	59999.93
630.269	60090.1
630.623	59994.06
630.978	59953.83
631.332	60006.71
631.687	60004.45
632.041	59963.32
632.396	59981.63
632.75	59902.08
633.104	59947.73
633.459	59825.7
633.813	59767.62
634.167	59809.88
634.521	59796.78
634.875	59819.15
635.229	59736.66
635.583	59571.02
635.937	59619.38
636.291	59561.98
636.645	59599.72
636.999	59559.49
637.352	59596.55
637.706	59461.42
638.06	59549.55
638.413	59491.92
638.767	59382.77
639.121	59425.94
639.474	59269.33
639.828	59330.35
640.181	59352.72
640.534	59340.52
640.888	59228.43
641.241	59160.41
641.594	59216.68
641.947	59291.48
642.301	59170.35
642.654	59119.73
643.007	59091.71
643.36	59114.08
643.713	59027.98
644.066	59034.54
644.419	58940.98
644.771	58761.55
645.124	58613.3
645.477	58511.39
645.83	58288.57
646.182	58202.01
646.535	58176.93
646.888	58208.34
647.24	58089.02
647.593	58258.74
647.945	58133.99
648.298	57995.92
648.65	58068.23
649.002	57916.82
649.355	58017.39
649.707	57856.71
650.059	58017.39
650.411	58334.89
650.763	58378.06
651.115	58571.27
651.467	58472.52
651.819	58387.77
652.171	58373.08
652.523	58375.12
652.875	58333.76
653.227	58197.95
653.578	58399.98
653.93	58230.71
654.282	58113.66
654.633	58136.48
654.985	58179.19
655.337	58153.43
655.688	58119.31
656.039	58207.21
656.391	58085.41
656.742	58083.6
657.094	58035.24
657.445	58192.3
657.796	58090.83
658.147	58006.77
658.498	57997.73
658.849	58027.56
659.2	57985.07
659.551	57925.41
659.902	58074.56
660.253	57975.13
660.604	57945.75
660.955	57833.66
661.306	57963.6
661.656	57901.23
662.007	57859.88
662.358	57843.83
662.708	57814.91
663.059	57849.26
663.409	57668.92
663.76	57787.34
664.11	57726.55
664.461	57723.61
664.811	57780.78
665.161	57741.46
665.511	57699.2
665.862	57708.69
666.212	57781.69
666.562	57811.29
666.912	57723.61
667.262	57707.79
667.612	57760.67
667.962	57711.86
668.312	57722.71
668.662	57770.16
669.011	57679.09
669.361	57581.92
669.711	57599.77
670.06	57587.57
670.41	57578.08
670.76	57477.06
671.109	57637.74
671.459	57481.81
671.808	57478.87
672.157	57504.41
672.507	57371.75
672.856	57420.34
673.205	57418.08
673.554	57492.88
673.904	57374.24
674.253	57506.67
674.602	57372.43
674.951	57045.44
675.3	56890.18
675.649	57365.65
675.998	57289.27
676.346	57263.96
676.695	57411.08
677.044	57104.19
677.393	57364.75
677.741	57316.61
678.09	57234.36
678.438	57122.72
678.787	57136.96
679.135	57192.55
679.484	56998.2
679.832	57146.9
680.181	57011.09
680.529	57039.11
680.877	56915.95
681.225	56901.94
681.573	56978.32
681.922	56861.71
682.27	56739
682.618	56759.79
682.966	56676.86
683.314	56725.67
683.661	56632.79
684.009	56513.7
684.357	56399.58
684.705	56433.93
685.053	56480.25
685.4	56365.45
685.748	56323.87
686.095	56300.6
686.443	56125.69
686.79	56083.2
687.138	56145.57
687.485	56129.08
687.832	56101.73
688.18	56059.25
688.527	55888.63
688.874	55818.35
689.221	55739.71
689.568	55656.32
689.915	55684.57
690.262	55671.91
690.609	55589.43
690.956	55421.97
691.303	55409.09
691.65	55268.53
691.997	55316.67
692.344	55043.45
692.69	55141.53
693.037	55220.4
693.383	54896.79
693.73	54992.16
694.077	54804.14
694.423	54770.69
694.769	54657.02
695.116	54668.1
695.462	54689.11
695.808	54597.36
696.155	54520.98
696.501	54419.29
696.847	54356.92
697.193	54144.04
697.539	54242.57
697.885	54044.16
698.231	53865.63
698.577	53991.73
698.923	53928.23
699.269	53728.23
699.614	53602.14
699.96	53453.44
700.306	53529.82
700.651	53377.96
700.997	53353.78
701.342	53223.61
701.688	53264.07
702.033	53117.63
702.379	53027.91
702.724	52854.13
703.069	53077.63
703.415	52704.53
703.76	52729.62
704.105	52723.51
704.45	52502.5
704.795	52330.3
705.14	52204.66
705.485	52310.42
705.83	52222.29
706.175	52221.83
706.52	52035.85
706.865	51964.21
707.209	51982.29
707.554	51908.4
707.899	51886.93
708.243	51665.01
708.588	51766.93
708.932	51455.53
709.277	51421.4
709.621	51466.37
709.966	51199.49
710.31	51331.01
710.654	50970.57
710.998	51051.02
711.342	51071.35
711.687	50972.37
712.031	50780.06
712.375	50673.17
712.719	50762.89
713.063	50602.89
713.407	50658.94
713.75	50491.71
714.094	50464.82
714.438	50398.6
714.782	50427.08
715.125	50145.96
715.469	50264.37
715.812	49994.1
716.156	49759.07
716.499	49887.66
716.843	49919.97
717.186	49667.32
717.53	49848.34
717.873	49751.84
718.216	49655.12
718.559	49416.26
718.902	49342.59
719.246	49496.03
719.589	49314.56
719.932	49144.4
720.275	49138.75
720.617	49047.68
720.96	49003.16
721.303	48920.23
721.646	48974.23
721.989	48745.31
722.331	48884.07
722.674	48769.49
723.016	48594.81
723.359	48682.04
723.701	48576.28
724.044	48388.49
724.386	48244.54
724.729	48344.42
725.071	48277.08
725.413	48093.13
725.755	48132.9
726.097	47924.54
726.439	47859.69
726.782	47833.7
727.124	47969.29
727.465	47662.63
727.807	47786.02
728.149	47558.68
728.491	47451.11
728.833	47591.22
729.175	47516.19
729.516	47277.1
729.858	47224.9
730.199	47242.53
730.541	47116.88
730.882	47065.81
731.224	47171.34
731.565	46858.58
731.906	46993.95
732.248	47034.62
732.589	46774.97
732.93	46536.11
733.271	46682.54
733.612	46721.41
733.953	46622.66
734.294	46416.34
734.635	46404.58
734.976	46372.5
735.317	46173.86
735.658	46385.83
735.999	46292.95
736.339	46005.95
736.68	46252.27
737.021	46000.08
737.361	45862.45
737.702	46078.49
738.042	45848.89
738.383	45586.08
738.723	45933.41
739.063	45690.25
739.404	45736.13
739.744	45509.92
740.084	45436.02
740.424	45476.25
740.764	45331.62
741.104	45460.65
741.444	45167.78
741.784	44922.59
742.124	45055.02
742.464	44947.22
742.804	44993.32
743.143	44977.96
743.483	44852.54
743.823	44708.58
744.162	44530.51
744.502	44688.92
744.841	44550.4
745.181	44653.44
745.52	44472.66
745.86	44452.32
746.199	44405.99
746.538	44211.65
746.877	44316.5
747.216	44065.21
747.556	44030.64
747.895	43918.77
748.234	43748.16
748.573	43873.35
748.911	43829.51
749.25	43617.77
749.589	43477.43
749.928	43560.37
750.267	43495.51
750.605	43341.39
750.944	43133.94
751.283	43069.08
751.621	43225.46
751.96	42903.21
752.298	42931.68
752.636	42980.95
752.975	42719.03
753.313	42552.03
753.651	42858.69
753.989	42363.34
754.327	42380.06
754.666	42241.98
755.004	42334.86
755.342	42353.62
755.679	42312.26
756.017	42027.3
756.355	42115.21
756.693	41693.97
757.031	41763.35
757.368	41493.3
757.706	41611.26
758.044	41344.83
758.381	41482.91
758.719	41276.81
759.056	41308.45
759.394	41078.85
759.731	40725.64
760.068	40724.28
760.405	40636.38
760.743	40551.18
761.08	40674.34
761.417	40264.18
761.754	40346.21
762.091	40236.39
762.428	40120.91
762.765	39915.04
763.102	40030.29
763.438	39790.75
763.775	39560.25
764.112	39521.15
764.449	39470.98
764.785	39134.27
765.122	39031.67
765.458	38904.67
765.795	38873.94
766.131	38865.35
766.467	38771.57
766.804	38417.9
767.14	38326.83
767.476	38362.08
767.812	38017.46
768.148	37976.78
768.485	37840.52
768.821	37816.11
769.157	37663.35
769.492	37689.33
769.828	37454.76
770.164	37157.37
770.5	37245.96
770.836	37303.13
771.171	36895.23
771.507	36893.2
771.842	36579.98
772.178	36563.26
772.513	36434.68
772.849	36383.61
773.184	36124.18
773.519	36191.07
773.855	35963.5
774.19	35811.87
774.525	35613.23
774.86	35655.04
775.195	35531.2
775.53	35488.04
775.865	35035.84
776.2	35005.34
776.535	34840.82
776.87	34762.63
777.205	34587.72
777.539	34482.86
777.874	34622.75
778.209	34133.5
778.543	34208.75
778.878	33941.86
779.212	34060.5
779.547	33894.41
779.881	33787.74
780.215	33507.07
780.55	33649.44
780.884	33344.59
781.218	33233.63
781.552	33232.05
781.886	33038.38
782.22	32882.45
782.554	32799.52
782.888	32539.19
783.222	32399.53
783.556	32353.2
783.889	32291.06
784.223	32020.1
784.557	32049.71
784.89	31952.99
785.224	31751.18
785.557	31657.4
785.891	31568.14
786.224	31476.84
786.558	31409.05
786.891	31181.71
787.224	31076.17
787.557	30859.91
787.891	30790.08
788.224	30835.95
788.557	30814.03
788.89	30653.81
789.223	30607.26
789.556	30344.89
789.888	30249.98
790.221	30219.02
790.554	30005.24
790.887	30015.19
791.219	29895.64
791.552	29738.13
791.884	29517.12
792.217	29640.28
792.549	29545.82
792.882	29357.35
793.214	29181.76
793.546	29199.61
793.879	28900.64
794.211	28746.74
794.543	28877.14
794.875	28632.4
795.207	28800.75
795.539	28410.26
795.871	28723.92
796.203	28352.86
796.535	28257.27
796.867	28096.82
797.198	27994
797.53	28049.36
797.862	27785.64
798.193	27899.99
798.525	27567.34
798.856	27753.32
799.188	27394.01
799.519	27319.44
799.85	27362.15
800.182	27082.83
800.513	27304.75
800.844	27014.36
801.175	27095.49
801.506	27034.47
801.837	26883.06
802.168	26851.88
802.499	26688.27
802.83	26650.53
803.161	26505.22
803.491	26614.82
803.822	26413.92
804.153	26342.51
804.483	26011.9
804.814	26060.26
805.145	25989.98
805.475	25881.28
805.805	25862.98
806.136	25947.95
806.466	25889.64
806.796	25784.79
807.126	25601.74
807.457	25513.61
807.787	25449.43
808.117	25409.66
808.447	25233.62
808.777	25279.72
809.107	25277.68
809.436	25122.88
809.766	25061.87
810.096	25002.44
810.426	24900.97
810.755	24860.07
811.085	24779.16
811.414	24760.86
811.744	24443.13
812.073	24554.54
812.403	24438.16
812.732	24328.33
813.061	24360.64
813.39	24185.06
813.719	24174.89
814.049	24230.7
814.378	24136.7
814.707	23984.84
815.036	24022.8
815.365	23807.21
815.693	23623.49
816.022	23721.11
816.351	23680.66
816.68	23540.55
817.008	23552.3
817.337	23463.27
817.665	23359.32
817.994	23382.14
818.322	23270.28
818.651	23264.4
818.979	23084.29
819.307	23192.54
819.636	23110.28
819.964	22972.88
820.292	23030.28
820.62	22947.12
820.948	22952.77
821.276	23017.4
821.604	22798.88
821.932	22903.96
822.259	22887.92
822.587	22894.24
822.915	22831.19
823.243	22950.06
823.57	22781.25
823.898	22848.82
824.225	22748.48
824.553	22702.16
824.88	22774.02
825.207	22950.06
825.535	22739.22
825.862	22868.93
826.189	22778.99
826.516	22913.68
826.843	22993.68
827.17	22872.77
827.497	22979.66
827.824	22841.36
828.151	22880.46
828.478	22795.49
828.805	22788.48
829.131	22741.03
829.458	22622.39
829.785	22538.55
830.111	22712.55
830.438	22832.55
830.764	22806.56
831.09	22769.95
831.417	22522.73
831.743	22632.55
832.069	22622.39
832.395	22476.63
832.722	22580.13
833.048	22574.25
833.374	22463.29
833.7	22408.38
834.026	22421.94
834.351	22519.34
834.677	22411.09
835.003	22447.7
835.329	22521.37
835.654	22417.65
835.98	22231.21
836.306	22253.13
836.631	22187.37
836.956	22305.33
837.282	22287.7
837.607	22200.48
837.932	22145.34
838.258	22146.69
838.583	22057.43
838.908	21965
839.233	21946.24
839.558	21967.71
839.883	21825.8
840.208	21805.68
840.533	21826.47
840.858	21806.36
841.182	21803.2
841.507	21784.22
841.832	21576.31
842.156	21642.3
842.481	21509.65
842.805	21520.95
843.13	21424.45
843.454	21382.19
843.778	21293.61
844.103	21289.77
844.427	21208.64
844.751	21195.76
845.075	21135.19
845.399	21031.24
845.723	21035.08
846.047	20993.73
846.371	20785.15
846.695	20812.72
847.019	20678.26
847.343	20580.63
847.666	20431.71
847.99	20426.06
848.313	20286.18
848.637	20224.26
848.96	20203.69
849.284	20187.42
849.607	20018.61
849.931	20037.14
850.254	19830.37
850.577	19738.17
850.9	19593.99
851.223	19608.45
851.546	19443.49
851.869	19344.28
852.192	19440.32
852.515	19272.87
852.838	19227.67
853.161	19136.15
853.483	19074
853.806	18968.47
854.129	18952.65
854.451	18848.02
854.774	18742.49
855.096	18756.05
855.419	18721.02
855.741	18578.88
856.063	18585.66
856.385	18485.09
856.708	18371.42
857.03	18368.03
857.352	18257.98
857.674	18262.27
857.996	18220.69
858.318	18059.57
858.64	18073.13
858.961	17994.71
859.283	18004.43
859.605	17791.78
859.926	17933.47
860.248	17835.39
860.57	17803.76
860.891	17737.54
861.212	17745.9
861.534	17585.91
861.855	17606.25
862.176	17762.63
862.498	17561.95
862.819	17574.16
863.14	17539.36
863.461	17524.89
863.782	17490.54
864.103	17459.58
864.424	17390.43
864.745	17417.1
865.065	17230.66
865.386	17286.71
865.707	17216.88
866.027	17257.33
866.348	17217.56
866.668	17158.12
866.989	17088.07
867.309	16982.08
867.63	17112.93
867.95	17026.15
868.27	16925.59
868.59	16966.71
868.91	16913.61
869.23	16932.82
869.55	16792.71
869.87	16896.66
870.19	16805.36
870.51	16899.82
870.83	16766.95
871.15	16593.62
871.469	16593.17
871.789	16628.87
872.109	16601.75
872.428	16480.17
872.748	16574.86
873.067	16484.02
873.386	16535.99
873.706	16471.81
874.025	16434.53
874.344	16375.09
874.663	16459.61
874.982	16376
875.301	16233.17
875.62	16194.53
875.939	16150.92
876.258	16250.35
876.577	16213.74
876.896	16178.71
877.214	16053.29
877.533	16109.79
877.852	16059.62
878.17	16134.42
878.489	16074.76
878.807	16075.21
879.125	16015.78
879.444	15981.43
879.762	15937.36
880.08	15992.05
880.398	15861.43
880.716	15849.46
881.034	15822.56
881.352	15860.76
881.67	15783.47
881.988	15800.42
882.306	15737.37
882.624	15653.53
882.941	15511.39
883.259	15430.94
883.577	15405.4
883.894	15365.63
884.212	15433.65
884.529	15369.02
884.846	15317.27
885.164	15351.62
885.481	15299.19
885.798	15233.65
886.115	15136.48
886.432	15165.41
886.75	15087.89
887.067	15103.94
887.383	15039.31
887.7	14980.1
888.017	15037.73
888.334	14988.69
888.651	15005.18
888.967	14862.82
889.284	14829.37
889.6	14785.76
889.917	14704.4
890.233	14675.7
890.55	14582.14
890.866	14651.97
891.182	14536.95
891.498	14543.95
891.815	14435.71
892.131	14363.17
892.447	14326.56
892.763	14249.95
893.079	14291.08
893.395	14264.87
893.71	14234.81
894.026	14245.88
894.342	14195.26
894.657	14150.74
894.973	14101.93
895.289	14023.52
895.604	13950.97
895.92	13859.9
896.235	13889.06
896.55	13815.84
896.865	13831.66
897.181	13703.52
897.496	13726.35
897.811	13671.43
898.126	13615.84
898.441	13608.39
898.756	13545.56
899.071	13450.65
899.386	13421.05
899.7	13321.16
900.015	13276.64
900.33	13158.23
900.644	13180.83
900.959	13252.01
901.273	13192.8
901.588	13109.64
901.902	12911.91
902.216	12879.59
902.531	12909.42
902.845	12835.98
903.159	12755.98
903.473	12655.87
903.787	12681.86
904.101	12574.29
904.415	12621.97
904.729	12540.39
905.042	12445.7
905.356	12464.23
905.67	12434.18
905.984	12470.79
906.297	12324.35
906.611	12284.13
906.924	12287.52
907.237	12243.9
907.551	12189.67
907.864	12062.21
908.177	12060.4
908.491	12081.19
908.804	11923.91
909.117	11884.81
909.43	11864.02
909.743	11747.42
910.056	11702.9
910.368	11758.26
910.681	11604.14
910.994	11584.26
911.307	11555.78
911.619	11467.65
911.932	11578.61
912.244	11443.7
912.557	11383.13
912.869	11285.28
913.181	11297.49
913.494	11279.18
913.806	11259.97
914.118	11211.84
914.43	11169.35
914.742	11067.43
915.054	10979.08
915.366	10935.24
915.678	10923.48
915.99	10867.21
916.302	10783.15
916.613	10683.26
916.925	10749.7
917.236	10795.13
917.548	10723.26
917.859	10712.19
918.171	10516.72
918.482	10436.27
918.794	10472.65
919.105	10417.73
919.416	10384.29
919.727	10340.45
920.038	10274.69
920.349	10185.42
920.66	10142.49
920.971	10183.84
921.282	10046.22
921.593	10081.47
921.903	9946.79
922.214	9920.57
922.525	9944.75
922.835	9890.97
923.146	9749.96
923.456	9788.37
923.767	9742.95
924.077	9731.88
924.387	9654.14
924.697	9601.94
925.008	9599.23
925.318	9564.42
925.628	9482.62
925.938	9482.17
926.248	9366.01
926.558	9315.62
926.867	9325.56
927.177	9214.6
927.487	9217.77
927.796	9126.02
928.106	9127.82
928.416	9088.05
928.725	9175.06
929.034	9021.16
929.344	8990.65
929.653	8969.41
929.962	8870.43
930.271	8883.31
930.581	8864.1
930.89	8815.06
931.199	8780.72
931.508	8787.49
931.817	8665.69
932.125	8731.68
932.434	8612.13
932.743	8532.13
933.051	8537.11
933.36	8480.38
933.669	8462.76
933.977	8328.75
934.286	8400.84
934.594	8325.36
934.902	8274.51
935.21	8260.5
935.519	8248.98
935.827	8261.41
936.135	8182.99
936.443	8100.06
936.751	8052.82
937.059	8063.22
937.367	7986.61
937.674	7921.3
937.982	7929.66
938.29	7957.91
938.597	7948.42
938.905	7842.21
939.213	7782.78
939.52	7774.41
939.827	7793.4
940.135	7740.06
940.442	7729.67
940.749	7664.81
941.056	7672.95
941.363	7543.69
941.67	7522.44
941.977	7417.36
942.284	7480.86
942.591	7470.02
942.898	7370.81
943.205	7383.46
943.511	7397.02
943.818	7290.59
944.125	7239.97
944.431	7193.41
944.738	7141.66
945.044	7183.24
945.35	7144.15
945.657	7059.4
945.963	7035
946.269	7070.48
946.575	7069.57
946.881	6946.41
947.187	6905.51
947.493	6889.01
947.799	6873.65
948.105	6798.62
948.41	6801.11
948.716	6771.95
949.022	6693.99
949.327	6690.83
949.633	6697.61
949.938	6648.12
950.244	6647.21
950.549	6561.34
950.854	6575.8
951.16	6520.66
951.465	6512.98
951.77	6427.56
952.075	6461.68
952.38	6432.75
952.685	6356.37
952.99	6267.79
953.294	6371.97
953.599	6298.07
953.904	6228.92
954.209	6177.17
954.513	6204.51
954.818	6180.78
955.122	6185.76
955.426	6141.69
955.731	6070.5
956.035	6068.02
956.339	6044.74
956.643	6028.47
956.948	5991.41
957.252	5967.46
957.556	5921.58
957.86	5908.93
958.163	5948.25
958.467	5879.1
958.771	5844.07
959.075	5863.05
959.378	5806.56
959.682	5767.91
959.985	5774.47
960.289	5721.36
960.592	5652.66
960.896	5655.83
961.199	5661.7
961.502	5609.5
961.805	5613.34
962.108	5543.29
962.411	5534.7
962.714	5513.68
963.017	5466.68
963.32	5491.31
963.623	5390.75
963.926	5415.83
964.228	5406.57
964.531	5411.54
964.833	5399.79
965.136	5315.5
965.438	5278.66
965.741	5295.38
966.043	5249.73
966.345	5249.28
966.648	5240.92
966.95	5188.27
967.252	5137.87
967.554	5153.01
967.856	5115.73
968.158	5083.41
968.46	5078.67
968.761	5048.38
969.063	4981.72
969.365	4997.99
969.666	5030.98
969.968	4952.57
970.269	4888.84
970.571	4913.47
970.872	4870.08
971.174	4849.52
971.475	4828.95
971.776	4834.38
972.077	4781.72
972.378	4798
972.679	4705.12
972.98	4737.43
973.281	4650.88
973.582	4688.62
973.883	4671.67
974.183	4618.79
974.484	4654.5
974.785	4559.13
975.085	4556.87
975.386	4588.74
975.686	4516.87
975.986	4500.38
976.287	4464.67
976.587	4449.76
976.887	4452.92
977.187	4414.28
977.487	4426.25
977.787	4391.23
978.087	4360.04
978.387	4335.18
978.687	4332.02
978.987	4283.43
979.286	4262.42
979.586	4240.72
979.885	4217.9
980.185	4213.38
980.484	4217.45
980.784	4201.85
981.083	4181.74
981.382	4180.16
981.682	4153.04
981.981	4135.19
982.28	4138.35
982.579	4106.04
982.878	4027.17
983.177	4017.68
983.475	4028.3
983.774	3963.44
984.073	3980.84
984.372	3960.73
984.67	3940.62
984.969	3947.17
985.267	3914.85
985.566	3909.66
985.864	3861.97
986.162	3877.79
986.461	3832.6
986.759	3835.99
987.057	3783.11
987.355	3783.56
987.653	3786.04
987.951	3771.81
988.249	3760.28
988.547	3729.55
988.844	3719.38
989.142	3687.06
989.44	3652.71
989.737	3640.96
990.035	3606.61
990.332	3630.12
990.63	3595.54
990.927	3549.44
991.224	3560.29
991.521	3525.94
991.819	3555.77
992.116	3553.96
992.413	3501.08
992.71	3472.83
993.006	3439.61
993.303	3453.17
993.6	3405.72
993.897	3409.33
994.193	3375.89
994.49	3391.48
994.787	3335.21
995.083	3338.15
995.379	3333.63
995.676	3282.55
995.972	3298.37
996.268	3290.01
996.565	3235.55
996.861	3234.19
997.157	3233.06
997.453	3214.99
997.749	3155.78
998.044	3189.9
998.34	3146.97
998.636	3127.53
998.932	3141.99
999.227	3092.5
999.523	3074.65
999.818	3050.7
1000.114	3054.54
1000.409	3004.6
1000.704	2989.68
1001	3000.75
1001.295	2968.89
1001.59	2963.69
1001.885	2987.42
1002.18	2933.41
1002.475	2926.86
1002.77	2933.86
1003.065	2890.25
1003.359	2830.14
1003.654	2839.18
1003.949	2818.16
1004.243	2802.34
1004.538	2792.4
1004.832	2773.42
1005.127	2744.49
1005.421	2760.53
1005.715	2712.85
1006.009	2690.93
1006.304	2652.97
1006.598	2642.12
1006.892	2703.59
1007.186	2615.91
1007.48	2624.95
1007.773	2630.37
1008.067	2591.27
1008.361	2563.25
1008.655	2608.9
1008.948	2531.61
1009.242	2569.13
1009.535	2517.6
1009.829	2517.83
1010.122	2475.57
1010.415	2465.63
1010.708	2481.45
1011.001	2453.88
1011.295	2469.02
1011.588	2415.69
1011.881	2391.5
1012.173	2398.96
1012.466	2389.25
1012.759	2355.57
1013.052	2350.38
1013.344	2354.67
1013.637	2353.31
1013.93	2317.16
1014.222	2278.29
1014.514	2296.14
1014.807	2311.06
1015.099	2229.7
1015.391	2233.09
1015.683	2213.2
1015.976	2202.36
1016.268	2175.92
1016.56	2205.97
1016.851	2152.19
1017.143	2147.9
1017.435	2140.89
1017.727	2114
1018.018	2123.94
1018.31	2098.41
1018.602	2086.65
1018.893	2068.35
1019.185	2051.17
1019.476	2050.72
1019.767	2002.81
1020.058	1989.93
1020.35	1991.97
1020.641	1973.21
1020.932	1950.39
1021.223	1971.63
1021.514	1944.06
1021.804	1921.91
1022.095	1928.24
1022.386	1878.07
1022.677	1880.33
1022.967	1845.76
1023.258	1844.4
1023.548	1834.91
1023.839	1832.2
1024.129	1831.07
1024.419	1791.52
1024.709	1800.11
1025	1780
1025.29	1787
1025.58	1742.93
1025.87	1737.06
1026.16	1750.39
1026.449	1733.44
1026.739	1706.55
1027.029	1709.94
1027.319	1691.86
1027.608	1657.29
1027.898	1648.02
1028.187	1645.08
1028.477	1623.84
1028.766	1620.68
1029.055	1608.93
1029.344	1594.24
1029.634	1622.71
1029.923	1611.41
1030.212	1591.75
1030.501	1571.64
1030.79	1537.52
1031.078	1525.76
1031.367	1533
1031.656	1547.46
1031.945	1481.25
1032.233	1460.23
1032.522	1499.55
1032.81	1478.31
1033.099	1475.37
1033.387	1464.52
1033.675	1433.11
1033.963	1443.06
1034.251	1411.87
1034.54	1438.76
1034.828	1382.49
1035.116	1397.18
1035.403	1380.23
1035.691	1361.02
1035.979	1350.63
1036.267	1323.96
1036.554	1352.44
1036.842	1322.83
1037.129	1315.83
1037.417	1314.7
1037.704	1313.57
1037.992	1307.47
1038.279	1316.73
1038.566	1273.57
1038.853	1273.57
1039.14	1273.57
