Data from plate_ceramic_FLMS001491_085.txt Node
Date: Tue Feb 07 11:17:25 GMT 2017
User: dcchb
Spectrometer: FLMS00149
Trigger mode: 0
Integration Time (sec): 2.000000E-2
Scans to average: 10
Electric dark correction enabled: true
Nonlinearity correction enabled: false
Boxcar width: 0
XAxis mode: Wavelengths
Number of Pixels in Spectrum: 2048
>>>>>Begin Spectral Data<<<<<
341.393	-17.34
341.776	-17.34
342.16	-17.34
342.543	-52.37
342.927	-76.55
343.31	-53.73
343.693	-68.64
344.077	-51.24
344.46	-50.34
344.843	-37
345.226	-58.93
345.61	-40.85
345.993	-25.48
346.376	1.41
346.759	-2.43
347.142	24.91
347.525	35.54
347.908	50.68
348.291	79.83
348.674	86.61
349.057	109.66
349.44	125.93
349.823	141.52
350.206	161.41
350.588	212.93
350.971	214.74
351.354	260.39
351.737	239.37
352.119	266.49
352.502	264.68
352.884	292.93
353.267	303.1
353.65	287.73
354.032	310.33
354.414	316.43
354.797	311.46
355.179	331.57
355.562	334.51
355.944	334.51
356.326	348.07
356.709	349.88
357.091	346.04
357.473	367.96
357.855	366.37
358.238	349.88
358.62	353.49
359.002	372.48
359.384	347.84
359.766	358.69
360.148	370.67
360.53	354.85
360.912	368.86
361.294	351.23
361.676	346.04
362.057	351.46
362.439	345.81
362.821	343.1
363.203	340.39
363.584	334.28
363.966	338.8
364.348	331.57
364.729	341.29
365.111	335.64
365.493	330.44
365.874	343.78
366.256	350.33
366.637	362.08
367.019	334.74
367.4	340.39
367.781	329.09
368.163	341.74
368.544	339.71
368.925	339.93
369.306	345.36
369.688	350.56
370.069	346.26
370.45	332.25
370.831	342.87
371.212	354.85
371.593	358.92
371.974	361.63
372.355	369.31
372.736	369.76
373.117	382.42
373.498	346.49
373.879	353.04
374.26	361.18
374.641	351.23
375.021	350.1
375.402	373.61
375.783	374.06
376.163	406.6
376.544	399.14
376.925	357.56
377.305	390.78
377.686	390.33
378.066	388.52
378.447	393.94
378.827	379.93
379.208	403.44
379.588	401.18
379.968	377.22
380.349	400.05
380.729	398.46
381.109	419.71
381.489	406.15
381.87	425.81
382.25	399.82
382.63	406.6
383.01	417.22
383.39	412.25
383.77	430.78
384.15	440.27
384.53	426.94
384.91	438.92
385.29	435.3
385.67	445.92
386.049	438.46
386.429	443.89
386.809	445.47
387.189	455.41
387.568	439.59
387.948	469.42
388.328	482.53
388.707	483.21
389.087	486.6
389.466	464.45
389.846	487.28
390.225	489.99
390.605	489.31
390.984	481.17
391.363	489.31
391.743	504.45
392.122	499.03
392.501	500.16
392.881	514.85
393.26	526.37
393.639	524.11
394.018	531.79
394.397	536.31
394.776	522.3
395.155	552.13
395.534	543.77
395.913	546.48
396.292	562.53
396.671	556.65
397.05	550.55
397.429	552.13
397.808	577.89
398.186	594.17
398.565	578.57
398.944	582.41
399.323	598.46
399.701	610.66
400.08	638.23
400.458	604.79
400.837	612.7
401.215	634.84
401.594	649.53
401.972	645.24
402.351	631
402.729	647.95
403.107	638.46
403.486	657.89
403.864	648.63
404.242	649.98
404.62	677.78
404.999	667.16
405.377	671.45
405.755	684.56
406.133	703.54
406.511	711.9
406.889	702.41
407.267	720.26
407.645	724.56
408.023	732.92
408.401	731.34
408.779	740.15
409.156	760.71
409.534	789.64
409.912	793.93
410.29	788.96
410.667	811.79
411.045	828.51
411.422	822.86
411.8	842.97
412.178	843.42
412.555	838.45
412.933	856.31
413.31	886.59
413.687	860.15
414.065	867.6
414.442	898.56
414.819	923.87
415.197	913.93
415.574	947.15
415.951	924.1
416.328	967.26
416.705	963.65
417.082	969.52
417.46	947.38
417.837	968.84
418.214	1000.03
418.591	1020.59
418.967	1022.18
419.344	1038.67
419.721	1023.53
420.098	1032.57
420.475	1051.55
420.852	1077.09
421.228	1061.72
421.605	1109.18
421.982	1094.94
422.358	1116.64
422.735	1127.26
423.111	1136.52
423.488	1160.7
423.864	1150.31
424.241	1157.09
424.617	1194.83
424.994	1185.11
425.37	1188.73
425.746	1207.93
426.123	1223.08
426.499	1247.93
426.875	1253.13
427.251	1266.24
427.627	1290.87
428.003	1327.48
428.379	1306.01
428.756	1338.78
429.132	1364.09
429.507	1334.71
429.883	1408.38
430.259	1397.53
430.635	1418.78
431.011	1406.8
431.387	1458.78
431.763	1473.01
432.138	1466.91
432.514	1506.01
432.89	1514.14
433.265	1554.14
433.641	1564.99
434.016	1572.22
434.392	1604.76
434.767	1620.58
435.143	1630.07
435.518	1666
435.894	1668.94
436.269	1696.74
436.644	1676.62
437.02	1706.9
437.395	1743.06
437.77	1755.94
438.145	1771.54
438.52	1771.08
438.895	1810.4
439.271	1798.88
439.646	1866.67
440.021	1880.01
440.395	1896.73
440.77	1870.29
441.145	1873.68
441.52	1928.37
441.895	1946.22
442.27	1940.34
442.645	1966.78
443.019	1985.77
443.394	1963.62
443.769	1963.39
444.143	1979.89
444.518	2033
444.892	2026.22
445.267	2049.04
445.641	2059.66
446.016	2088.59
446.39	2110.96
446.764	2129.04
447.139	2118.42
447.513	2118.42
447.887	2117.97
448.262	2183.28
448.636	2185.76
449.01	2214.46
449.384	2213.11
449.758	2246.1
450.132	2272.77
450.506	2274.35
450.88	2293.56
451.254	2314.12
451.628	2289.26
452.002	2364.29
452.376	2377.17
452.75	2372.88
453.123	2431.86
453.497	2466.66
453.871	2482.03
454.244	2548.92
454.618	2573.77
454.992	2569.03
455.365	2560.67
455.739	2625.07
456.112	2636.82
456.486	2707.78
456.859	2758.63
457.232	2792.3
457.606	2763.15
457.979	2779.64
458.352	2887.44
458.725	2908.45
459.099	2901.9
459.472	2980.32
459.845	3015.34
460.218	3057.15
460.591	3081.56
460.964	3032.07
461.337	3183.25
461.71	3213.76
462.083	3250.59
462.456	3262.12
462.829	3260.31
463.201	3330.14
463.574	3292.85
463.947	3367.2
464.32	3452.4
464.692	3510.47
465.065	3524.03
465.438	3564.93
465.81	3592.73
466.183	3634.31
466.555	3755.44
466.928	3753.18
467.3	3759.96
467.672	3842.67
468.045	3943.91
468.417	3929.9
468.789	3950.46
469.161	3989.33
469.534	4046.28
469.906	4216.89
470.278	4193.84
470.65	4251.7
471.022	4321.07
471.394	4418.7
471.766	4420.96
472.138	4512.03
472.51	4617.79
472.882	4684.68
473.253	4729.65
473.625	4784.34
473.997	4870.21
474.369	4939.36
474.74	4989.3
475.112	5073.14
475.484	5172.12
475.855	5246.25
476.227	5291.44
476.598	5404.89
476.97	5442.63
477.341	5581.38
477.713	5677.65
478.084	5728.72
478.455	5909.96
478.827	5927.13
479.198	6115.15
479.569	6146.79
479.94	6277.86
480.311	6325.31
480.682	6506.55
481.053	6595.14
481.424	6750.61
481.795	6757.84
482.166	6896.15
482.537	6979.99
482.908	7100.43
483.279	7186.08
483.65	7347.89
484.021	7499.52
484.391	7578.39
484.762	7665.17
485.133	7669.01
485.503	7873.75
485.874	7991.71
486.244	8084.59
486.615	8257.69
486.985	8297.47
487.356	8536.56
487.726	8594.86
488.097	8734.52
488.467	8789.66
488.837	8969.54
489.207	9074.85
489.578	9137.67
489.948	9332.01
490.318	9472.12
490.688	9466.93
491.058	9601.39
491.428	9732.68
491.798	9868.95
492.168	10035.27
492.538	10072.33
492.908	10245.44
493.278	10395.49
493.648	10373.57
494.017	10494.24
494.387	10542.6
494.757	10637.06
495.126	10809.72
495.496	10853.33
495.866	11013.33
496.235	11110.95
496.605	11183.27
496.974	11252.87
497.344	11370.83
497.713	11395.24
498.082	11506.87
498.452	11717.04
498.821	11655.8
499.19	11771.72
499.559	11929.69
499.928	11976.24
500.298	12063.24
500.667	12146.18
501.036	12233.18
501.405	12394.53
501.774	12377.13
502.143	12502.78
502.512	12578.26
502.88	12688.31
503.249	12719.04
503.618	12843.11
503.987	12855.31
504.356	12993.61
504.724	13011.01
505.093	13111.35
505.462	13145.7
505.83	13270.44
506.199	13460.27
506.567	13640.6
506.936	13619.59
507.304	13755.4
507.672	13753.37
508.041	13875.17
508.409	13915.85
508.777	14051.89
509.145	14341.37
509.514	14260.25
509.882	14435.61
510.25	14436.29
510.618	14567.36
510.986	14705.21
511.354	14749.5
511.722	14903.85
512.09	14978.65
512.458	14965.09
512.826	15150.84
513.193	15321.69
513.561	15332.99
513.929	15391.52
514.297	15546.54
514.664	15716.48
515.032	15735.24
515.4	16029.69
515.767	16027.66
516.135	16113.98
516.502	15990.37
516.869	16344.49
517.237	16476.46
517.604	16447.76
517.972	16693.18
518.339	16837.35
518.706	16853.85
519.073	16956.45
519.44	17109.44
519.808	17287.74
520.175	17251.81
520.542	17630.1
520.909	17540.84
521.276	17749.87
521.643	17979.47
522.009	18056.08
522.376	18146.02
522.743	18230.54
523.11	18441.15
523.477	18560.25
523.843	18791.88
524.21	18887.92
524.577	19124.3
524.943	19173.56
525.31	19299.66
525.676	19507.57
526.043	19582.37
526.409	19728.8
526.776	19876.6
527.142	20003.6
527.508	20157.04
527.874	20330.14
528.241	20399.07
528.607	20476.58
528.973	20667.76
529.339	20706.18
529.705	20886.96
530.071	21121.54
530.437	21193.62
530.803	21412.37
531.169	21596.1
531.535	21480.17
531.901	21656.66
532.267	21726.04
532.632	21901.63
532.998	21892.81
533.364	22156.99
533.73	22117.22
534.095	22340.26
534.461	22433.36
534.826	22589.75
535.192	22727.82
535.557	22821.15
535.923	22854.14
536.288	22985.44
536.653	23009.85
537.019	23068.15
537.384	23216.17
537.749	23386.33
538.114	23401.7
538.479	23282.61
538.845	23578.65
539.21	23505.65
539.575	23698.64
539.94	23741.81
540.305	23935.7
540.67	23896.38
541.034	24041.46
541.399	24165.3
541.764	24265.86
542.129	24308.8
542.494	24432.86
542.858	24597.38
543.223	24500.66
543.587	24837.14
543.952	24738.62
544.316	24963.69
544.681	24758.28
545.045	25043.92
545.41	25143.35
545.774	25110.13
546.138	25160.3
546.503	25363.23
546.867	25446.17
547.231	25699.49
547.595	25738.14
547.959	25908.3
548.324	25732.26
548.688	25904.01
549.052	26101.29
549.416	26186.71
549.779	26252.02
550.143	26261.96
550.507	26448.85
550.871	26499.25
551.235	26549.41
551.599	26861.72
551.962	26802.97
552.326	26855.85
552.689	27034.83
553.053	27046.13
553.417	27131.09
553.78	27537.41
554.143	27426.23
554.507	27581.7
554.87	27598.88
555.234	27785.77
555.597	27853.79
555.96	27929.27
556.323	28069.37
556.686	28171.29
557.05	28594.33
557.413	28555.69
557.776	28583.49
558.139	28745.06
558.502	28837.04
558.865	28870.94
559.228	29084.72
559.59	29236.35
559.953	29273.19
560.316	29656
560.679	29613.97
561.041	29784.81
561.404	29953.39
561.767	30190.22
562.129	30177.57
562.492	30388.18
562.854	30528.29
563.217	30654.62
563.579	30638.12
563.941	31031.78
564.304	31045.12
564.666	31107.94
565.028	31234.94
565.39	31518.55
565.753	31537.08
566.115	31544.54
566.477	31761.48
566.839	31813.68
567.201	32109.49
567.563	32162.83
567.925	32580.67
568.287	32531.86
568.648	32436.72
569.01	32702.7
569.372	32898.4
569.734	32805.75
570.095	33269.46
570.457	33215.68
570.819	33303.36
571.18	33289.12
571.542	33497.25
571.903	33517.14
572.265	33657.25
572.626	33840.07
572.987	33980.63
573.349	33999.61
573.71	34258.14
574.071	34283.22
574.432	34372.03
574.794	34643.44
575.155	34532.71
575.516	34460.39
575.877	34708.97
576.238	34844.79
576.599	34769.99
576.96	34886.14
577.32	34947.61
577.681	35059.02
578.042	35218.34
578.403	35297.89
578.763	35331.33
579.124	35367.26
579.485	35486.36
579.845	35555.51
580.206	35538.56
580.566	35560.25
580.927	35539.91
581.287	35652.9
581.648	35503.98
582.008	35689.97
582.368	35532.91
582.728	35688.16
583.089	35786.01
583.449	35742.39
583.809	35941.03
584.169	35932.22
584.529	35815.84
584.889	36012.89
585.249	35896.97
585.609	35974.7
585.969	36102.84
586.329	35891.32
586.688	36039.33
587.048	35948.04
587.408	35800.92
587.768	36023.29
588.127	35923.86
588.487	35935.83
588.846	36194.36
589.206	35925.67
589.565	36015.83
589.925	36115.04
590.284	36065.1
590.643	36070.07
591.003	36269.84
591.362	36330.85
591.721	36205.66
592.08	36300.12
592.44	36376.05
592.799	36468.48
593.158	36280.91
593.517	36339.44
593.876	36447.69
594.235	36415.37
594.593	36407.01
594.952	36554.58
595.311	36347.35
595.67	36564.97
596.029	36729.49
596.387	36621.92
596.746	36701.46
597.104	36512.32
597.463	36603.16
597.822	36715.48
598.18	36549.6
598.538	36618.98
598.897	36745.76
599.255	36562.94
599.613	37025.3
599.972	36846.77
600.33	37020.78
600.688	36847
601.046	36945.53
601.404	37089.48
601.762	37018.97
602.12	37092.87
602.478	37170.15
602.836	37091.06
603.194	37058.97
603.552	37117.72
603.91	37024.85
604.268	37364.95
604.625	37065.97
604.983	37218.96
605.341	37213.99
605.698	37451.05
606.056	37351.84
606.413	37365.18
606.771	37499.41
607.128	37570.59
607.485	37398.62
607.843	37566.98
608.2	37675.68
608.557	37572.4
608.914	37589.12
609.272	37708.22
609.629	37806.07
609.986	37944.6
610.343	37654.21
610.7	38179.84
611.057	38032.73
611.414	37938.27
611.771	37973.75
612.127	38295.32
612.484	38126.96
612.841	38234.98
613.198	38149.34
613.554	38244.7
613.911	38328.77
614.267	38351.59
614.624	38378.48
614.98	38523.56
615.337	38623.45
615.693	38523.79
616.05	38460.06
616.406	38763.33
616.762	38523.56
617.118	38570.57
617.475	38590
617.831	38654.86
618.187	38728.08
618.543	38614.86
618.899	38945.7
619.255	38729.89
619.611	38854.85
619.967	38930.33
620.323	39095.53
620.678	38883.33
621.034	38844.46
621.39	38796.78
621.746	38858.24
622.101	39339.14
622.457	38880.16
622.812	39088.07
623.168	39173.72
623.523	39046.71
623.879	39155.64
624.234	38838.81
624.589	39085.13
624.945	38992.03
625.3	39034.51
625.655	38877.23
626.01	39035.41
626.365	38928.52
626.72	39005.13
627.075	39030.67
627.43	38929.88
627.785	38890.56
628.14	38914.06
628.495	38923.55
628.85	38938.47
629.205	38800.62
629.559	39087.39
629.914	38780.51
630.269	38972.59
630.623	38809.88
630.978	38676.78
631.332	38852.82
631.687	38839.26
632.041	38562.43
632.396	38835.42
632.75	38538.93
633.104	38601.75
633.459	38559.72
633.813	38437.24
634.167	38390.46
634.521	38486.05
634.875	38333.96
635.229	38373.06
635.583	38225.04
635.937	38297.58
636.291	38160.64
636.645	38292.61
636.999	38143.91
637.352	38281.54
637.706	38011.71
638.06	38082.22
638.413	38015.1
638.767	37896.01
639.121	37910.25
639.474	37687.88
639.828	37759.29
640.181	37702.57
640.534	37878.38
640.888	37647.2
641.241	37510.71
641.594	37558.62
641.947	37600.88
642.301	37421.67
642.654	37579.18
643.007	37516.81
643.36	37461.22
643.713	37362.24
644.066	37476.81
644.419	37259.19
644.771	36795.25
645.124	36446.1
645.477	36297.86
645.83	36233.23
646.182	36266.67
646.535	36153.91
646.888	36351.19
647.24	36040.46
647.593	36320.91
647.945	36229.16
648.298	35955.72
648.65	35970.41
649.002	35858.1
649.355	35994.14
649.707	35888.38
650.059	35915.27
650.411	36164.08
650.763	36209.95
651.115	36767
651.467	36569.26
651.819	36751.63
652.171	36547.57
652.523	36423.96
652.875	36470.51
653.227	36175.6
653.578	36472.32
653.93	36339.21
654.282	36228.71
654.633	36204.98
654.985	36267.58
655.337	36236.84
655.688	36203.17
656.039	36239.56
656.391	35898.77
656.742	35986.68
657.094	35900.36
657.445	36214.7
657.796	36076.4
658.147	35842.05
658.498	35898.77
658.849	36074.14
659.2	35906.46
659.551	35842.73
659.902	35944.42
660.253	35957.08
660.604	35918.43
660.955	35817.65
661.306	35767.93
661.656	35813.35
662.007	35725.22
662.358	35768.16
662.708	35719.8
663.059	35750.3
663.409	35482.29
663.76	35706.01
664.11	35788.27
664.461	35836.63
664.811	35660.59
665.161	35804.54
665.511	35672.79
665.862	35744.43
666.212	35681.6
666.562	35715.05
666.912	35636.63
667.262	35480.48
667.612	35524.77
667.962	35493.59
668.312	35328.85
668.662	35581.04
669.011	35408.39
669.361	35405.23
669.711	35365.91
670.06	35437.77
670.41	35302.86
670.76	35207.72
671.109	35321.61
671.459	35322.07
671.808	35287.49
672.157	35261.73
672.507	35108.29
672.856	35021.28
673.205	35106.03
673.554	35288.62
673.904	34993.26
674.253	35158
674.602	35217.21
674.951	34714.85
675.3	34512.82
675.649	35057.21
675.998	35043.65
676.346	34871.46
676.695	35131.34
677.044	34861.74
677.393	34933.6
677.741	35003.66
678.09	34902.64
678.438	34607.73
678.787	34824.23
679.135	34834.85
679.484	34514.86
679.832	34719.14
680.181	34459.49
680.529	34543.55
680.877	34452.48
681.225	34511.47
681.573	34732.93
681.922	34447.29
682.27	34300.85
682.618	34335.65
682.966	34102.21
683.314	34386.27
683.661	34092.27
684.009	34120.74
684.357	33907.19
684.705	33912.84
685.053	33804.37
685.4	33864.93
685.748	33735.21
686.095	33649.12
686.443	33661.77
686.79	33544.71
687.138	33547.2
687.485	33570.25
687.832	33427.43
688.18	33350.14
688.527	33248.22
688.874	33198.05
689.221	33173.2
689.568	33010.26
689.915	33033.54
690.262	33014.1
690.609	32891.85
690.956	32797.61
691.303	32772.98
691.65	32701.34
691.997	32618.18
692.344	32421.12
692.69	32459.54
693.037	32481.91
693.383	32102.49
693.73	32450.73
694.077	32161.02
694.423	32077.86
694.769	32045.32
695.116	31987.92
695.462	31750.63
695.808	31770.75
696.155	31756.96
696.501	31432.9
696.847	31543.63
697.193	31290.99
697.539	31320.14
697.885	31180.48
698.231	31230.2
698.577	31142.06
698.923	30921.28
699.269	30868.85
699.614	30683.77
699.96	30593.15
700.306	30755.63
700.651	30609.42
700.997	30539.14
701.342	30537.56
701.688	30361.97
702.033	30292.14
702.379	30217.79
702.724	30123.33
703.069	30228.64
703.415	29897.12
703.76	29852.6
704.105	29952.94
704.45	29823
704.795	29649.22
705.14	29597.02
705.485	29548.21
705.83	29495.78
706.175	29561.99
706.52	29419.85
706.865	29378.72
707.209	29225.28
707.554	29018.28
707.899	29103.47
708.243	29136.92
708.588	29103.47
708.932	28840.88
709.277	28823.25
709.621	28868
709.966	28657.83
710.31	28697.38
710.654	28543.94
710.998	28625.29
711.342	28521.57
711.687	28304.17
712.031	28292.42
712.375	28150.5
712.719	28319.31
713.063	28128.36
713.407	28229.37
713.75	27939.66
714.094	28041.58
714.438	27888.36
714.782	27940.34
715.125	27740.34
715.469	27881.13
715.812	27694.7
716.156	27507.13
716.499	27499.67
716.843	27604.98
717.186	27408.38
717.53	27477.07
717.873	27483.63
718.216	27400.69
718.559	27316.17
718.902	27066.24
719.246	27271.2
719.589	27055.62
719.932	27030.53
720.275	27047.48
720.617	26857.43
720.96	26898.78
721.303	26856.53
721.646	26843.87
721.989	26596.42
722.331	26777.21
722.674	26625.35
723.016	26728.17
723.359	26538.57
723.701	26728.62
724.044	26330.44
724.386	26331.57
724.729	26460.83
725.071	26372.02
725.413	26252.02
725.755	26263.09
726.097	26099.94
726.439	26025.13
726.782	26027.85
727.124	26150.33
727.465	26013.16
727.807	25957.11
728.149	25937.45
728.491	25927.06
728.833	25880.05
729.175	25786.27
729.516	25690.45
729.858	25753.5
730.199	25773.39
730.541	25762.09
730.882	25719.38
731.224	25772.94
731.565	25584.24
731.906	25480.74
732.248	25400.07
732.589	25337.92
732.93	25253.86
733.271	25395.09
733.612	25184.71
733.953	25311.71
734.294	25307.87
734.635	25196.68
734.976	25246.4
735.317	25148.77
735.658	25084.82
735.999	25091.37
736.339	25071.94
736.68	25043.01
737.021	24939.06
737.361	24800.99
737.702	24999.63
738.042	24778.61
738.383	24831.95
738.723	24753.08
739.063	24754.21
739.404	24810.93
739.744	24603.93
740.084	24543.82
740.424	24708.79
740.764	24556.02
741.104	24659.97
741.444	24456.14
741.784	24411.84
742.124	24411.17
742.464	24378.17
742.804	24268.12
743.143	24240.32
743.483	24194.9
743.823	24104.06
744.162	24115.58
744.502	24158.29
744.841	24044.62
745.181	24062.02
745.52	23932.31
745.86	23907.22
746.199	23944.29
746.538	23910.16
746.877	23839.88
747.216	23814.35
747.556	23660
747.895	23810.73
748.234	23627.23
748.573	23648.02
748.911	23593.33
749.25	23541.36
749.589	23450.74
749.928	23466.11
750.267	23511.08
750.605	23222.72
750.944	23221.59
751.283	23159.45
751.621	23288.26
751.96	23164.42
752.298	23064.76
752.636	23141.59
752.975	22988.15
753.313	23011.2
753.651	23031.77
753.989	22892.79
754.327	22909.51
754.666	22724.43
755.004	22786.35
755.342	22834.71
755.679	22668.61
756.017	22582.97
756.355	22623.87
756.693	22477.88
757.031	22502.52
757.368	22352.92
757.706	22375.29
758.044	22335.74
758.381	22256.42
758.719	22202.18
759.056	22260.94
759.394	22137.33
759.731	21952.93
760.068	21936.2
760.405	21871.8
760.743	21769.43
761.08	21870.44
761.417	21694.18
761.754	21694.18
762.091	21615.08
762.428	21655.98
762.765	21381.19
763.102	21366.73
763.438	21360.17
763.775	21271.36
764.112	21229.1
764.449	21210.57
764.785	21123.57
765.122	21046.06
765.458	20971.03
765.795	20942.78
766.131	20898.26
766.467	20815.33
766.804	20606.97
767.14	20529.23
767.476	20499.4
767.812	20439.75
768.148	20417.82
768.485	20313.19
768.821	20225.74
769.157	20187.55
769.492	20153.42
769.828	20075.91
770.164	20031.62
770.5	19830.95
770.836	19899.65
771.171	19776.03
771.507	19704.4
771.842	19658.52
772.178	19749.82
772.513	19466.44
772.849	19357.06
773.184	19313.22
773.519	19371.07
773.855	19237.97
774.19	19167.24
774.525	19181.02
774.86	19057.86
775.195	18973.34
775.53	18887.24
775.865	18832.78
776.2	18760.24
776.535	18605.67
776.87	18473.7
777.205	18480.93
777.539	18603.18
777.874	18430.31
778.209	18307.6
778.543	18235.51
778.878	18146.25
779.212	18116.64
779.547	18045.46
779.881	18103.99
780.215	17952.8
780.55	17931.56
780.884	17813.15
781.218	17738.35
781.552	17712.81
781.886	17655.19
782.22	17529.09
782.554	17460.16
782.888	17329.09
783.222	17260.39
783.556	17199.15
783.889	17099.04
784.223	17036.9
784.557	17016.33
784.89	17072.15
785.224	17035.77
785.557	16926.17
785.891	16793.74
786.224	16866.96
786.558	16751.71
786.891	16580.41
787.224	16564.14
787.557	16566.4
787.891	16483.46
788.224	16444.37
788.557	16440.75
788.89	16371.38
789.223	16473.3
789.556	16244.38
789.888	16177.03
790.221	16062.46
790.554	15968.9
790.887	15965.29
791.219	15946.98
791.552	15892.52
791.884	15738.4
792.217	15760.09
792.549	15756.03
792.882	15596.48
793.214	15593.09
793.546	15593.32
793.879	15391.06
794.211	15376.6
794.543	15393.78
794.875	15344.06
795.207	15340.22
795.539	15236.94
795.871	15271.75
796.203	15097.74
796.535	15100.45
796.867	14986.78
797.198	14980.23
797.53	14953.56
797.862	14836.28
798.193	14869.27
798.525	14773.45
798.856	14860.46
799.188	14692.33
799.519	14654.13
799.85	14441.94
800.182	14558.09
800.513	14577.3
800.844	14350.64
801.175	14476.06
801.506	14422.05
801.837	14310.64
802.168	14237.2
802.499	14241.04
802.83	14137.76
803.161	14141.83
803.491	14152
803.822	14149.97
804.153	14032.23
804.483	13906.36
804.814	13901.84
805.145	13914.04
805.475	13873.59
805.805	13924.21
806.136	13800.82
806.466	13811.22
806.796	13719.7
807.126	13597.67
807.457	13529.87
807.787	13552.47
808.117	13582.75
808.447	13438.8
808.777	13498.91
809.107	13398.57
809.436	13380.5
809.766	13257.56
810.096	13252.14
810.426	13274.51
810.755	13224.34
811.085	13189.99
811.414	13183.44
811.744	13124.68
812.073	13029.09
812.403	13036.55
812.732	13002.65
813.061	12955.65
813.39	12817.8
813.719	12782.77
814.049	12875.2
814.378	12819.15
814.707	12850.79
815.036	12746.61
815.365	12720.4
815.693	12635.66
816.022	12681.76
816.351	12530.8
816.68	12498.48
817.008	12582.1
817.337	12446.51
817.665	12363.12
817.994	12507.3
818.322	12451.25
818.651	12336
818.979	12284.93
819.307	12425.72
819.636	12373.29
819.964	12289.22
820.292	12315.66
820.62	12296.46
820.948	12282.67
821.276	12262.11
821.604	12185.72
821.932	12252.39
822.259	12222.11
822.587	12192.73
822.915	12143.69
823.243	12314.31
823.57	12171.94
823.898	12090.59
824.225	12126.29
824.553	12133.52
824.88	12080.19
825.207	12163.8
825.535	12046.29
825.862	12117.48
826.189	12024.83
826.516	12064.37
826.843	12143.47
827.17	12148.89
827.497	12158.38
827.824	12150.02
828.151	12047.65
828.478	12104.6
828.805	12072.73
829.131	12026.63
829.458	12026.86
829.785	12044.94
830.111	12021.44
830.438	12148.21
830.764	12033.86
831.09	12098.27
831.417	11970.14
831.743	12124.26
832.069	11976.01
832.395	12021.21
832.722	12039.29
833.048	12011.49
833.374	11922
833.7	11913.19
834.026	11941.44
834.351	11989.35
834.677	11985.5
835.003	11919.74
835.329	11960.19
835.654	11919.07
835.98	11841.78
836.306	11910.7
836.631	11865.73
836.956	11967.2
837.282	11941.89
837.607	11769.24
837.932	11757.04
838.258	11748.67
838.583	11718.84
838.908	11651.5
839.233	11785.06
839.558	11677.26
839.883	11674.55
840.208	11549.58
840.533	11566.31
840.858	11595.46
841.182	11562.92
841.507	11554.78
841.832	11529.92
842.156	11482.92
842.481	11478.17
842.805	11415.58
843.13	11393.2
843.454	11365.63
843.778	11322.92
844.103	11334.45
844.427	11272.3
844.751	11288.8
845.075	11283.15
845.399	11178.07
845.723	11082.25
846.047	11137.39
846.371	11038.41
846.695	11093.32
847.019	10964.51
847.343	10915.25
847.666	10889.71
847.99	10816.27
848.313	10863.95
848.637	10828.25
848.96	10743.95
849.284	10757.97
849.607	10666.89
849.931	10643.62
850.254	10539.44
850.577	10498.99
850.9	10506.22
851.223	10473.23
851.546	10397.52
851.869	10326.56
852.192	10306.23
852.515	10280.92
852.838	10215.16
853.161	10186.91
853.483	10113.91
853.806	10053.13
854.129	10119.56
854.451	10059.45
854.774	10058.55
855.096	9926.35
855.419	9927.48
855.741	9995.05
856.063	9925.9
856.385	9894.49
856.708	9898.78
857.03	9804.32
857.352	9767.48
857.674	9803.19
857.996	9676.41
858.318	9609.75
858.64	9671.21
858.961	9597.54
859.283	9657.2
859.605	9486.13
859.926	9665.79
860.248	9506.93
860.57	9480.49
860.891	9460.6
861.212	9538.11
861.534	9416.76
861.855	9409.3
862.176	9392.8
862.498	9388.06
862.819	9357.1
863.14	9272.36
863.461	9341.05
863.782	9319.81
864.103	9315.29
864.424	9307.16
864.745	9283.43
865.065	9209.53
865.386	9171.57
865.707	9201.4
866.027	9270.77
866.348	9181.06
866.668	9235.52
866.989	9167.95
867.309	9104.9
867.63	9084.11
867.95	9084.34
868.27	9060.84
868.59	9026.03
868.91	8950.78
869.23	9056.09
869.55	8984.23
869.87	9047.95
870.19	8918.69
870.51	8968.63
870.83	9003.66
871.15	8842.08
871.469	8881.86
871.789	8897
872.109	8892.25
872.428	8814.06
872.748	8877.11
873.067	8832.82
873.386	8846.6
873.706	8804.34
874.025	8746.04
874.344	8773.16
874.663	8813.16
874.982	8747.17
875.301	8728.41
875.62	8721.18
875.939	8651.58
876.258	8661.52
876.577	8648.42
876.896	8709.66
877.214	8599.83
877.533	8611.81
877.852	8605.71
878.17	8625.37
878.489	8646.83
878.807	8500.85
879.125	8472.83
879.444	8509.44
879.762	8530.68
880.08	8513.28
880.398	8395.99
880.716	8352.61
881.034	8383.34
881.352	8452.72
881.67	8400.29
881.988	8419.72
882.306	8386.95
882.624	8391.7
882.941	8276
883.259	8279.84
883.577	8266.73
883.894	8254.75
884.212	8271.93
884.529	8254.53
884.846	8240.97
885.164	8187.86
885.481	8163.01
885.798	8185.83
886.115	8104.7
886.432	8142.89
886.75	8118.94
887.067	8071.71
887.383	8069.22
887.7	8077.36
888.017	8022.44
888.334	7988.1
888.651	7929.79
888.967	8006.17
889.284	7982.67
889.6	7881.66
889.917	7881.21
890.233	7837.82
890.55	7851.6
890.866	7854.09
891.182	7784.71
891.498	7751.04
891.815	7705.62
892.131	7680.53
892.447	7673.08
892.763	7672.4
893.079	7647.54
893.395	7618.84
893.71	7625.84
894.026	7579.29
894.342	7597.82
894.657	7579.74
894.973	7534.55
895.289	7469.24
895.604	7545.62
895.92	7465.4
896.235	7408.9
896.55	7368
896.865	7410.94
897.181	7337.26
897.496	7311.5
897.811	7332.07
898.126	7248.68
898.441	7231.05
898.756	7180.88
899.071	7203.93
899.386	7130.26
899.7	7096.37
900.015	7130.49
900.33	7050.94
900.644	7064.5
900.959	7042.36
901.273	7049.81
901.588	7001.68
901.902	6992.64
902.216	6933.21
902.531	6899.31
902.845	6890.95
903.159	6835.58
903.473	6799.2
903.787	6779.99
904.101	6788.58
904.415	6753.55
904.729	6718.52
905.042	6707.45
905.356	6728.24
905.67	6666.55
905.984	6676.27
906.297	6622.93
906.611	6610.28
906.924	6575.25
907.237	6521.92
907.551	6526.44
907.864	6508.59
908.177	6530.51
908.491	6447.12
908.804	6455.25
909.117	6358.99
909.43	6384.52
909.743	6358.99
910.056	6332.77
910.368	6295.94
910.681	6242.6
910.994	6256.84
911.307	6226.11
911.619	6156.5
911.932	6206.9
912.244	6096.39
912.557	6128.93
912.869	6123.96
913.181	6019.56
913.494	6037.86
913.806	6016.62
914.118	5990.86
914.43	5972.33
914.742	5946.11
915.054	5916.96
915.366	5941.14
915.678	5836.06
915.99	5801.49
916.302	5773.01
916.613	5756.97
916.925	5778.66
917.236	5784.54
917.548	5712.9
917.859	5704.99
918.171	5696.18
918.482	5624.77
918.794	5611.21
919.105	5588.84
919.416	5568.05
919.727	5597.65
920.038	5507.93
920.349	5502.28
920.66	5514.94
920.971	5472
921.282	5466.35
921.593	5427.94
921.903	5392.01
922.214	5384.55
922.525	5351.78
922.835	5353.59
923.146	5310.88
923.456	5278.79
923.767	5257.32
924.077	5287.15
924.387	5201.28
924.697	5209.64
925.008	5158.79
925.318	5170.77
925.628	5125.8
925.938	5071.11
926.248	5058.91
926.558	5080.37
926.867	5071.34
927.177	5022.75
927.487	4970.1
927.796	4955.86
928.106	4976.2
928.416	4931.45
928.725	4874.28
929.034	4887.84
929.344	4863.21
929.653	4872.92
929.962	4804.68
930.271	4789.99
930.581	4802.42
930.89	4733.04
931.199	4754.28
931.508	4728.97
931.817	4718.35
932.125	4687.39
932.434	4670.22
932.743	4681.74
933.051	4630.9
933.36	4580.73
933.669	4595.64
933.977	4565.13
934.286	4528.07
934.594	4486.27
934.902	4460.73
935.21	4479.94
935.519	4489.88
935.827	4522.88
936.135	4454.85
936.443	4398.81
936.751	4374.4
937.059	4341.86
937.367	4364.46
937.674	4344.35
937.982	4331.92
938.29	4308.64
938.597	4279.27
938.905	4236.56
939.213	4265.48
939.52	4225.26
939.827	4259.61
940.135	4196.78
940.442	4164.92
940.749	4149.1
941.056	4160.4
941.363	4098.25
941.67	4102.32
941.977	4073.62
942.284	4056.22
942.591	3991.82
942.898	4061.42
943.205	3984.13
943.511	4004.92
943.818	3949.56
944.125	3964.92
944.431	3929.44
944.738	3949.56
945.044	3909.56
945.35	3913.4
945.657	3870.01
945.963	3843.12
946.269	3847.19
946.575	3869.56
946.881	3808.54
947.187	3777.13
947.493	3810.58
947.799	3773.52
948.105	3724.7
948.41	3734.2
948.716	3675.21
949.022	3762.9
949.327	3713.86
949.633	3645.38
949.938	3692.61
950.244	3653.52
950.549	3590.47
950.854	3646.06
951.16	3573.07
951.465	3580.3
951.77	3548.89
952.075	3546.63
952.38	3489.46
952.685	3527.87
952.99	3488.78
953.294	3472.73
953.599	3473.86
953.904	3487.65
954.209	3446.75
954.513	3455.33
954.818	3407.65
955.122	3387.31
955.426	3360.42
955.731	3398.84
956.035	3366.52
956.339	3371.49
956.643	3358.61
956.948	3355.9
957.252	3268.67
957.556	3302.79
957.86	3269.35
958.163	3246.52
958.467	3239.97
958.771	3236.58
959.075	3198.39
959.378	3173.31
959.682	3191.16
959.985	3185.28
960.289	3191.39
960.592	3143.02
960.896	3138.96
961.199	3097.6
961.502	3118.39
961.805	3100.54
962.108	3069.13
962.411	3074.78
962.714	3006.76
963.017	3074.33
963.32	2992.29
963.623	3013.31
963.926	3046.3
964.228	2936.02
964.531	2963.14
964.833	2965.63
965.136	2924.05
965.438	2949.58
965.741	2932.41
966.043	2879.98
966.345	2854.67
966.648	2839.98
966.95	2892.41
967.252	2860.09
967.554	2853.31
967.856	2846.08
968.158	2754.33
968.46	2826.87
968.761	2784.84
969.063	2812.64
969.365	2781
969.666	2750.72
969.968	2771.51
970.269	2742.58
970.571	2715.24
970.872	2752.07
971.174	2683.15
971.475	2710.49
971.776	2703.71
972.077	2668.69
972.378	2677.05
972.679	2672.53
972.98	2637.05
973.281	2635.92
973.582	2612.87
973.883	2620.78
974.183	2566.32
974.484	2604.28
974.785	2557.5
975.085	2544.17
975.386	2568.58
975.686	2582.36
975.986	2545.98
976.287	2540.55
976.587	2524.51
976.887	2484.74
977.187	2507.11
977.487	2474.79
977.787	2473.66
978.087	2484.06
978.387	2431.86
978.687	2457.17
978.987	2402.48
979.286	2376.27
979.586	2412.87
979.885	2395.7
980.185	2374.91
980.484	2370.84
980.784	2345.53
981.083	2375.36
981.382	2330.62
981.682	2296.72
981.981	2307.57
982.28	2276.83
982.579	2289.04
982.878	2294.91
983.177	2284.97
983.475	2295.14
983.774	2223.05
984.073	2260.11
984.372	2268.47
984.67	2220.34
984.969	2228.02
985.267	2250.39
985.566	2164.97
985.864	2182.82
986.162	2192.77
986.461	2156.61
986.759	2171.52
987.057	2176.5
987.355	2115.93
987.653	2115.93
987.951	2116.39
988.249	2138.53
988.547	2156.16
988.844	2099.66
989.142	2084.75
989.44	2089.27
989.737	2033.68
990.035	2049.27
990.332	2064.41
990.63	2024.64
990.927	2011.98
991.224	2024.18
991.521	2012.43
991.819	2013.79
992.116	2009.95
992.413	1997.52
992.71	2004.52
993.006	1972.89
993.303	1951.87
993.6	1924.75
993.897	1895.37
994.193	1918.88
994.49	1925.66
994.787	1918.42
995.083	1906.22
995.379	1885.43
995.676	1868.71
995.972	1898.99
996.268	1884.07
996.565	1859.44
996.861	1889.5
997.157	1809.95
997.453	1876.62
997.749	1823.96
998.044	1813.57
998.34	1815.38
998.636	1812.89
998.932	1779.22
999.227	1776.73
999.523	1755.26
999.818	1782.38
1000.114	1743.29
1000.409	1740.58
1000.704	1743.51
1001	1725.43
1001.295	1711.42
1001.59	1705.55
1001.885	1716.4
1002.18	1694.7
1002.475	1649.05
1002.77	1682.95
1003.065	1658.32
1003.359	1676.17
1003.654	1649.96
1003.949	1639.56
1004.243	1605.21
1004.538	1642.27
1004.832	1623.52
1005.127	1599.56
1005.421	1597.98
1005.715	1576.96
1006.009	1572.9
1006.304	1575.83
1006.598	1550.07
1006.892	1598.66
1007.186	1538.77
1007.48	1515.95
1007.773	1539.45
1008.067	1493.12
1008.361	1506.23
1008.655	1500.36
1008.948	1479.11
1009.242	1510.3
1009.535	1460.81
1009.829	1485.44
1010.122	1442.05
1010.415	1442.73
1010.708	1463.75
1011.001	1441.15
1011.295	1437.76
1011.588	1427.36
1011.881	1399.57
1012.173	1402.28
1012.466	1393.69
1012.759	1392.79
1013.052	1383.07
1013.344	1373.81
1013.637	1353.02
1013.93	1368.16
1014.222	1340.36
1014.514	1346.24
1014.807	1340.59
1015.099	1315.73
1015.391	1323.64
1015.683	1308.27
1015.976	1287.71
1016.268	1268.5
1016.56	1289.29
1016.851	1277.09
1017.143	1258.1
1017.435	1241.83
1017.727	1242.74
1018.018	1272.34
1018.31	1254.49
1018.602	1251.55
1018.893	1226.24
1019.185	1215.17
1019.476	1214.49
1019.767	1209.74
1020.058	1199.35
1020.35	1209.29
1020.641	1175.84
1020.932	1177.2
1021.223	1178.1
1021.514	1167.94
1021.804	1168.61
1022.095	1161.61
1022.386	1124.77
1022.677	1127.94
1022.967	1121.16
1023.258	1100.59
1023.548	1127.94
1023.839	1118.9
1024.129	1106.69
1024.419	1069.41
1024.709	1078.67
1025	1069.41
1025.29	1070.54
1025.58	1068.73
1025.87	1034.83
1026.16	1052.68
1026.449	1054.72
1026.739	1037.77
1027.029	1046.58
1027.319	1044.32
1027.608	1018.11
1027.898	1026.47
1028.187	1014.04
1028.477	988.05
1028.766	989.41
1029.055	977.43
1029.344	1008.39
1029.634	994.38
1029.923	981.5
1030.212	956.19
1030.501	966.36
1030.79	961.39
1031.078	968.84
1031.367	942.4
1031.656	947.83
1031.945	920.94
1032.233	916.64
1032.522	917.55
1032.81	911.9
1033.099	909.41
1033.387	904.44
1033.675	906.02
1033.963	892.24
1034.251	881.39
1034.54	893.82
1034.828	868.73
1035.116	880.71
1035.403	868.51
1035.691	885.68
1035.979	867.15
1036.267	828.74
1036.554	846.59
1036.842	825.57
1037.129	838
1037.417	833.25
1037.704	833.25
1037.992	806.59
1038.279	812.46
1038.566	824.22
1038.853	824.22
1039.14	824.22
