Data from plate_porcelain_FLMS001491_091.txt Node
Date: Tue Feb 07 11:20:12 GMT 2017
User: dcchb
Spectrometer: FLMS00149
Trigger mode: 0
Integration Time (sec): 2.000000E-2
Scans to average: 10
Electric dark correction enabled: true
Nonlinearity correction enabled: false
Boxcar width: 0
XAxis mode: Wavelengths
Number of Pixels in Spectrum: 2048
>>>>>Begin Spectral Data<<<<<
341.393	-22.74
341.776	-22.74
342.16	-22.74
342.543	-35.39
342.927	-64.32
343.31	-68.84
343.693	-67.26
344.077	-72
344.46	-34.72
344.843	-71.33
345.226	-29.74
345.61	-29.97
345.993	-8.95
346.376	-9.86
346.759	4.38
347.142	30.82
347.525	41.44
347.908	50.7
348.291	57.26
348.674	74.66
349.057	133.41
349.44	131.61
349.823	154.43
350.206	181.77
350.588	219.74
350.971	232.85
351.354	256.8
351.737	273.07
352.119	275.11
352.502	304.26
352.884	321.66
353.267	310.13
353.65	334.77
354.032	341.09
354.414	349
354.797	354.88
355.179	342.67
355.562	354.88
355.944	367.31
356.326	377.7
356.709	385.84
357.091	395.33
357.473	403.24
357.855	389.91
358.238	374.09
358.62	383.8
359.002	384.26
359.384	412.96
359.766	406.85
360.148	378.38
360.53	393.52
360.912	386.52
361.294	395.33
361.676	417.93
362.057	407.08
362.439	402.33
362.821	383.35
363.203	396.23
363.584	415.67
363.966	391.03
364.348	382.67
364.729	412.5
365.111	392.16
365.493	385.61
365.874	402.56
366.256	390.13
366.637	390.58
367.019	408.21
367.4	412.96
367.781	411.83
368.163	414.99
368.544	407.31
368.925	417.7
369.306	406.4
369.688	410.7
370.069	406.85
370.45	427.87
370.831	409.34
371.212	412.96
371.593	417.25
371.974	420.64
372.355	408.21
372.736	433.52
373.117	417.25
373.498	420.19
373.879	436.46
374.26	437.59
374.641	411.6
375.021	442.11
375.402	439.17
375.783	447.76
376.163	463.8
376.544	484.14
376.925	449.56
377.305	452.05
377.686	442.56
378.066	453.63
378.447	484.59
378.827	511.03
379.208	490.92
379.588	470.81
379.968	476.23
380.349	498.6
380.729	499.73
381.109	494.08
381.489	515.1
381.87	511.48
382.25	527.75
382.63	538.38
383.01	526.62
383.39	525.04
383.77	535.44
384.15	536.57
384.53	544.25
384.91	572.95
385.29	552.39
385.67	562.33
386.049	581.76
386.429	581.76
386.809	594.87
387.189	590.13
387.568	607.3
387.948	613.63
388.328	616.57
388.707	617.92
389.087	607.98
389.466	632.61
389.846	630.8
390.225	655.43
390.605	644.81
390.984	643.46
391.363	675.55
391.743	673.51
392.122	666.96
392.501	693.4
392.881	693.63
393.26	735.88
393.639	707.41
394.018	731.36
394.397	728.88
394.776	730.46
395.155	744.47
395.534	776.34
395.913	776.79
396.292	790.8
396.671	775.43
397.05	790.35
397.429	786.28
397.808	805.71
398.186	801.19
398.565	837.12
398.944	818.59
399.323	803.68
399.701	842.32
400.08	821.98
400.458	867.41
400.837	885.71
401.215	885.71
401.594	877.12
401.972	885.94
402.351	926.39
402.729	932.72
403.107	944.69
403.486	925.26
403.864	970.45
404.242	973.39
404.62	972.49
404.999	991.25
405.377	993.96
405.755	1007.52
406.133	1020.17
406.511	1024.24
406.889	1066.95
407.267	1068.76
407.645	1083.67
408.023	1092.26
408.401	1105.82
408.779	1134.07
409.156	1143.56
409.534	1153.95
409.912	1167.74
410.29	1182.2
410.667	1210.9
411.045	1222.2
411.422	1260.16
411.8	1260.84
412.178	1271.69
412.555	1281.63
412.933	1292.03
413.31	1329.77
413.687	1334.51
414.065	1329.09
414.442	1377.68
414.819	1410.67
415.197	1431.23
415.574	1454.28
415.951	1475.07
416.328	1481.63
416.705	1466.26
417.082	1461.97
417.46	1522.53
417.837	1522.98
418.214	1536.99
418.591	1519.82
418.967	1554.85
419.344	1585.35
419.721	1633.26
420.098	1620.61
420.475	1646.82
420.852	1660.38
421.228	1699.93
421.605	1697.44
421.982	1734.28
422.358	1747.84
422.735	1775.41
423.111	1774.73
423.488	1834.16
423.864	1799.59
424.241	1843.43
424.617	1848.85
424.994	1861.5
425.37	1907.83
425.746	1910.77
426.123	1935.63
426.499	1939.92
426.875	2000.03
427.251	2012.46
427.627	2084.55
428.003	2056.53
428.379	2087.49
428.756	2166.81
429.132	2196.19
429.507	2205.9
429.883	2230.99
430.259	2290.87
430.635	2284.77
431.011	2291.32
431.387	2364.99
431.763	2414.94
432.138	2403.86
432.514	2476.86
432.89	2492.45
433.265	2526.12
433.641	2540.81
434.016	2604.76
434.392	2640.92
434.767	2689.28
435.143	2693.57
435.518	2722.73
435.894	2739.45
436.269	2798.66
436.644	2823.97
437.02	2881.82
437.395	2886.34
437.77	2906.22
438.145	2956.39
438.52	2981.02
438.895	3004.07
439.271	2995.49
439.646	3092.88
440.021	3096.5
440.395	3111.87
440.77	3122.49
441.145	3169.94
441.52	3246.78
441.895	3235.03
442.27	3258.08
442.645	3260.56
443.019	3329.49
443.394	3332.65
443.769	3380.79
444.143	3389.37
444.518	3490.39
444.892	3420.11
445.267	3497.85
445.641	3487.9
446.016	3532.65
446.39	3585.98
446.764	3612.87
447.139	3559.99
447.513	3660.33
447.887	3674.79
448.262	3665.75
448.636	3702.81
449.01	3789.14
449.384	3812.64
449.758	3807.67
450.132	3883.37
450.506	3929.47
450.88	3931.96
451.254	3940.32
451.628	4006.31
452.002	4095.8
452.376	4063.48
452.75	4126.53
453.123	4155.46
453.497	4220.09
453.871	4302.57
454.244	4337.6
454.618	4419.4
454.992	4473.41
455.365	4467.54
455.739	4568.78
456.112	4625.95
456.486	4686.52
456.859	4734.88
457.232	4774.2
457.606	4790.92
457.979	4880.41
458.352	4991.82
458.725	5027.07
459.099	5078.37
459.472	5158.37
459.845	5285.37
460.218	5283.79
460.591	5384.58
460.964	5373.05
461.337	5516.78
461.71	5520.62
462.083	5699.14
462.456	5698.01
462.829	5708.41
463.201	5869.31
463.574	5829.76
463.947	5936.43
464.32	6136.65
464.692	6141.62
465.065	6159.7
465.438	6251.22
465.81	6349.3
466.183	6414.83
466.555	6608.95
466.928	6584.09
467.3	6663.86
467.672	6777.53
468.045	6955.61
468.417	6994.48
468.789	7007.58
469.161	7043.52
469.534	7241.25
469.906	7398.31
470.278	7407.12
470.65	7566.44
471.022	7624.97
471.394	7838.75
471.766	7871.74
472.138	8005.98
472.51	8280.77
472.882	8367.77
473.253	8413.87
473.625	8550.59
473.997	8802.34
474.369	8835.78
474.74	8906.29
475.112	9171.14
475.484	9212.05
475.855	9447.97
476.227	9471.02
476.598	9756.89
476.97	9880.5
477.341	10050.67
477.713	10157.56
478.084	10234.62
478.455	10569.98
478.827	10692.46
479.198	10975.84
479.569	10974.71
479.94	11377.64
480.311	11501.25
480.682	11734.47
481.053	11874.8
481.424	12128.81
481.795	12310.72
482.166	12506.2
482.537	12642.24
482.908	12978.73
483.279	13065.05
483.65	13322.45
484.021	13646.05
484.391	13745.49
484.762	13948.42
485.133	14055.76
485.503	14192.93
485.874	14537.33
486.244	14697.78
486.615	14989.07
486.985	15170.53
487.356	15547.25
487.726	15493.24
488.097	15859.55
488.467	15915.82
488.837	16269.94
489.207	16571.4
489.578	16743.37
489.948	16841.68
490.318	17149.92
490.688	17254.77
491.058	17610.02
491.428	17796.45
491.798	17909.22
492.168	18295.87
492.538	18350.11
492.908	18614.28
493.278	18879.36
493.648	18950.55
494.017	19190.99
494.387	19399.12
494.757	19598.44
495.126	19712.11
495.496	19914.82
495.866	20098.31
496.235	20288.59
496.605	20458.98
496.974	20560.67
497.344	20732.65
497.713	20926.99
498.082	21095.58
498.452	21301.22
498.821	21480.42
499.19	21513.64
499.559	21739.85
499.928	21874.31
500.298	22081.54
500.667	22318.14
501.036	22230.01
501.405	22539.61
501.774	22586.84
502.143	22816.21
502.512	22918.35
502.88	23181.62
503.249	23232.92
503.618	23405.12
503.987	23518.11
504.356	23618.67
504.724	23812.34
505.093	23940.7
505.462	24123.52
505.83	24363.51
506.199	24486.9
506.567	24804.4
506.936	24768.93
507.304	25110.38
507.672	25281.91
508.041	25373.2
508.409	25550.83
508.777	25812.06
509.145	26032.85
509.514	26111.26
509.882	26351.71
510.25	26359.62
510.618	26464.47
510.986	26664.69
511.354	27096.32
511.722	27200.27
512.09	27345.58
512.458	27469.42
512.826	27836.19
513.193	27905.79
513.561	28060.82
513.929	28294.26
514.297	28467.81
514.664	28806.78
515.032	28836.84
515.4	29229.37
515.767	29312.99
516.135	29484.51
516.502	29389.37
516.869	29857.83
517.237	30025.28
517.604	30186.41
517.972	30514.54
518.339	30668.2
518.706	30747.98
519.073	30994.75
519.44	31175.31
519.808	31533.27
520.175	31712.92
520.542	32086.25
520.909	32219.35
521.276	32273.36
521.643	32695.04
522.009	32964.87
522.376	33165.09
522.743	33299.77
523.11	33704.28
523.477	33996.48
523.843	34271.73
524.21	34581.77
524.577	34792.39
524.943	34886.17
525.31	35157.8
525.676	35530.22
526.043	35665.59
526.409	35918.01
526.776	36332.46
527.142	36405.23
527.508	36755.28
527.874	36954.82
528.241	37009.28
528.607	37303.28
528.973	37607.23
529.339	37711.18
529.705	37966.09
530.071	38456.25
530.437	38655.79
530.803	38614.66
531.169	39092.39
531.535	39074.54
531.901	39257.13
532.267	39525.15
532.632	39598.14
532.998	39855.53
533.364	40139.82
533.73	40291.23
534.095	40627.04
534.461	40685.57
534.826	40925.56
535.192	41057.31
535.557	41353.35
535.923	41306.12
536.288	41367.36
536.653	41688.25
537.019	41775.03
537.384	41816.39
537.749	41954.91
538.114	42070.17
538.479	42271.06
538.845	42601
539.21	42579.53
539.575	42704.27
539.94	42978.16
540.305	43111.49
540.67	43099.74
541.034	43359.4
541.399	43476.46
541.764	43552.16
542.129	43698.82
542.494	43967.52
542.858	43960.28
543.223	44242.99
543.587	44445.7
543.952	44481.18
544.316	44685.92
544.681	44622.64
545.045	44853.82
545.41	44989.41
545.774	45208.84
546.138	45154.6
546.503	45468.27
546.867	45442.28
547.231	45809.05
547.595	45889.27
547.959	45873
548.324	45937.41
548.688	46034.58
549.052	46270.73
549.416	46423.95
549.779	46533.1
550.143	46661.91
550.507	46912.07
550.871	47090.37
551.235	47169.47
551.599	47486.75
551.962	47651.49
552.326	47511.15
552.689	47790.24
553.053	47799.73
553.417	47845.38
553.78	48326.5
554.143	48225.48
554.507	48451.92
554.87	48569.43
555.234	49000.38
555.597	48780.95
555.96	48969.64
556.323	49250.77
556.686	49087.83
557.05	49460.03
557.413	49591.32
557.776	49736.63
558.139	49898.66
558.502	50018.66
558.865	50175.04
559.228	50380.23
559.59	50488.47
559.953	50600.56
560.316	50739.09
560.679	50851.4
561.041	51108.35
561.404	51343.14
561.767	51503.14
562.129	51394.44
562.492	51808.89
562.854	51838.04
563.217	51830.36
563.579	51916.91
563.941	52211.82
564.304	52345.38
564.666	52501.76
565.028	52572.26
565.39	52748.3
565.753	52871.24
566.115	52982.87
566.477	53025.81
566.839	53145.81
567.201	53392.35
567.563	53402.75
567.925	53627.38
568.287	53664.66
568.648	53777.2
569.01	53913.92
569.372	54027.82
569.734	54008.16
570.095	54241.82
570.457	54320.24
570.819	54308.26
571.18	54413.34
571.542	54575.37
571.903	54622.38
572.265	54748.25
572.626	54803.16
572.987	54848.13
573.349	54991.86
573.71	55064.63
574.071	55058.3
574.432	55189.14
574.794	55362.02
575.155	55371.74
575.516	55298.52
575.877	55535.12
576.238	55549.13
576.599	55620.54
576.96	55574.22
577.32	55682.91
577.681	55736.47
578.042	55902.12
578.403	55863.02
578.763	55874.32
579.124	55857.83
579.485	56042.68
579.845	56098.5
580.206	56035.22
580.566	56174.88
580.927	56193.18
581.287	56205.16
581.648	56129.46
582.008	56289.23
582.368	56227.08
582.728	56273.41
583.089	56221.21
583.449	56210.13
583.809	56251.26
584.169	56324.25
584.529	56314.31
584.889	56460.3
585.249	56277.48
585.609	56255.1
585.969	56325.61
586.329	56304.37
586.688	56397.7
587.048	56372.84
587.408	56322.9
587.768	56331.26
588.127	56373.07
588.487	56363.57
588.846	56491.03
589.206	56424.82
589.565	56430.47
589.925	56528.09
590.284	56499.16
590.643	56419.17
591.003	56561.54
591.362	56548.43
591.721	56497.58
592.08	56585.26
592.44	56637.01
592.799	56636.11
593.158	56551.14
593.517	56584.36
593.876	56637.69
594.235	56516.79
594.593	56646.05
594.952	56630.23
595.311	56532.84
595.67	56599.73
596.029	56786.61
596.387	56791.36
596.746	56794.75
597.104	56676.79
597.463	56754.3
597.822	56839.72
598.18	56738.71
598.538	56773.73
598.897	56957.68
599.255	56698.71
599.613	57056.89
599.972	56842.66
600.33	56994.29
600.688	56882.43
601.046	57032.94
601.404	57061.86
601.762	57004.46
602.12	57095.08
602.478	57143.22
602.836	57114.29
603.194	57063.22
603.552	57066.38
603.91	56993.84
604.268	57116.78
604.625	57098.02
604.983	57221.63
605.341	57105.02
605.698	57249.43
606.056	57315.19
606.413	57307.05
606.771	57304.34
607.128	57352.48
607.485	57221.86
607.843	57227.28
608.2	57464.34
608.557	57527.16
608.914	57455.3
609.272	57580.27
609.629	57558.8
609.986	57645.35
610.343	57529.87
610.7	57671.79
611.057	57699.13
611.414	57707.04
611.771	57753.82
612.127	57818
612.484	57748.62
612.841	57869.3
613.198	57760.83
613.554	57790.66
613.911	57982.29
614.267	58014.38
614.624	57875.85
614.98	57983.42
615.337	58186.35
615.693	58016.86
616.05	58044.43
616.406	58123.53
616.762	58090.53
617.118	58015.96
617.475	58060.48
617.831	58211.66
618.187	58168.72
618.543	58106.13
618.899	58286.01
619.255	58313.13
619.611	58292.11
619.967	58305.44
620.323	58338.44
620.678	58232.9
621.034	58233.36
621.39	58245.33
621.746	58201.49
622.101	58469.96
622.457	58239.68
622.812	58297.53
623.168	58329.62
623.523	58389.06
623.879	58465.44
624.234	58334.37
624.589	58358.78
624.945	58353.8
625.3	58408.27
625.655	58355.61
626.01	58378.66
626.365	58412.11
626.72	58348.16
627.075	58344.09
627.43	58315.61
627.785	58259.34
628.14	58282.39
628.495	58263.86
628.85	58282.17
629.205	58185.22
629.559	58263.64
629.914	58293.02
630.269	58289.85
630.623	58156.97
630.978	58095.96
631.332	58264.54
631.687	58280.36
632.041	58104.55
632.396	58177.99
632.75	58021.61
633.104	58098.67
633.459	58007.6
633.813	57934.83
634.167	57907.04
634.521	57972.57
634.875	57934.61
635.229	57896.64
635.583	57769.19
635.937	57787.27
636.291	57758.34
636.645	57753.37
636.999	57674.05
637.352	57771
637.706	57567.84
638.06	57647.16
638.413	57584.56
638.767	57553.83
639.121	57585.92
639.474	57472.92
639.828	57441.29
640.181	57443.32
640.534	57454.62
640.888	57366.26
641.241	57246.94
641.594	57329.65
641.947	57408.29
642.301	57285.13
642.654	57313.61
643.007	57293.95
643.36	57186.83
643.713	57175.53
644.066	57246.49
644.419	57102.31
644.771	56858.48
645.124	56671.59
645.477	56595.88
645.83	56422.33
646.182	56372.61
646.535	56222.34
646.888	56313.86
647.24	56127.42
647.593	56283.35
647.945	56223.92
648.298	56128.1
648.65	56002.68
649.002	55943.7
649.355	56074.32
649.707	56031.61
650.059	56138.95
650.411	56422.33
650.763	56415.78
651.115	56717.01
651.467	56545.26
651.819	56517.02
652.171	56529.67
652.523	56418.26
652.875	56396.34
653.227	56268.21
653.578	56413.97
653.93	56360.41
654.282	56152.51
654.633	56189.34
654.985	56229.79
655.337	56300.53
655.688	56201.09
656.039	56305.72
656.391	56004.04
656.742	56077.71
657.094	56148.21
657.445	56240.87
657.796	56221.43
658.147	56089.46
658.498	56007.65
658.849	56059.63
659.2	56040.19
659.551	56029.8
659.902	56145.28
660.253	56070.02
660.604	56041.55
660.955	55828.9
661.306	56059.85
661.656	55912.96
662.007	55971.04
662.358	55849.01
662.708	55929.01
663.059	55883.59
663.409	55712.97
663.76	55924.94
664.11	55816.02
664.461	55882.46
664.811	55766.53
665.161	55731.05
665.511	55674.1
665.862	55797.49
666.212	55858.5
666.562	55799.75
666.912	55763.59
667.262	55729.24
667.612	55769.69
667.962	55729.24
668.312	55677.26
668.662	55811.95
669.011	55673.42
669.361	55622.8
669.711	55685.17
670.06	55609.24
670.41	55570.83
670.76	55530.6
671.109	55624.84
671.459	55545.74
671.808	55522.92
672.157	55629.36
672.507	55343.04
672.856	55379.42
673.205	55453.54
673.554	55552.75
673.904	55463.49
674.253	55559.75
674.602	55403.37
674.951	55081.57
675.3	54930.39
675.649	55349.14
675.998	55346.88
676.346	55268.91
676.695	55418.97
677.044	55125.19
677.393	55300.1
677.741	55291.29
678.09	55177.84
678.438	55030.05
678.787	55169.03
679.135	55192.08
679.484	54955.93
679.832	55114.12
680.181	54845.87
680.529	55003.61
680.877	54930.62
681.225	54860.11
681.573	55015.14
681.922	54883.61
682.27	54801.58
682.618	54781.02
682.966	54664.64
683.314	54665.31
683.661	54632.32
684.009	54485.43
684.357	54507.8
684.705	54441.37
685.053	54458.77
685.4	54315.72
685.748	54181.03
686.095	54177.87
686.443	53969.97
686.79	54021.94
687.138	54063.3
687.485	54124.09
687.832	53967.93
688.18	54012.9
688.527	53920.93
688.874	53805
689.221	53756.19
689.568	53619.01
689.915	53516.19
690.262	53581.05
690.609	53411.34
690.956	53334.05
691.303	53347.38
691.65	53071.46
691.997	53156.88
692.344	52921.86
692.69	52925.25
693.037	52891.35
693.383	52745.82
693.73	52781.3
694.077	52544.24
694.423	52626.95
694.769	52497.01
695.116	52362.55
695.462	52478.03
695.808	52294.98
696.155	52329.78
696.501	52087.53
696.847	52186.74
697.193	51852.73
697.539	51998.72
697.885	51765.73
698.231	51724.6
698.577	51757.37
698.923	51613.19
699.269	51399.41
699.614	51246.19
699.96	51230.6
700.306	51271.73
700.651	51139.76
700.997	50994.68
701.342	50880.78
701.688	50862.48
702.033	50690.73
702.379	50607.12
702.724	50560.56
703.069	50664.29
703.415	50194.92
703.76	50222.72
704.105	50164.19
704.45	50120.57
704.795	49857.98
705.14	49723.3
705.485	49817.31
705.83	49631.55
706.175	49781.37
706.52	49640.14
706.865	49512.68
707.209	49443.76
707.554	49274.04
707.899	49406.47
708.243	49222.97
708.588	49198.34
708.932	48929.87
709.277	48858.24
709.621	48899.36
709.966	48573.95
710.31	48717.45
710.654	48368.3
710.998	48481.97
711.342	48323.11
711.687	48365.14
712.031	48123.34
712.375	47971.7
712.719	48096.22
713.063	47961.76
713.407	48001.99
713.75	47736.91
714.094	47679.74
714.438	47650.36
714.782	47623.69
715.125	47353.87
715.469	47497.14
715.812	47151.61
716.156	47009.7
716.499	46988.45
716.843	47158.17
717.186	46843.82
717.53	47129.47
717.873	46977.61
718.216	46943.03
718.559	46789.59
718.902	46551.86
719.246	46769.93
719.589	46610.61
719.932	46420.79
720.275	46387.57
720.617	46332.65
720.96	46120
721.303	46097.4
721.646	46273.22
721.989	45957.75
722.331	46007.24
722.674	45878.65
723.016	45922.04
723.359	45868.48
723.701	45680.92
724.044	45494.26
724.386	45348.72
724.729	45551.88
725.071	45400.02
725.413	45356.86
725.755	45362.28
726.097	45130.2
726.439	44959.35
726.782	44887.49
727.124	45007.26
727.465	44834.61
727.807	44829.64
728.149	44718.46
728.491	44657.22
728.833	44854.95
729.175	44470.1
729.516	44535.41
729.858	44373.38
730.199	44470.33
730.541	44482.98
730.882	44229.88
731.224	44318.24
731.565	44123.9
731.906	44165.7
732.248	44175.87
732.589	43925.94
732.93	43736.79
733.271	43872.6
733.612	43852.49
733.953	43694.08
734.294	43587.87
734.635	43476.46
734.976	43437.13
735.317	43348.55
735.658	43319.17
735.999	43252.51
736.339	43120.31
736.68	43350.13
737.021	43083.02
737.361	42936.13
737.702	43092.06
738.042	43023.13
738.383	42988.11
738.723	42904.95
739.063	42628.34
739.404	42774.55
739.744	42571.17
740.084	42527.33
740.424	42618.63
740.764	42446.88
741.104	42521.68
741.444	42330.05
741.784	42170.28
742.124	42165.3
742.464	42045.76
742.804	41939.55
743.143	41951.52
743.483	41975.7
743.823	41661.36
744.162	41735.71
744.502	41783.39
744.841	41500.24
745.181	41715.15
745.52	41595.6
745.86	41673.11
746.199	41446.23
746.538	41283.29
746.877	41398.09
747.216	41357.87
747.556	41198.32
747.895	41018.22
748.234	40894.83
748.573	40857.99
748.911	40851.21
749.25	40751.56
749.589	40589.07
749.928	40642.63
750.267	40613.93
750.605	40446.03
750.944	40433.37
751.283	40302.98
751.621	40429.08
751.96	40043.1
752.298	40129.43
752.636	40186.37
752.975	39902.09
753.313	39864.12
753.651	39908.64
753.989	39512.27
754.327	39544.58
754.666	39511.59
755.004	39516.79
755.342	39367.86
755.679	39363.8
756.017	39069.34
756.355	39324.47
756.693	38978.95
757.031	39031.37
757.368	38774.88
757.706	38745.51
758.044	38585.51
758.381	38711.38
758.719	38540.09
759.056	38489.24
759.394	38265.07
759.731	38061.91
760.068	37981.01
760.405	37934.91
760.743	37712.54
761.08	37757.06
761.417	37532.43
761.754	37367.24
762.091	37590.73
762.428	37418.76
762.765	37124.98
763.102	37258.77
763.438	36816.29
763.775	36820.36
764.112	36753.69
764.449	36772
764.785	36632.79
765.122	36273.71
765.458	36294.95
765.795	36164.33
766.131	36223.09
766.467	35968.86
766.804	35795.53
767.14	35606.38
767.476	35558.25
767.812	35523.44
768.148	35468.53
768.485	35226.05
768.821	35388.31
769.157	34987.19
769.492	34951.48
769.828	34675.11
770.164	34587.65
770.5	34623.13
770.836	34470.59
771.171	34349.46
771.507	34100.66
771.842	33860.44
772.178	34020.43
772.513	33950.83
772.849	33871.96
773.184	33731.85
773.519	33713.1
773.855	33557.39
774.19	33210.06
774.525	33007.35
774.86	33167.35
775.195	33158.99
775.53	32959.67
775.865	32700.24
776.2	32585.89
776.535	32467.93
776.87	32373.24
777.205	32265.45
777.539	32178.67
777.874	32168.5
778.209	31857.1
778.543	31842.86
778.878	31785.46
779.212	31617.33
779.547	31472.25
779.881	31487.84
780.215	31239.26
780.55	31421.41
780.884	31155.42
781.218	30932.6
781.552	30948.2
781.886	30625.04
782.22	30544.82
782.554	30591.82
782.888	30295.11
783.222	30121.1
783.556	30063.48
783.889	29999.75
784.223	29858.06
784.557	29792.75
784.89	29774.22
785.224	29649.47
785.557	29486.09
785.891	29316.83
786.224	29197.28
786.558	29143.5
786.891	28960.68
787.224	28749.39
787.557	28726.34
787.891	28849.27
788.224	28758.88
788.557	28666.68
788.89	28581.48
789.223	28520.69
789.556	28298.1
789.888	28114.37
790.221	28173.36
790.554	27931.78
790.887	27894.04
791.219	27727.94
791.552	27692.46
791.884	27507.16
792.217	27416.31
792.549	27350.1
792.882	27293.6
793.214	27092.25
793.546	27199.6
793.879	26883.45
794.211	26800.28
794.543	26885.71
794.875	26565.71
795.207	26805.03
795.539	26550.35
795.871	26514.19
796.203	26370.69
796.535	26257.47
796.867	26247.76
797.198	26189
797.53	26061.09
797.862	25969.8
798.193	25881.21
798.525	25737.04
798.856	25819.29
799.188	25429.02
799.519	25379.08
799.85	25333.88
800.182	25344.28
800.513	25320.1
800.844	25091.85
801.175	25135.02
801.506	25200.78
801.837	25041.91
802.168	24960.33
802.499	24912.2
802.83	24751.07
803.161	24634.92
803.491	24592.43
803.822	24629.49
804.153	24419.1
804.483	24263.85
804.814	24259.56
805.145	24238.54
805.475	24228.15
805.805	23935.27
806.136	24023.86
806.466	23993.8
806.796	24003.52
807.126	23748.61
807.457	23573.93
807.787	23680.14
808.117	23501.16
808.447	23517.21
808.777	23540.26
809.107	23507.94
809.436	23356.53
809.766	23225.46
810.096	23305.01
810.426	23093.26
810.755	23125.13
811.085	23014.62
811.414	23012.59
811.744	22915.64
812.073	22768.07
812.403	22687.62
812.732	22583.9
813.061	22665.93
813.39	22502.09
813.719	22383.45
814.049	22625.93
814.378	22359.72
814.707	22381.87
815.036	22315.2
815.365	22103.68
815.693	21981.65
816.022	22007.87
816.351	21985.04
816.68	21859.17
817.008	21964.48
817.337	21658.72
817.665	21753.41
817.994	21693.53
818.322	21706.41
818.651	21590.25
818.979	21470.03
819.307	21756.12
819.636	21457.15
819.964	21376.25
820.292	21440.42
820.62	21325.85
820.948	21280.2
821.276	21333.08
821.604	21313.42
821.932	21304.16
822.259	21325.4
822.587	21318.17
822.915	21277.94
823.243	21246.98
823.57	21244.95
823.898	21228
824.225	21073.88
824.553	21208.11
824.88	21170.6
825.207	21257.6
825.535	21132.41
825.862	21201.34
826.189	21188.91
826.516	21286.76
826.843	21366.98
827.17	21272.07
827.497	21348
827.824	21221
828.151	21329.02
828.478	21151.84
828.805	21238.17
829.131	21241.11
829.458	21115.01
829.785	21031.17
830.111	21028.68
830.438	21188
830.764	21048.12
831.09	21152.3
831.417	21009.25
831.743	21173.54
832.069	20932.42
832.395	20858.97
832.722	20967.44
833.048	20966.77
833.374	20875.47
833.7	20785.75
834.026	20873.43
834.351	20974.9
834.677	20822.81
835.003	20962.7
835.329	20839.31
835.654	20814.9
835.98	20745.3
836.306	20823.72
836.631	20730.61
836.956	20752.53
837.282	20724.96
837.607	20575.59
837.932	20614.01
838.258	20544.4
838.583	20601.35
838.908	20444.07
839.233	20449.49
839.558	20386.22
839.883	20322.26
840.208	20333.11
840.533	20316.16
840.858	20298.31
841.182	20232.55
841.507	20192.1
841.832	20200.68
842.156	20116.39
842.481	19996.85
842.805	19994.36
843.13	19985.1
843.454	19852.44
843.778	19814.03
844.103	19813.35
844.427	19804.54
844.751	19700.81
845.075	19683.86
845.399	19514.37
845.723	19436.86
846.047	19518.67
846.371	19455.39
846.695	19387.15
847.019	19205.23
847.343	19046.59
847.666	18848.85
847.99	18855.18
848.313	18786.26
848.637	18763.66
848.96	18742.19
849.284	18734.06
849.607	18564.57
849.931	18448.19
850.254	18476.66
850.577	18271.47
850.9	18193.05
851.223	18283.45
851.546	18127.97
851.869	18076.22
852.192	18042.77
852.515	17875.77
852.838	17862.21
853.161	17890.01
853.483	17700.64
853.806	17680.07
854.129	17666.74
854.451	17537.02
854.774	17487.99
855.096	17353.98
855.419	17385.39
855.741	17286.18
856.063	17240.31
856.385	17151.95
856.708	17164.15
857.03	17003.71
857.352	17086.42
857.674	17006.42
857.996	16824.28
858.318	16831.05
858.64	16815.69
858.961	16716.71
859.283	16656.14
859.605	16504.96
859.926	16638.07
860.248	16571.4
860.57	16493.44
860.891	16546.99
861.212	16293.89
861.534	16365.3
861.855	16368.47
862.176	16385.64
862.498	16455.47
862.819	16397.17
863.14	16192.43
863.461	16226.32
863.782	16129.38
864.103	16185.65
864.424	16013.67
864.745	16188.13
865.065	16079.21
865.386	15997.4
865.707	15994.69
866.027	16005.09
866.348	15992.43
866.668	16020.23
866.989	15947.69
867.309	15774.81
867.63	15777.52
867.95	15703.85
868.27	15660.24
868.59	15684.42
868.91	15724.42
869.23	15745.21
869.55	15582.73
869.87	15752.66
870.19	15689.84
870.51	15589.73
870.83	15503.63
871.15	15482.16
871.469	15402.39
871.789	15489.39
872.109	15481.94
872.428	15312.22
872.748	15395.39
873.067	15361.94
873.386	15345.67
873.706	15358.55
874.025	15261.6
874.344	15175.5
874.663	15221.38
874.982	15225.67
875.301	15161.04
875.62	15084.89
875.939	15123.98
876.258	15133.25
876.577	14991.78
876.896	15051.67
877.214	14917.88
877.533	15011.44
877.852	14928.96
878.17	14942.29
878.489	14901.61
878.807	14901.61
879.125	14855.06
879.444	14867.72
879.762	14857.55
880.08	14817.1
880.398	14755.85
880.716	14780.04
881.034	14645.12
881.352	14723.54
881.67	14629.53
881.988	14648.51
882.306	14628.4
882.624	14505.92
882.941	14573.26
883.259	14381.85
883.577	14392.47
883.894	14382.98
884.212	14366.49
884.529	14303.66
884.846	14255.76
885.164	14152.03
885.481	14155.19
885.798	14159.03
886.115	14133.5
886.432	13999.26
886.75	14076.32
887.067	14064.8
887.383	14000.39
887.7	14037.91
888.017	13888.31
888.334	13919.04
888.651	13965.37
888.967	13884.69
889.284	13894.18
889.6	13724.24
889.917	13686.28
890.233	13712.94
890.55	13710.91
890.866	13593.4
891.182	13601.54
891.498	13460.3
891.815	13446.74
892.131	13376.68
892.447	13381.65
892.763	13296.91
893.079	13319.51
893.395	13272.5
893.71	13224.6
894.026	13149.12
894.342	13081.55
894.657	13112.06
894.973	13029.57
895.289	13046.52
895.604	12992.51
895.92	12896.02
896.235	12862.12
896.55	12896.69
896.865	12818.73
897.181	12869.8
897.496	12774.66
897.811	12746.64
898.126	12689.69
898.441	12608.34
898.756	12614.67
899.071	12553.65
899.386	12568.34
899.7	12393.21
900.015	12385.52
900.33	12280.67
900.644	12279.99
900.959	12335.13
901.273	12237.73
901.588	12096.49
901.902	12112.53
902.216	12023.05
902.531	12049.71
902.845	11981.46
903.159	11878.19
903.473	11810.4
903.787	11764.75
904.101	11686.56
904.415	11752.54
904.729	11661.47
905.042	11520.46
905.356	11625.99
905.67	11622.38
905.984	11630.97
906.297	11440.01
906.611	11378.77
906.924	11503.96
907.237	11397.98
907.551	11333.35
907.864	11304.87
908.177	11280.24
908.491	11284.31
908.804	11098.78
909.117	11002.73
909.43	11030.98
909.743	10929.51
910.056	10956.41
910.368	10871.89
910.681	10810.42
910.994	10730.2
911.307	10816.52
911.619	10634.61
911.932	10746.24
912.244	10634.38
912.557	10580.82
912.869	10562.29
913.181	10523.88
913.494	10535.4
913.806	10441.39
914.118	10385.8
914.43	10321.4
914.742	10292.47
915.054	10246.82
915.366	10224.67
915.678	10138.58
915.99	10160.27
916.302	10069.65
916.613	10024
916.925	9952.59
917.236	9988.52
917.548	9911.01
917.859	9912.37
918.171	9794.4
918.482	9879.6
918.794	9719.83
919.105	9716.44
919.416	9568.65
919.727	9586.27
920.038	9578.36
920.349	9483.45
920.66	9473.51
920.971	9418.82
921.282	9458.59
921.593	9346.51
921.903	9274.19
922.214	9217.47
922.525	9178.83
922.835	9212.72
923.146	9105.38
923.456	9110.13
923.767	9113.29
924.077	9135.44
924.387	8976.57
924.697	8936.8
925.008	8866.52
925.318	8896.35
925.628	8880.3
925.938	8814.54
926.248	8723.02
926.558	8693.87
926.867	8642.8
927.177	8587.2
927.487	8658.61
927.796	8532.29
928.106	8526.87
928.416	8510.6
928.725	8457.26
929.034	8363.93
929.344	8422.91
929.653	8411.61
929.962	8302.24
930.271	8299.53
930.581	8264.27
930.89	8308.34
931.199	8193.09
931.508	8184.5
931.817	8147.22
932.125	8050.27
932.434	8005.75
932.743	8001.68
933.051	7950.84
933.36	7922.36
933.669	7871.52
933.977	7831.52
934.286	7852.08
934.594	7797.62
934.902	7712.65
935.21	7635.82
935.519	7636.49
935.827	7572.54
936.135	7592.65
936.443	7572.32
936.751	7521.92
937.059	7531.64
937.367	7429.04
937.674	7470.85
937.982	7404.41
938.29	7370.51
938.597	7361.47
938.905	7294.36
939.213	7240.8
939.52	7207.58
939.827	7243.28
940.135	7129.61
940.442	7120.35
940.749	7133
941.056	7129.61
941.363	6997.19
941.67	7016.85
941.977	6951.99
942.284	6958.32
942.591	6944.53
942.898	6919
943.205	6863.18
943.511	6805.33
943.818	6759.68
944.125	6735.27
944.431	6681.04
944.738	6682.17
945.044	6704.32
945.35	6666.12
945.657	6581.83
945.963	6584.77
946.269	6561.49
946.575	6578.89
946.881	6493.93
947.187	6477.2
947.493	6424.77
947.799	6420.71
948.105	6355.4
948.41	6336.64
948.716	6342.52
949.022	6268.85
949.327	6282.41
949.633	6212.35
949.938	6161.96
950.244	6179.81
950.549	6147.95
950.854	6156.76
951.16	6127.38
951.465	6060.26
951.77	6075.18
952.075	6013.94
952.38	6022.53
952.685	5955.86
952.99	5960.38
953.294	5887.61
953.599	5863.43
953.904	5855.52
954.209	5786.15
954.513	5766.26
954.818	5773.72
955.122	5732.36
955.426	5708.41
955.731	5706.83
956.035	5662.31
956.339	5675.87
956.643	5626.83
956.948	5651.01
957.252	5582.54
957.556	5568.98
957.86	5525.36
958.163	5491.47
958.467	5494.4
958.771	5509.09
959.075	5414.41
959.378	5399.26
959.682	5424.8
959.985	5313.62
960.289	5337.57
960.592	5292.15
960.896	5276.1
961.199	5256.9
961.502	5244.24
961.805	5220.29
962.108	5185.03
962.411	5160.63
962.714	5141.64
963.017	5161.53
963.32	5140.74
963.623	5098.71
963.926	5062.78
964.228	5042.66
964.531	5032.27
964.833	5066.39
965.136	5008.31
965.438	4970.35
965.741	4942.55
966.043	4914.98
966.345	4912.72
966.648	4891.71
966.95	4879.73
967.252	4826.85
967.554	4820.75
967.856	4762.67
968.158	4729.45
968.46	4702.11
968.761	4697.36
969.063	4709.11
969.365	4688.78
969.666	4630.02
969.968	4595.22
970.269	4585.27
970.571	4581.89
970.872	4594.31
971.174	4545.95
971.475	4551.38
971.776	4505.28
972.077	4484.49
972.378	4491.27
972.679	4456.24
972.98	4417.37
973.281	4406.07
973.582	4373.76
973.883	4317.26
974.183	4370.14
974.484	4319.07
974.785	4249.24
975.085	4308.9
975.386	4310.25
975.686	4231.84
975.986	4241.1
976.287	4202.01
976.587	4124.27
976.887	4152.29
977.187	4158.85
977.487	4131.95
977.787	4096.25
978.087	4137.15
978.387	4031.62
978.687	4064.61
978.987	4002.24
979.286	4032.3
979.586	4017.38
979.885	3973.54
980.185	3958.62
980.484	3869.14
980.784	3908.91
981.083	3909.59
981.382	3863.71
981.682	3933.77
981.981	3862.81
982.28	3864.62
982.579	3797.5
982.878	3806.31
983.177	3786.65
983.475	3808.12
983.774	3714.11
984.073	3746.43
984.372	3710.72
984.67	3703.49
984.969	3671.4
985.267	3685.41
985.566	3611.06
985.864	3616.03
986.162	3597.05
986.461	3592.53
986.759	3538.97
987.057	3527.22
987.355	3504.63
987.653	3518.86
987.951	3461.69
988.249	3499.65
988.547	3448.81
988.844	3452.2
989.142	3504.4
989.44	3418.75
989.737	3401.35
990.035	3408.58
990.332	3408.36
990.63	3372.65
990.927	3363.84
991.224	3363.84
991.521	3324.29
991.819	3336.04
992.116	3310.96
992.413	3292.43
992.71	3277.06
993.006	3243.39
993.303	3249.04
993.6	3209.72
993.897	3186.22
994.193	3177.18
994.49	3153.9
994.787	3156.61
995.083	3106.9
995.379	3106.44
995.676	3106.67
995.972	3116.16
996.268	3044.75
996.565	3039.55
996.861	3031.87
997.157	3008.59
997.453	2987.58
997.749	2944.87
998.044	2964.07
998.34	2938.99
998.636	2922.49
998.932	2875.26
999.227	2879.78
999.523	2887.47
999.818	2876.39
1000.114	2831.65
1000.409	2845.89
1000.704	2816.73
1001	2807.47
1001.295	2769.96
1001.59	2753.68
1001.885	2774.7
1002.18	2749.17
1002.475	2722.05
1002.77	2709.39
1003.065	2699
1003.359	2679.56
1003.654	2649.05
1003.949	2629.62
1004.243	2645.66
1004.538	2661.48
1004.832	2604.99
1005.127	2604.99
1005.421	2576.06
1005.715	2547.81
1006.009	2570.19
1006.304	2531.32
1006.598	2548.94
1006.892	2520.24
1007.186	2468.27
1007.48	2467.59
1007.773	2434.82
1008.067	2441.38
1008.361	2420.59
1008.655	2434.37
1008.948	2417.2
1009.242	2376.29
1009.535	2375.16
1009.829	2358.44
1010.122	2369.06
1010.415	2336.07
1010.708	2309.63
1011.001	2331.55
1011.295	2307.59
1011.588	2275.28
1011.881	2254.49
1012.173	2245.22
1012.466	2240.03
1012.759	2220.59
1013.052	2231.66
1013.344	2190.08
1013.637	2166.13
1013.93	2147.82
1014.222	2153.25
1014.514	2126.81
1014.807	2136.07
1015.099	2075.51
1015.391	2091.56
1015.683	2079.58
1015.976	2073.25
1016.268	2056.98
1016.56	2066.02
1016.851	2041.84
1017.143	2025.79
1017.435	1998.68
1017.727	2004.1
1018.018	1984.67
1018.31	1990.31
1018.602	1962.07
1018.893	1949.86
1019.185	1895.63
1019.476	1923.65
1019.767	1913.48
1020.058	1860.15
1020.35	1845.23
1020.641	1889.07
1020.932	1874.39
1021.223	1835.97
1021.514	1848.62
1021.804	1817.89
1022.095	1826.93
1022.386	1777.21
1022.677	1795.97
1022.967	1769.98
1023.258	1750.32
1023.548	1744.67
1023.839	1737.44
1024.129	1748.06
1024.419	1733.82
1024.709	1674.84
1025	1701.28
1025.29	1667.39
1025.58	1626.03
1025.87	1615.41
1026.16	1639.59
1026.449	1634.17
1026.739	1601.62
1027.029	1590.55
1027.319	1578.12
1027.608	1597.56
1027.898	1543.32
1028.187	1559.37
1028.477	1532.7
1028.766	1554.39
1029.055	1545.58
1029.344	1514.62
1029.634	1521.63
1029.923	1496.77
1030.212	1478.46
1030.501	1480.72
1030.79	1469.88
1031.078	1460.61
1031.367	1455.19
1031.656	1448.18
1031.945	1417
1032.233	1404.79
1032.522	1395.08
1032.81	1366.38
1033.099	1364.79
1033.387	1369.77
1033.675	1354.63
1033.963	1346.49
1034.251	1333.61
1034.54	1316.89
1034.828	1304.23
1035.116	1297
1035.403	1275.76
1035.691	1308.98
1035.979	1305.59
1036.267	1289.09
1036.554	1270.11
1036.842	1272.14
1037.129	1275.31
1037.417	1252.71
1037.704	1229.66
1037.992	1233.95
1038.279	1208.87
1038.566	1238.24
1038.853	1238.24
1039.14	1238.24
