Data from plate_ceramic_FLMS001491_032.txt Node
Date: Tue Feb 07 11:16:39 GMT 2017
User: dcchb
Spectrometer: FLMS00149
Trigger mode: 0
Integration Time (sec): 2.000000E-2
Scans to average: 10
Electric dark correction enabled: true
Nonlinearity correction enabled: false
Boxcar width: 0
XAxis mode: Wavelengths
Number of Pixels in Spectrum: 2048
>>>>>Begin Spectral Data<<<<<
341.393	-14.94
341.776	-14.94
342.16	-14.94
342.543	-57.88
342.927	-58.11
343.31	-58.33
343.693	-80.03
344.077	-65.34
344.46	-75.51
344.843	-37.99
345.226	-54.49
345.61	-7.03
345.993	-33.93
346.376	-7.03
346.759	3.59
347.142	15.56
347.525	44.49
347.908	58.05
348.291	82.91
348.674	93.75
349.057	121.32
349.44	129.91
349.823	125.39
350.206	158.16
350.588	208.1
350.971	234.09
351.354	252.85
351.737	274.31
352.119	288.33
352.502	291.94
352.884	288.33
353.267	306.4
353.65	307.76
354.032	308.89
354.414	334.43
354.797	336.23
355.179	332.84
355.562	365.39
355.944	354.76
356.326	363.13
356.709	354.76
357.091	354.76
357.473	347.08
357.855	365.61
358.238	355.22
358.62	384.82
359.002	385.05
359.384	376.23
359.766	368.55
360.148	372.17
360.53	376.01
360.912	374.43
361.294	372.84
361.676	362.9
362.057	383.69
362.439	374.43
362.821	384.59
363.203	343.92
363.584	365.61
363.966	369.91
364.348	383.24
364.729	371.04
365.111	360.87
365.493	350.7
365.874	358.15
366.256	352.05
366.637	369.23
367.019	369
367.4	369.68
367.781	364.93
368.163	366.97
368.544	367.19
368.925	351.83
369.306	373.75
369.688	368.1
370.069	365.61
370.45	370.81
370.831	386.18
371.212	363.35
371.593	368.32
371.974	369.45
372.355	376.69
372.736	393.63
373.117	380.53
373.498	381.88
373.879	383.69
374.26	374.43
374.641	362.67
375.021	383.69
375.402	398.15
375.783	392.73
376.163	396.12
376.544	431.82
376.925	401.09
377.305	393.18
377.686	406.74
378.066	414.42
378.447	398.83
378.827	401.09
379.208	427.53
379.588	419.4
379.968	417.81
380.349	427.53
380.729	425.5
381.109	428.89
381.489	414.2
381.87	439.96
382.25	442.9
382.63	456.68
383.01	431.37
383.39	426.63
383.77	439.96
384.15	446.29
384.53	471.15
384.91	467.53
385.29	481.09
385.67	481.54
386.049	487.42
386.429	504.14
386.809	483.8
387.189	474.76
387.568	502.56
387.948	481.09
388.328	513.86
388.707	536.91
389.087	516.79
389.466	503.24
389.846	538.49
390.225	520.64
390.605	536.45
390.984	545.95
391.363	540.07
391.743	540.97
392.122	547.3
392.501	542.78
392.881	558.38
393.26	554.99
393.639	584.36
394.018	566.28
394.397	568.54
394.776	585.72
395.155	585.72
395.534	609.22
395.913	605.83
396.292	627.75
396.671	625.72
397.05	613.74
397.429	612.39
397.808	638.83
398.186	636.57
398.565	632.05
398.944	648.77
399.323	682.67
399.701	665.72
400.08	677.47
400.458	669.78
400.837	685.6
401.215	664.14
401.594	696.9
401.972	700.07
402.351	704.81
402.729	700.07
403.107	706.39
403.486	726.28
403.864	731.7
404.242	732.38
404.62	748.88
404.999	751.82
405.377	793.4
405.755	770.12
406.133	783.23
406.511	784.36
406.889	800.63
407.267	806.73
407.645	850.57
408.023	826.84
408.401	843.11
408.779	854.41
409.156	866.39
409.534	869.33
409.912	896.67
410.29	904.81
410.667	906.61
411.045	931.92
411.422	927.4
411.8	951.59
412.178	962.21
412.555	977.8
412.933	956.33
413.31	966.5
413.687	1014.18
414.065	997.91
414.442	1040.17
414.819	1027.74
415.197	1045.14
415.574	1073.84
415.951	1077.23
416.328	1070.23
416.705	1084.91
417.082	1091.69
417.46	1111.58
417.837	1115.87
418.214	1144.12
418.591	1136.21
418.967	1140.05
419.344	1169.21
419.721	1189.09
420.098	1168.08
420.475	1170.11
420.852	1201.07
421.228	1225.93
421.605	1196.55
421.982	1258.02
422.358	1263.67
422.735	1257.34
423.111	1291.69
423.488	1313.16
423.864	1329.43
424.241	1323.55
424.617	1332.59
424.994	1371.46
425.37	1368.07
425.746	1381.4
426.123	1384.57
426.499	1412.82
426.875	1414.85
427.251	1477.67
427.627	1476.77
428.003	1482.42
428.379	1522.64
428.756	1519.93
429.132	1522.42
429.507	1548.86
429.883	1564.45
430.259	1578.24
430.635	1632.25
431.011	1634.96
431.387	1708.18
431.763	1733.94
432.138	1705.46
432.514	1731.68
432.89	1739.14
433.265	1779.81
433.641	1810.77
434.016	1816.42
434.392	1863.88
434.767	1894.61
435.143	1904.1
435.518	1908.17
435.894	1921.05
436.269	1935.06
436.644	1997.43
437.02	2000.15
437.395	2004.21
437.77	2053.25
438.145	2102.74
438.52	2111.78
438.895	2106.81
439.271	2119.24
439.646	2157.88
440.021	2182.97
440.395	2180.25
440.77	2163.08
441.145	2214.38
441.52	2262.29
441.895	2274.71
442.27	2279.69
442.645	2272.45
443.019	2282.62
443.394	2286.47
443.769	2354.26
444.143	2302.96
444.518	2367.59
444.892	2366.69
445.267	2384.09
445.641	2418.89
446.016	2422.28
446.39	2442.85
446.764	2489.4
447.139	2467.03
447.513	2471.09
447.887	2514.71
448.262	2538.44
448.636	2552.67
449.01	2561.94
449.384	2605.33
449.758	2611.2
450.132	2653.91
450.506	2656.4
450.88	2692.1
451.254	2691.2
451.628	2740.24
452.002	2767.36
452.376	2774.59
452.75	2797.41
453.123	2838.99
453.497	2888.26
453.871	2933
454.244	2954.47
454.618	2998.76
454.992	3042.6
455.365	2994.24
455.739	3141.36
456.112	3121.25
456.486	3190.4
456.859	3208.7
457.232	3303.61
457.606	3256.84
457.979	3311.75
458.352	3366.44
458.725	3383.39
459.099	3460.67
459.472	3540.44
459.845	3559.88
460.218	3561.23
460.591	3639.88
460.964	3649.37
461.337	3724.85
461.71	3817.05
462.083	3818.63
462.456	3825.18
462.829	3808.01
463.201	3979.75
463.574	3924.84
463.947	4019.53
464.32	4096.14
464.692	4132.29
465.065	4140.43
465.438	4292.51
465.81	4272.85
466.183	4330.25
466.555	4444.15
466.928	4447.31
467.3	4462
467.672	4528.21
468.045	4648.21
468.417	4686.63
468.789	4703.58
469.161	4798.04
469.534	4899.28
469.906	4968.88
470.278	4993.96
470.65	5048.43
471.022	5163.23
471.394	5229.44
471.766	5303.56
472.138	5367.06
472.51	5501.52
472.882	5568.19
473.253	5618.58
473.625	5741.52
473.997	5831.68
474.369	5833.94
474.74	5914.17
475.112	5976.76
475.484	6146.48
475.855	6269.19
476.227	6321.39
476.598	6442.29
476.97	6547.14
477.341	6739.46
477.713	6817.19
478.084	6799.79
478.455	7046.79
478.827	7042.5
479.198	7254.47
479.569	7253.11
479.94	7507.8
480.311	7595.7
480.682	7771.52
481.053	7907.33
481.424	8070.95
481.795	8135.35
482.166	8240.66
482.537	8392.75
482.908	8574.21
483.279	8682.68
483.65	8817.59
484.021	9019.62
484.391	9084.25
484.762	9180.97
485.133	9274.3
485.503	9409.89
485.874	9610.34
486.244	9751.58
486.615	9906.15
486.985	9985.92
487.356	10148.86
487.726	10318.57
488.097	10584.33
488.467	10534.38
488.837	10779.8
489.207	10882.4
489.578	11084.65
489.948	11144.09
490.318	11328.26
490.688	11376.4
491.058	11566.22
491.428	11737.97
491.798	11918.3
492.168	12072.65
492.538	12149.03
492.908	12333.21
493.278	12403.49
493.648	12511.96
494.017	12686.64
494.387	12730.03
494.757	12905.4
495.126	13132.28
495.496	13048.67
495.866	13199.4
496.235	13406.17
496.605	13450.01
496.974	13579.5
497.344	13716.45
497.713	13790.57
498.082	13873.51
498.452	13979.49
498.821	14099.71
499.19	14177.23
499.559	14287.28
499.928	14397.79
500.298	14525.01
500.667	14652.92
501.036	14643.2
501.405	14860.6
501.774	14944.66
502.143	15071.67
502.512	15141.49
502.88	15306.46
503.249	15306.69
503.618	15427.81
503.987	15529.73
504.356	15622.61
504.724	15710.29
505.093	15816.96
505.462	15831.65
505.83	15999.33
506.199	16195.48
506.567	16351.63
506.936	16391.86
507.304	16593.89
507.672	16689.25
508.041	16747.33
508.409	16853.09
508.777	17070.71
509.145	17229.8
509.514	17185.28
509.882	17352.51
510.25	17366.29
510.618	17599.28
510.986	17685.16
511.354	17761.76
511.722	17958.6
512.09	18082.66
512.458	18112.94
512.826	18435.65
513.193	18459.83
513.561	18551.57
513.929	18685.81
514.297	18911.79
514.664	18960.15
515.032	19109.3
515.4	19267.49
515.767	19427.26
516.135	19482.62
516.502	19474.94
516.869	19856.17
517.237	19956.28
517.604	19961.48
517.972	20176.39
518.339	20425.65
518.706	20396.72
519.073	20554.01
519.44	20674.23
519.808	20921.46
520.175	20956.03
520.542	21191.28
520.909	21350.6
521.276	21412.52
521.643	21627.2
522.009	21815.22
522.376	22003.46
522.743	22095.66
523.11	22335.66
523.477	22579.27
523.843	22635.08
524.21	22916.43
524.577	23041.63
524.943	23216.54
525.31	23372.46
525.676	23521.84
526.043	23702.63
526.409	23725.68
526.776	24054.48
527.142	24269.84
527.508	24339.67
527.874	24632.54
528.241	24804.52
528.607	24757.74
528.973	25089.71
529.339	25004.06
529.705	25272.3
530.071	25498.51
530.437	25636.13
530.803	25890.59
531.169	25941.21
531.535	26074.77
531.901	26182.56
532.267	26350.47
532.632	26423.23
532.998	26566.73
533.364	26776.22
533.73	26810.79
534.095	27123.1
534.461	27346.37
534.826	27290.78
535.192	27425.24
535.557	27659.13
535.923	27581.17
536.288	27813.03
536.653	27895.28
537.019	27889.18
537.384	28051.89
537.749	28150.87
538.114	28208.72
538.479	28267.93
538.845	28636.51
539.21	28436.96
539.575	28639.9
539.94	28803.73
540.305	29061.13
540.67	28996.27
541.034	29177.51
541.399	29308.58
541.764	29443.49
542.129	29467.22
542.494	29653.66
542.858	29758.74
543.223	29772.97
543.587	29939.07
543.952	29850.71
544.316	30031.27
544.681	30053.19
545.045	30172.06
545.41	30415.22
545.774	30509.68
546.138	30580.41
546.503	30758.03
546.867	30956.22
547.231	31026.05
547.595	31052.71
547.959	31195.08
548.324	31120.51
548.688	31247.29
549.052	31527.28
549.416	31610.67
549.779	31626.94
550.143	31891.56
550.507	31996.64
550.871	32125
551.235	32122.74
551.599	32421.49
551.962	32426.46
552.326	32500.59
552.689	32713.46
553.053	32634.14
553.417	32848.6
553.78	33247.01
554.143	33138.31
554.507	33291.98
554.87	33458.08
555.234	33728.8
555.597	33671.85
555.96	33802.25
556.323	34070.94
556.686	34117.72
557.05	34395.45
557.413	34383.02
557.776	34559.06
558.139	34826.17
558.502	34834.76
558.865	35045.83
559.228	35219.16
559.59	35321.98
559.953	35470.68
560.316	35741.86
560.679	35846.71
561.041	35933.26
561.404	36375.06
561.767	36464.32
562.129	36294.84
562.492	36744.77
562.854	36804.88
563.217	36804.65
563.579	37118.32
563.941	37355.6
564.304	37444.86
564.666	37685.99
565.028	37874
565.39	37952.19
565.753	38177.27
566.115	38181.11
566.477	38447.1
566.839	38444.16
567.201	38765.28
567.563	38661.1
567.925	39107.64
568.287	38952.39
568.648	39133.41
569.01	39286.85
569.372	39582.66
569.734	39656.1
570.095	39841.18
570.457	39856.1
570.819	40204.34
571.18	40085.25
571.542	40401.85
571.903	40441.17
572.265	40637.77
572.626	40757.77
572.987	40777.2
573.349	41050.87
573.71	41078.21
574.071	41045.9
574.432	41151.43
574.794	41453.12
575.155	41463.97
575.516	41447.7
575.877	41657.63
576.238	41740.8
576.599	41825.31
576.96	41901.47
577.32	42084.06
577.681	42284.74
578.042	42379.65
578.403	42402.47
578.763	42350.95
579.124	42549.81
579.485	42678.85
579.845	42703.93
580.206	42591.62
580.566	42554.11
580.927	42597.95
581.287	42686.31
581.648	42799.75
582.008	42864.61
582.368	42886.75
582.728	42884.49
583.089	42889.24
583.449	42901.67
583.809	43044.49
584.169	43100.99
584.529	43070.25
584.889	43331.49
585.249	43035.9
585.609	43082.45
585.969	43307.31
586.329	43000.2
586.688	43252.39
587.048	43213.52
587.408	43112.74
587.768	43242.22
588.127	42977.15
588.487	43205.16
588.846	43497.81
589.206	43153.41
589.565	43253.75
589.925	43429.34
590.284	43189.57
590.643	43369.9
591.003	43570.58
591.362	43439.28
591.721	43559.05
592.08	43421.88
592.44	43736.67
592.799	43580.29
593.158	43495.78
593.517	43570.35
593.876	43543.91
594.235	43521.09
594.593	43580.75
594.952	43781.19
595.311	43642.67
595.67	43651.48
596.029	43939.16
596.387	43807.86
596.746	44048.31
597.104	43718.14
597.463	43820.06
597.822	43925.37
598.18	43747.07
598.538	43941.42
598.897	44025.25
599.255	43775.77
599.613	44440.16
599.972	44141.18
600.33	44142.99
600.688	44067.51
601.046	44114.29
601.404	44359.48
601.762	44220.96
602.12	44430.44
602.478	44412.36
602.836	44538.91
603.194	44141.18
603.552	44371.91
603.91	44286.49
604.268	44472.7
604.625	44424.57
604.983	44721.51
605.341	44545.69
605.698	44671.79
606.056	44743.2
606.413	44710.89
606.771	44741.39
607.128	44967.15
607.485	44781.39
607.843	44888.96
608.2	44864.1
608.557	45073.81
608.914	45089.18
609.272	45184.32
609.629	45154.26
609.986	45274.49
610.343	45128.28
610.7	45460.7
611.057	45414.82
611.414	45451.21
611.771	45457.99
612.127	45641.48
612.484	45623.4
612.841	45693.46
613.198	45586.34
613.554	45661.6
613.911	45918.31
614.267	45811.42
614.624	45766
614.98	45965.99
615.337	46109.49
615.693	46107.01
616.05	45929.16
616.406	46083.73
616.762	45991.08
617.118	45959.22
617.475	46078.76
617.831	46038.08
618.187	46057.52
618.543	46213.45
618.899	46359.66
619.255	46326.21
619.611	46221.13
619.967	46426.55
620.323	46515.36
620.678	46336.38
621.034	46405.08
621.39	46312.65
621.746	46295.48
622.101	46879.19
622.457	46411.41
622.812	46653.89
623.168	46515.13
623.523	46445.98
623.879	46754.22
624.234	46438.98
624.589	46514.23
624.945	46477.17
625.3	46547.45
625.655	46423.61
626.01	46554.45
626.365	46565.98
626.72	46598.75
627.075	46544.96
627.43	46492.76
627.785	46382.93
628.14	46477.17
628.495	46513.1
628.85	46499.77
629.205	46431.07
629.559	46687.33
629.914	46385.64
630.269	46422.93
630.623	46238.76
630.978	46254.35
631.332	46387.68
631.687	46422.71
632.041	46238.98
632.396	46352.65
632.75	45997.86
633.104	46133.45
633.459	45881.03
633.813	45951.31
634.167	45963.51
634.521	45965.54
634.875	46071.53
635.229	45805.77
635.583	45680.8
635.937	45770.97
636.291	45605.1
636.645	45603.52
636.999	45548.15
637.352	45670.41
637.706	45496.85
638.06	45519.68
638.413	45424.99
638.767	45390.19
639.121	45555.38
639.474	45159.01
639.828	45243.08
640.181	45218.44
640.534	45274.26
640.888	45094.15
641.241	44846.48
641.594	45087.15
641.947	45135.51
642.301	44918.56
642.654	44986.36
643.007	44938
643.36	44849.41
643.713	44902.75
644.066	45104.77
644.419	44561.96
644.771	44326.04
645.124	43854.41
645.477	43725.38
645.83	43587.98
646.182	43523.8
646.535	43489.9
646.888	43515.66
647.24	43322
647.593	43637.92
647.945	43523.57
648.298	43286.97
648.65	43093.3
649.002	43131.04
649.355	43234.99
649.707	43010.59
650.059	43429.11
650.411	43682.44
650.763	43731.25
651.115	44074.29
651.467	43971.7
651.819	43942.77
652.171	43917.01
652.523	43754.3
652.875	43709.78
653.227	43612.84
653.578	43853.28
653.93	43853.51
654.282	43549.11
654.633	43452.84
654.985	43554.76
655.337	43529.9
655.688	43580.52
656.039	43670.91
656.391	43261.66
656.742	43435.44
657.094	43362
657.445	43345.27
657.796	43415.55
658.147	43264.37
658.498	43119.06
658.849	43195.45
659.2	43205.16
659.551	43081.32
659.902	43295.56
660.253	43136.92
660.604	43070.25
660.955	43060.08
661.306	43153.19
661.656	43063.25
662.007	43065.05
662.358	43041.1
662.708	43022.57
663.059	42980.76
663.409	42699.64
663.76	42948.45
664.11	42832.07
664.461	42940.31
664.811	42971.72
665.161	42990.03
665.511	42951.61
665.862	42884.72
666.212	43008.33
666.562	43008.56
666.912	42927.2
667.262	42697.83
667.612	42641.79
667.962	42805.63
668.312	42707.78
668.662	42891.95
669.011	42791.61
669.361	42734.44
669.711	42732.86
670.06	42581.9
670.41	42635.23
670.76	42539.19
671.109	42596.59
671.459	42560.21
671.808	42514.11
672.157	42497.61
672.507	42306.43
672.856	42274.34
673.205	42352.76
673.554	42443.83
673.904	42351.17
674.253	42576.48
674.602	42364.96
674.951	41880.9
675.3	41629.84
675.649	42248.35
675.998	42145.76
676.346	42125.19
676.695	42292.19
677.044	41922.03
677.393	42165.19
677.741	42055.36
678.09	41985.53
678.438	41842.71
678.787	41933.11
679.135	41984.86
679.484	41704.41
679.832	41969.04
680.181	41765.88
680.529	41785.77
680.877	41459.9
681.225	41525.66
681.573	41776.95
681.922	41482.27
682.27	41448.15
682.618	41452.67
682.966	41419.67
683.314	41425.32
683.661	41212.9
684.009	41047.03
684.357	40955.28
684.705	40935.84
685.053	40921.61
685.4	40924.09
685.748	40858.78
686.095	40704.66
686.443	40643.2
686.79	40489.53
687.138	40535.86
687.485	40630.09
687.832	40381.96
688.18	40520.04
688.527	40301.96
688.874	40184.45
689.221	39951.69
689.568	39849.55
689.915	39821.07
690.262	39829.21
690.609	39824.69
690.956	39724.35
691.303	39727.97
691.65	39385.38
691.997	39447.97
692.344	39282.55
692.69	39322.55
693.037	39289.33
693.383	38920.3
693.73	39179.05
694.077	38911.72
694.423	38944.48
694.769	38752.17
695.116	38724.83
695.462	38744.72
695.808	38398.96
696.155	38500.65
696.501	38150.38
696.847	38308.34
697.193	37941.57
697.539	38214.11
697.885	37871.07
698.231	37742.71
698.577	37619.32
698.923	37764.4
699.269	37326.45
699.614	37286.9
699.96	37142.72
700.306	37318.76
700.651	37015.95
700.997	37001.26
701.342	36984.08
701.688	36895.95
702.033	36813.24
702.379	36671.32
702.724	36598.56
703.069	36664.77
703.415	36225.23
703.76	36301.84
704.105	36377.32
704.45	36007.39
704.795	35928.07
705.14	35793.83
705.485	35797.22
705.83	35733.27
706.175	35785.25
706.52	35609.43
706.865	35564.69
707.209	35307.29
707.554	35164.92
707.899	35456.21
708.243	35127.41
708.588	35088.77
708.932	34939.84
709.277	34865.72
709.621	34788.21
709.966	34682.9
710.31	34858.72
710.654	34500.08
710.998	34606.97
711.342	34631.6
711.687	34378.28
712.031	34382.34
712.375	34262.57
712.719	34308.22
713.063	34125.18
713.407	34249.92
713.75	34009.02
714.094	34011.96
714.438	33815.13
714.782	33964.5
715.125	33914.33
715.469	33891.06
715.812	33724.73
716.156	33476.38
716.499	33580.33
716.843	33501.01
717.186	33356.38
717.53	33472.76
717.873	33448.36
718.216	33304.18
718.559	33117.75
718.902	32915.04
719.246	33109.84
719.589	33018.76
719.932	32840.46
720.275	32752.56
720.617	32640.47
720.96	32716.4
721.303	32663.07
721.646	32596.4
721.989	32564.54
722.331	32579.23
722.674	32420.36
723.016	32398.22
723.359	32345.11
723.701	32347.6
724.044	32181.05
724.386	31967.49
724.729	32178.33
725.071	32051.56
725.413	31924.33
725.755	31921.62
726.097	31807.72
726.439	31682.3
726.782	31637.11
727.124	31752.36
727.465	31596.88
727.807	31542.87
728.149	31527.28
728.491	31478.24
728.833	31509.2
729.175	31335.87
729.516	31430.11
729.858	31428.98
730.199	31260.84
730.541	31181.98
730.882	31082.09
731.224	31264.23
731.565	30941.31
731.906	30932.72
732.248	31115.76
732.589	30963.9
732.93	30826.51
733.271	30786.96
733.612	30889.78
733.953	30716.23
734.294	30708.99
734.635	30620.41
734.976	30672.61
735.317	30611.82
735.658	30514.88
735.999	30430.58
736.339	30403.01
736.68	30418.83
737.021	30363.69
737.361	30167.99
737.702	30388.33
738.042	30171.83
738.383	30077.6
738.723	30201.44
739.063	29918.96
739.404	30225.39
739.744	29935.68
740.084	29901.11
740.424	29869.92
740.764	29889.58
741.104	29937.26
741.444	29784.05
741.784	29657.72
742.124	29713.09
742.464	29671.73
742.804	29603.26
743.143	29538.86
743.483	29542.02
743.823	29330.27
744.162	29384.28
744.502	29354.68
744.841	29130.05
745.181	29278.07
745.52	29261.8
745.86	29250.73
746.199	29079.66
746.538	29083.73
746.877	29066.33
747.216	28990.4
747.556	28835.6
747.895	28896.61
748.234	28674.02
748.573	28721.48
748.911	28706.56
749.25	28818.2
749.589	28627.92
749.928	28629.05
750.267	28557.19
750.605	28413.46
750.944	28334.14
751.283	28364.42
751.621	28448.49
751.96	28182.51
752.298	28072.91
752.636	28115.39
752.975	27910.88
753.313	28008.73
753.651	27972.57
753.989	27791.33
754.327	27901.61
754.666	27719.24
755.004	27782.74
755.342	27721.5
755.679	27719.02
756.017	27500.04
756.355	27519.93
756.693	27262.53
757.031	27415.75
757.368	27324.68
757.706	27252.81
758.044	27207.17
758.381	27152.03
758.719	27037.68
759.056	27019.6
759.394	27025.93
759.731	26808.76
760.068	26870.23
760.405	26701.64
760.743	26601.31
761.08	26530.8
761.417	26480.86
761.754	26416.45
762.091	26326.74
762.428	26168.78
762.765	26003.13
763.102	26098.04
763.438	26071.38
763.775	25895.34
764.112	25872.29
764.449	25909.12
764.785	25685.17
765.122	25491.5
765.458	25428.68
765.795	25381.45
766.131	25476.36
766.467	25224.62
766.804	25180.78
767.14	24934.68
767.476	24912.09
767.812	24973.55
768.148	24941.24
768.485	24721.58
768.821	24643.17
769.157	24643.84
769.492	24554.13
769.828	24503.51
770.164	24281.14
770.5	24255.61
770.836	24247.7
771.171	24149.17
771.507	24147.81
771.842	23930.64
772.178	23852.9
772.513	23848.16
772.849	23732.68
773.184	23584.44
773.519	23606.36
773.855	23380.83
774.19	23370.66
774.525	23236.65
774.86	23200.94
775.195	23178.35
775.53	23120.04
775.865	22886.38
776.2	22779.03
776.535	22705.36
776.87	22712.37
777.205	22545.37
777.539	22526.61
777.874	22593.05
778.209	22372.26
778.543	22234.87
778.878	22185.83
779.212	22162.78
779.547	21984.25
779.881	22142.21
780.215	21872.39
780.55	21889.57
780.884	21650.02
781.218	21716.69
781.552	21671.72
781.886	21522.57
782.22	21362.12
782.554	21324.38
782.888	21212.52
783.222	21121.22
783.556	21071.28
783.889	20930.27
784.223	20809.37
784.557	20790.84
784.89	20824.96
785.224	20695.02
785.557	20576.61
785.891	20496.38
786.224	20475.37
786.558	20448.02
786.891	20340
787.224	20294.35
787.557	20227.46
787.891	20189.5
788.224	20194.24
788.557	20096.84
788.89	20017.07
789.223	19956.96
789.556	19789.06
789.888	19671.54
790.221	19664.99
790.554	19555.16
790.887	19582.73
791.219	19496.63
791.552	19477.88
791.884	19333.93
792.217	19290.76
792.549	19192.69
792.882	19071.56
793.214	18887.16
793.546	18921.51
793.879	18778.91
794.211	18726.26
794.543	18872.92
794.875	18761.96
795.207	18794.96
795.539	18589.99
795.871	18696.88
796.203	18409.21
796.535	18373.27
796.867	18293.73
797.198	18233.84
797.53	18208.31
797.862	18152.04
798.193	18197.23
798.525	18082.43
798.856	18017.13
799.188	17856.9
799.519	17922.89
799.85	17761.31
800.182	17761.99
800.513	17737.81
800.844	17646.97
801.175	17740.3
801.506	17638.83
801.837	17564.93
802.168	17491.72
802.499	17416.01
802.83	17376.24
803.161	17326.97
803.491	17333.98
803.822	17278.39
804.153	17192.74
804.483	16965.4
804.814	16950.49
805.145	16988.23
805.475	16911.62
805.805	16836.82
806.136	16864.39
806.466	16882.24
806.796	16796.37
807.126	16665.3
807.457	16660.32
807.787	16675.47
808.117	16550.05
808.447	16420.78
808.777	16387.34
809.107	16437.28
809.436	16264.4
809.766	16297.4
810.096	16219.43
810.426	16235.7
810.755	16195.03
811.085	16134.91
811.414	16131.52
811.744	15977.18
812.073	15851.98
812.403	15892.66
812.732	15783.96
813.061	15861.48
813.39	15751.87
813.719	15797.52
814.049	15908.93
814.378	15731.31
814.707	15720.69
815.036	15576.74
815.365	15595.04
815.693	15412.9
816.022	15471.88
816.351	15384.65
816.68	15276.41
817.008	15307.14
817.337	15190.08
817.665	15243.19
817.994	15261.27
818.322	15132.23
818.651	15125.68
818.979	15085.68
819.307	15033.25
819.636	15119.35
819.964	14949.86
820.292	14976.3
820.62	14987.83
820.948	14949.18
821.276	14940.6
821.604	14885.23
821.932	14902.63
822.259	14930.65
822.587	14894.72
822.915	14864.67
823.243	14906.7
823.57	14924.55
823.898	14927.49
824.225	14972.91
824.553	14826.02
824.88	14802.97
825.207	14849.52
825.535	14829.86
825.862	14858.34
826.189	14824.67
826.516	14858.79
826.843	14790.54
827.17	14853.14
827.497	14982.18
827.824	14937.88
828.151	14926.81
828.478	14893.14
828.805	14890.43
829.131	14735.86
829.458	14711.9
829.785	14630.1
830.111	14734.05
830.438	14731.79
830.764	14787.83
831.09	14805.91
831.417	14686.37
831.743	14766.59
832.069	14780.37
832.395	14579.48
832.722	14708.06
833.048	14644.33
833.374	14672.58
833.7	14586.25
834.026	14622.86
834.351	14629.64
834.677	14643.2
835.003	14708.74
835.329	14520.72
835.654	14653.6
835.98	14526.6
836.306	14487.95
836.631	14486.37
836.956	14516.65
837.282	14499.93
837.607	14392.81
837.932	14472.81
838.258	14362.53
838.583	14279.6
838.908	14224.23
839.233	14292.7
839.558	14202.31
839.883	14189.66
840.208	14199.37
840.533	14173.16
840.858	14175.64
841.182	14238.47
841.507	14145.59
841.832	14075.99
842.156	14047.51
842.481	14038.47
842.805	14027.63
843.13	13958.47
843.454	13941.53
843.778	13875.77
844.103	13857.69
844.427	13898.59
844.751	13967.51
845.075	13812.04
845.399	13709.89
845.723	13646.84
846.047	13766.39
846.371	13609.33
846.695	13506.96
847.019	13499.96
847.343	13336.34
847.666	13245.95
847.99	13202.34
848.313	13213.86
848.637	13160.3
848.96	13089.57
849.284	13033.53
849.607	12944.72
849.931	12994.88
850.254	12894.55
850.577	12788.56
850.9	12725.06
851.223	12783.36
851.546	12789.69
851.869	12694.33
852.192	12633.31
852.515	12561.22
852.838	12513.32
853.161	12491.85
853.483	12434.67
853.806	12384.5
854.129	12303.15
854.451	12285.75
854.774	12234
855.096	12209.14
855.419	12156.49
855.741	12205.98
856.063	12096.6
856.385	12081.91
856.708	12073.33
857.03	11982.26
857.352	11933.44
857.674	11878.76
857.996	11856.38
858.318	11752.43
858.64	11760.34
858.961	11757.4
859.283	11746.1
859.605	11659.1
859.926	11714.24
860.248	11689.61
860.57	11667.46
860.891	11623.17
861.212	11536.62
861.534	11514.92
861.855	11479.44
862.176	11523.28
862.498	11545.43
862.819	11600.57
863.14	11463.63
863.461	11404.42
863.782	11339.11
864.103	11389.5
864.424	11253.24
864.745	11329.17
865.065	11284.87
865.386	11174.59
865.707	11159.45
866.027	11245.78
866.348	11208.72
866.668	11182.05
866.989	11171.43
867.309	11043.3
867.63	11119.91
867.95	11137.08
868.27	11000.59
868.59	11048.49
868.91	11032
869.23	11013.24
869.55	10965.79
869.87	11030.64
870.19	10992.23
870.51	10965.56
870.83	10985.67
871.15	10871.1
871.469	10865.9
871.789	10886.47
872.109	10865
872.428	10828.16
872.748	10846.92
873.067	10788.16
873.386	10834.72
873.706	10747.26
874.025	10701.84
874.344	10777.09
874.663	10667.04
874.982	10702.52
875.301	10686.47
875.62	10665.45
875.939	10541.84
876.258	10540.71
876.577	10552.46
876.896	10470.66
877.214	10494.84
877.533	10541.84
877.852	10459.58
878.17	10441.28
878.489	10481.73
878.807	10470.43
879.125	10401.28
879.444	10449.19
879.762	10416.2
880.08	10350.43
880.398	10345.69
880.716	10347.95
881.034	10269.98
881.352	10258.01
881.67	10266.14
881.988	10296.42
882.306	10234.5
882.624	10298.23
882.941	10194.28
883.259	10169.42
883.577	10094.17
883.894	10106.15
884.212	10105.69
884.529	10080.38
884.846	10116.09
885.164	10096.66
885.481	9991.12
885.798	10038.13
886.115	9876.55
886.432	9830.22
886.75	9857.79
887.067	9824.12
887.383	9801.3
887.7	9832.93
888.017	9769.21
888.334	9809.88
888.651	9792.26
888.967	9737.34
889.284	9662.99
889.6	9716.33
889.917	9633.16
890.233	9624.58
890.55	9621.64
890.866	9567.63
891.182	9625.03
891.498	9566.05
891.815	9466.39
892.131	9448.76
892.447	9393.4
892.763	9385.71
893.079	9389.56
893.395	9367.86
893.71	9270.69
894.026	9308.65
894.342	9244.47
894.657	9211.93
894.973	9230.24
895.289	9157.25
895.604	9165.83
895.92	9088.77
896.235	9012.16
896.55	9070.02
896.865	8978.94
897.181	8981.88
897.496	8983.01
897.811	8955.22
898.126	8883.35
898.441	8885.16
898.756	8788.89
899.071	8781.21
899.386	8838.61
899.7	8743.47
900.015	8700.31
900.33	8678.39
900.644	8660.31
900.959	8626.64
901.273	8622.12
901.588	8587.32
901.902	8555
902.216	8453.53
902.531	8462.57
902.845	8410.6
903.159	8362.69
903.473	8259.64
903.787	8275.91
904.101	8235.24
904.415	8294.22
904.729	8257.16
905.042	8153.43
905.356	8202.92
905.67	8143.49
905.984	8198.17
906.297	8162.92
906.611	8061
906.924	8073.43
907.237	8027.11
907.551	7979.87
907.864	7967.67
908.177	7935.81
908.491	7824.62
908.804	7844.06
909.117	7867.79
909.43	7780.11
909.743	7693.55
910.056	7764.74
910.368	7671.63
910.681	7642.71
910.994	7648.58
911.307	7557.06
911.619	7550.73
911.932	7580.79
912.244	7485.42
912.557	7495.59
912.869	7407.69
913.181	7378.99
913.494	7400.23
913.806	7396.39
914.118	7337.41
914.43	7314.81
914.742	7243.62
915.054	7191.2
915.366	7166.11
915.678	7121.37
915.99	7111.42
916.302	7081.14
916.613	7034.36
916.925	7017.64
917.236	7000.01
917.548	6980.81
917.859	6977.42
918.171	6912.11
918.482	6959.56
918.794	6887.02
919.105	6884.08
919.416	6800.24
919.727	6781.71
920.038	6726.35
920.349	6675.95
920.66	6679.12
920.971	6661.49
921.282	6612.23
921.593	6575.62
921.903	6526.13
922.214	6541.27
922.525	6492.23
922.835	6527.48
923.146	6459.01
923.456	6453.36
923.767	6401.39
924.077	6430.76
924.387	6329.07
924.697	6343.31
925.008	6305.57
925.318	6268.73
925.628	6277.77
925.938	6260.6
926.248	6107.61
926.558	6153.93
926.867	6144.89
927.177	6138.12
927.487	6106.93
927.796	6004.56
928.106	6035.97
928.416	6020.15
928.725	5916.88
929.034	5942.87
929.344	6020.83
929.653	5907.16
929.962	5870.1
930.271	5846.6
930.581	5852.93
930.89	5733.83
931.199	5790.1
931.508	5788.07
931.817	5757.56
932.125	5774.06
932.434	5737.22
932.743	5625.81
933.051	5595.98
933.36	5617.45
933.669	5567.28
933.977	5539.04
934.286	5539.26
934.594	5481.64
934.902	5465.14
935.21	5425.82
935.519	5448.42
935.827	5468.75
936.135	5429.66
936.443	5350.57
936.751	5344.01
937.059	5340.17
937.367	5283.9
937.674	5293.62
937.982	5240.96
938.29	5247.52
938.597	5210.91
938.905	5142.21
939.213	5188.31
939.52	5130.91
939.827	5140.63
940.135	5099.05
940.442	5068.54
940.749	5019.5
941.056	4983.8
941.363	4998.48
941.67	4987.19
941.977	4974.76
942.284	4946.06
942.591	4955.32
942.898	4907.19
943.205	4906.28
943.511	4857.7
943.818	4805.72
944.125	4774.76
944.431	4762.56
944.738	4744.48
945.044	4750.36
945.35	4746.06
945.657	4703.35
945.963	4686.4
946.269	4652.05
946.575	4642.79
946.881	4652.73
947.187	4614.54
947.493	4571.15
947.799	4553.07
948.105	4514.66
948.41	4554.65
948.716	4530.02
949.022	4443.24
949.327	4449.35
949.633	4408.67
949.938	4447.76
950.244	4426.52
950.549	4377.94
950.854	4399.4
951.16	4383.36
951.465	4401.89
951.77	4365.51
952.075	4333.19
952.38	4275.11
952.685	4302.46
952.99	4243.48
953.294	4287.32
953.599	4208
953.904	4216.81
954.209	4142.46
954.513	4123.93
954.818	4159.41
955.122	4090.49
955.426	4139.98
955.731	4109.24
956.035	4031.05
956.339	4041.67
956.643	4058.62
956.948	4001.45
957.252	3979.98
957.556	4008.45
957.86	3968
958.163	3955.57
958.467	3909.02
958.771	3901.34
959.075	3865.86
959.378	3859.53
959.682	3843.26
959.985	3828.12
960.289	3829.48
960.592	3807.78
960.896	3840.1
961.199	3758.52
961.502	3778.4
961.805	3699.31
962.108	3691.4
962.411	3666.32
962.714	3656.15
963.017	3644.4
963.32	3690.72
963.623	3631.74
963.926	3601.01
964.228	3602.59
964.531	3593.1
964.833	3603.04
965.136	3572.76
965.438	3551.29
965.741	3525.98
966.043	3491.63
966.345	3491.18
966.648	3488.02
966.95	3490.73
967.252	3485.76
967.554	3472.65
967.856	3462.48
968.158	3397.4
968.46	3376.38
968.761	3378.19
969.063	3362.14
969.365	3351.52
969.666	3349.94
969.968	3296.16
970.269	3282.6
970.571	3264.97
970.872	3292.54
971.174	3267.91
971.475	3244.86
971.776	3249.15
972.077	3271.52
972.378	3230.4
972.679	3194.24
972.98	3172.77
973.281	3166.89
973.582	3166.89
973.883	3188.14
974.183	3125.77
974.484	3074.02
974.785	3088.03
975.085	3085.09
975.386	3110.62
975.686	3092.32
975.986	3045.77
976.287	3025.2
976.587	3044.41
976.887	3016.62
977.187	3005.99
977.487	2961.25
977.787	2987.69
978.087	2924.87
978.387	2916.96
978.687	2934.58
978.987	2887.13
979.286	2894.58
979.586	2866.11
979.885	2872.44
980.185	2876.96
980.484	2857.75
980.784	2805.32
981.083	2833.57
981.382	2802.84
981.682	2770.07
981.981	2826.56
982.28	2783.85
982.579	2747.02
982.878	2771.42
983.177	2745.66
983.475	2723.74
983.774	2703.86
984.073	2659.79
984.372	2696.4
984.67	2707.92
984.969	2675.61
985.267	2703.86
985.566	2660.47
985.864	2635.61
986.162	2608.49
986.461	2598.55
986.759	2600.13
987.057	2573.69
987.355	2555.16
987.653	2548.15
987.951	2564.65
988.249	2526.91
988.547	2501.37
988.844	2488.49
989.142	2517.87
989.44	2470.87
989.737	2479.23
990.035	2485.1
990.332	2456.18
990.63	2452.34
990.927	2439
991.224	2424.77
991.521	2395.39
991.819	2411.89
992.116	2389.51
992.413	2396.07
992.71	2342.96
993.006	2355.62
993.303	2352.23
993.6	2319.01
993.897	2325.79
994.193	2329.85
994.49	2319.46
994.787	2283.53
995.083	2294.37
995.379	2253.7
995.676	2252.12
995.972	2241.95
996.268	2269.06
996.565	2230.2
996.861	2177.32
997.157	2193.59
997.453	2197.43
997.749	2191.78
998.044	2149.07
998.34	2136.86
998.636	2125.57
998.932	2128.96
999.227	2119.46
999.523	2137.77
999.818	2090.76
1000.114	2065.91
1000.409	2045.12
1000.704	2065.23
1001	2045.57
1001.295	2013.25
1001.59	2045.79
1001.885	1999.24
1002.18	2006.02
1002.475	2006.25
1002.77	1999.02
1003.065	1982.97
1003.359	1965.57
1003.654	2010.77
1003.949	1992.01
1004.243	1934.84
1004.538	1946.36
1004.832	1949.3
1005.127	1915.63
1005.421	1921.96
1005.715	1879.92
1006.009	1868.4
1006.304	1908.85
1006.598	1871.33
1006.892	1864.78
1007.186	1847.38
1007.48	1822.75
1007.773	1824.33
1008.067	1775.29
1008.361	1783.2
1008.655	1777.55
1008.948	1749.76
1009.242	1753.82
1009.535	1744.11
1009.829	1767.16
1010.122	1724.67
1010.415	1744.11
1010.708	1739.14
1011.001	1737.55
1011.295	1690.55
1011.588	1705.46
1011.881	1696.2
1012.173	1694.62
1012.466	1686.48
1012.759	1619.36
1013.052	1646.03
1013.344	1632.92
1013.637	1636.99
1013.93	1619.59
1014.222	1593.38
1014.514	1580.27
1014.807	1573.04
1015.099	1587.05
1015.391	1563.55
1015.683	1562.42
1015.976	1530.78
1016.268	1559.93
1016.56	1533.26
1016.851	1532.13
1017.143	1532.59
1017.435	1511.57
1017.727	1480.38
1018.018	1481.74
1018.31	1451.46
1018.602	1460.72
1018.893	1444
1019.185	1447.62
1019.476	1432.02
1019.767	1410.33
1020.058	1412.82
1020.35	1427.05
1020.641	1404
1020.932	1379.14
1021.223	1367.62
1021.514	1395.64
1021.804	1353.61
1022.095	1371.46
1022.386	1365.59
1022.677	1335.53
1022.967	1309.09
1023.258	1313.38
1023.548	1312.71
1023.839	1292.59
1024.129	1319.94
1024.419	1273.84
1024.709	1278.58
1025	1291.92
1025.29	1269.32
1025.58	1261.18
1025.87	1257.11
1026.16	1254.85
1026.449	1216.21
1026.739	1205.82
1027.029	1192.71
1027.319	1199.26
1027.608	1195.65
1027.898	1186.61
1028.187	1195.65
1028.477	1183.44
1028.766	1183.44
1029.055	1155.65
1029.344	1138.02
1029.634	1162.2
1029.923	1134.18
1030.212	1123.78
1030.501	1117.91
1030.79	1100.06
1031.078	1106.84
1031.367	1086.5
1031.656	1085.14
1031.945	1084.91
1032.233	1084.24
1032.522	1084.24
1032.81	1069.1
1033.099	1042.43
1033.387	1060.06
1033.675	1038.81
1033.963	1042.43
1034.251	1045.59
1034.54	1022.77
1034.828	1010.57
1035.116	1001.08
1035.403	1017.12
1035.691	996.33
1035.979	1010.57
1036.267	980.06
1036.554	993.62
1036.842	989.78
1037.129	974.18
1037.417	943
1037.704	944.35
1037.992	941.42
1038.279	941.19
1038.566	915.65
1038.853	915.65
1039.14	915.65
