Data from plate_porcelain_FLMS001491_092.txt Node
Date: Tue Feb 07 11:20:12 GMT 2017
User: dcchb
Spectrometer: FLMS00149
Trigger mode: 0
Integration Time (sec): 2.000000E-2
Scans to average: 10
Electric dark correction enabled: true
Nonlinearity correction enabled: false
Boxcar width: 0
XAxis mode: Wavelengths
Number of Pixels in Spectrum: 2048
>>>>>Begin Spectral Data<<<<<
341.393	-0.4
341.776	-0.4
342.16	-0.4
342.543	-47.4
342.927	-64.8
343.31	-87.17
343.693	-74.29
344.077	-53.28
344.46	-73.16
344.843	-71.13
345.226	-49.43
345.61	-37.68
345.993	-8.53
346.376	-9.21
346.759	28.98
347.142	28.3
347.525	65.14
347.908	50.9
348.291	82.54
348.674	97.23
349.057	110.79
349.44	120.73
349.823	147.62
350.206	165.93
350.588	221.52
350.971	233.27
351.354	253.84
351.737	265.36
352.119	312.14
352.502	292.7
352.884	332.7
353.267	334.51
353.65	332.03
354.032	337
354.414	362.76
354.797	362.08
355.179	380.84
355.562	369.09
355.944	374.96
356.326	377.22
356.709	382.42
357.091	375.64
357.473	387.16
357.855	374.96
358.238	394.85
358.62	385.58
359.002	392.81
359.384	398.01
359.766	388.07
360.148	401.85
360.53	392.59
360.912	379.71
361.294	404.11
361.676	402.98
362.057	418.58
362.439	392.14
362.821	395.3
363.203	400.27
363.584	379.26
363.966	410.44
364.348	387.16
364.729	400.5
365.111	393.94
365.493	375.87
365.874	381.06
366.256	403.44
366.637	395.75
367.019	407.5
367.4	397.11
367.781	398.69
368.163	403.89
368.544	404.11
368.925	424.9
369.306	435.53
369.688	410.44
370.069	403.21
370.45	429.88
370.831	416.09
371.212	402.76
371.593	411.12
371.974	429.65
372.355	423.32
372.736	441.63
373.117	433.94
373.498	429.65
373.879	419.93
374.26	419.03
374.641	435.75
375.021	406.83
375.402	439.14
375.783	455.19
376.163	472.59
376.544	475.07
376.925	458.12
377.305	451.57
377.686	461.06
378.066	466.48
378.447	473.26
378.827	488.86
379.208	477.11
379.588	458.8
379.968	487.95
380.349	497.67
380.729	484.34
381.109	523.66
381.489	505.13
381.87	524.34
382.25	516.65
382.63	520.27
383.01	542.64
383.39	540.16
383.77	530.89
384.15	537.44
384.53	554.84
384.91	561.62
385.29	595.07
385.67	577.89
386.049	590.32
386.429	593.71
386.809	597.1
387.189	600.04
387.568	591
387.948	586.26
388.328	598.91
388.707	602.3
389.087	627.61
389.466	624.67
389.846	642.98
390.225	643.88
390.605	637.1
390.984	672.81
391.363	668.74
391.743	668.51
392.122	689.53
392.501	703.54
392.881	698.57
393.26	706.48
393.639	722.07
394.018	725.91
394.397	732.47
394.776	746.7
395.155	757.32
395.534	759.13
395.913	767.95
396.292	774.27
396.671	802.07
397.05	800.49
397.429	801.62
397.808	793.71
398.186	815.4
398.565	809.53
398.944	825.12
399.323	830.77
399.701	836.19
400.08	859.47
400.458	855.18
400.837	889.98
401.215	905.12
401.594	887.49
401.972	905.34
402.351	925
402.729	909.64
403.107	943.08
403.486	927.26
403.864	944.66
404.242	957.77
404.62	963.87
404.999	958.68
405.377	993.02
405.755	993.7
406.133	1035.28
406.511	1052.68
406.889	1074.6
407.267	1057.43
407.645	1080.25
408.023	1098.78
408.401	1096.98
408.779	1114.6
409.156	1128.61
409.534	1160.7
409.912	1167.26
410.29	1213.13
410.667	1221.72
411.045	1199.12
411.422	1260.36
411.8	1252
412.178	1260.81
412.555	1299.23
412.933	1290.87
413.31	1341.04
413.687	1332.9
414.065	1384.43
414.442	1383.75
414.819	1385.33
415.197	1399.79
415.574	1432.34
415.951	1462.62
416.328	1479.11
416.705	1473.69
417.082	1485.67
417.46	1526.8
417.837	1530.41
418.214	1536.97
418.591	1552.56
418.967	1592.33
419.344	1602.05
419.721	1622.84
420.098	1622.61
420.475	1648.15
420.852	1631.2
421.228	1726.11
421.605	1691.99
421.982	1724.98
422.358	1743.29
422.735	1769.73
423.111	1767.24
423.488	1821.03
423.864	1811.31
424.241	1845.88
424.617	1880.46
424.994	1887.24
425.37	1885.2
425.746	1934.69
426.123	1917.52
426.499	1949.16
426.875	1994.13
427.251	2018.53
427.627	2066.44
428.003	2111.41
428.379	2105.76
428.756	2135.59
429.132	2197.74
429.507	2211.52
429.883	2202.03
430.259	2254.69
430.635	2298.3
431.011	2308.24
431.387	2369.94
431.763	2411.74
432.138	2409.48
432.514	2438.86
432.89	2458.97
433.265	2522.02
433.641	2559.99
434.016	2585.75
434.392	2635.92
434.767	2683.6
435.143	2691.74
435.518	2712.98
435.894	2745.97
436.269	2774.45
436.644	2842.47
437.02	2831.62
437.395	2873.2
437.77	2910.71
438.145	2979.87
438.52	3009.69
438.895	3027.77
439.271	3019.19
439.646	3101.44
440.021	3155.68
440.395	3132.63
440.77	3127.43
441.145	3170.37
441.52	3270.93
441.895	3241.55
442.27	3301.89
442.645	3300.76
443.019	3328.56
443.394	3338.5
443.769	3328.1
444.143	3364.49
444.518	3431.38
444.892	3450.59
445.267	3455.56
445.641	3500.76
446.016	3524.94
446.39	3564.26
446.764	3574.2
447.139	3580.08
447.513	3598.15
447.887	3684.03
448.262	3701.2
448.636	3732.84
449.01	3762.9
449.384	3778.71
449.758	3802.89
450.132	3881.76
450.506	3890.12
450.88	3952.04
451.254	3945.94
451.628	3984.58
452.002	4049.89
452.376	4081.08
452.75	4128.54
453.123	4172.15
453.497	4202.21
453.871	4274.52
454.244	4350.9
454.618	4391.58
454.992	4442.2
455.365	4474.52
455.739	4542.76
456.112	4604.68
456.486	4766.94
456.859	4734.4
457.232	4792.47
457.606	4780.72
457.979	4922.41
458.352	4979.81
458.725	5047.83
459.099	5072.01
459.472	5232.01
459.845	5264.55
460.218	5303.65
460.591	5361.27
460.964	5369.63
461.337	5534.6
461.71	5612.56
462.083	5650.98
462.456	5670.19
462.829	5752.67
463.201	5849.39
463.574	5808.94
463.947	5916.96
464.32	6102.27
464.692	6160.8
465.065	6218.2
465.438	6297.97
465.81	6378.42
466.183	6435.14
466.555	6623.39
466.928	6614.12
467.3	6662.48
467.672	6753.33
468.045	6979.08
468.417	6944.28
468.789	7001.45
469.161	7087.55
469.534	7248.23
469.906	7403.7
470.278	7525.96
470.65	7544.26
471.022	7729.57
471.394	7915.33
471.766	7902.67
472.138	8028.55
472.51	8179.05
472.882	8306.96
473.253	8416.78
473.625	8553.05
473.997	8761.18
474.369	8777.23
474.74	8857.68
475.112	9088.41
475.484	9216.09
475.855	9364.1
476.227	9536.75
476.598	9713.47
476.97	9817.65
477.341	10030.98
477.713	10216.06
478.084	10276.4
478.455	10559.78
478.827	10679.1
479.198	10976.94
479.569	11051.29
479.94	11385.07
480.311	11307.56
480.682	11717.49
481.053	12011.72
481.424	12185.05
481.795	12315.89
482.166	12462.55
482.537	12646.73
482.908	12941.64
483.279	13070.45
483.65	13326.26
484.021	13608.51
484.391	13683.76
484.762	13817.32
485.133	14049.18
485.503	14191.1
485.874	14594.93
486.244	14736.84
486.615	14989.49
486.985	15093.22
487.356	15385.41
487.726	15565.97
488.097	15845.06
488.467	15932.97
488.837	16361.66
489.207	16554.88
489.578	16817.92
489.948	16885.94
490.318	17216.55
490.688	17244.12
491.058	17570.44
491.428	17774.05
491.798	18006.14
492.168	18255.62
492.538	18456.52
492.908	18648.83
493.278	18784.65
493.648	18929.5
494.017	19143.73
494.387	19344.86
494.757	19564.97
495.126	19730.39
495.496	19863.94
495.866	19975.8
496.235	20234.33
496.605	20441.78
496.974	20547.99
497.344	20791.15
497.713	20940.97
498.082	21185.04
498.452	21311.59
498.821	21445.37
499.19	21508.42
499.559	21738.02
499.928	21853.95
500.298	22127.38
500.667	22302.75
501.036	22147.72
501.405	22538.45
501.774	22635.17
502.143	22890.3
502.512	22839.91
502.88	23205.77
503.249	23106.34
503.618	23413
503.987	23570.06
504.356	23700.22
504.724	23887.56
505.093	24002.14
505.462	24121.46
505.83	24337.27
506.199	24447.55
506.567	24747.2
506.936	24821.55
507.304	25157.59
507.672	25225.83
508.041	25443
508.409	25634.86
508.777	25757.8
509.145	26065.36
509.514	26129.76
509.882	26279.82
510.25	26263.32
510.618	26558.91
510.986	26692.91
511.354	26961.16
511.722	27226.01
512.09	27404.53
512.458	27478.66
512.826	27667.13
513.193	27858.76
513.561	28032.31
513.929	28311.18
514.297	28564.5
514.664	28761.11
515.032	28942.35
515.4	29172.62
515.767	29314.09
516.135	29466.4
516.502	29407.19
516.869	29938.7
517.237	30066.16
517.604	30030.45
517.972	30479.26
518.339	30707.95
518.706	30784.56
519.073	30967.38
519.44	31254.38
519.808	31549.51
520.175	31590.41
520.542	32098.2
520.909	32171.41
521.276	32397.85
521.643	32643.27
522.009	32932.98
522.376	33124.84
522.743	33212.52
523.11	33730.47
523.477	33824.93
523.843	34270.57
524.21	34529.54
524.577	34845.24
524.943	34852.47
525.31	35101.05
525.676	35448.16
526.043	35601.83
526.409	35746.01
526.776	36262.38
527.142	36393.22
527.508	36664.4
527.874	36958.86
528.241	37016.26
528.607	37242.02
528.973	37697.6
529.339	37724.94
529.705	38117.02
530.071	38451.02
530.437	38428.2
530.803	38740.96
531.169	39060.95
531.535	39005.58
531.901	39089.2
532.267	39479.7
532.632	39587.04
532.998	39700.93
533.364	40166.01
533.73	40273.35
534.095	40567.58
534.461	40566.67
534.826	40838.53
535.192	41049.82
535.557	41348.57
535.923	41270.84
536.288	41421.57
536.653	41716.47
537.019	41587.44
537.384	41960.54
537.749	41910.37
538.114	42147.65
538.479	42215.9
538.845	42452.05
539.21	42617.02
539.575	42827.18
539.94	42868.31
540.305	43186.94
540.67	43077.57
541.034	43322.08
541.399	43634.39
541.764	43717.55
542.129	43823.76
542.494	43778.11
542.858	44109.86
543.223	44005.68
543.587	44453.58
543.952	44333.13
544.316	44789.16
544.681	44677.3
545.045	44823.51
545.41	45073.45
545.774	45104.41
546.138	45248.81
546.503	45406.32
546.867	45390.28
547.231	45758.18
547.595	45891.05
547.959	46056.25
548.324	46067.09
548.688	46031.39
549.052	46275.9
549.416	46432.28
549.779	46434.99
550.143	46587.31
550.507	46936.68
550.871	47028.42
551.235	47021.42
551.599	47355.42
551.962	47317.23
552.326	47485.14
552.689	47776.88
553.053	47671.57
553.417	47780.04
553.78	48315.62
554.143	48198.11
554.507	48419.8
554.87	48543.19
555.234	48992.67
555.597	48867.7
555.96	49037.19
556.323	49142.04
556.686	49193.57
557.05	49530.96
557.413	49596.49
557.776	49595.59
558.139	49919.65
558.502	50029.48
558.865	50123.48
559.228	50456.81
559.59	50438.28
559.953	50485.06
560.316	50848.44
560.679	50983.8
561.041	51073.97
561.404	51294.75
561.767	51521.41
562.129	51361.87
562.492	51683.9
562.854	51823.1
563.217	51737.45
563.579	51906.94
563.941	52117.56
564.304	52408.85
564.666	52510.77
565.028	52525.46
565.39	52692.68
565.753	52841.83
566.115	52934.71
566.477	53091.09
566.839	53187.81
567.201	53359.33
567.563	53424.87
567.925	53579.21
568.287	53670.74
568.648	53672.77
569.01	53861.24
569.372	54007.45
569.734	53997.51
570.095	54241.34
570.457	54270.72
570.819	54387.1
571.18	54378.29
571.542	54583.25
571.903	54578.73
572.265	54790.25
572.626	54797.71
572.987	54822.8
573.349	54935.56
573.71	55083.58
574.071	55121.09
574.432	55196.12
574.794	55386.4
575.155	55363.35
575.516	55236.34
575.877	55518.14
576.238	55440.41
576.599	55678.82
576.96	55637.46
577.32	55616.22
577.681	55779.15
578.042	55882.43
578.403	55851.47
578.763	55856.67
579.124	55908.64
579.485	56035.87
579.845	56095.76
580.206	56058.47
580.566	56094.17
580.927	56112.93
581.287	56218.01
581.648	56050.79
582.008	56245.81
582.368	56236.54
582.728	56261.18
583.089	56268.86
583.449	56222.31
583.809	56248.75
584.169	56318.8
584.529	56305.47
584.889	56480.83
585.249	56269.76
585.609	56208.3
585.969	56404
586.329	56298.92
586.688	56389.31
587.048	56371.46
587.408	56347.5
587.768	56436.54
588.127	56326.03
588.487	56278.35
588.846	56480.38
589.206	56318.12
589.565	56424.34
589.925	56447.39
590.284	56384.11
590.643	56465.24
591.003	56473.15
591.362	56583.2
591.721	56505.01
592.08	56532.58
592.44	56477.67
592.799	56589.98
593.158	56563.77
593.517	56559.93
593.876	56649.41
594.235	56532.13
594.593	56603.09
594.952	56620.94
595.311	56578.68
595.67	56621.17
596.029	56780.71
596.387	56793.14
596.746	56800.37
597.104	56667.72
597.463	56752.91
597.822	56756.98
598.18	56690.54
598.538	56682.18
598.897	56860.48
599.255	56668.17
599.613	57068.39
599.972	56874.27
600.33	56964.66
600.688	56892.57
601.046	56959.46
601.404	57046.24
601.762	56928.96
602.12	57089.63
602.478	57097.99
602.836	57170.53
603.194	57037.2
603.552	57087.82
603.91	56926.7
604.268	57183.86
604.625	57086.69
604.983	57222.05
605.341	57063.41
605.698	57251.88
606.056	57260.7
606.413	57288.72
606.771	57326.91
607.128	57380.92
607.485	57273.35
607.843	57305.44
608.2	57511.76
608.557	57554.25
608.914	57368.27
609.272	57514.7
609.629	57582.95
609.986	57631.08
610.343	57496.62
610.7	57790.4
611.057	57695.71
611.414	57709.95
611.771	57690.97
612.127	57818.42
612.484	57819.78
612.841	57859.55
613.198	57766
613.554	57876.73
613.911	57989.27
614.267	57867.69
614.624	57815.49
614.98	57939.32
615.337	58151.3
615.693	58069.26
616.05	58048.47
616.406	58107.68
616.762	58075.82
617.118	58051.19
617.475	58052.09
617.831	58117.62
618.187	58158.98
618.543	58140.9
618.899	58306.77
619.255	58229.49
619.611	58246.21
619.967	58286.66
620.323	58321.23
620.678	58220.9
621.034	58201.92
621.39	58208.7
621.746	58156.72
622.101	58469.03
622.457	58231.97
622.812	58349.03
623.168	58390.16
623.523	58303.83
623.879	58432.19
624.234	58195.36
624.589	58373.89
624.945	58384.96
625.3	58402.14
625.655	58414.57
626.01	58332.76
626.365	58383.83
626.72	58383.38
627.075	58384.96
627.43	58359.2
627.785	58231.52
628.14	58329.82
628.495	58256.15
628.85	58242.37
629.205	58190.62
629.559	58273.33
629.914	58181.58
630.269	58245.08
630.623	58164.18
630.978	58142.03
631.332	58237.17
631.687	58188.36
632.041	58130.96
632.396	58152.65
632.75	57985.65
633.104	58080.11
633.459	57994.92
633.813	58007.34
634.167	57919.21
634.521	57911.3
634.875	57940.91
635.229	57869.5
635.583	57763.51
635.937	57821.81
636.291	57758.54
636.645	57722.38
636.999	57683.96
637.352	57809.61
637.706	57577.98
638.06	57643.06
638.413	57672.89
638.767	57562.16
639.121	57596.51
639.474	57451.43
639.828	57384.08
640.181	57536.17
640.534	57539.11
640.888	57366.91
641.241	57275.84
641.594	57291.21
641.947	57338.21
642.301	57334.14
642.654	57266.8
643.007	57302.5
643.36	57182.28
643.713	57162.17
644.066	57286.46
644.419	57040.82
644.771	56959.46
645.124	56656.65
645.477	56623.88
645.83	56434.96
646.182	56303.43
646.535	56243.55
646.888	56326.71
647.24	56180.27
647.593	56345.69
647.945	56177.34
648.298	56126.94
648.65	56037.45
649.002	55928.53
649.355	56016.89
649.707	56055.76
650.059	56118.81
650.411	56429.31
650.763	56439.25
651.115	56655.74
651.467	56604.44
651.819	56544.78
652.171	56458.68
652.523	56408.29
652.875	56451.23
653.227	56231.12
653.578	56402.87
653.93	56326.03
654.282	56227.05
654.633	56130.33
654.985	56212.59
655.337	56208.75
655.688	56180.5
656.039	56320.38
656.391	56045.14
656.742	56102.76
657.094	56095.53
657.445	56186.83
657.796	56127.39
658.147	56129.88
658.498	56096.89
658.849	56116.55
659.2	56058.92
659.551	55917.91
659.902	56097.56
660.253	56045.14
660.604	56085.81
660.955	55804.01
661.306	55968.3
661.656	55822.32
662.007	55953.84
662.358	55887.4
662.708	55862.09
663.059	55820.28
663.409	55646.95
663.76	55791.81
664.11	55826.39
664.461	55892.37
664.811	55860.06
665.161	55779.61
665.511	55700.51
665.862	55738.7
666.212	55811.47
666.562	55850.79
666.912	55780.28
667.262	55740.96
667.612	55677.69
667.962	55723.11
668.312	55619.61
668.662	55794.52
669.011	55564.25
669.361	55646.95
669.711	55585.26
670.06	55631.59
670.41	55684.47
670.76	55512.95
671.109	55597.69
671.459	55527.86
671.808	55554.08
672.157	55582.32
672.507	55319.28
672.856	55378.26
673.205	55446.06
673.554	55495.32
673.904	55406.28
674.253	55599.27
674.602	55429.11
674.951	55023.69
675.3	54944.15
675.649	55283.8
675.998	55325.83
676.346	55291.03
676.695	55371.93
677.044	55186.18
677.393	55283.12
677.741	55285.83
678.09	55223.01
678.438	55092.39
678.787	55189.57
679.135	55212.39
679.484	55002.9
679.832	55135.33
680.181	54980.98
680.529	54986.63
680.877	54952.06
681.225	54879.74
681.573	55023.24
681.922	54799.07
682.27	54769.46
682.618	54735.57
682.966	54645.17
683.314	54679.97
683.661	54580.99
684.009	54490.6
684.357	54424.39
684.705	54467.78
685.053	54469.81
685.4	54413.32
685.748	54211.29
686.095	54263.04
686.443	54110.72
686.79	54047.22
687.138	54024.4
687.485	54013.1
687.832	53894.23
688.18	54014.46
688.527	53804.97
688.874	53803.39
689.221	53605.88
689.568	53535.6
689.915	53553.9
690.262	53564.98
690.609	53416.28
690.956	53320.24
691.303	53231.65
691.65	53113.24
691.997	53153.24
692.344	52854.49
692.69	52861.94
693.037	52999.11
693.383	52681.38
693.73	52789.85
694.077	52574.72
694.423	52576.75
694.769	52495.4
695.116	52455.63
695.462	52411.11
695.808	52440.26
696.155	52356.87
696.501	52093.15
696.847	52060.16
697.193	51913.72
697.539	52005.47
697.885	51857
698.231	51657.46
698.577	51632.6
698.923	51574.52
699.269	51362.1
699.614	51217.01
699.96	51177.69
700.306	51213.63
700.651	51138.15
700.997	50945.61
701.342	50916.01
701.688	50843.92
702.033	50616.8
702.379	50638.95
702.724	50539.97
703.069	50586.07
703.415	50143.37
703.76	50261.56
704.105	50188.34
704.45	50132.98
704.795	49929.82
705.14	49865.86
705.485	49760.33
705.83	49685.08
706.175	49823.83
706.52	49542.71
706.865	49467.91
707.209	49477.85
707.554	49316.73
707.899	49431.3
708.243	49095.04
708.588	49130.74
708.932	48800.81
709.277	48864.31
709.621	48873.57
709.966	48595.84
710.31	48683.3
710.654	48374.38
710.998	48416.64
711.342	48392.91
711.687	48279.01
712.031	48090.09
712.375	47917.89
712.719	48043.76
713.063	47962.41
713.407	47999.02
713.75	47652.14
714.094	47858.46
714.438	47607.17
714.782	47567.85
715.125	47432.03
715.469	47419.37
715.812	47258.93
716.156	47008.31
716.499	47037.01
716.843	47041.76
717.186	46910.46
717.53	47056.22
717.873	47014.19
718.216	46889.45
718.559	46751.14
718.902	46596.12
719.246	46755.44
719.589	46425.73
719.932	46423.69
720.275	46432.51
720.617	46182.57
720.96	46169.92
721.303	46071.39
721.646	46142.57
721.989	46009.69
722.331	46024.38
722.674	45891.05
723.016	45843.6
723.359	45643.83
723.701	45793.88
724.044	45531.06
724.386	45308.02
724.729	45565.19
725.071	45417.85
725.413	45370.16
725.755	45345.08
726.097	44979.66
726.439	44774.02
726.782	45081.13
727.124	45091.75
727.465	44987.57
727.807	44700.12
728.149	44776.28
728.491	44635.49
728.833	44722.95
729.175	44616.96
729.516	44562.27
729.858	44379.91
730.199	44467.36
730.541	44379.68
730.882	44242.51
731.224	44313.47
731.565	44010.88
731.906	44115.96
732.248	44125.45
732.589	43883.42
732.93	43763.65
733.271	43666.25
733.612	43825.57
733.953	43809.98
734.294	43585.8
734.635	43345.81
734.976	43567.95
735.317	43330.44
735.658	43231.91
735.999	43291.12
736.339	43183.78
736.68	43355.07
737.021	43005.93
737.361	42833.28
737.702	43111.69
738.042	43019.04
738.383	42895.65
738.723	42875.54
739.063	42646.62
739.404	42693.62
739.744	42652.04
740.084	42465.38
740.424	42636.9
740.764	42394.42
741.104	42633.51
741.444	42222.45
741.784	42107.42
742.124	42030.82
742.464	42076.01
742.804	42043.7
743.143	41938.39
743.483	41860.42
743.823	41708.11
744.162	41767.32
744.502	41934.77
744.841	41463.6
745.181	41807.54
745.52	41636.48
745.86	41678.96
746.199	41351.96
746.538	41236.03
746.877	41392.41
747.216	41295.02
747.556	41017.74
747.895	41047.79
748.234	40943.61
748.573	40934.12
748.911	40767.35
749.25	40801.24
749.589	40575.03
749.928	40656.16
750.267	40731.64
750.605	40556.05
750.944	40409.84
751.283	40297.53
751.621	40335.49
751.96	40180.47
752.298	40007.14
752.636	40081.26
752.975	39839.91
753.313	39770.08
753.651	39938.89
753.989	39519.02
754.327	39599.92
754.666	39359.47
755.004	39485.57
755.342	39538.68
755.679	39439.25
756.017	39157.9
756.355	39159.03
756.693	39038.13
757.031	39055.53
757.368	38736.67
757.706	38709.55
758.044	38570.79
758.381	38491.7
758.719	38460.74
759.056	38467.75
759.394	38241.54
759.731	38080.19
760.068	38144.82
760.405	38007.42
760.743	37933.3
761.08	37707.54
761.417	37503.7
761.754	37577.6
762.091	37427.77
762.428	37305.29
762.765	37071.85
763.102	37246.76
763.438	36988.01
763.775	36829.82
764.112	36907.33
764.449	36797.51
764.785	36553.9
765.122	36342.15
765.458	36138.54
765.795	36178.09
766.131	36007.02
766.467	35933.12
766.804	35957.3
767.14	35701.72
767.476	35597.09
767.812	35355.06
768.148	35443.64
768.485	35270.32
768.821	35036.65
769.157	35015.63
769.492	35016.08
769.828	34887.73
770.164	34556.89
770.5	34553.5
770.836	34490
771.171	34277.8
771.507	34142.89
771.842	34007.07
772.178	33987.64
772.513	33805.04
772.849	33872.61
773.184	33737.25
773.519	33727.31
773.855	33491.83
774.19	33228.34
774.525	33173.65
774.86	33175.91
775.195	33112.63
775.53	32922.58
775.865	32701.57
776.2	32516.49
776.535	32369.83
776.87	32419.32
777.205	32362.82
777.539	32171.41
777.874	32196.5
778.209	31850.97
778.543	31804.19
778.878	31654.59
779.212	31620.69
779.547	31334.37
779.881	31426.35
780.215	31231.55
780.55	31316.3
780.884	31097.54
781.218	30929.19
781.552	30925.35
781.886	30765.8
782.22	30778.46
782.554	30470.67
782.888	30234.06
783.222	30121.98
783.556	29961.75
783.889	29997.91
784.223	29800.18
784.557	29742.55
784.89	29761.53
785.224	29514.31
785.557	29498.72
785.891	29306.63
786.224	29263.47
786.558	29191.83
786.891	28856.47
787.224	28822.8
787.557	28864.83
787.891	28743.26
788.224	28652.18
788.557	28638.4
788.89	28599.98
789.223	28510.49
789.556	28290.61
789.888	28084.29
790.221	28075.02
790.554	27877.97
790.887	27913.9
791.219	27742.83
791.552	27675.71
791.884	27489.96
792.217	27483.63
792.549	27319.79
792.882	27228.49
793.214	27072.11
793.546	27134.26
793.879	26906.92
794.211	26614.05
794.543	26840.03
794.875	26593.48
795.207	26672.58
795.539	26665.8
795.871	26619.92
796.203	26374.05
796.535	26238.69
796.867	26249.08
797.198	26055.42
797.53	26049.32
797.862	25840.28
798.193	25955.08
798.525	25723.22
798.856	25743.79
799.188	25433.51
799.519	25410.69
799.85	25349.67
800.182	25309.9
800.513	25341.54
800.844	25136.34
801.175	25180.19
801.506	25092.96
801.837	24940.87
802.168	25020.64
802.499	24824.94
802.83	24704.27
803.161	24637.83
803.491	24692.51
803.822	24563.48
804.153	24423.6
804.483	24214.56
804.814	24171.62
805.145	24245.07
805.475	24091.17
805.805	23954.91
806.136	24057.05
806.466	23942.48
806.796	23944.96
807.126	23735.48
807.457	23703.61
807.787	23639.66
808.117	23485.09
808.447	23465.65
808.777	23540.68
809.107	23413
809.436	23353.11
809.766	23343.17
810.096	23265.21
810.426	23087.36
810.755	23076.06
811.085	22973.24
811.414	22935.5
811.744	22724.2
812.073	22835.61
812.403	22808.95
812.732	22732.57
813.061	22637.43
813.39	22530.99
813.719	22483.53
814.049	22551.33
814.378	22354.04
814.707	22253.71
815.036	22204.44
815.365	22069.53
815.693	22043.09
816.022	22021.17
816.351	22021.4
816.68	21817.34
817.008	21849.43
817.337	21696.66
817.665	21724.68
817.994	21721.52
818.322	21710.22
818.651	21524.46
818.979	21375.09
819.307	21569.88
819.636	21448.08
819.964	21375.09
820.292	21468.64
820.62	21423.67
820.948	21290.34
821.276	21341.64
821.604	21236.79
821.932	21237.24
822.259	21339.38
822.587	21196.56
822.915	21213.96
823.243	21385.48
823.57	21230.91
823.898	21299.16
824.225	21173.74
824.553	21118.37
824.88	21156.56
825.207	21254.64
825.535	21187.75
825.862	21214.41
826.189	21166.73
826.516	21240.4
826.843	21270.46
827.17	21275.43
827.497	21225.26
827.824	21255.54
828.151	21301.42
828.478	21106.39
828.805	21268.88
829.131	21133.29
829.458	21108.2
829.785	20983.91
830.111	21024.81
830.438	21248.31
830.764	21128.09
831.09	21091.25
831.417	20932.16
831.743	21041.76
832.069	21027.53
832.395	20919.28
832.722	20970.13
833.048	20926.06
833.374	20927.64
833.7	20787.98
834.026	20807.19
834.351	20924.03
834.677	20826.4
835.003	20920.18
835.329	20920.41
835.654	20771.04
835.98	20723.35
836.306	20885.38
836.631	20723.58
836.956	20741.88
837.282	20756.57
837.607	20532.4
837.932	20548.22
838.258	20501.21
838.583	20544.38
838.908	20390.03
839.233	20401.33
839.558	20398.39
839.883	20314.78
840.208	20185.97
840.533	20229.36
840.858	20197.94
841.182	20296.47
841.507	20195.23
841.832	20108.91
842.156	20084.95
842.481	19999.53
842.805	20038.63
843.13	19930.15
843.454	19874.56
843.778	19692.19
844.103	19839.08
844.427	19712.98
844.751	19829.59
845.075	19691.97
845.399	19516.83
845.723	19588.47
846.047	19431.41
846.371	19346.89
846.695	19346.44
847.019	19049.73
847.343	19070.52
847.666	18884.53
847.99	18826.91
848.313	18792.56
848.637	18663.29
848.96	18711.88
849.284	18642.73
849.607	18646.8
849.931	18535.84
850.254	18406.58
850.577	18388.5
850.9	18162.97
851.223	18159.35
851.546	18033.25
851.869	18006.36
852.192	18058.11
852.515	17878.46
852.838	17777.89
853.161	17857.44
853.483	17703.55
853.806	17569.99
854.129	17585.36
854.451	17600.72
854.774	17491.57
855.096	17420.16
855.419	17270.11
855.741	17282.09
856.063	17188.08
856.385	17124.8
856.708	17075.99
857.03	17012.72
857.352	17039.83
857.674	16993.73
857.996	16977.24
858.318	16724.59
858.64	16722.78
858.961	16739.73
859.283	16640.07
859.605	16571.6
859.926	16602.33
860.248	16502.67
860.57	16476.46
860.891	16392.85
861.212	16387.42
861.534	16419.29
861.855	16232.17
862.176	16416.57
862.498	16379.96
862.819	16337.48
863.14	16205.96
863.461	16241.21
863.782	16160.54
864.103	16108.11
864.424	16062.46
864.745	16133.87
865.065	16055
865.386	16000.77
865.707	16045.96
866.027	15975.46
866.348	16037.6
866.668	15967.77
866.989	15897.94
867.309	15803.93
867.63	15857.04
867.95	15758.06
868.27	15582.92
868.59	15691.17
868.91	15755.35
869.23	15650.04
869.55	15572.08
869.87	15697.27
870.19	15598.74
870.51	15589.25
870.83	15612.08
871.15	15431.74
871.469	15543.83
871.789	15454.57
872.109	15426.77
872.428	15365.3
872.748	15385.19
873.067	15368.69
873.386	15346.32
873.706	15312.65
874.025	15234.68
874.344	15183.84
874.663	15238.07
874.982	15176.83
875.301	15119.21
875.62	15090.28
875.939	15058.19
876.258	15071.52
876.577	15039.89
876.896	15019.1
877.214	14966.22
877.533	14921.25
877.852	14980.68
878.17	14939.55
878.489	14958.08
878.807	14838.76
879.125	14822.27
879.444	14822.72
879.762	14737.97
880.08	14787.24
880.398	14768.93
880.716	14770.97
881.034	14628.15
881.352	14689.16
881.67	14581.37
881.988	14652.78
882.306	14587.24
882.624	14581.82
882.941	14472.22
883.259	14467.7
883.577	14336.18
883.894	14399
884.212	14307.02
884.529	14294.6
884.846	14200.36
885.164	14257.76
885.481	14172.57
885.798	14215.73
886.115	14098.44
886.432	14060.48
886.75	13966.24
887.067	14101.15
887.383	13931.89
887.7	13955.4
888.017	13883.08
888.334	13937.54
888.651	13865.23
888.967	13864.78
889.284	13786.13
889.6	13779.13
889.917	13690.32
890.233	13738.23
890.55	13630.66
890.866	13689.19
891.182	13523.54
891.498	13493.49
891.815	13400.16
892.131	13390.89
892.447	13414.39
892.763	13270.22
893.079	13329.65
893.395	13235.87
893.71	13295.53
894.026	13136.43
894.342	13128.98
894.657	13115.19
894.973	13085.14
895.289	13027.74
895.604	12990.22
895.92	12881.3
896.235	12770.34
896.55	12917.91
896.865	12877.01
897.181	12824.13
897.496	12742.55
897.811	12744.35
898.126	12725.6
898.441	12549.11
898.756	12551.82
899.071	12517.47
899.386	12503.23
899.7	12369.67
900.015	12402.22
900.33	12296.23
900.644	12331.48
900.959	12245.38
901.273	12190.7
901.588	12179.17
901.902	12050.14
902.216	12034.09
902.531	12002.68
902.845	11924.26
903.159	11900.99
903.473	11799.52
903.787	11734.21
904.101	11693.76
904.415	11729.01
904.729	11678.62
905.042	11605.18
905.356	11578.51
905.67	11528.79
905.984	11587.77
906.297	11526.31
906.611	11371.96
906.924	11384.62
907.237	11305.07
907.551	11344.62
907.864	11315.92
908.177	11202.25
908.491	11128.35
908.804	11127
909.117	11089.26
909.43	11002.93
909.743	10967.68
910.056	11010.61
910.368	10906.21
910.681	10819.88
910.994	10802.26
911.307	10747.8
911.619	10666.89
911.932	10735.14
912.244	10602.26
912.557	10571.76
912.869	10495.83
913.181	10508.93
913.494	10438.2
913.806	10417.64
914.118	10333.57
914.43	10313.68
914.742	10331.08
915.054	10268.94
915.366	10184.87
915.678	10167.92
915.99	10071.66
916.302	10057.87
916.613	9962.51
916.925	9987.14
917.236	9963.64
917.548	9872.79
917.859	9872.79
918.171	9793.02
918.482	9792.12
918.794	9763.64
919.105	9733.59
919.416	9618.56
919.727	9637.54
920.038	9557.55
920.349	9496.53
920.66	9450.66
920.971	9469.64
921.282	9403.88
921.593	9328.85
921.903	9281.17
922.214	9260.83
922.525	9264.45
922.835	9215.86
923.146	9104.9
923.456	9092.92
923.767	9102.64
924.077	9043.66
924.387	9005.24
924.697	8939.48
925.008	8940.16
925.318	8912.14
925.628	8836.21
925.938	8786.49
926.248	8732.03
926.558	8716.66
926.867	8686.61
927.177	8633.5
927.487	8595.31
927.796	8513.96
928.106	8489.32
928.416	8572.71
928.725	8503.79
929.034	8386.95
929.344	8396.45
929.653	8391.47
929.962	8307.18
930.271	8276.68
930.581	8288.88
930.89	8196.23
931.199	8140.86
931.508	8163.46
931.817	8165.27
932.125	8093.4
932.434	8070.58
932.743	7961.43
933.051	7911.03
933.36	7960.3
933.669	7892.73
933.977	7846.63
934.286	7825.16
934.594	7749.91
934.902	7677.14
935.21	7626.52
935.519	7671.95
935.827	7687.76
936.135	7538.39
936.443	7460.43
936.751	7497.49
937.059	7488.22
937.367	7472.4
937.674	7410.71
937.982	7391.73
938.29	7347.89
938.597	7358.28
938.905	7317.83
939.213	7303.14
939.52	7287.1
939.827	7247.55
940.135	7207.1
940.442	7109.02
940.749	7103.37
941.056	7108.57
941.363	7039.87
941.67	7035.35
941.977	6952.42
942.284	6915.81
942.591	6904.06
942.898	6886.2
943.205	6912.42
943.511	6843.72
943.818	6755.13
944.125	6752.65
944.431	6686.43
944.738	6708.81
945.044	6679.88
945.35	6661.58
945.657	6631.07
945.963	6572.09
946.269	6539.32
946.575	6536.16
946.881	6502.71
947.187	6464.97
947.493	6408.93
947.799	6347.46
948.105	6400.79
948.41	6293.45
948.716	6298.42
949.022	6312.88
949.327	6259.1
949.633	6193.57
949.938	6203.96
950.244	6237.86
950.549	6153.57
950.854	6148.82
951.16	6067.24
951.465	6056.17
951.77	6045.1
952.075	6078.54
952.38	6046
952.685	5965.78
952.99	5925.1
953.294	5927.58
953.599	5866.79
953.904	5801.26
954.209	5792.67
954.513	5777.31
954.818	5736.4
955.122	5731.66
955.426	5711.32
955.731	5699.12
956.035	5641.49
956.339	5602.62
956.643	5638.33
956.948	5614.37
957.252	5573.47
957.556	5524.88
957.86	5508.39
958.163	5521.49
958.467	5475.39
958.771	5480.14
959.075	5427.94
959.378	5446.47
959.682	5390.88
959.985	5381.61
960.289	5277.21
960.592	5309.75
960.896	5293.7
961.199	5264.55
961.502	5213.25
961.805	5260.94
962.108	5190.43
962.411	5159.92
962.714	5159.02
963.017	5099.81
963.32	5117.44
963.623	5100.94
963.926	5064.56
964.228	5041.28
964.531	5013.03
964.833	5074.27
965.136	5013.48
965.438	4971
965.741	4931.9
966.043	4932.81
966.345	4887.39
966.648	4853.04
966.95	4886.03
967.252	4805.58
967.554	4815.98
967.856	4759.71
968.158	4742.76
968.46	4724.68
968.761	4728.07
969.063	4693.72
969.365	4643.32
969.666	4652.82
969.968	4604.68
970.269	4599.48
970.571	4550.9
970.872	4547.96
971.174	4576.43
971.475	4517.23
971.776	4492.37
972.077	4456.44
972.378	4438.81
972.679	4392.48
972.98	4408.53
973.281	4392.48
973.582	4327.85
973.883	4373.27
974.183	4344.8
974.484	4355.42
974.785	4309.55
975.085	4283.79
975.386	4267.97
975.686	4203.56
975.986	4233.17
976.287	4210.34
976.587	4152.26
976.887	4148.65
977.187	4128.08
977.487	4124.47
977.787	4114.3
978.087	4082.89
978.387	4051.02
978.687	4040.85
978.987	4039.5
979.286	3980.52
979.586	4000.86
979.885	3952.27
980.185	3926.73
980.484	3907.3
980.784	3918.37
981.083	3907.3
981.382	3907.3
981.682	3901.42
981.981	3878.15
982.28	3851.93
982.579	3822.78
982.878	3817.58
983.177	3785.49
983.475	3792.05
983.774	3742.78
984.073	3693.74
984.372	3727.42
984.67	3694.42
984.969	3683.8
985.267	3700.52
985.566	3667.76
985.864	3626.63
986.162	3599.28
986.461	3611.71
986.759	3606.74
987.057	3573.75
987.355	3539.85
987.653	3562.45
987.951	3513.18
988.249	3545.95
988.547	3476.35
988.844	3513.86
989.142	3424.15
989.44	3430.47
989.737	3433.64
990.035	3387.09
990.332	3371.04
990.63	3391.15
990.927	3355.9
991.224	3352.28
991.521	3294.43
991.819	3337.14
992.116	3294.89
992.413	3258.5
992.71	3254.66
993.006	3245.17
993.303	3240.2
993.6	3184.83
993.897	3227.54
994.193	3171.95
994.49	3146.19
994.787	3146.41
995.083	3095.79
995.379	3140.09
995.676	3098.96
995.972	3070.94
996.268	3074.55
996.565	3035
996.861	3029.81
997.157	3009.69
997.453	2991.16
997.749	2981.45
998.044	2954.1
998.34	2950.26
998.636	2941.45
998.932	2907.32
999.227	2866.65
999.523	2873.2
999.818	2837.72
1000.114	2853.99
1000.409	2836.14
1000.704	2820.32
1001	2799.3
1001.295	2803.82
1001.59	2816.93
1001.885	2743.26
1002.18	2746.2
1002.475	2737.16
1002.77	2706.43
1003.065	2711.62
1003.359	2680.66
1003.654	2679.53
1003.949	2670.27
1004.243	2642.25
1004.538	2626.43
1004.832	2639.31
1005.127	2637.05
1005.421	2566.54
1005.715	2571.74
1006.009	2578.97
1006.304	2541.01
1006.598	2530.61
1006.892	2527.9
1007.186	2490.16
1007.48	2494.45
1007.773	2475.7
1008.067	2456.26
1008.361	2424.85
1008.655	2450.84
1008.948	2416.04
1009.242	2383.95
1009.535	2374.91
1009.829	2391.41
1010.122	2341.46
1010.415	2327
1010.708	2310.5
1011.001	2312.09
1011.295	2267.79
1011.588	2282.26
1011.881	2243.39
1012.173	2282.71
1012.466	2205.42
1012.759	2196.83
1013.052	2202.48
1013.344	2215.14
1013.637	2208.13
1013.93	2185.76
1014.222	2134.92
1014.514	2163.62
1014.807	2120.68
1015.099	2110.28
1015.391	2089.95
1015.683	2070.74
1015.976	2091.3
1016.268	2059.44
1016.56	2013.56
1016.851	1996.84
1017.143	2013.11
1017.435	1981.93
1017.727	1997.74
1018.018	1998.87
1018.31	1949.84
1018.602	1947.58
1018.893	1927.69
1019.185	1926.33
1019.476	1910.29
1019.767	1894.02
1020.058	1880.69
1020.35	1880.69
1020.641	1899.89
1020.932	1856.5
1021.223	1884.75
1021.514	1820.35
1021.804	1844.98
1022.095	1791.42
1022.386	1812.89
1022.677	1802.72
1022.967	1761.59
1023.258	1757.75
1023.548	1744.87
1023.839	1727.92
1024.129	1751.42
1024.419	1683.85
1024.709	1715.27
1025	1653.8
1025.29	1694.25
1025.58	1623.52
1025.87	1667.13
1026.16	1647.7
1026.449	1645.66
1026.739	1627.36
1027.029	1642.5
1027.319	1610.18
1027.608	1558.89
1027.898	1566.57
1028.187	1544.2
1028.477	1585.33
1028.766	1552.33
1029.055	1531.09
1029.344	1511.88
1029.634	1489.73
1029.923	1509.17
1030.212	1475.5
1030.501	1463.97
1030.79	1473.01
1031.078	1446.35
1031.367	1463.52
1031.656	1451.32
1031.945	1455.39
1032.233	1442.05
1032.522	1403.41
1032.81	1378.55
1033.099	1378.55
1033.387	1370.19
1033.675	1348.95
1033.963	1334.94
1034.251	1322.06
1034.54	1374.94
1034.828	1326.8
1035.116	1336.74
1035.403	1271.89
1035.691	1273.92
1035.979	1283.86
1036.267	1292
1036.554	1292
1036.842	1249.29
1037.129	1254.71
1037.417	1229.63
1037.704	1205.9
1037.992	1218.56
1038.279	1233.02
1038.566	1196.64
1038.853	1196.64
1039.14	1196.64
