Data from plate_porcelain_FLMS001491_045.txt Node
Date: Tue Feb 07 11:19:22 GMT 2017
User: dcchb
Spectrometer: FLMS00149
Trigger mode: 0
Integration Time (sec): 2.000000E-2
Scans to average: 10
Electric dark correction enabled: true
Nonlinearity correction enabled: false
Boxcar width: 0
XAxis mode: Wavelengths
Number of Pixels in Spectrum: 2048
>>>>>Begin Spectral Data<<<<<
341.393	-20.41
341.776	-20.41
342.16	-20.41
342.543	-78.71
342.927	-42.1
343.31	-68.32
343.693	-69
344.077	-63.57
344.46	-64.02
344.843	-51.82
345.226	-38.94
345.61	-23.57
345.993	-38.94
346.376	4.45
346.759	9.87
347.142	21.62
347.525	46.03
347.908	55.3
348.291	69.53
348.674	100.49
349.057	110.89
349.44	108.18
349.823	146.37
350.206	164.67
350.588	231.56
350.971	248.51
351.354	255.52
351.737	267.94
352.119	283.09
352.502	314.72
352.884	304.33
353.267	303.2
353.65	332.35
354.032	335.97
354.414	348.62
354.797	350.2
355.179	356.08
355.562	365.57
355.944	371.9
356.326	381.16
356.709	402.18
357.091	371.67
357.473	388.17
357.855	389.75
358.238	398.34
358.62	404.44
359.002	387.72
359.384	378.68
359.766	392.24
360.148	387.04
360.53	375.74
360.912	408.51
361.294	403.76
361.676	392.01
362.057	388.62
362.439	404.89
362.821	395.63
363.203	387.04
363.584	387.04
363.966	379.35
364.348	394.04
364.729	376.64
365.111	378.68
365.493	394.72
365.874	386.13
366.256	387.94
366.637	410.31
367.019	393.59
367.4	378
367.781	369.41
368.163	394.5
368.544	396.53
368.925	405.12
369.306	412.12
369.688	405.79
370.069	397.21
370.45	400.37
370.831	409.18
371.212	401.27
371.593	400.6
371.974	421.84
372.355	433.36
372.736	406.92
373.117	413.93
373.498	414.16
373.879	417.77
374.26	429.3
374.641	433.14
375.021	421.39
375.402	441.73
375.783	427.49
376.163	460.71
376.544	454.61
376.925	455.06
377.305	451.44
377.686	461.84
378.066	448.51
378.447	456.64
378.827	479.92
379.208	492.35
379.588	480.37
379.968	490.99
380.349	473.14
380.729	475.4
381.109	493.02
381.489	507.71
381.87	508.16
382.25	512.46
382.63	510.2
383.01	502.97
383.39	538.67
383.77	508.62
384.15	523.53
384.53	553.14
384.91	535.28
385.29	559.46
385.67	573.7
386.049	545.45
386.429	576.41
386.809	566.02
387.189	571.21
387.568	576.64
387.948	579.12
388.328	599.01
388.707	606.24
389.087	615.96
389.466	631.55
389.846	635.17
390.225	624.77
390.605	646.24
390.984	648.73
391.363	654.15
391.743	642.62
392.122	655.05
392.501	673.13
392.881	664.32
393.26	698.22
393.639	680.82
394.018	705.22
394.397	721.49
394.776	684.88
395.155	710.87
395.534	738.89
395.913	742.73
396.292	745.67
396.671	740.93
397.05	768.5
397.429	745.9
397.808	762.85
398.186	766.46
398.565	792.45
398.944	805.56
399.323	792.68
399.701	808.04
400.08	815.28
400.458	843.75
400.837	846.91
401.215	855.05
401.594	863.86
401.972	873.13
402.351	862.05
402.729	885.1
403.107	886.23
403.486	905.44
403.864	932.56
404.242	953.12
404.62	960.36
404.999	955.16
405.377	956.29
405.755	976.4
406.133	976.4
406.511	986.34
406.889	1010.07
407.267	1049.62
407.645	1052.56
408.023	1075.83
408.401	1071.31
408.779	1091.43
409.156	1091.88
409.534	1132.1
409.912	1114.25
410.29	1132.1
410.667	1187.02
411.045	1190.41
411.422	1182.27
411.8	1205.77
412.178	1255.04
412.555	1263.62
412.933	1271.99
413.31	1297.97
413.687	1298.88
414.065	1332.55
414.442	1304.3
414.819	1350.63
415.197	1366.9
415.574	1364.41
415.951	1384.53
416.328	1398.08
416.705	1412.77
417.082	1432.21
417.46	1446.9
417.837	1473.11
418.214	1496.16
418.591	1510.85
418.967	1502.04
419.344	1544.97
419.721	1553.33
420.098	1564.41
420.475	1564.63
420.852	1610.28
421.228	1625.42
421.605	1617.97
421.982	1649.6
422.358	1676.27
422.735	1697.06
423.111	1715.36
423.488	1703.84
423.864	1739.09
424.241	1765.31
424.617	1787
424.994	1785.19
425.37	1836.04
425.746	1843.5
426.123	1859.99
426.499	1903.38
426.875	1881.24
427.251	1916.72
427.627	1977.28
428.003	1945.19
428.379	2012.53
428.756	2065.64
429.132	2060.44
429.507	2121.46
429.883	2138.18
430.259	2180.66
430.635	2155.58
431.011	2183.37
431.387	2271.73
431.763	2292.3
432.138	2295.46
432.514	2349.47
432.89	2370.49
433.265	2414.33
433.641	2433.99
434.016	2507.89
434.392	2555.57
434.767	2558.05
435.143	2522.57
435.518	2583.14
435.894	2608
436.269	2678.95
436.644	2718.5
437.02	2736.35
437.395	2742.91
437.77	2751.5
438.145	2819.97
438.52	2862.68
438.895	2878.72
439.271	2859.52
439.646	2989
440.021	2959.63
440.395	3037.59
440.77	2992.85
441.145	3051.6
441.52	3052.5
441.895	3102.22
442.27	3120.75
442.645	3105.61
443.019	3189.68
443.394	3219.51
443.769	3222.9
444.143	3169.34
444.518	3294.76
444.892	3274.19
445.267	3292.05
445.641	3357.36
446.016	3359.39
446.39	3407.75
446.764	3386.06
447.139	3429.67
447.513	3492.94
447.887	3478.93
448.262	3511.25
448.636	3517.13
449.01	3576.56
449.384	3610
449.758	3699.72
450.132	3714.18
450.506	3686.16
450.88	3737.01
451.254	3743.33
451.628	3784.46
452.002	3857.68
452.376	3904.91
452.75	3953.5
453.123	3971.58
453.497	4034.85
453.871	4081.4
454.244	4145.13
454.618	4177.9
454.992	4270.78
455.365	4268.07
455.739	4341.74
456.112	4395.07
456.486	4439.81
456.859	4555.97
457.232	4579.7
457.606	4553.71
457.979	4650.2
458.352	4758.9
458.725	4801.39
459.099	4846.58
459.472	4950.53
459.845	4955.51
460.218	5033.47
460.591	5095.61
460.964	5132
461.337	5248.6
461.71	5325.21
462.083	5405.89
462.456	5411.76
462.829	5393.01
463.201	5538.31
463.574	5534.25
463.947	5675.03
464.32	5812.21
464.692	5818.08
465.065	5886.33
465.438	5929.04
465.81	6070.73
466.183	6120.67
466.555	6306.88
466.928	6303.49
467.3	6305.07
467.672	6413.77
468.045	6573.32
468.417	6610.15
468.789	6695.8
469.161	6754.33
469.534	6849.92
469.906	6952.51
470.278	7127.43
470.65	7168.55
471.022	7305.05
471.394	7428.43
471.766	7443.35
472.138	7541.88
472.51	7835.2
472.882	7868.65
473.253	8016.22
473.625	8075.88
473.997	8342.31
474.369	8369.2
474.74	8468.86
475.112	8589.08
475.484	8754.5
475.855	8903.88
476.227	9062.29
476.598	9228.16
476.97	9313.58
477.341	9502.73
477.713	9700.69
478.084	9724.87
478.455	9987.24
478.827	10137.06
479.198	10404.63
479.569	10435.36
479.94	10770.27
480.311	10803.71
480.682	11065.4
481.053	11308.11
481.424	11503.13
481.795	11621.09
482.166	11820.64
482.537	12010.01
482.908	12335.65
483.279	12358.93
483.65	12598.24
484.021	12879.82
484.391	12981.73
484.762	13154.84
485.133	13336.75
485.503	13422.63
485.874	13771.09
486.244	13816.06
486.615	14181.7
486.985	14379.89
487.356	14604.74
487.726	14736.04
488.097	15014.68
488.467	15061.68
488.837	15388.9
489.207	15529.46
489.578	15810.81
489.948	15996.12
490.318	16176.68
490.688	16302.1
491.058	16601.53
491.428	16755.2
491.798	16947.05
492.168	17319.7
492.538	17434.95
492.908	17578.9
493.278	17904.54
493.648	17988.83
494.017	18096.85
494.387	18342.72
494.757	18528.93
495.126	18642.6
495.496	18664.75
495.866	18860.22
496.235	19244.4
496.605	19333.21
496.974	19394.9
497.344	19650.94
497.713	19875.34
498.082	19907.88
498.452	20168.44
498.821	20236.23
499.19	20417.7
499.559	20581.08
499.928	20666.5
500.298	20852.71
500.667	21053.39
501.036	21043.9
501.405	21400.5
501.774	21375.41
502.143	21550.1
502.512	21675.52
502.88	21885.46
503.249	22011.78
503.618	22114.38
503.987	22294.48
504.356	22477.3
504.724	22531.31
505.093	22668.71
505.462	22863.73
505.83	22977.18
506.199	23287.45
506.567	23601.57
506.936	23398.41
507.304	23780.55
507.672	23913.88
508.041	23931.05
508.409	24152.29
508.777	24462.56
509.145	24520.41
509.514	24553.41
509.882	24911.14
510.25	24866.17
510.618	25155.2
510.986	25286.27
511.354	25456.21
511.722	25690.55
512.09	25942.75
512.458	25958.12
512.826	26168.96
513.193	26343.64
513.561	26418.22
513.929	26827.92
514.297	26951.09
514.664	27166.45
515.032	27374.12
515.4	27547.68
515.767	27610.95
516.135	28026.09
516.502	27838.97
516.869	28299.75
517.237	28443.93
517.604	28429.69
517.972	28870.36
518.339	29004.82
518.706	29006.85
519.073	29272.83
519.44	29497.68
519.808	29810.44
520.175	29843.44
520.542	30219.47
520.909	30370.43
521.276	30485.46
521.643	30856.97
522.009	31112.78
522.376	31243.85
522.743	31461.02
523.11	31891.75
523.477	32075.92
523.843	32288.57
524.21	32633.42
524.577	32814.21
524.943	33034.99
525.31	33140.98
525.676	33520.86
526.043	33710.46
526.409	33848.53
526.776	34288.75
527.142	34337.78
527.508	34716.08
527.874	34923.3
528.241	35165.78
528.607	35368.49
528.973	35603.51
529.339	35605.55
529.705	36140.22
530.071	36235.59
530.437	36425.64
530.803	36639.19
531.169	36814.55
531.535	36786.76
531.901	36991.95
532.267	37330.47
532.632	37584.25
532.998	37681.42
533.364	37891.36
533.73	38051.58
534.095	38484.12
534.461	38522.98
534.826	38685.01
535.192	38825.58
535.557	39157.09
535.923	39122.06
536.288	39301.04
536.653	39447.25
537.019	39492.68
537.384	39750.3
537.749	39680.92
538.114	39920.46
538.479	40035.26
538.845	40279.55
539.21	40270.06
539.575	40539.88
539.94	40624.17
540.305	40868.23
540.67	40899.42
541.034	41139.86
541.399	41210.6
541.764	41299.18
542.129	41497.14
542.494	41592.28
542.858	41749.11
543.223	41974.64
543.587	42101.87
543.952	42116.34
544.316	42345.48
544.681	42402.43
545.045	42579.15
545.41	42787.5
545.774	42834.06
546.138	42815.75
546.503	43100.49
546.867	43147.95
547.231	43505.45
547.595	43553.81
547.959	43710.64
548.324	43665.45
548.688	43765.78
549.052	43945.44
549.416	44117.41
549.779	44170.29
550.143	44328.93
550.507	44726.21
550.871	44844.63
551.235	44866.77
551.599	45072.87
551.962	45138.86
552.326	45259.98
552.689	45557.6
553.053	45506.53
553.417	45650.25
553.78	46138.38
554.143	45937.93
554.507	46122.33
554.87	46323.91
555.234	46754.41
555.597	46606.16
555.96	46772.03
556.323	46973.16
556.686	47022.87
557.05	47253.15
557.413	47423.32
557.776	47577.89
558.139	47831.67
558.502	47902.85
558.865	47936.75
559.228	48316.85
559.59	48371.99
559.953	48449.73
560.316	48941.02
560.679	48877.06
561.041	49018.08
561.404	49254.91
561.767	49530.83
562.129	49351.17
562.492	49783.25
562.854	49738.51
563.217	49873.19
563.579	50080.19
563.941	50364.03
564.304	50474.99
564.666	50685.6
565.028	50754.98
565.39	50821.19
565.753	51121.3
566.115	51134.86
566.477	51188.64
566.839	51337.34
567.201	51596.99
567.563	51629.76
567.925	51897.32
568.287	51861.16
568.648	52030.88
569.01	52163.3
569.372	52389.74
569.734	52343.64
570.095	52505.22
570.457	52620.92
570.819	52723.29
571.18	52793.12
571.542	52854.58
571.903	52949.95
572.265	53039.66
572.626	53108.36
572.987	53157.85
573.349	53332.31
573.71	53465.19
574.071	53489.82
574.432	53567.33
574.794	53810.94
575.155	53752.87
575.516	53674.9
575.877	53795.58
576.238	53910.15
576.599	54104.04
576.96	54097.26
577.32	54151.5
577.681	54168.45
578.042	54243.25
578.403	54351.27
578.763	54367.77
579.124	54410.7
579.485	54402.57
579.845	54573.18
580.206	54448.44
580.566	54501.77
580.927	54594.65
581.287	54631.49
581.648	54548.78
582.008	54682.11
582.368	54707.19
582.728	54665.16
583.089	54711.71
583.449	54677.36
583.809	54717.59
584.169	54836.91
584.529	54696.57
584.889	54940.18
585.249	54705.84
585.609	54645.05
585.969	54888.88
586.329	54735.67
586.688	54827.41
587.048	54749.45
587.408	54767.08
587.768	54776.57
588.127	54751.26
588.487	54891.37
588.846	54956.45
589.206	54784.03
589.565	54826.51
589.925	54951.48
590.284	54852.5
590.643	54951.48
591.003	55066.73
591.362	55058.82
591.721	54935.89
592.08	55010.01
592.44	55101.08
592.799	55122.77
593.158	55043
593.517	55082.32
593.876	55062.66
594.235	55031.25
594.593	55116.9
594.952	55100.18
595.311	55092.49
595.67	55032.83
596.029	55292.94
596.387	55274.41
596.746	55299.72
597.104	55192.83
597.463	55178.37
597.822	55321.41
598.18	55140.85
598.538	55181.53
598.897	55386.95
599.255	55170.23
599.613	55525.02
599.972	55337.91
600.33	55417.91
600.688	55329.77
601.046	55509.88
601.404	55523.22
601.762	55516.21
602.12	55654.51
602.478	55552.59
602.836	55643.66
603.194	55431.92
603.552	55557.34
603.91	55472.14
604.268	55678.24
604.625	55633.04
604.983	55740.16
605.341	55611.35
605.698	55762.08
606.056	55742.64
606.413	55777.45
606.771	55889.53
607.128	55923.43
607.485	55726.37
607.843	55839.59
608.2	55963.2
608.557	56110.54
608.914	55991
609.272	56120.49
609.629	56094.95
609.986	56185.57
610.343	56061.28
610.7	56277.32
611.057	56218.34
611.414	56128.4
611.771	56255.4
612.127	56308.96
612.484	56348.96
612.841	56362.74
613.198	56310.31
613.554	56376.98
613.911	56499.01
614.267	56470.99
614.624	56379.01
614.98	56513.7
615.337	56610.42
615.693	56653.13
616.05	56545.79
616.406	56661.49
616.762	56546.69
617.118	56566.13
617.475	56615.62
617.831	56657.65
618.187	56665.56
618.543	56758.44
618.899	56862.39
619.255	56781.49
619.611	56836.18
619.967	56850.64
620.323	56900.58
620.678	56793.24
621.034	56750.08
621.39	56783.97
621.746	56760.24
622.101	57040.92
622.457	56827.59
622.812	56838.89
623.168	56924.76
623.523	56928.38
623.879	57014.02
624.234	56801.15
624.589	56936.06
624.945	56954.36
625.3	56942.39
625.655	56946.45
626.01	56895.61
626.365	56977.87
626.72	56934.48
627.075	56889.51
627.43	56838.66
627.785	56797.98
628.14	56894.93
628.495	56905.55
628.85	56789.17
629.205	56718.44
629.559	56935.83
629.914	56794.14
630.269	56785.1
630.623	56810.19
630.978	56591.44
631.332	56768.15
631.687	56742.17
632.041	56654.03
632.396	56732
632.75	56549.85
633.104	56585.33
633.459	56513.7
633.813	56497.43
634.167	56537.88
634.521	56494.49
634.875	56467.37
635.229	56409.75
635.583	56268.73
635.937	56424.21
636.291	56257.43
636.645	56260.37
636.999	56146.93
637.352	56348.73
637.706	56158.9
638.06	56230.99
638.413	56194.16
638.767	56165.91
639.121	56140.6
639.474	55906.93
639.828	56016.76
640.181	55974.05
640.534	55976.99
640.888	55936.99
641.241	55871.91
641.594	55811.34
641.947	55905.8
642.301	55845.92
642.654	55811.57
643.007	55842.75
643.36	55742.42
643.713	55642.99
644.066	55808.18
644.419	55548.98
644.771	55456.78
645.124	55111.25
645.477	55047.75
645.83	54861.31
646.182	54731.6
646.535	54660.87
646.888	54692.73
647.24	54587.65
647.593	54795.78
647.945	54623.35
648.298	54467.2
648.65	54451.15
649.002	54387.65
649.355	54424.94
649.707	54455.45
650.059	54593.07
650.411	54852.95
650.763	54916.68
651.115	55179.5
651.467	55016.34
651.819	55026.96
652.171	54970.24
652.523	54911.48
652.875	54862.67
653.227	54758.72
653.578	54849.33
653.93	54815.66
654.282	54665.61
654.633	54556.24
654.985	54707.87
655.337	54692.5
655.688	54728.66
656.039	54772.05
656.391	54523.92
656.742	54550.59
657.094	54600.3
657.445	54708.77
657.796	54641.43
658.147	54531.83
658.498	54469.23
658.849	54552.85
659.2	54460.64
659.551	54454.99
659.902	54481.21
660.253	54443.24
660.604	54470.14
660.955	54379.97
661.306	54485.95
661.656	54300.42
662.007	54393.98
662.358	54323.25
662.708	54314.21
663.059	54245.06
663.409	54071.95
663.76	54323.92
664.11	54268.33
664.461	54232.63
664.811	54243.93
665.161	54226.3
665.511	54177.49
665.862	54168.22
666.212	54271.04
666.562	54224.49
666.912	54153.31
667.262	54219.75
667.612	54179.07
667.962	54170.03
668.312	54214.32
668.662	54207.32
669.011	54076.02
669.361	54029.02
669.711	54100.65
670.06	54052.75
670.41	54003.26
670.76	53883.94
671.109	54083.48
671.459	54024.95
671.808	53911.05
672.157	53976.59
672.507	53836.71
672.856	53798.74
673.205	53861.56
673.554	53939.98
673.904	53841.23
674.253	53918.06
674.602	53761.68
674.951	53379.99
675.3	53304.97
675.649	53739.08
675.998	53647.33
676.346	53625.86
676.695	53806.42
677.044	53476.04
677.393	53615.69
677.741	53617.73
678.09	53578.18
678.438	53567.56
678.787	53516.26
679.135	53597.62
679.484	53355.36
679.832	53459.54
680.181	53343.39
680.529	53331.63
680.877	53224.97
681.225	53164.86
681.573	53392.88
681.922	53198.08
682.27	53035.6
682.618	53203.28
682.966	52951.08
683.314	53164.63
683.661	53016.61
684.009	52826.11
684.357	52716.28
684.705	52731.65
685.053	52722.84
685.4	52730.52
685.748	52477.65
686.095	52515.84
686.443	52308.38
686.79	52312.68
687.138	52330.98
687.485	52412.34
687.832	52232
688.18	52253.24
688.527	51959.69
688.874	52090.76
689.221	51933.25
689.568	51808.06
689.915	51766.25
690.262	51800.83
690.609	51695.97
690.956	51573.94
691.303	51464.79
691.65	51261.18
691.997	51263.21
692.344	51116.55
692.69	51255.76
693.037	51303.21
693.383	50923.79
693.73	51028.19
694.077	50799.5
694.423	50827.97
694.769	50656.68
695.116	50649.45
695.462	50707.52
695.808	50561.31
696.155	50457.13
696.501	50270.02
696.847	50265.73
697.193	49964.49
697.539	50178.5
697.885	49819.18
698.231	49848.11
698.577	49715.46
698.923	49555.91
699.269	49459.87
699.614	49249.03
699.96	49234.12
700.306	49211.29
700.651	49134.23
700.997	49054.68
701.342	49033.89
701.688	48960.68
702.033	48654.02
702.379	48632.32
702.724	48502.61
703.069	48650.18
703.415	48188.49
703.76	48237.53
704.105	48195.27
704.45	48041.15
704.795	47863.53
705.14	47725.91
705.485	47792.12
705.83	47630.99
706.175	47618.79
706.52	47589.86
706.865	47341.96
707.209	47308.06
707.554	47249.31
707.899	47270.1
708.243	47054.96
708.588	47042.31
708.932	46712.15
709.277	46664.01
709.621	46809.77
709.966	46526.39
710.31	46541.76
710.654	46180.18
710.998	46250.01
711.342	46283.68
711.687	46202.78
712.031	45955.78
712.375	45851.15
712.719	45893.64
713.063	45820.19
713.407	45953.3
713.75	45676.47
714.094	45589.92
714.438	45363.48
714.782	45446.19
715.125	45328.23
715.469	45387.66
715.812	45089.37
716.156	44816.83
716.499	44841.91
716.843	44762.59
717.186	44626.78
717.53	44790.16
717.873	44876.72
718.216	44688.92
718.559	44659.77
718.902	44220.69
719.246	44497.74
719.589	44313.79
719.932	44069.73
720.275	44129.39
720.617	43984.76
720.96	43855.05
721.303	43796.52
721.646	43907.7
721.989	43610.53
722.331	43801.94
722.674	43716.75
723.016	43649.18
723.359	43572.34
723.701	43600.82
724.044	43340.03
724.386	43064.56
724.729	43324.67
725.071	43194.05
725.413	43085.58
725.755	42910.21
726.097	42874.96
726.439	42780.95
726.782	42704.34
727.124	42751.57
727.465	42593.61
727.807	42601.75
728.149	42513.16
728.491	42368.53
728.833	42489.89
729.175	42289.66
729.516	42240.17
729.858	42165.15
730.199	42116.56
730.541	42089.9
730.882	42038.6
731.224	42091.7
731.565	41773.75
731.906	41767.64
732.248	41882.22
732.589	41586.63
732.93	41583.69
733.271	41549.57
733.612	41854.2
733.953	41607.87
734.294	41467.09
734.635	41143.25
734.976	41438.61
735.317	41183.03
735.658	41213.99
735.999	41120.66
736.339	41026.42
736.68	41142.12
737.021	40952.07
737.361	40776.48
737.702	40857.16
738.042	40706.43
738.383	40658.75
738.723	40688.58
739.063	40463.72
739.404	40582.59
739.744	40398.19
740.084	40226.67
740.424	40292.66
740.764	40098.76
741.104	40321.58
741.444	40272.99
741.784	40011.76
742.124	39975.83
742.464	39889.28
742.804	39979.22
743.143	39884.76
743.483	39924.08
743.823	39632.11
744.162	39636.4
744.502	39668.49
744.841	39442.06
745.181	39503.75
745.52	39361.83
745.86	39494.26
746.199	39319.57
746.538	39328.61
746.877	39176.98
747.216	39159.35
747.556	38997.1
747.895	38908.06
748.234	38707.84
748.573	38736.54
748.911	38682.08
749.25	38635.52
749.589	38398.02
749.928	38482.99
750.267	38576.54
750.605	38322.76
750.944	38406.6
751.283	38326.61
751.621	38309.66
751.96	38077.8
752.298	38038.48
752.636	38038.48
752.975	37792.61
753.313	37635.32
753.651	37746.06
753.989	37472.62
754.327	37603.46
754.666	37346.97
755.004	37442.33
755.342	37558.26
755.679	37435.78
756.017	37276.01
756.355	37241.89
756.693	36933.2
757.031	37146.52
757.368	36787.89
757.706	36675.35
758.044	36588.57
758.381	36711.28
758.719	36457.73
759.056	36566.2
759.394	36329.6
759.731	36061.58
760.068	36037.4
760.405	35965.54
760.743	35859.33
761.08	35747.24
761.417	35657.3
761.754	35652.55
762.091	35569.16
762.428	35447.58
762.765	35240.13
763.102	35375.5
763.438	35103.19
763.775	34912.46
764.112	34956.75
764.449	34861.16
764.785	34538.91
765.122	34408.74
765.458	34297.11
765.795	34260.95
766.131	34214.4
766.467	34020.5
766.804	33860.96
767.14	33699.61
767.476	33743.67
767.812	33617.35
768.148	33574.41
768.485	33298.94
768.821	33329.67
769.157	33220.98
769.492	33065.73
769.828	33034.99
770.164	32797.94
770.5	32715.68
770.836	32799.52
771.171	32489.02
771.507	32454.44
771.842	32071.63
772.178	32270.49
772.513	32214.45
772.849	32137.39
773.184	31984.63
773.519	31901.92
773.855	31829.6
774.19	31542.15
774.525	31470.29
774.86	31337.64
775.195	31334.25
775.53	31209.96
775.865	31009.74
776.2	30682.29
776.535	30623.3
776.87	30719.12
777.205	30499.47
777.539	30434.38
777.874	30526.81
778.209	30180.38
778.543	30153.94
778.878	29946.71
779.212	29993.04
779.547	29659.04
779.881	29755.08
780.215	29509.89
780.55	29585.37
780.884	29313.73
781.218	29359.16
781.552	29299.95
781.886	29095.66
782.22	29005.04
782.554	28832.62
782.888	28645.96
783.222	28500.65
783.556	28408.45
783.889	28456.13
784.223	28257.72
784.557	28185.63
784.89	28147.44
785.224	28071.73
785.557	27862.25
785.891	27754
786.224	27589.49
786.558	27719.65
786.891	27450.96
787.224	27260.68
787.557	27155.83
787.891	27269.27
788.224	27234.24
788.557	27177.75
788.89	26990.63
789.223	26962.16
789.556	26683.3
789.888	26705.22
790.221	26630.64
790.554	26359.01
790.887	26426.58
791.219	26371.67
791.552	26228.17
791.884	26074.72
792.217	25990.66
792.549	25921.73
792.882	25736.88
793.214	25597.22
793.546	25681.51
793.879	25495.08
794.211	25202.66
794.543	25358.58
794.875	25243.33
795.207	25402.65
795.539	25254.63
795.871	25212.15
796.203	24990.68
796.535	24825.04
796.867	24827.75
797.198	24781.88
797.53	24601.54
797.862	24549.57
798.193	24552.28
798.525	24352.28
798.856	24394.09
799.188	23988.23
799.519	24025.96
799.85	23884.5
800.182	23953.88
800.513	23959.75
800.844	23741.45
801.175	23902.58
801.506	23794.56
801.837	23667.78
802.168	23536.03
802.499	23608.57
802.83	23365.64
803.161	23310.95
803.491	23241.58
803.822	23201.81
804.153	23116.38
804.483	22990.06
804.814	22906.22
805.145	22945.09
805.475	22901.93
805.805	22801.36
806.136	22832.78
806.466	22752.78
806.796	22641.59
807.126	22477.76
807.457	22449.06
807.787	22531.99
808.117	22343.52
808.447	22283.41
808.777	22402.73
809.107	22198.22
809.436	22078.9
809.766	22198.89
810.096	22004.1
810.426	21957.77
810.755	21960.03
811.085	21826.02
811.414	21783.09
811.744	21628.51
812.073	21554.16
812.403	21554.16
812.732	21321.85
813.061	21436.2
813.39	21346.03
813.719	21262.2
814.049	21422.87
814.378	21223.1
814.707	21091.35
815.036	21068.53
815.365	21037.12
815.693	20815.88
816.022	20829.21
816.351	20759.84
816.68	20682.55
817.008	20652.49
817.337	20548.32
817.665	20577.47
817.994	20565.04
818.322	20558.03
818.651	20459.73
818.979	20342.67
819.307	20410.01
819.636	20418.15
819.964	20297.47
820.292	20294.99
820.62	20190.81
820.948	20120.08
821.276	20285.27
821.604	20117.82
821.932	20219.06
822.259	20158.5
822.587	20158.27
822.915	20124.37
823.243	20178.16
823.57	20091.38
823.898	20129.12
824.225	19968.67
824.553	20033.3
824.88	20023.58
825.207	20036.69
825.535	20086.41
825.862	20111.72
826.189	19978.61
826.516	20166.86
826.843	20151.72
827.17	20158.95
827.497	20198.49
827.824	20094.32
828.151	20134.77
828.478	20027.65
828.805	20039.4
829.131	19946.52
829.458	19913.3
829.785	19964.38
830.111	19937.71
830.438	20087.76
830.764	19970.93
831.09	20021.78
831.417	19938.61
831.743	19916.92
832.069	19916.02
832.395	19848.67
832.722	19924.6
833.048	19770.71
833.374	19917.82
833.7	19807.77
834.026	19765.06
834.351	19794.21
834.677	19804.61
835.003	19758.51
835.329	19707.66
835.654	19683.93
835.98	19544.05
836.306	19649.81
836.631	19626.08
836.956	19666.76
837.282	19673.31
837.607	19468.34
837.932	19525.52
838.258	19486.87
838.583	19427.67
838.908	19318.97
839.233	19408.68
839.558	19350.38
839.883	19254.56
840.208	19193.32
840.533	19220.21
840.858	19223.15
841.182	19153.55
841.507	19127.79
841.832	19036.27
842.156	19012.08
842.481	18988.13
842.805	18930.05
843.13	18923.05
843.454	18852.32
843.778	18779.1
844.103	18668.59
844.427	18736.16
844.751	18782.26
845.075	18718.76
845.399	18533.91
845.723	18423.4
846.047	18471.76
846.371	18302.72
846.695	18295.04
847.019	18175.95
847.343	18144.31
847.666	17975.05
847.99	17854.15
848.313	17879.23
848.637	17706.36
848.96	17767.82
849.284	17816.41
849.607	17659.13
849.931	17544.33
850.254	17488.74
850.577	17380.04
850.9	17260.94
851.223	17109.54
851.546	17104.56
851.869	16991.12
852.192	16980.27
852.515	16946.15
852.838	16874.51
853.161	16860.73
853.483	16786.61
853.806	16686.5
854.129	16713.84
854.451	16633.84
854.774	16543.22
855.096	16473.17
855.419	16429.1
855.741	16396.11
856.063	16282.44
856.385	16253.06
856.708	16192.72
857.03	16150.69
857.352	16163.12
857.674	16003.8
857.996	15940.75
858.318	15887.42
858.64	15974.42
858.961	15844.03
859.283	15846.29
859.605	15737.14
859.926	15651.95
860.248	15724.49
860.57	15660.53
860.891	15696.69
861.212	15576.47
861.534	15553.42
861.855	15423.25
862.176	15530.14
862.498	15530.82
862.819	15423.93
863.14	15417.38
863.461	15368.34
863.782	15348.23
864.103	15268
864.424	15299.41
864.745	15375.8
865.065	15172.64
865.386	15138.51
865.707	15130.38
866.027	15163.37
866.348	15151.17
866.668	15075.24
866.989	15102.36
867.309	14943.49
867.63	15015.81
867.95	14901.68
868.27	14824.17
868.59	14937.84
868.91	14927.9
869.23	14897.84
869.55	14809.03
869.87	14806.55
870.19	14844.51
870.51	14785.3
870.83	14743.72
871.15	14674.12
871.469	14591.41
871.789	14646.78
872.109	14619.66
872.428	14470.51
872.748	14552.32
873.067	14555.25
873.386	14508.93
873.706	14536.04
874.025	14443.84
874.344	14427.35
874.663	14512.77
874.982	14387.8
875.301	14448.36
875.62	14346.44
875.939	14309.16
876.258	14256.73
876.577	14245.43
876.896	14248.82
877.214	14124.3
877.533	14249.72
877.852	14143.29
878.17	14147.81
878.489	14125.21
878.807	14110.97
879.125	14063.97
879.444	14097.41
879.762	14055.61
880.08	14019.22
880.398	14026.23
880.716	14009.05
881.034	13953.69
881.352	13933.8
881.67	13938.77
881.988	13905.1
882.306	13855.16
882.624	13791.66
882.941	13730.64
883.259	13688.61
883.577	13723.64
883.894	13581.72
884.212	13629.85
884.529	13555.05
884.846	13481.38
885.164	13517.31
885.481	13395.51
885.798	13477.77
886.115	13417.66
886.432	13268.51
886.75	13312.8
887.067	13349.63
887.383	13317.77
887.7	13286.36
888.017	13244.78
888.334	13245
888.651	13139.24
888.967	13195.74
889.284	13077.55
889.6	13080.04
889.917	12969.08
890.233	12965.24
890.55	12961.62
890.866	12925.01
891.182	12888.63
891.498	12832.59
891.815	12701.97
892.131	12680.73
892.447	12649.54
892.763	12711.01
893.079	12667.84
893.395	12588.52
893.71	12552.82
894.026	12435.08
894.342	12469.66
894.657	12420.62
894.973	12465.14
895.289	12360.73
895.604	12394.86
895.92	12209.1
896.235	12265.6
896.55	12198.48
896.865	12239.83
897.181	12139.5
897.496	12164.13
897.811	12107.86
898.126	11991.25
898.441	12005.26
898.756	11927.07
899.071	11809.79
899.386	11842.33
899.7	11712.16
900.015	11739.96
900.33	11675.1
900.644	11664.26
900.959	11664.26
901.273	11573.86
901.588	11482.34
901.902	11440.31
902.216	11341.55
902.531	11355.11
902.845	11334.55
903.159	11276.24
903.473	11198.96
903.787	11221.33
904.101	11061.33
904.415	11104.27
904.729	11063.59
905.042	11039.64
905.356	11052.97
905.67	11031.05
905.984	10965.74
906.297	10944.05
906.611	10895.69
906.924	10862.69
907.237	10824.96
907.551	10682.59
907.864	10658.86
908.177	10701.12
908.491	10632.64
908.804	10609.14
909.117	10571.4
909.43	10448.24
909.743	10368.47
910.056	10406.21
910.368	10244.86
910.681	10290.05
910.994	10262.03
911.307	10241.69
911.619	10150.17
911.932	10199.89
912.244	10133.67
912.557	10090.51
912.869	10022.04
913.181	10000.57
913.494	9949.72
913.806	9883.51
914.118	9841.7
914.43	9800.12
914.742	9848.26
915.054	9702.27
915.366	9748.15
915.678	9633.57
915.99	9543.63
916.302	9531.43
916.613	9539.79
916.925	9542.96
917.236	9435.16
917.548	9404.65
917.859	9396.29
918.171	9310.87
918.482	9271.78
918.794	9217.54
919.105	9267.48
919.416	9169.86
919.727	9139.35
920.038	9119.46
920.349	9035.4
920.66	8992.46
920.971	9005.12
921.282	8928.51
921.593	8825.91
921.903	8798.12
922.214	8788.85
922.525	8786.14
922.835	8736.87
923.146	8705.46
923.456	8699.59
923.767	8597.9
924.077	8576.88
924.387	8542.98
924.697	8469.54
925.008	8450.33
925.318	8463.44
925.628	8456.43
925.938	8335.08
926.248	8298.69
926.558	8230.22
926.867	8240.84
927.177	8178.47
927.487	8156.55
927.796	8071.58
928.106	8100.28
928.416	8092.6
928.725	8094.18
929.034	7946.39
929.344	7987.97
929.653	7900.96
929.962	7864.81
930.271	7802.89
930.581	7850.8
930.89	7698.48
931.199	7769.44
931.508	7732.61
931.817	7728.54
932.125	7664.81
932.434	7636.34
932.743	7517.92
933.051	7510.47
933.36	7538.49
933.669	7489.22
933.977	7428.43
934.286	7407.19
934.594	7419.62
934.902	7371.49
935.21	7265.95
935.519	7298.27
935.827	7210.81
936.135	7223.02
936.443	7215.78
936.751	7094.21
937.059	7107.77
937.367	7048.33
937.674	7152.74
937.982	7039.29
938.29	7005.62
938.597	6989.35
938.905	6922.01
939.213	6942.12
939.52	6901.89
939.827	6911.16
940.135	6870.03
940.442	6821.22
940.749	6749.36
941.056	6707.32
941.363	6684.5
941.67	6649.25
941.977	6647.66
942.284	6642.24
942.591	6592.07
942.898	6549.36
943.205	6529.25
943.511	6506.88
943.818	6435.92
944.125	6449.25
944.431	6380.55
944.738	6382.36
945.044	6310.05
945.35	6308.69
945.657	6287.9
945.963	6281.57
946.269	6163.16
946.575	6202.25
946.881	6185.76
947.187	6172.65
947.493	6100.56
947.799	6064.4
948.105	6072.76
948.41	6041.58
948.716	5990.73
949.022	5962.03
949.327	5930.85
949.633	5913.22
949.938	5921.58
950.244	5904.63
950.549	5837.97
950.854	5835.71
951.16	5798.42
951.465	5764.98
951.77	5735.37
952.075	5736.28
952.38	5713.68
952.685	5701.93
952.99	5607.47
953.294	5605.88
953.599	5562.27
953.904	5572.66
954.209	5491.31
954.513	5492.44
954.818	5513.46
955.122	5499.67
955.426	5463.74
955.731	5404.53
956.035	5404.08
956.339	5405.21
956.643	5393.01
956.948	5338.09
957.252	5316.17
957.556	5296.51
957.86	5303.74
958.163	5244.76
958.467	5210.64
958.771	5203.18
959.075	5177.42
959.378	5194.82
959.682	5163.64
959.985	5122.73
960.289	5093.13
960.592	5032.11
960.896	5037.76
961.199	4998.44
961.502	5033.02
961.805	4999.35
962.108	4944.21
962.411	4913.25
962.714	4873.7
963.017	4893.59
963.32	4920.25
963.623	4830.54
963.926	4850.42
964.228	4843.42
964.531	4753.7
964.833	4769.07
965.136	4800.71
965.438	4728.62
965.741	4698.56
966.043	4684.1
966.345	4708.28
966.648	4590.09
966.95	4628.51
967.252	4613.14
967.554	4598.68
967.856	4574.95
968.158	4545.35
968.46	4558.91
968.761	4533.14
969.063	4463.09
969.365	4431.45
969.666	4453.15
969.968	4386.93
970.269	4382.41
970.571	4377.44
970.872	4355.52
971.174	4354.17
971.475	4321.62
971.776	4269.87
972.077	4286.14
972.378	4261.96
972.679	4217.67
972.98	4214.51
973.281	4178.8
973.582	4167.5
973.883	4112.59
974.183	4144
974.484	4114.4
974.785	4102.42
975.085	4098.8
975.386	4096.32
975.686	4063.1
975.986	3984.91
976.287	4039.6
976.587	4000.05
976.887	3980.16
977.187	3938.58
977.487	3935.87
977.787	3925.02
978.087	3916.44
978.387	3869.88
978.687	3878.02
978.987	3848.87
979.286	3793.95
979.586	3804.35
979.885	3773.84
980.185	3773.84
980.484	3741.07
980.784	3780.17
981.083	3747.85
981.382	3679.15
981.682	3697.01
981.981	3688.42
982.28	3669.44
982.579	3657.23
982.878	3655.65
983.177	3567.97
983.475	3612.72
983.774	3578.37
984.073	3574.98
984.372	3518.03
984.67	3517.58
984.969	3542.44
985.267	3549.21
985.566	3511.48
985.864	3480.97
986.162	3419.05
986.461	3418.6
986.759	3485.26
987.057	3377.92
987.355	3421.31
987.653	3372.27
987.951	3327.75
988.249	3337.24
988.547	3342.89
988.844	3291.37
989.142	3308.77
989.44	3300.41
989.737	3267.87
990.035	3239.84
990.332	3213.86
990.63	3224.48
990.927	3203.23
991.224	3165.72
991.521	3218.38
991.819	3137.02
992.116	3116.46
992.413	3179.05
992.71	3098.15
993.006	3101.99
993.303	3049.57
993.6	3074.65
993.897	3029
994.193	3036.23
994.49	3001.88
994.787	3005.95
995.083	2969.34
995.379	2944.71
995.676	2939.97
995.972	2934.54
996.268	2939.51
996.565	2871.49
996.861	2889.12
997.157	2849.12
997.453	2879.85
997.749	2833.08
998.044	2858.39
998.34	2827.2
998.636	2809.8
998.932	2777.71
999.227	2746.52
999.523	2760.53
999.818	2773.42
1000.114	2725.28
1000.409	2736.81
1000.704	2690.25
1001	2704.04
1001.295	2624.49
1001.59	2657.49
1001.885	2657.26
1002.18	2638.96
1002.475	2609.13
1002.77	2598.51
1003.065	2593.08
1003.359	2579.52
1003.654	2516.02
1003.949	2547.88
1004.243	2582.01
1004.538	2481.9
1004.832	2498.62
1005.127	2459.3
1005.421	2457.49
1005.715	2438.96
1006.009	2441.9
1006.304	2390.15
1006.598	2399.87
1006.892	2398.28
1007.186	2349.25
1007.48	2349.7
1007.773	2363.03
1008.067	2356.7
1008.361	2319.64
1008.655	2291.39
1008.948	2294.11
1009.242	2262.92
1009.535	2287.55
1009.829	2269.47
1010.122	2226.54
1010.415	2249.81
1010.708	2217.5
1011.001	2201.68
1011.295	2200.1
1011.588	2223.83
1011.881	2186.99
1012.173	2130.04
1012.466	2181.79
1012.759	2149.48
1013.052	2117.16
1013.344	2123.04
1013.637	2096.37
1013.93	2069.48
1014.222	2048.69
1014.514	2071.97
1014.807	2049.82
1015.099	2008.69
1015.391	2038.52
1015.683	1983.83
1015.976	2017.73
1016.268	2013.66
1016.56	1974.34
1016.851	1925.98
1017.143	1956.94
1017.435	1961.01
1017.727	1910.84
1018.018	1924.4
1018.31	1902.93
1018.602	1859.77
1018.893	1850.28
1019.185	1843.04
1019.476	1871.74
1019.767	1819.09
1020.058	1817.51
1020.35	1789.49
1020.641	1788.13
1020.932	1774.8
1021.223	1764.63
1021.514	1736.15
1021.804	1762.59
1022.095	1754.46
1022.386	1725.08
1022.677	1697.51
1022.967	1693.9
1023.258	1650.96
1023.548	1713.56
1023.839	1626.78
1024.129	1662.48
1024.419	1644.18
1024.709	1630.39
1025	1599.89
1025.29	1590.85
1025.58	1576.61
1025.87	1584.29
1026.16	1533.45
1026.449	1563.05
1026.739	1552.43
1027.029	1532.77
1027.319	1534.58
1027.608	1508.14
1027.898	1531.64
1028.187	1490.96
1028.477	1470.4
1028.766	1464.98
1029.055	1428.14
1029.344	1475.6
1029.634	1420.91
1029.923	1447.35
1030.212	1447.35
1030.501	1410.74
1030.79	1392.66
1031.078	1396.5
1031.367	1373.23
1031.656	1360.35
1031.945	1347.24
1032.233	1356.5
1032.522	1342.27
1032.81	1320.57
1033.099	1326.22
1033.387	1330.74
1033.675	1299.78
1033.963	1310.18
1034.251	1279.67
1034.54	1294.58
1034.828	1258.88
1035.116	1253
1035.403	1244.19
1035.691	1242.16
1035.979	1232.21
1036.267	1230.41
1036.554	1244.87
1036.842	1215.49
1037.129	1214.81
1037.417	1241.25
1037.704	1186.79
1037.992	1176.62
1038.279	1177.75
1038.566	1166.9
1038.853	1166.9
1039.14	1166.9
