Data from plate_ceramic_FLMS001491_093.txt Node
Date: Tue Feb 07 11:17:34 GMT 2017
User: dcchb
Spectrometer: FLMS00149
Trigger mode: 0
Integration Time (sec): 2.000000E-2
Scans to average: 10
Electric dark correction enabled: true
Nonlinearity correction enabled: false
Boxcar width: 0
XAxis mode: Wavelengths
Number of Pixels in Spectrum: 2048
>>>>>Begin Spectral Data<<<<<
341.393	-8.45
341.776	-8.45
342.16	-8.45
342.543	-56.58
342.927	-71.04
343.31	-66.75
343.693	-80.99
344.077	-90.93
344.46	-62.46
344.843	-58.61
345.226	-39.63
345.61	-28.78
345.993	-24.26
346.376	-9.35
346.759	7.6
347.142	32.91
347.525	56.41
347.908	50.08
348.291	92.57
348.674	110.87
349.057	111.32
349.44	137.09
349.823	147.71
350.206	154.94
350.588	209.4
350.971	242.62
351.354	238.1
351.737	252.79
352.119	269.06
352.502	280.81
352.884	274.26
353.267	306.35
353.65	310.42
354.032	295.95
354.414	321.94
354.797	337.31
355.179	344.31
355.562	354.26
355.944	337.53
356.326	339.57
356.709	373.92
357.091	358.78
357.473	376.4
357.855	343.41
358.238	363.3
358.62	364.2
359.002	354.93
359.384	378.89
359.766	370.75
360.148	372.11
360.53	369.62
360.912	379.11
361.294	357.87
361.676	374.14
362.057	363.3
362.439	359.45
362.821	377.76
363.203	358.78
363.584	356.29
363.966	353.35
364.348	337.99
364.729	351.09
365.111	344.76
365.493	346.8
365.874	376.4
366.256	353.35
366.637	374.37
367.019	354.93
367.4	356.97
367.781	341.6
368.163	337.08
368.544	368.49
368.925	333.01
369.306	385.89
369.688	361.04
370.069	364.88
370.45	351.77
370.831	343.41
371.212	351.32
371.593	362.17
371.974	387.48
372.355	382.5
372.736	365.33
373.117	375.05
373.498	384.31
373.879	394.93
374.26	375.72
374.641	344.09
375.021	361.26
375.402	387.25
375.783	393.35
376.163	408.04
376.544	410.75
376.925	404.88
377.305	389.28
377.686	418.21
378.066	414.37
378.447	389.51
378.827	418.89
379.208	396.97
379.588	429.51
379.968	419.11
380.349	401.71
380.729	410.98
381.109	444.42
381.489	427.02
381.87	425.89
382.25	431.54
382.63	425.21
383.01	437.19
383.39	436.51
383.77	450.52
384.15	448.49
384.53	452.78
384.91	476.06
385.29	463.18
385.67	464.99
386.049	486.23
386.429	484.2
386.809	511.54
387.189	467.7
387.568	478.09
387.948	493.46
388.328	506.12
388.707	505.66
389.087	497.76
389.466	492.33
389.846	521.26
390.225	534.36
390.605	517.87
390.984	529.84
391.363	538.43
391.743	537.08
392.122	543.86
392.501	547.47
392.881	542.5
393.26	551.31
393.639	553.57
394.018	561.03
394.397	564.42
394.776	566.68
395.155	589.5
395.534	566.45
395.913	593.8
396.292	600.35
396.671	624.31
397.05	595.38
397.429	598.32
397.808	609.62
398.186	619.11
398.565	622.5
398.944	623.18
399.323	615.72
399.701	648.26
400.08	662.95
400.458	623.85
400.837	662.27
401.215	671.31
401.594	675.15
401.972	683.29
402.351	666.34
402.729	693.91
403.107	696.62
403.486	683.97
403.864	719.9
404.242	722.83
404.62	715.6
404.999	738.65
405.377	737.97
405.755	765.09
406.133	764.19
406.511	751.53
406.889	770.52
407.267	795.15
407.645	797.63
408.023	802.83
408.401	816.84
408.779	820.01
409.156	854.36
409.534	857.29
409.912	828.37
410.29	874.47
410.667	875.15
411.045	869.04
411.422	897.07
411.8	889.16
412.178	926.9
412.555	906.78
412.933	936.16
413.31	949.49
413.687	993.34
414.065	981.58
414.442	992.88
414.819	1001.24
415.197	1024.3
415.574	1038.08
415.951	1036.5
416.328	1047.12
416.705	1047.35
417.082	1054.8
417.46	1075.37
417.837	1125.31
418.214	1070.17
418.591	1089.15
418.967	1097.74
419.344	1107.46
419.721	1166.66
420.098	1144.52
420.475	1164.4
420.852	1160.56
421.228	1167.57
421.605	1186.1
421.982	1209.83
422.358	1233.33
422.735	1228.58
423.111	1216.15
423.488	1238.3
423.864	1280.11
424.241	1290.05
424.617	1307.45
424.994	1323.27
425.37	1332.76
425.746	1324.17
426.123	1344.96
426.499	1384.96
426.875	1400.1
427.251	1398.97
427.627	1443.49
428.003	1405.53
428.379	1452.53
428.756	1482.59
429.132	1480.55
429.507	1510.61
429.883	1532.3
430.259	1572.08
430.635	1565.98
431.011	1596.94
431.387	1615.01
431.763	1639.87
432.138	1657.05
432.514	1674.9
432.89	1671.51
433.265	1697.05
433.641	1735.91
434.016	1779.53
434.392	1798.96
434.767	1819.08
435.143	1826.99
435.518	1832.64
435.894	1879.19
436.269	1877.15
436.644	1931.62
437.02	1944.27
437.395	1940.88
437.77	1984.95
438.145	2002.8
438.52	2026.98
438.895	2033.31
439.271	2039.86
439.646	2089.13
440.021	2078.05
440.395	2124.38
440.77	2123.25
441.145	2115.34
441.52	2132.74
441.895	2165.06
442.27	2182.23
442.645	2220.87
443.019	2217.03
443.394	2223.36
443.769	2257.48
444.143	2250.03
444.518	2285.28
444.892	2301.1
445.267	2268.1
445.641	2301.1
446.016	2356.69
446.39	2360.08
446.764	2379.97
447.139	2377.03
447.513	2396.91
447.887	2411.6
448.262	2422.68
448.636	2459.74
449.01	2472.17
449.384	2521.88
449.758	2523.69
450.132	2581.54
450.506	2549.68
450.88	2576.34
451.254	2591.71
451.628	2620.64
452.002	2681.2
452.376	2673.07
452.75	2693.4
453.123	2736.57
453.497	2770.69
453.871	2812.72
454.244	2866.51
454.618	2873.06
454.992	2920.06
455.365	2897.24
455.739	2988.31
456.112	2972.27
456.486	3035.09
456.859	3096.11
457.232	3145.82
457.606	3131.13
457.979	3189.44
458.352	3285.93
458.725	3290.68
459.099	3303.78
459.472	3381.52
459.845	3412.93
460.218	3468.52
460.591	3453.16
460.964	3492.03
461.337	3596.2
461.71	3627.62
462.083	3672.81
462.456	3693.83
462.829	3720.95
463.201	3762.53
463.574	3813.83
463.947	3827.39
464.32	3970.43
464.692	3995.97
465.065	4007.49
465.438	4042.52
465.81	4120.48
466.183	4152.12
466.555	4230.54
466.928	4291.1
467.3	4292.46
467.672	4380.37
468.045	4475.28
468.417	4491.1
468.789	4522.28
469.161	4591.21
469.534	4694.48
469.906	4725.44
470.278	4783.29
470.65	4847.47
471.022	4945.32
471.394	4972.89
471.766	5065.09
472.138	5161.81
472.51	5249.72
472.882	5319.78
473.253	5368.81
473.625	5477.74
473.997	5629.6
474.369	5643.38
474.74	5671.86
475.112	5772.42
475.484	5897.61
475.855	6020.1
476.227	6011.51
476.598	6202.24
476.97	6245.4
477.341	6389.35
477.713	6521.55
478.084	6517.71
478.455	6737.14
478.827	6764.94
479.198	7013.52
479.569	7020.3
479.94	7159.5
480.311	7275.88
480.682	7405.82
481.053	7636.78
481.424	7726.94
481.795	7748.86
482.166	7913.83
482.537	8041.29
482.908	8203.99
483.279	8307.72
483.65	8423.65
484.021	8650.08
484.391	8645.34
484.762	8773.7
485.133	8885.11
485.503	9029.96
485.874	9179.33
486.244	9285.09
486.615	9446.9
486.985	9516.95
487.356	9771.64
487.726	9862.71
488.097	10020.22
488.467	10092.76
488.837	10361
489.207	10493.42
489.578	10612.74
489.948	10697.26
490.318	10915.56
490.688	10887.31
491.058	11037.14
491.428	11199.17
491.798	11362.1
492.168	11601.64
492.538	11578.14
492.908	11758.7
493.278	11859.26
493.648	11980.39
494.017	12070.56
494.387	12232.14
494.757	12365.24
495.126	12428.74
495.496	12518.91
495.866	12586.93
496.235	12797.77
496.605	12815.4
496.974	12893.59
497.344	13093.58
497.713	13248.83
498.082	13234.6
498.452	13461.03
498.821	13497.41
499.19	13518.88
499.559	13803.85
499.928	13800.68
500.298	13889.04
500.667	13989.6
501.036	14019.89
501.405	14246.55
501.774	14164.74
502.143	14387.11
502.512	14453.09
502.88	14575.35
503.249	14735.35
503.618	14740.77
503.987	14833.42
504.356	14937.38
504.724	15070.03
505.093	15088.33
505.462	15261.43
505.83	15360.19
506.199	15486.51
506.567	15689.67
506.936	15593.86
507.304	15843.34
507.672	15944.81
508.041	15808.54
508.409	16051.7
508.777	16317
509.145	16493.72
509.514	16497.79
509.882	16560.84
510.25	16684.22
510.618	16801.96
510.986	16869.53
511.354	17107.26
511.722	17202.63
512.09	17394.49
512.458	17315.39
512.826	17499.12
513.193	17728.04
513.561	17734.36
513.929	17929.16
514.297	18101.81
514.664	18285.08
515.032	18345.87
515.4	18469.94
515.767	18518.3
516.135	18719.2
516.502	18607.11
516.869	18903.82
517.237	19074.89
517.604	19056.82
517.972	19307.43
518.339	19431.27
518.706	19483.92
519.073	19570.25
519.44	19711.26
519.808	20035.55
520.175	19931.14
520.542	20322.09
520.909	20397.35
521.276	20381.07
521.643	20607.96
522.009	20805.24
522.376	20943.32
522.743	21073.26
523.11	21261.05
523.477	21546.47
523.843	21742.85
524.21	21931.77
524.577	22144.42
524.943	22217.41
525.31	22333.57
525.676	22538.31
526.043	22684.29
526.409	22738.3
526.776	22971.29
527.142	23155.01
527.508	23274.78
527.874	23452.86
528.241	23658.05
528.607	23773.75
528.973	23973.07
529.339	23813.07
529.705	24241.99
530.071	24397.92
530.437	24571.25
530.803	24720.62
531.169	24828.19
531.535	24810.56
531.901	25009.43
532.267	25123.55
532.632	25284.45
532.998	25497.78
533.364	25636.98
533.73	25712.69
534.095	25986.8
534.461	25945.9
534.826	26147.7
535.192	26244.2
535.557	26470.41
535.923	26422.72
536.288	26634.47
536.653	26808.48
537.019	26691.42
537.384	26887.57
537.749	26891.19
538.114	27084.17
538.479	27133.21
538.845	27234.68
539.21	27221.57
539.575	27337.95
539.94	27575.01
540.305	27695.91
540.67	27680.09
541.034	27828.34
541.399	28123.24
541.764	28010.48
542.129	28252.05
542.494	28253.18
542.858	28377.93
543.223	28454.31
543.587	28706.96
543.952	28643.23
544.316	28843.45
544.681	28686.39
545.045	28890.91
545.41	29140.62
545.774	29118.92
546.138	29196.21
546.503	29339.26
546.867	29433.49
547.231	29657.21
547.595	29671.23
547.959	29806.36
548.324	29947.6
548.688	29856.53
549.052	30058.79
549.416	30190.31
549.779	30337.42
550.143	30415.39
550.507	30549.17
550.871	30755.49
551.235	30756.17
551.599	30973.79
551.962	30964.3
552.326	31042.49
552.689	31245.2
553.053	31297.4
553.417	31399.77
553.78	31699.65
554.143	31606.77
554.507	31820.1
554.87	31954.1
555.234	32198.62
555.597	32163.59
555.96	32316.58
556.323	32439.74
556.686	32588.21
557.05	32796.79
557.413	32953.4
557.776	33031.14
558.139	33186.61
558.502	33320.4
558.865	33414.4
559.228	33739.82
559.59	33861.17
559.953	33912.02
560.316	34127.83
560.679	34311.78
561.041	34388.39
561.404	34653.02
561.767	34718.55
562.129	34748.38
562.492	35048.26
562.854	35157.63
563.217	35249.61
563.579	35425.2
563.941	35691.41
564.304	35789.71
564.666	36211.84
565.028	36188.34
565.39	36149.93
565.753	36419.52
566.115	36595.11
566.477	36614.32
566.839	36768.89
567.201	37014.31
567.563	37100.86
567.925	37409.78
568.287	37306.5
568.648	37501.08
569.01	37625.82
569.372	37912.82
569.734	37852.25
570.095	38073.49
570.457	38242.53
570.819	38375.4
571.18	38405.01
571.542	38639.58
571.903	38612.01
572.265	38878.67
572.626	38842.28
572.987	38967.03
573.349	39106.46
573.71	39256.28
574.071	39294.48
574.432	39474.13
574.794	39685.88
575.155	39625.99
575.516	39536.05
575.877	39841.35
576.238	39859.21
576.599	40152.08
576.96	40046.09
577.32	40090.16
577.681	40311.85
578.042	40402.92
578.403	40402.02
578.763	40379.42
579.124	40579.64
579.485	40791.61
579.845	40938.95
580.206	40729.92
580.566	40774.89
580.927	40875.22
581.287	40847.88
581.648	40659.86
582.008	41093.52
582.368	40926.3
582.728	41048.33
583.089	41011.27
583.449	41030.93
583.809	41208.1
584.169	41184.6
584.529	40875.45
584.889	41506.39
585.249	41120.87
585.609	41005.84
585.969	41286.06
586.329	41151.15
586.688	41229.57
587.048	41407.87
587.408	41304.37
587.768	41279.06
588.127	41167.19
588.487	41235.22
588.846	41552.49
589.206	41138.95
589.565	41290.58
589.925	41404.25
590.284	41386.85
590.643	41448.77
591.003	41568.77
591.362	41613.74
591.721	41543.23
592.08	41502.1
592.44	41765.82
592.799	41878.36
593.158	41694.86
593.517	41658.48
593.876	41755.2
594.235	41740.51
594.593	41727.86
594.952	41871.36
595.311	41746.39
595.67	41723.56
596.029	41855.54
596.387	41908.19
596.746	41965.59
597.104	41742.09
597.463	41913.84
597.822	42042.88
598.18	41886.27
598.538	41915.88
598.897	42060.96
599.255	41885.59
599.613	42469.08
599.972	42117.68
600.33	42354.96
600.688	42143.89
601.046	42328.75
601.404	42331.91
601.762	42331.91
602.12	42569.87
602.478	42594.05
602.836	42431.12
603.194	42229.99
603.552	42331.46
603.91	42354.28
604.268	42552.69
604.625	42481.96
604.983	42682.86
605.341	42526.25
605.698	42681.05
606.056	42797.66
606.413	42641.96
606.771	42933.7
607.128	42852.57
607.485	42783.2
607.843	42837.66
608.2	42956.07
608.557	43102.51
608.914	43006.02
609.272	43171.44
609.629	43213.47
609.986	43407.14
610.343	43241.49
610.7	43573.01
611.057	43374.82
611.414	43396.06
611.771	43548.37
612.127	43562.39
612.484	43444.87
612.841	43854.81
613.198	43595.15
613.554	43621.82
613.911	43913.56
614.267	43791.53
614.624	43802.83
614.98	43886.22
615.337	44154.23
615.693	44052.09
616.05	43862.04
616.406	44079.21
616.762	43983.84
617.118	43908.37
617.475	43972.09
617.831	44202.59
618.187	44172.54
618.543	44212.54
618.899	44480.1
619.255	44433.32
619.611	44208.02
619.967	44511.06
620.323	44396.26
620.678	44333.89
621.034	44288.47
621.39	44383.83
621.746	44398.97
622.101	44743.6
622.457	44332.31
622.812	44486.88
623.168	44499.54
623.523	44546.99
623.879	44667.67
624.234	44434.68
624.589	44497.95
624.945	44473.77
625.3	44585.64
625.655	44451.4
626.01	44544.73
626.365	44561.68
626.72	44559.87
627.075	44636.26
627.43	44397.62
627.785	44477.39
628.14	44521
628.495	44551.51
628.85	44436.71
629.205	44329.15
629.559	44390.84
629.914	44224.06
630.269	44360.1
630.623	44194.01
630.978	44064.52
631.332	44328.92
631.687	44463.15
632.041	44262.71
632.396	44196.72
632.75	43976.39
633.104	44107
633.459	43955.6
633.813	43839.44
634.167	43927.57
634.521	43867.01
634.875	43938.65
635.229	43777.07
635.583	43544.53
635.937	43728.26
636.291	43605.1
636.645	43627.92
636.999	43386.8
637.352	43620.46
637.706	43458.66
638.06	43530.52
638.413	43334.37
638.767	43266.35
639.121	43304.31
639.474	43126.92
639.828	43168.5
640.181	43289.17
640.534	43220.7
640.888	43118.78
641.241	42867.04
641.594	42907.94
641.947	43008.28
642.301	42987.49
642.654	43067.71
643.007	42873.14
643.36	42883.76
643.713	42816.87
644.066	42990.88
644.419	42501.4
644.771	42295.3
645.124	41946.16
645.477	41893.05
645.83	41550.69
646.182	41512.72
646.535	41335.33
646.888	41513.85
647.24	41246.06
647.593	41424.81
647.945	41438.83
648.298	41332.16
648.65	41133.97
649.002	40996.58
649.355	41263.69
649.707	41153.18
650.059	41259.4
650.411	41557.69
650.763	41667.75
651.115	42097.79
651.467	41811.92
651.819	41903.45
652.171	41628.88
652.523	41672.27
652.875	41804.47
653.227	41532.16
653.578	41677.01
653.93	41619.39
654.282	41486.96
654.633	41299.62
654.985	41430.92
655.337	41511.37
655.688	41502.33
656.039	41518.82
656.391	41225.05
656.742	41262.11
657.094	41316.34
657.445	41340.3
657.796	41168.1
658.147	41111.15
658.498	41095.78
658.849	41095.11
659.2	41179.4
659.551	41045.16
659.902	41101.21
660.253	41044.49
660.604	41028.67
660.955	40795.9
661.306	41126.07
661.656	40910.93
662.007	40913.87
662.358	41008.78
662.708	40944.15
663.059	40870.93
663.409	40645.17
663.76	40975.56
664.11	40821.44
664.461	40677.72
664.811	40878.16
665.161	40909.35
665.511	40737.15
665.862	40731.73
666.212	40901.21
666.562	41074.99
666.912	40815.34
667.262	40780.09
667.612	40749.58
667.962	40806.98
668.312	40733.31
668.662	40851.27
669.011	40725.62
669.361	40616.25
669.711	40665.29
670.06	40666.87
670.41	40596.81
670.76	40625.06
671.109	40427.33
671.459	40433.65
671.808	40463.03
672.157	40453.31
672.507	40209.93
672.856	40328.35
673.205	40357.72
673.554	40291.96
673.904	40266.65
674.253	40301.23
674.602	40205.19
674.951	39798.42
675.3	39581.93
675.649	40105.98
675.998	40100.56
676.346	40026.66
676.695	40091.74
677.044	39823.27
677.393	40067.56
677.741	40085.41
678.09	39967.45
678.438	39857.62
678.787	39892.88
679.135	39985.53
679.484	39590.29
679.832	39946.44
680.181	39637.52
680.529	39740.11
680.877	39492.66
681.225	39506.67
681.573	39615.14
681.922	39499.22
682.27	39435.04
682.618	39316.62
682.966	39376.06
683.314	39395.49
683.661	39164.99
684.009	39031.43
684.357	38953.92
684.705	38895.16
685.053	38975.61
685.4	38892.68
685.748	38789.18
686.095	38654.72
686.443	38437.1
686.79	38471.45
687.138	38462.63
687.485	38583.76
687.832	38282.52
688.18	38493.82
688.527	38154.17
688.874	38082.53
689.221	38027.39
689.568	37866.49
689.915	38024.68
690.262	37843.89
690.609	37832.14
690.956	37706.49
691.303	37604.8
691.65	37467.4
691.997	37387.18
692.344	37282.78
692.69	37206.62
693.037	37466.05
693.383	37086.4
693.73	37045.04
694.077	36879.62
694.423	36871.04
694.769	36912.62
695.116	36827.87
695.462	36795.56
695.808	36515.34
696.155	36604.6
696.501	36332.97
696.847	36291.16
697.193	35962.36
697.539	36149.7
697.885	35951.29
698.231	35856.83
698.577	35816.15
698.923	35695.47
699.269	35497.51
699.614	35296.16
699.96	35336.39
700.306	35346.56
700.651	35201.7
700.997	35167.35
701.342	34937.3
701.688	35049.84
702.033	34854.14
702.379	34833.58
702.724	34662.05
703.069	34633.35
703.415	34371.67
703.76	34451.21
704.105	34323.53
704.45	34141.62
704.795	34040.83
705.14	33894.17
705.485	34025.46
705.83	33888.29
706.175	33857.78
706.52	33755.64
706.865	33687.39
707.209	33739.59
707.554	33492.37
707.899	33414.86
708.243	33346.16
708.588	33277.91
708.932	33077.01
709.277	33061.87
709.621	33160.4
709.966	32941.87
710.31	32822.78
710.654	32526.52
710.998	32825.94
711.342	32792.73
711.687	32653.97
712.031	32543.92
712.375	32501.89
712.719	32491.04
713.063	32468.44
713.407	32474.09
713.75	32183.02
714.094	32209.92
714.438	32060.54
714.782	32203.81
715.125	32040.65
715.469	32056.7
715.812	31940.77
716.156	31845.86
716.499	31792.98
716.843	31778.29
717.186	31466.43
717.53	31597.05
717.873	31616.94
718.216	31522.25
718.559	31444.06
718.902	31278.19
719.246	31260.34
719.589	31230.51
719.932	30940.12
720.275	31143.5
720.617	31046.56
720.96	30914.81
721.303	31006.11
721.646	31033.9
721.989	30799.78
722.331	30809.27
722.674	30718.66
723.016	30748.03
723.359	30677.75
723.701	30571.99
724.044	30424.43
724.386	30332.68
724.729	30489.51
725.071	30188.05
725.413	30268.72
725.755	30303.75
726.097	30133.36
726.439	29988.28
726.782	29877.55
727.124	30123.42
727.465	29936.08
727.807	29897.89
728.149	29855.63
728.491	29809.53
728.833	29873.25
729.175	29640.49
729.516	29654.73
729.858	29552.58
730.199	29595.97
730.541	29697.21
730.882	29494.96
731.224	29552.58
731.565	29334.06
731.906	29435.98
732.248	29433.27
732.589	29198.02
732.93	29068.53
733.271	29073.73
733.612	29142.43
733.953	29148.98
734.294	29062.43
734.635	28948.53
734.976	29172.03
735.317	28922.32
735.658	28941.98
735.999	28851.81
736.339	28817.24
736.68	28974.75
737.021	28653.17
737.361	28673.51
737.702	28774.75
738.042	28684.13
738.383	28575.89
738.723	28657.47
739.063	28496.34
739.404	28540.18
739.744	28405.72
740.084	28315.33
740.424	28413.86
740.764	28228.33
741.104	28448.66
741.444	28252.96
741.784	28005.73
742.124	28073.08
742.464	28141.32
742.804	28123.7
743.143	27990.59
743.483	28036.69
743.823	27837.83
744.162	27779.98
744.502	27832.86
744.841	27714.67
745.181	27748.34
745.52	27555.8
745.86	27589.47
746.199	27582.92
746.538	27505.18
746.877	27532.98
747.216	27344.96
747.556	27406.2
747.895	27364.62
748.234	27316.26
748.573	27288.01
748.911	27162.82
749.25	27168.92
749.589	27121.69
749.928	27028.13
750.267	26980.22
750.605	26892.32
750.944	26849.38
751.283	26679.89
751.621	26864.07
751.96	26728.48
752.298	26716.95
752.636	26589.72
752.975	26509.73
753.313	26555.83
753.651	26411.65
753.989	26306.79
754.327	26356.51
754.666	26217.98
755.004	26220.92
755.342	26225.67
755.679	26142.05
756.017	26088.27
756.355	25890.31
756.693	25880.14
757.031	25870.65
757.368	25810.54
757.706	25753.81
758.044	25668.84
758.381	25659.81
758.719	25526.48
759.056	25646.25
759.394	25573.93
759.731	25229.76
760.068	25214.39
760.405	25134.85
760.743	25079.48
761.08	25102.76
761.417	24972.59
761.754	24897.11
762.091	24886.49
762.428	24754.29
762.765	24684.46
763.102	24670.68
763.438	24568.31
763.775	24503.9
764.112	24467.07
764.449	24360.86
764.785	24198.6
765.122	24040.87
765.458	23958.61
765.795	23911.6
766.131	23950.25
766.467	23786.63
766.804	23680.87
767.14	23588
767.476	23659.41
767.812	23590.26
768.148	23469.58
768.485	23283.6
768.821	23214.9
769.157	23275.24
769.492	23164.96
769.828	23234.33
770.164	22908.24
770.5	22824.63
770.836	22969.71
771.171	22644.74
771.507	22700.34
771.842	22591.19
772.178	22642.03
772.513	22559.1
772.849	22376.05
773.184	22260.8
773.519	22166.56
773.855	22181.48
774.19	21985.33
774.525	21946.91
774.86	21866.01
775.195	21939.23
775.53	21813.35
775.865	21560.03
776.2	21498.11
776.535	21421.05
776.87	21372.01
777.205	21409.3
777.539	21377.66
777.874	21224.89
778.209	21048.85
778.543	21082.52
778.878	20951.45
779.212	20873.04
779.547	20868.75
779.881	20863.1
780.215	20662.65
780.55	20662.42
780.884	20580.62
781.218	20525.48
781.552	20438.25
781.886	20283
782.22	20181.31
782.554	20129.78
782.888	19985.83
783.222	20003.68
783.556	19840.07
783.889	19809.79
784.223	19752.84
784.557	19647.31
784.89	19674.2
785.224	19523.02
785.557	19401.44
785.891	19370.48
786.224	19253.87
786.558	19381.78
786.891	19178.39
787.224	19144.27
787.557	19050.71
787.891	19034.44
788.224	18905.86
788.557	18903.82
788.89	18883.26
789.223	18746.99
789.556	18716.71
789.888	18617.73
790.221	18496.15
790.554	18326.44
790.887	18438.53
791.219	18357.4
791.552	18254.58
791.884	18206.44
792.217	18071.98
792.549	18054.58
792.882	17988.37
793.214	17803.06
793.546	17901.37
793.879	17676.29
794.211	17634.93
794.543	17795.61
794.875	17588.15
795.207	17770.75
795.539	17584.99
795.871	17482.17
796.203	17410.53
796.535	17369.4
796.867	17262.06
797.198	17195.85
797.53	17278.33
797.862	17203.53
798.193	17261.83
798.525	17003.99
798.856	17020.26
799.188	16886.25
799.519	16842.41
799.85	16737.1
800.182	16749.31
800.513	16732.81
800.844	16558.8
801.175	16712.7
801.506	16618.01
801.837	16483.32
802.168	16442.65
802.499	16462.31
802.83	16364.46
803.161	16291.92
803.491	16315.19
803.822	16242.43
804.153	16155.65
804.483	15947.29
804.814	15919.95
805.145	15959.27
805.475	15989.33
805.805	16001.08
806.136	15955.65
806.466	15938.25
806.796	15831.82
807.126	15743.23
807.457	15713.63
807.787	15718.37
808.117	15568.32
808.447	15529.68
808.777	15555.44
809.107	15427.08
809.436	15415.56
809.766	15403.35
810.096	15361.09
810.426	15213.98
810.755	15269.57
811.085	15135.11
811.414	15073.42
811.744	14948
812.073	14979.86
812.403	15058.5
812.732	14919.52
813.061	14944.61
813.39	14823.71
813.719	14767.21
814.049	14873.65
814.378	14805.18
814.707	14707.1
815.036	14759.53
815.365	14616.25
815.693	14563.83
816.022	14524.73
816.351	14477.27
816.68	14398.18
817.008	14480.89
817.337	14302.59
817.665	14333.32
817.994	14310.27
818.322	14317.96
818.651	14263.27
818.979	14152.76
819.307	14179.88
819.636	14231.63
819.964	14159.77
820.292	14145.76
820.62	14068.7
820.948	14076.16
821.276	14133.1
821.604	14140.79
821.932	14126.32
822.259	14087.23
822.587	14082.48
822.915	13989.38
823.243	14056.04
823.57	14059.66
823.898	13994.12
824.225	13904.86
824.553	13925.42
824.88	13962.03
825.207	13901.02
825.535	13879.1
825.862	14011.98
826.189	14046.1
826.516	14029.38
826.843	14081.13
827.17	14090.39
827.497	14131.52
827.824	14071.86
828.151	14070.28
828.478	14004.29
828.805	14015.37
829.131	13952.77
829.458	13871.64
829.785	13827.57
830.111	13806.78
830.438	13922.94
830.764	13916.84
831.09	13962.03
831.417	13898.31
831.743	13816.73
832.069	13823.96
832.395	13770.85
832.722	13909.61
833.048	13839.55
833.374	13785.09
833.7	13731.08
834.026	13699.67
834.351	13773.34
834.677	13804.07
835.003	13822.83
835.329	13708.03
835.654	13744.19
835.98	13635.49
836.306	13725.43
836.631	13543.97
836.956	13732.44
837.282	13678.88
837.607	13589.16
837.932	13521.82
838.258	13523.18
838.583	13572.44
838.908	13355.04
839.233	13386.23
839.558	13490.41
839.883	13391.2
840.208	13263.75
840.533	13380.81
840.858	13360.24
841.182	13408.83
841.507	13389.17
841.832	13289.51
842.156	13288.15
842.481	13229.85
842.805	13224.43
843.13	13190.53
843.454	13189.17
843.778	13066.46
844.103	13122.28
844.427	13148.72
844.751	13127.93
845.075	13048.39
845.399	12969.97
845.723	12934.04
846.047	12886.13
846.371	12799.35
846.695	12762.52
847.019	12651.11
847.343	12580.6
847.666	12479.59
847.99	12390.1
848.313	12433.26
848.637	12367.05
848.96	12359.82
849.284	12349.65
849.607	12307.84
849.931	12233.49
850.254	12164.34
850.577	12046.83
850.9	12048.41
851.223	11994.85
851.546	11942.2
851.869	11835.76
852.192	11916.89
852.515	11765.93
852.838	11791.47
853.161	11734.52
853.483	11611.36
853.806	11682.32
854.129	11637.35
854.451	11590.34
854.774	11565.49
855.096	11531.82
855.419	11443
855.741	11509.44
856.063	11372.5
856.385	11390.58
856.708	11359.39
857.03	11244.82
857.352	11224.25
857.674	11203.69
857.996	11214.54
858.318	11071.94
858.64	11049.12
858.961	11105.16
859.283	10984.03
859.605	10998.27
859.926	11019.06
860.248	10934.77
860.57	10946.75
860.891	10899.97
861.212	10896.13
861.534	10849.35
861.855	10837.6
862.176	10830.36
862.498	10878.95
862.819	10835.56
863.14	10744.49
863.461	10756.47
863.782	10633.53
864.103	10720.09
864.424	10671.05
864.745	10727.77
865.065	10639.86
865.386	10604.16
865.707	10587.43
866.027	10629.47
866.348	10559.19
866.668	10542.91
866.989	10521.67
867.309	10469.02
867.63	10437.38
867.95	10463.82
868.27	10334.56
868.59	10419.08
868.91	10442.35
869.23	10380.66
869.55	10372.07
869.87	10441.22
870.19	10405.74
870.51	10368.23
870.83	10313.54
871.15	10175.24
871.469	10271.96
871.789	10148.35
872.109	10195.35
872.428	10157.61
872.748	10213.88
873.067	10159.42
873.386	10130.27
873.706	10167.78
874.025	10076.94
874.344	10076.94
874.663	10103.15
874.982	10051.4
875.301	10050.72
875.62	10005.53
875.939	9984.29
876.258	10008.47
876.577	9927.56
876.896	9944.06
877.214	9934.12
877.533	9902.48
877.852	9887.56
878.17	9863.38
878.489	9871.52
878.807	9849.6
879.125	9919.2
879.444	9857.06
879.762	9843.95
880.08	9869.03
880.398	9772.31
880.716	9739.55
881.034	9726.67
881.352	9739.55
881.67	9672.66
881.988	9672.88
882.306	9698.42
882.624	9628.36
882.941	9611.87
883.259	9569.38
883.577	9550.85
883.894	9547.91
884.212	9537.29
884.529	9543.62
884.846	9416.84
885.164	9460.01
885.481	9414.81
885.798	9396.96
886.115	9376.84
886.432	9354.47
886.75	9327.13
887.067	9323.74
887.383	9362.83
887.7	9283.06
888.017	9294.36
888.334	9312.66
888.651	9237.86
888.967	9219.33
889.284	9171.43
889.6	9206.68
889.917	9046.68
890.233	9083.97
890.55	9026.57
890.866	9026.12
891.182	8985.22
891.498	8934.6
891.815	8879.91
892.131	8884.43
892.447	8906.12
892.763	8845.56
893.079	8873.13
893.395	8835.84
893.71	8794.71
894.026	8809.18
894.342	8763.07
894.657	8637.88
894.973	8634.94
895.289	8640.37
895.604	8657.09
895.92	8508.39
896.235	8535.28
896.55	8538.67
896.865	8467.26
897.181	8471.1
897.496	8530.76
897.811	8417.77
898.126	8404.67
898.441	8369.86
898.756	8289.41
899.071	8290.54
899.386	8355.18
899.7	8309.98
900.015	8219.59
900.33	8148.4
900.644	8156.99
900.959	8135.29
901.273	8123.32
901.588	8140.04
901.902	8046.26
902.216	7991.57
902.531	7977.11
902.845	7969.2
903.159	7888.07
903.473	7806.49
903.787	7804.68
904.101	7715.64
904.415	7786.38
904.729	7732.59
905.042	7739.15
905.356	7685.36
905.67	7713.84
905.984	7695.53
906.297	7677.91
906.611	7594.74
906.924	7601.75
907.237	7549.1
907.551	7527.85
907.864	7483.56
908.177	7421.19
908.491	7492.15
908.804	7396.1
909.117	7361.08
909.43	7319.04
909.743	7251.25
910.056	7283.11
910.368	7202.44
910.681	7213.06
910.994	7202.44
911.307	7182.55
911.619	7028.88
911.932	7117.69
912.244	7062.78
912.557	7063.23
912.869	6994.53
913.181	6962.9
913.494	6990.01
913.806	6928.09
914.118	6935.55
914.43	6884.03
914.742	6825.5
915.054	6830.24
915.366	6813.07
915.678	6771.26
915.99	6688.33
916.302	6684.71
916.613	6675.9
916.925	6637.48
917.236	6636.8
917.548	6602.23
917.859	6578.27
918.171	6541.44
918.482	6517.26
918.794	6472.51
919.105	6467.77
919.416	6415.34
919.727	6401.1
920.038	6319.52
920.349	6301.44
920.66	6302.35
920.971	6294.89
921.282	6352.74
921.593	6251.73
921.903	6245.4
922.214	6187.55
922.525	6160.43
922.835	6137.38
923.146	6105.74
923.456	6096.25
923.767	6079.76
924.077	6060.09
924.387	6028.46
924.697	5957.5
925.008	5935.8
925.318	5929.93
925.628	5893.32
925.938	5868.91
926.248	5854.22
926.558	5806.54
926.867	5812.42
927.177	5700.33
927.487	5759.76
927.796	5681.12
928.106	5705.08
928.416	5691.74
928.725	5670.73
929.034	5585.76
929.344	5611.29
929.653	5623.04
929.962	5524.97
930.271	5502.37
930.581	5575.36
930.89	5458.98
931.199	5452.65
931.508	5471.41
931.817	5471.64
932.125	5431.41
932.434	5379.89
932.743	5305.31
933.051	5357.97
933.36	5251.98
933.669	5250.62
933.977	5224.64
934.286	5205.2
934.594	5220.57
934.902	5143.73
935.21	5147.8
935.519	5154.81
935.827	5096.96
936.135	5080.69
936.443	5038.88
936.751	5010.86
937.059	4992.1
937.367	4958.88
937.674	4965.43
937.982	4956.85
938.29	4938.32
938.597	4947.81
938.905	4896.28
939.213	4909.62
939.52	4878.66
939.827	4870.3
940.135	4822.61
940.442	4825.78
940.749	4774.7
941.056	4810.18
941.363	4705.33
941.67	4711.88
941.977	4706.01
942.284	4652.45
942.591	4638.89
942.898	4642.51
943.205	4689.96
943.511	4603.64
943.818	4551.43
944.125	4551.89
944.431	4498.33
944.738	4484.54
945.044	4519.57
945.35	4481.83
945.657	4493.13
945.963	4426.92
946.269	4417.65
946.575	4415.62
946.881	4353.7
947.187	4334.49
947.493	4305.34
947.799	4309.86
948.105	4316.19
948.41	4293.81
948.716	4311.21
949.022	4245.91
949.327	4230.76
949.633	4214.04
949.938	4246.81
950.244	4233.25
950.549	4170.65
950.854	4155.29
951.16	4155.96
951.465	4134.27
951.77	4132.69
952.075	4093.82
952.38	4060.6
952.685	4064.22
952.99	4046.14
953.294	4010.21
953.599	3990.54
953.904	3954.39
954.209	3948.51
954.513	3968.4
954.818	3943.77
955.122	3873.71
955.426	3868.97
955.731	3838.01
956.035	3844.33
956.339	3820.61
956.643	3845.92
956.948	3798.69
957.252	3765.47
957.556	3808.18
957.86	3727.05
958.163	3709.65
958.467	3702.64
958.771	3725.47
959.075	3694.06
959.378	3649.99
959.682	3658.12
959.985	3645.02
960.289	3640.27
960.592	3605.02
960.896	3585.81
961.199	3595.07
961.502	3570.44
961.805	3523.89
962.108	3505.13
962.411	3468.98
962.714	3463.55
963.017	3504.23
963.32	3457.9
963.623	3474.85
963.926	3435.53
964.228	3440.73
964.531	3402.31
964.833	3423.1
965.136	3417.68
965.438	3357.57
965.741	3350.34
966.043	3319.6
966.345	3318.47
966.648	3278.02
966.95	3317.34
967.252	3257.68
967.554	3271.92
967.856	3275.54
968.158	3245.93
968.46	3238.02
968.761	3241.64
969.063	3195.76
969.365	3148.31
969.666	3162.54
969.968	3124.8
970.269	3137.69
970.571	3117.8
970.872	3115.09
971.174	3086.39
971.475	3082.77
971.776	3074.86
972.077	3083.45
972.378	3056.33
972.679	2987.18
972.98	3015.88
973.281	3010.68
973.582	2988.09
973.883	2988.76
974.183	2967.52
974.484	2976.56
974.785	2932.95
975.085	2880.97
975.386	2915.32
975.686	2833.06
975.986	2909.22
976.287	2880.97
976.587	2842.1
976.887	2863.57
977.187	2834.42
977.487	2845.94
977.787	2807.98
978.087	2826.51
978.387	2785.6
978.687	2793.51
978.987	2767.3
979.286	2751.26
979.586	2751.48
979.885	2742.22
980.185	2707.87
980.484	2711.48
980.784	2682.33
981.083	2689.11
981.382	2673.29
981.682	2664.7
981.981	2640.75
982.28	2650.02
982.579	2615.89
982.878	2593.97
983.177	2624.25
983.475	2607.08
983.774	2584.48
984.073	2552.16
984.372	2543.8
984.67	2559.85
984.969	2564.82
985.267	2534.76
985.566	2486.86
985.864	2499.06
986.162	2505.84
986.461	2461.32
986.759	2456.57
987.057	2448.21
987.355	2424.71
987.653	2462.22
987.951	2417.93
988.249	2426.29
988.547	2413.19
988.844	2415.67
989.142	2428.55
989.44	2327.54
989.737	2359.85
990.035	2349.23
990.332	2343.58
990.63	2333.41
990.927	2301.55
991.224	2301.32
991.521	2277.14
991.819	2246.86
992.116	2267.88
992.413	2274.66
992.71	2237.82
993.006	2240.31
993.303	2245.51
993.6	2238.05
993.897	2224.26
994.193	2219.52
994.49	2177.71
994.787	2188.78
995.083	2189.24
995.379	2176.81
995.676	2166.86
995.972	2123.7
996.268	2160.31
996.565	2094.78
996.861	2106.53
997.157	2095.68
997.453	2099.3
997.749	2089.8
998.044	2097.94
998.34	2058.84
998.636	2020.43
998.932	2041.44
999.227	2021.33
999.523	2037.6
999.818	1991.28
1000.114	1981.33
1000.409	1951.95
1000.704	1971.39
1001	1954.21
1001.295	1922.58
1001.59	1940.88
1001.885	1930.49
1002.18	1904.05
1002.475	1917.38
1002.77	1885.52
1003.065	1908.11
1003.359	1896.14
1003.654	1910.6
1003.949	1879.41
1004.243	1840.09
1004.538	1834.22
1004.832	1818.62
1005.127	1821.34
1005.421	1798.06
1005.715	1807.1
1006.009	1793.09
1006.304	1814.78
1006.598	1719.19
1006.892	1790.15
1007.186	1768.68
1007.48	1740.21
1007.773	1732.07
1008.067	1716.93
1008.361	1725.52
1008.655	1704.05
1008.948	1704.05
1009.242	1695.69
1009.535	1655.24
1009.829	1652.98
1010.122	1643.71
1010.415	1634.67
1010.708	1619.99
1011.001	1653.43
1011.295	1630.15
1011.588	1589.48
1011.881	1604.62
1012.173	1614.34
1012.466	1588.57
1012.759	1569.37
1013.052	1569.14
1013.344	1555.13
1013.637	1535.92
1013.93	1538.41
1014.222	1546.09
1014.514	1514.9
1014.807	1519.42
1015.099	1501.12
1015.391	1515.36
1015.683	1516.03
1015.976	1492.98
1016.268	1478.07
1016.56	1425.64
1016.851	1441.69
1017.143	1431.06
1017.435	1424.51
1017.727	1405.3
1018.018	1407.34
1018.31	1413.89
1018.602	1403.49
1018.893	1384.96
1019.185	1366.43
1019.476	1376.83
1019.767	1365.53
1020.058	1389.03
1020.35	1343.83
1020.641	1333.44
1020.932	1341.35
1021.223	1318.07
1021.514	1308.81
1021.804	1290.5
1022.095	1275.36
1022.386	1281.92
1022.677	1259.54
1022.967	1272.42
1023.258	1267.23
1023.548	1220
1023.839	1249.15
1024.129	1239.2
1024.419	1209.37
1024.709	1207.12
1025	1219.54
1025.29	1223.84
1025.58	1203.27
1025.87	1216.83
1026.16	1171.18
1026.449	1176.16
1026.739	1187
1027.029	1164.86
1027.319	1172.31
1027.608	1149.49
1027.898	1149.72
1028.187	1136.16
1028.477	1144.74
1028.766	1118.98
1029.055	1093.22
1029.344	1128.02
1029.634	1100.9
1029.923	1109.49
1030.212	1106.78
1030.501	1072.66
1030.79	1093.22
1031.078	1075.82
1031.367	1051.64
1031.656	1064.07
1031.945	1054.8
1032.233	1060.9
1032.522	1036.27
1032.81	1013.45
1033.099	1026.1
1033.387	1029.72
1033.675	990.17
1033.963	1011.64
1034.251	996.5
1034.54	973.22
1034.828	968.93
1035.116	964.18
1035.403	970.51
1035.691	933
1035.979	928.03
1036.267	962.83
1036.554	950.17
1036.842	947.69
1037.129	926.22
1037.417	939.55
1037.704	940.46
1037.992	946.33
1038.279	898.87
1038.566	888.93
1038.853	888.93
1039.14	888.93
