Data from plate_porcelain_FLMS001491_032.txt Node
Date: Tue Feb 07 11:19:12 GMT 2017
User: dcchb
Spectrometer: FLMS00149
Trigger mode: 0
Integration Time (sec): 2.000000E-2
Scans to average: 10
Electric dark correction enabled: true
Nonlinearity correction enabled: false
Boxcar width: 0
XAxis mode: Wavelengths
Number of Pixels in Spectrum: 2048
>>>>>Begin Spectral Data<<<<<
341.393	1.05
341.776	1.05
342.16	1.05
342.543	-45.73
342.927	-64.04
343.31	-86.86
343.693	-54.09
344.077	-45.06
344.46	-75.11
344.843	-46.19
345.226	-59.52
345.61	-29.01
345.993	-3.7
346.376	-15.45
346.759	10.31
347.142	24.32
347.525	58.22
347.908	44.43
348.291	72.46
348.674	81.95
349.057	123.3
349.44	126.24
349.823	143.64
350.206	153.58
350.588	224.77
350.971	250.98
351.354	266.57
351.737	272.9
352.119	300.25
352.502	315.84
352.884	309.06
353.267	313.81
353.65	342.51
354.032	331.66
354.414	350.19
354.797	354.03
355.179	367.36
355.562	362.84
355.944	371.43
356.326	372.56
356.709	385.67
357.091	384.31
357.473	389.74
357.855	384.54
358.238	400.58
358.62	397.19
359.002	376.4
359.384	371.66
359.766	380.02
360.148	382.5
360.53	378.66
360.912	403.97
361.294	400.81
361.676	392.22
362.057	403.52
362.439	413.46
362.821	393.35
363.203	381.6
363.584	385.44
363.966	388.61
364.348	377.98
364.729	399.68
365.111	387.48
365.493	405.55
365.874	384.09
366.256	386.12
366.637	375.95
367.019	392
367.4	386.35
367.781	391.77
368.163	409.4
368.544	396.06
368.925	399.23
369.306	405.33
369.688	391.54
370.069	407.14
370.45	405.78
370.831	398.55
371.212	428.6
371.593	401.49
371.974	412.56
372.355	429.06
372.736	404.88
373.117	418.21
373.498	415.05
373.879	419.79
374.26	424.54
374.641	405.78
375.021	405.55
375.402	430.41
375.783	441.71
376.163	468.15
376.544	446.68
376.925	464.76
377.305	451.2
377.686	459.11
378.066	451.88
378.447	453.91
378.827	461.82
379.208	462.95
379.588	453.91
379.968	473.35
380.349	481.71
380.729	478.55
381.109	496.4
381.489	486.46
381.87	494.37
382.25	495.72
382.63	511.09
383.01	506.34
383.39	505.89
383.77	517.87
384.15	532.56
384.53	534.36
384.91	545.89
385.29	548.15
385.67	551.99
386.049	568.26
386.429	556.06
386.809	566.68
387.189	566.68
387.568	589.05
387.948	586.57
388.328	567.81
388.707	571.88
389.087	608.03
389.466	607.81
389.846	596.74
390.225	628.6
390.605	630.63
390.984	638.77
391.363	634.25
391.743	646
392.122	638.99
392.501	674.25
392.881	671.99
393.26	686
393.639	673.12
394.018	703.17
394.397	691.65
394.776	715.15
395.155	708.82
395.534	709.28
395.913	745.21
396.292	735.26
396.671	750.4
397.05	719.44
397.429	765.32
397.808	786.11
398.186	752.89
398.565	777.07
398.944	776.17
399.323	791.31
399.701	777.52
400.08	820.68
400.458	834.02
400.837	842.15
401.215	816.39
401.594	829.27
401.972	852.1
402.351	841.02
402.729	870.17
403.107	881.7
403.486	885.09
403.864	922.83
404.242	894.13
404.62	909.95
404.999	921.02
405.377	952.66
405.755	972.77
406.133	973
406.511	961.7
406.889	998.31
407.267	997.86
407.645	1022.71
408.023	1037.63
408.401	1042.37
408.779	1056.38
409.156	1071.53
409.534	1069.49
409.912	1110.62
410.29	1139.32
410.667	1122.82
411.045	1179.32
411.422	1151.3
411.8	1178.42
412.178	1203.73
412.555	1214.57
412.933	1270.84
413.31	1257.74
413.687	1268.36
414.065	1290.28
414.442	1293.44
414.819	1328.24
415.197	1332.54
415.574	1381.12
415.951	1356.72
416.328	1400.56
416.705	1375.92
417.082	1403.49
417.46	1409.14
417.837	1426.32
418.214	1445.75
418.591	1481.46
418.967	1465.19
419.344	1515.36
419.721	1506.54
420.098	1512.19
420.475	1536.15
420.852	1563.26
421.228	1594.68
421.605	1596.03
421.982	1600.78
422.358	1644.17
422.735	1678.97
423.111	1662.47
423.488	1679.19
423.864	1687.1
424.241	1732.3
424.617	1752.41
424.994	1770.94
425.37	1791.28
425.746	1788.79
426.123	1803.48
426.499	1824.27
426.875	1876.93
427.251	1906.76
427.627	1945.63
428.003	1969.81
428.379	1990.37
428.756	2013.42
429.132	2031.73
429.507	2060.2
429.883	2066.98
430.259	2117.83
430.635	2117.15
431.011	2157.37
431.387	2213.42
431.763	2225.17
432.138	2260.65
432.514	2309.69
432.89	2324.83
433.265	2360.31
433.641	2420.42
434.016	2394.65
434.392	2459.96
434.767	2496.12
435.143	2521.43
435.518	2529.79
435.894	2582.22
436.269	2612.95
436.644	2647.53
437.02	2716.23
437.395	2676.91
437.77	2732.27
438.145	2777.02
438.52	2790.58
438.895	2836.45
439.271	2878.03
439.646	2905.83
440.021	2937.24
440.395	2952.38
440.77	2930.01
441.145	2971.36
441.52	3026.05
441.895	3022.21
442.27	3056.33
442.645	3060.4
443.019	3095.65
443.394	3130
443.769	3106.05
444.143	3152.6
444.518	3228.98
444.892	3210.45
445.267	3218.59
445.641	3246.61
446.016	3295.87
446.39	3311.24
446.764	3356.89
447.139	3352.82
447.513	3397.11
447.887	3428.53
448.262	3453.84
448.636	3477.11
449.01	3473.95
449.384	3558.47
449.758	3594.85
450.132	3626.49
450.506	3658.58
450.88	3689.31
451.254	3706.71
451.628	3775.18
452.002	3762.98
452.376	3808.63
452.75	3857.44
453.123	3923.88
453.497	3975.4
453.871	3988.06
454.244	4096.08
454.618	4093.82
454.992	4173.82
455.365	4218.56
455.739	4262.4
456.112	4313.25
456.486	4296.07
456.859	4418.78
457.232	4519.8
457.606	4465.56
457.979	4566.35
458.352	4663.52
458.725	4722.73
459.099	4768.15
459.472	4854.7
459.845	4911.88
460.218	4949.84
460.591	5042.27
460.964	4990.97
461.337	5188.48
461.71	5258.08
462.083	5336.27
462.456	5332.66
462.829	5365.65
463.201	5499.43
463.574	5449.26
463.947	5577.62
464.32	5725.64
464.692	5738.75
465.065	5761.12
465.438	5871.4
465.81	6006.54
466.183	6006.31
466.555	6198.62
466.928	6225.74
467.3	6212.86
467.672	6383.02
468.045	6452.4
468.417	6489.69
468.789	6551.16
469.161	6604.49
469.534	6780.75
469.906	6936.91
470.278	6974.65
470.65	7027.98
471.022	7223.68
471.394	7333.06
471.766	7407.63
472.138	7444.69
472.51	7679.04
472.882	7771.69
473.253	7848.75
473.625	7973.26
473.997	8164.45
474.369	8186.14
474.74	8282.64
475.112	8450.77
475.484	8636.98
475.855	8751.32
476.227	8850.98
476.598	9131.65
476.97	9196.96
477.341	9402.38
477.713	9483.51
478.084	9585.43
478.455	9858.19
478.827	9915.13
479.198	10212.3
479.569	10257.27
479.94	10559.19
480.311	10688.9
480.682	10916.46
481.053	11160.07
481.424	11304.02
481.795	11421.54
482.166	11659.27
482.537	11755.31
482.908	12053.16
483.279	12218.13
483.65	12434.62
484.021	12623.76
484.391	12751.9
484.762	12923.19
485.133	13070.76
485.503	13261.49
485.874	13534.7
486.244	13664.87
486.615	13967.68
486.985	14089.94
487.356	14369.25
487.726	14584.39
488.097	14741.67
488.467	14915
488.837	15170.82
489.207	15373.75
489.578	15652.39
489.948	15788.2
490.318	16014.64
490.688	16148.87
491.058	16313.38
491.428	16604.9
491.798	16733.94
492.168	16987.72
492.538	17126.24
492.908	17402.4
493.278	17549.74
493.648	17559.45
494.017	17890.97
494.387	18035.83
494.757	18227.91
495.126	18421.8
495.496	18611.18
495.866	18749.03
496.235	18892.53
496.605	19129.58
496.974	19150.37
497.344	19308.56
497.713	19525.05
498.082	19589.46
498.452	19847.08
498.821	20006.39
499.19	20088.43
499.559	20242.09
499.928	20369.78
500.298	20576.1
500.667	20770.67
501.036	20802.98
501.405	21021.51
501.774	20992.13
502.143	21310.09
502.512	21442.29
502.88	21558.22
503.249	21592.34
503.618	21868.72
503.987	21901.26
504.356	22084.08
504.724	22280.91
505.093	22443.17
505.462	22472.77
505.83	22609.04
506.199	22908.01
506.567	23186.88
506.936	23073.66
507.304	23388.23
507.672	23552.29
508.041	23730.36
508.409	23781.89
508.777	24005.84
509.145	24167.19
509.514	24246.74
509.882	24536.67
510.25	24530.34
510.618	24837.23
510.986	24893.95
511.354	25218.91
511.722	25402.86
512.09	25606.47
512.458	25525.12
512.826	25937.31
513.193	26045.78
513.561	26076.97
513.929	26399.22
514.297	26613.23
514.664	26687.12
515.032	26919.89
515.4	27252.31
515.767	27315.13
516.135	27507.89
516.502	27351.06
516.869	27832.18
517.237	28132.28
517.604	28026.52
517.972	28373.18
518.339	28488.88
518.706	28699.95
519.073	28887.07
519.44	29085.03
519.808	29373.38
520.175	29503.55
520.542	29722.75
520.909	29886.36
521.276	30131.1
521.643	30421.26
522.009	30681.14
522.376	30929.05
522.743	31137.63
523.11	31343.72
523.477	31592.3
523.843	31976.7
524.21	32131.5
524.577	32420.08
524.943	32573.52
525.31	32734.2
525.676	33100.29
526.043	33181.87
526.409	33433.16
526.776	33755.41
527.142	33975.52
527.508	34120.6
527.874	34427.94
528.241	34841.49
528.607	34780.02
528.973	35147.47
529.339	35141.36
529.705	35530.05
530.071	35809.82
530.437	36057.5
530.803	36276.48
531.169	36308.11
531.535	36366.64
531.901	36522.12
532.267	36634.43
532.632	36970.92
532.998	37180.18
533.364	37366.84
533.73	37514.41
534.095	37904
534.461	37961.18
534.826	38119.36
535.192	38244.33
535.557	38578.79
535.923	38492.46
536.288	38799.35
536.653	39031.66
537.019	38877.99
537.384	39191.88
537.749	39165.67
538.114	39412.44
538.479	39496.28
538.845	39780.79
539.21	39751.86
539.575	39999.77
539.94	40144.17
540.305	40379.87
540.67	40351.4
541.034	40465.74
541.399	40720.88
541.764	40846.52
542.129	40829.35
542.494	41005.84
542.858	41268.21
543.223	41115.22
543.587	41446.28
543.952	41577.35
544.316	41754.75
544.681	41706.84
545.045	42036.32
545.41	42214.62
545.774	42299.59
546.138	42223.66
546.503	42416.2
546.867	42460.27
547.231	42802.41
547.595	42812.8
547.959	42911.33
548.324	43017.32
548.688	43269.29
549.052	43373.01
549.416	43489.17
549.779	43540.69
550.143	43752.66
550.507	44071.3
550.871	44221.13
551.235	44153.1
551.599	44513.32
551.962	44584.05
552.326	44711.96
552.689	45075.11
553.053	44752.41
553.417	44859.07
553.78	45522.11
554.143	45155.11
554.507	45625.38
554.87	45786.96
555.234	46177.01
555.597	45838.48
555.96	46109.89
556.323	46233.05
556.686	46384.68
557.05	46695.86
557.413	46714.62
557.776	46912.35
558.139	47248.39
558.502	47272.34
558.865	47296.52
559.228	47661.49
559.59	47743.29
559.953	47888.37
560.316	48206.33
560.679	48211.08
561.041	48321.58
561.404	48639.31
561.767	49011.06
562.129	48809.48
562.492	49214.21
562.854	49116.82
563.217	49304.38
563.579	49423.93
563.941	49670.25
564.304	49869.34
564.666	50126.28
565.028	50183.23
565.39	50301.64
565.753	50557.91
566.115	50545.25
566.477	50789.99
566.839	50775.08
567.201	51001.06
567.563	51091.91
567.925	51376.42
568.287	51322.63
568.648	51364.44
569.01	51588.39
569.372	51748.16
569.734	51780.25
570.095	52001.49
570.457	52107.47
570.819	52131.43
571.18	52117.87
571.542	52367.8
571.903	52453.45
572.265	52529.61
572.626	52581.13
572.987	52721.69
573.349	52853.89
573.71	52985.19
574.071	52962.59
574.432	53030.61
574.794	53218.18
575.155	53222.7
575.516	53156.94
575.877	53381.34
576.238	53411.62
576.599	53496.36
576.96	53510.82
577.32	53561.67
577.681	53647.32
578.042	53810.93
578.403	53861.1
578.763	53770.25
579.124	53804.83
579.485	53920.31
579.845	54065.16
580.206	53999.4
580.566	54028.78
580.927	54041.21
581.287	54197.59
581.648	54050.02
582.008	54165.27
582.368	54150.36
582.728	54254.08
583.089	54181.77
583.449	54182.67
583.809	54263.35
584.169	54301.31
584.529	54167.53
584.889	54452.95
585.249	54244.82
585.609	54222.22
585.969	54308.09
586.329	54248.21
586.688	54445.49
587.048	54403.23
587.408	54276
587.768	54367.98
588.127	54336.79
588.487	54315.78
588.846	54484.36
589.206	54263.57
589.565	54361.88
589.925	54507.63
590.284	54378.82
590.643	54521.65
591.003	54557.8
591.362	54610.68
591.721	54481.87
592.08	54535.2
592.44	54495.43
592.799	54490.46
593.158	54511.48
593.517	54606.39
593.876	54504.02
594.235	54552.83
594.593	54647.97
594.952	54644.58
595.311	54547.86
595.67	54632.38
596.029	54761.87
596.387	54801.64
596.746	54755.76
597.104	54697.69
597.463	54712.6
597.822	54847.96
598.18	54743.79
598.538	54651.81
598.897	54872.14
599.255	54609.55
599.613	55057.9
599.972	54803.45
600.33	54899.71
600.688	54809.77
601.046	54961.41
601.404	55158.92
601.762	55034.85
602.12	55079.37
602.478	55192.59
602.836	55146.94
603.194	54996.89
603.552	55052.25
603.91	54999.37
604.268	55168.86
604.625	55060.61
604.983	55233.27
605.341	55166.83
605.698	55223.32
606.056	55350.32
606.413	55276.88
606.771	55438.23
607.128	55477.78
607.485	55257.45
607.843	55314.62
608.2	55425.35
608.557	55620.15
608.914	55484.78
609.272	55555.74
609.629	55608.85
609.986	55708.73
610.343	55597.78
610.7	55814.49
611.057	55770.88
611.414	55828.73
611.771	55765
612.127	55830.54
612.484	55796.19
612.841	55964.32
613.198	55848.62
613.554	55929.74
613.911	56009.29
614.267	55992.79
614.624	55987.37
614.98	56023.75
615.337	56164.77
615.693	56168.16
616.05	56137.65
616.406	56240.02
616.762	56093.58
617.118	56149.17
617.475	56172.45
617.831	56212.45
618.187	56237.98
618.543	56246.12
618.899	56393.23
619.255	56393.91
619.611	56310.53
619.967	56400.69
620.323	56420.58
620.678	56369.96
621.034	56275.5
621.39	56405.89
621.746	56307.36
622.101	56555.72
622.457	56344.87
622.812	56361.82
623.168	56443.4
623.523	56405.66
623.879	56566.56
624.234	56380.58
624.589	56493.35
624.945	56463.29
625.3	56510.29
625.655	56387.59
626.01	56435.72
626.365	56510.97
626.72	56366.34
627.075	56326.57
627.43	56368.38
627.785	56322.73
628.14	56372.67
628.495	56335.84
628.85	56349.62
629.205	56254.48
629.559	56352.11
629.914	56289.51
630.269	56248.38
630.623	56249.96
630.978	56180.36
631.332	56261.26
631.687	56280.92
632.041	56155.27
632.396	56206.8
632.75	56084.54
633.104	56129.96
633.459	55996.18
633.813	56008.84
634.167	56014.94
634.521	55984.43
634.875	55985.11
635.229	55973.81
635.583	55831.89
635.937	55801.39
636.291	55781.95
636.645	55809.75
636.999	55781.73
637.352	55865.11
637.706	55595.29
638.06	55751.44
638.413	55676.64
638.767	55627.61
639.121	55630.32
639.474	55450.89
639.828	55497.44
640.181	55528.17
640.534	55517.33
640.888	55467.38
641.241	55251.34
641.594	55352.81
641.947	55438.23
642.301	55255.41
642.654	55380.83
643.007	55298.8
643.36	55246.15
643.713	55192.81
644.066	55301.74
644.419	55060.61
644.771	54931.58
645.124	54664.69
645.477	54601.64
645.83	54394.87
646.182	54200.98
646.535	54084.14
646.888	54214.53
647.24	54053.41
647.593	54290.92
647.945	54200.07
648.298	53942.45
648.65	53902
649.002	53858.16
649.355	54039.17
649.707	53895.67
650.059	53977.25
650.411	54391.71
650.763	54350.8
651.115	54667.18
651.467	54473.06
651.819	54502.21
652.171	54386.51
652.523	54420.18
652.875	54230.13
653.227	54259.05
653.578	54378.37
653.93	54290.92
654.282	54206.4
654.633	54042.34
654.985	54151.94
655.337	54174.08
655.688	54119.62
656.039	54275.32
656.391	54049.79
656.742	53967.08
657.094	54049.12
657.445	54144.03
657.796	54037.59
658.147	53978.61
658.498	53877.82
658.849	54069.68
659.2	53924.37
659.551	53907.65
659.902	53982.68
660.253	53899.51
660.604	53942.45
660.955	53781.55
661.306	53866.3
661.656	53773.19
662.007	53796.24
662.358	53759.18
662.708	53732.51
663.059	53785.85
663.409	53565.51
663.76	53750.37
664.11	53679.86
664.461	53711.27
664.811	53737.94
665.161	53728.45
665.511	53576.81
665.862	53558.73
666.212	53769.8
666.562	53736.81
666.912	53654.1
667.262	53658.62
667.612	53603.7
667.962	53622.91
668.312	53650.93
668.662	53667.66
669.011	53588.34
669.361	53515.12
669.711	53507.89
670.06	53421.34
670.41	53486.42
670.76	53380.66
671.109	53494.78
671.459	53345.63
671.808	53443.71
672.157	53431.96
672.507	53254.79
672.856	53293.2
673.205	53295.01
673.554	53307.67
673.904	53289.59
674.253	53389.7
674.602	53253.66
674.951	52822.48
675.3	52791.07
675.649	53249.14
675.998	53098.63
676.346	53080.78
676.695	53263.37
677.044	52970.05
677.393	53226.76
677.741	53196.03
678.09	53019.76
678.438	52955.13
678.787	53058.63
679.135	52999.43
679.484	52837.17
679.832	52978.86
680.181	52680.11
680.529	52793.1
680.877	52700.9
681.225	52703.61
681.573	52916.94
681.922	52581.36
682.27	52596.27
682.618	52573.67
682.966	52429.95
683.314	52474.47
683.661	52401.7
684.009	52241.25
684.357	52181.37
684.705	52176.85
685.053	52222.27
685.4	52177.07
685.748	51946.57
686.095	51932.11
686.443	51733.7
686.79	51871.09
687.138	51770.76
687.485	51785.45
687.832	51690.99
688.18	51740.7
688.527	51559.69
688.874	51387.94
689.221	51383.42
689.568	51196.08
689.915	51215.97
690.262	51134.62
690.609	51015.07
690.956	50894.17
691.303	50942.98
691.65	50635.65
691.997	50693.05
692.344	50368.08
692.69	50511.58
693.037	50564.24
693.383	50305.26
693.73	50382.32
694.077	50074.08
694.423	50248.54
694.769	50077.24
695.116	50019.62
695.462	49899.39
695.808	49799.96
696.155	49916.57
696.501	49527.43
696.847	49601.1
697.193	49259.41
697.539	49322.69
697.885	49207.89
698.231	49052.86
698.577	49152.07
698.923	48928.35
699.269	48694.91
699.614	48596.6
699.96	48521.58
700.306	48531.29
700.651	48493.1
700.997	48290.17
701.342	48207.46
701.688	48099.67
702.033	48048.14
702.379	47789.85
702.724	47753.91
703.069	47884.98
703.415	47494.94
703.76	47447.26
704.105	47452.23
704.45	47266.47
704.795	47139.01
705.14	46968.62
705.485	46835.29
705.83	46729.53
706.175	46725.24
706.52	46693.15
706.865	46583.1
707.209	46555.98
707.554	46409.99
707.899	46653.6
708.243	46258.59
708.588	46263.11
708.932	45949.67
709.277	45962.32
709.621	45903.57
709.966	45739.73
710.31	45770.01
710.654	45547.64
710.998	45634.2
711.342	45666.29
711.687	45400.98
712.031	45138.39
712.375	45026.08
712.719	45236.24
713.063	45057.26
713.407	45124.6
713.75	44924.61
714.094	44846.42
714.438	44788.34
714.782	44793.99
715.125	44564.39
715.469	44553.77
715.812	44268.13
716.156	44067.01
716.499	44164.86
716.843	44226.32
717.186	43998.53
717.53	44090.73
717.873	44023.39
718.216	43875.15
718.559	43907.24
718.902	43567.81
719.246	43647.81
719.589	43557.64
719.932	43444.42
720.275	43443.52
720.617	43140.7
720.96	43304.99
721.303	43175.5
721.646	43155.62
721.989	42975.51
722.331	43049.63
722.674	42897.77
723.016	42880.6
723.359	42813.93
723.701	42874.49
724.044	42649.87
724.386	42282.87
724.729	42652.58
725.071	42346.82
725.413	42344.11
725.755	42349.08
726.097	42089.2
726.439	41885.37
726.782	41948.19
727.124	42020.28
727.465	41917.91
727.807	41912.94
728.149	41662.32
728.491	41682.21
728.833	41715.43
729.175	41468.2
729.516	41439.28
729.858	41465.72
730.199	41365.38
730.541	41376.91
730.882	41359.51
731.224	41328.77
731.565	40964.04
731.906	41227.76
732.248	41039.74
732.589	41011.04
732.93	40830.71
733.271	40861.44
733.612	40991.38
733.953	40779.86
734.294	40595.01
734.635	40558.62
734.976	40682.69
735.317	40369.93
735.658	40338.29
735.999	40474.11
736.339	40268.23
736.68	40353.88
737.021	40173.55
737.361	39993.67
737.702	40145.98
738.042	40104.17
738.383	39962.25
738.723	39897.17
739.063	39814.69
739.404	39849.04
739.744	39699.44
740.084	39541.93
740.424	39754.12
740.764	39550.29
741.104	39680.91
741.444	39366.79
741.784	39204.99
742.124	39435.04
742.464	39186.23
742.804	39181.71
743.143	39034.14
743.483	39074.37
743.823	38981.49
744.162	38990.3
744.502	38854.94
744.841	38791.44
745.181	38839.12
745.52	38612.91
745.86	38749.86
746.199	38560.48
746.538	38570.88
746.877	38518.9
747.216	38414.5
747.556	38285.69
747.895	38147.16
748.234	38046.37
748.573	38091.8
748.911	37962.76
749.25	37897.22
749.589	37750.34
749.928	37803.44
750.267	37701.75
750.605	37627.4
750.944	37539.49
751.283	37426.73
751.621	37581.3
751.96	37274.19
752.298	37267.86
752.636	37172.05
752.975	37061.31
753.313	36956.23
753.651	37192.38
753.989	36917.36
754.327	36863.13
754.666	36568.9
755.004	36672.4
755.342	36697.03
755.679	36652.74
756.017	36468.56
756.355	36564.38
756.693	36345.17
757.031	36377.04
757.368	36114.45
757.706	35999.65
758.044	35945.64
758.381	35938.86
758.719	35803.95
759.056	35888.69
759.394	35664.97
759.731	35389.95
760.068	35351.98
760.405	35290.29
760.743	35000.8
761.08	35171.87
761.417	34958.32
761.754	34835.61
762.091	34871.09
762.428	34705.9
762.765	34573.7
763.102	34550.65
763.438	34392.68
763.775	34267.71
764.112	34213.48
764.449	34070.21
764.785	33958.57
765.122	33780.04
765.458	33843.32
765.795	33744.34
766.131	33541.18
766.467	33450.79
766.804	33386.16
767.14	33153.39
767.476	33272.03
767.812	32987.52
768.148	32996.56
768.485	32773.06
768.821	32620.3
769.157	32710.69
769.492	32444.94
769.828	32433.19
770.164	32129.01
770.5	32112.07
770.836	32103.03
771.171	31948.91
771.507	31856.7
771.842	31628.24
772.178	31608.58
772.513	31690.38
772.849	31606.77
773.184	31393.44
773.519	31324.97
773.855	30929.95
774.19	30985.54
774.525	30847.01
774.86	30917.29
775.195	30667.58
775.53	30503.52
775.865	30485.89
776.2	30319.34
776.535	30037.77
776.87	30170.87
777.205	29959.81
777.539	29888.39
777.874	29903.54
778.209	29635.52
778.543	29541.06
778.878	29316.66
779.212	29351.23
779.547	29219.94
779.881	29182.88
780.215	28925.48
780.55	29035.99
780.884	28831.02
781.218	28860.85
781.552	28817.91
781.886	28566.17
782.22	28309.68
782.554	28313.52
782.888	28093.19
783.222	28045.05
783.556	27891.39
783.889	27857.94
784.223	27638.06
784.557	27634.22
784.89	27699.3
785.224	27458.85
785.557	27307.9
785.891	27372.53
786.224	27222.48
786.558	27051.86
786.891	26748.36
787.224	26773.9
787.557	26808.7
787.891	26691.64
788.224	26535.04
788.557	26542.04
788.89	26511.53
789.223	26363.06
789.556	26246.68
789.888	26160.13
790.221	26130.98
790.554	25785.23
790.887	25851.44
791.219	25696.19
791.552	25763.08
791.884	25555.85
792.217	25507.95
792.549	25465.69
792.882	25214.17
793.214	25243.55
793.546	25292.81
793.879	25011.01
794.211	24858.47
794.543	24973.5
794.875	24769.89
795.207	24841.97
795.539	24621.41
795.871	24655.99
796.203	24464.13
796.535	24332.16
796.867	24168.09
797.198	24211.03
797.53	24226.4
797.862	24030.02
798.193	23997.02
798.525	23912.05
798.856	23801.78
799.188	23609.69
799.519	23631.16
799.85	23463.25
800.182	23487.66
800.513	23593.42
800.844	23369.47
801.175	23508.22
801.506	23304.16
801.837	23217.16
802.168	23105.07
802.499	22927
802.83	22872.53
803.161	22850.84
803.491	22919.99
803.822	22878.86
804.153	22646.78
804.483	22487.46
804.814	22412.89
805.145	22412.66
805.475	22449.72
805.805	22196.17
806.136	22303.96
806.466	22314.81
806.796	22239.56
807.126	22087.92
807.457	21987.59
807.787	22004.53
808.117	21862.17
808.447	21766.35
808.777	21902.62
809.107	21745.78
809.436	21697.42
809.766	21769.06
810.096	21595.51
810.426	21514.6
810.755	21392.12
811.085	21384.21
811.414	21379.92
811.744	21265.34
812.073	21181.73
812.403	21130.66
812.732	20919.37
813.061	20988.97
813.39	20906.26
813.719	20885.02
814.049	20939.03
814.378	20751.46
814.707	20677.34
815.036	20583.78
815.365	20437.57
815.693	20387.85
816.022	20429.43
816.351	20279.83
816.68	20329.55
817.008	20278.93
817.337	20212.49
817.665	20092.72
817.994	20161.65
818.322	20074.19
818.651	20087.07
818.979	19929.56
819.307	20036
819.636	19928.2
819.964	19753.29
820.292	19920.97
820.62	19847.75
820.948	19701.09
821.276	19792.16
821.604	19756.01
821.932	19834.65
822.259	19843.46
822.587	19654.31
822.915	19709.91
823.243	19774.08
823.57	19619.74
823.898	19696.57
824.225	19681.66
824.553	19603.47
824.88	19625.16
825.207	19661.55
825.535	19641.88
825.862	19748.77
826.189	19661.55
826.516	19756.91
826.843	19680.08
827.17	19709.68
827.497	19637.59
827.824	19682.56
828.151	19723.01
828.478	19623.81
828.805	19687.99
829.131	19517.82
829.458	19637.59
829.785	19543.36
830.111	19546.97
830.438	19694.09
830.764	19605.5
831.09	19589.23
831.417	19538.16
831.743	19520.31
832.069	19526.63
832.395	19489.8
832.722	19432.62
833.048	19453.64
833.374	19429.01
833.7	19381.78
834.026	19340.42
834.351	19347.43
834.677	19388.33
835.003	19370.48
835.329	19396.69
835.654	19236.25
835.98	19149.24
836.306	19278.96
836.631	19235.34
836.956	19219.75
837.282	19288.67
837.607	19130.26
837.932	19070.83
838.258	19137.72
838.583	18998.29
838.908	18913.09
839.233	19032.86
839.558	18899.76
839.883	18873.09
840.208	18787.9
840.533	18854.79
840.858	18761.23
841.182	18909.93
841.507	18766.2
841.832	18614.34
842.156	18590.84
842.481	18619.54
842.805	18491.41
843.13	18396.95
843.454	18479.66
843.778	18455.02
844.103	18318.98
844.427	18252.77
844.751	18304.29
845.075	18252.32
845.399	18217.74
845.723	18190.17
846.047	18181.13
846.371	18026.11
846.695	17997.63
847.019	17883.96
847.343	17723.29
847.666	17626.8
847.99	17588.38
848.313	17594.03
848.637	17444.88
848.96	17374.37
849.284	17253.25
849.607	17245.34
849.931	17261.38
850.254	17105
850.577	17119.24
850.9	16949.75
851.223	16829.08
851.546	16784.56
851.869	16644.68
852.192	16788.85
852.515	16611.23
852.838	16486.04
853.161	16552.47
853.483	16486.71
853.806	16265.7
854.129	16359.94
854.451	16305.93
854.774	16204.01
855.096	16153.16
855.419	16076.78
855.741	16076.1
856.063	15958.14
856.385	15941.64
856.708	15846.05
857.03	15760.4
857.352	15731.48
857.674	15743.68
857.996	15593.4
858.318	15616.91
858.64	15615.55
858.961	15533.52
859.283	15552.05
859.605	15401.77
859.926	15446.29
860.248	15337.82
860.57	15302.79
860.891	15282
861.212	15232.06
861.534	15167.43
861.855	15225.96
862.176	15192.96
862.498	15119.97
862.819	15182.34
863.14	15067.77
863.461	15086.98
863.782	14969.47
864.103	15008.11
864.424	14853.76
864.745	14988.22
865.065	14879.75
865.386	14857.15
865.707	14773.99
866.027	14844.5
866.348	14824.16
866.668	14809.02
866.989	14712.75
867.309	14611.51
867.63	14674.78
867.95	14582.36
868.27	14532.41
868.59	14537.16
868.91	14537.84
869.23	14531.74
869.55	14491.29
869.87	14566.54
870.19	14500.78
870.51	14524.28
870.83	14453.77
871.15	14304.62
871.469	14348.92
871.789	14374.9
872.109	14256.72
872.428	14267.34
872.748	14297.84
873.067	14306.43
873.386	14167.68
873.706	14266.88
874.025	14166.55
874.344	14182.37
874.663	14126.55
874.982	14140.33
875.301	14147.79
875.62	13913.45
875.939	14031.41
876.258	14041.81
876.577	13903.96
876.896	13940.11
877.214	13879.1
877.533	13997.74
877.852	13910.74
878.17	13960.68
878.489	13836.39
878.807	13871.87
879.125	13809.72
879.444	13828.93
879.762	13798.65
880.08	13734.24
880.398	13726.79
880.716	13734.02
881.034	13686.56
881.352	13740.34
881.67	13615.15
881.988	13620.8
882.306	13600.69
882.624	13439.34
882.941	13459
883.259	13428.04
883.577	13360.02
883.894	13355.95
884.212	13316.63
884.529	13321.82
884.846	13285.44
885.164	13203.86
885.481	13119.57
885.798	13215.84
886.115	13020.59
886.432	13028.95
886.75	13075.73
887.067	12990.76
887.383	12987.14
887.7	13086.12
888.017	12955.73
888.334	12895.4
888.651	12928.39
888.967	12905.11
889.284	12772.01
889.6	12760.26
889.917	12757.09
890.233	12756.64
890.55	12642.52
890.866	12692.91
891.182	12506.93
891.498	12540.38
891.815	12471.45
892.131	12413.83
892.447	12388.06
892.763	12328.63
893.079	12392.58
893.395	12327.5
893.71	12348.52
894.026	12221.51
894.342	12106.04
894.657	12086.83
894.973	12161.18
895.289	12148.75
895.604	12127.51
895.92	11950.34
896.235	11962.09
896.55	11915.08
896.865	11865.59
897.181	11875.76
897.496	11838.47
897.811	11833.73
898.126	11788.76
898.441	11633.51
898.756	11669.66
899.071	11628.99
899.386	11596.9
899.7	11516.9
900.015	11423.8
900.33	11419.28
900.644	11366.4
900.959	11408.65
901.273	11341.09
901.588	11262.9
901.902	11222.9
902.216	11202.11
902.531	11196.46
902.845	11141.54
903.159	11039.17
903.473	11031.04
903.787	10949.01
904.101	10904.49
904.415	10900.65
904.729	10804.83
905.042	10820.2
905.356	10858.61
905.67	10791.95
905.984	10803.47
906.297	10765.73
906.611	10672.18
906.924	10683.93
907.237	10561.9
907.551	10543.37
907.864	10423.82
908.177	10385.63
908.491	10413.2
908.804	10384.27
909.117	10319.42
909.43	10187.67
909.743	10143.83
910.056	10126.43
910.368	10092.76
910.681	10036.71
910.994	10004.62
911.307	9965.98
911.619	9916.94
911.932	10020.22
912.244	9899.32
912.557	9800.56
912.869	9837.85
913.181	9767.57
913.494	9758.75
913.806	9625.65
914.118	9681.92
914.43	9576.61
914.742	9537.97
915.054	9537.74
915.366	9459.1
915.678	9459.78
915.99	9373
916.302	9402.61
916.613	9284.19
916.925	9314.92
917.236	9226.34
917.548	9173.46
917.859	9263.63
918.171	9115.83
918.482	9088.94
918.794	9089.17
919.105	8922.84
919.416	8916.06
919.727	8934.6
920.038	8897.53
920.349	8833.36
920.66	8795.39
920.971	8798.55
921.282	8796.52
921.593	8679.46
921.903	8602.17
922.214	8552.91
922.525	8550.2
922.835	8596.07
923.146	8482.4
923.456	8532.8
923.767	8402.18
924.077	8394.72
924.387	8366.7
924.697	8319.47
925.008	8264.78
925.318	8238.34
925.628	8263.65
925.938	8249.64
926.248	8124.22
926.558	8091.45
926.867	8109.98
927.177	8052.58
927.487	8011.46
927.796	7929.2
928.106	7924
928.416	7873.83
928.725	7871.57
929.034	7785.02
929.344	7800.39
929.653	7798.81
929.962	7687.85
930.271	7679.94
930.581	7638.13
930.89	7671.13
931.199	7560.17
931.508	7613.73
931.817	7551.13
932.125	7525.59
932.434	7491.47
932.743	7438.14
933.051	7456.67
933.36	7370.12
933.669	7282.89
933.977	7276.79
934.286	7293.73
934.594	7245.37
934.902	7155.21
935.21	7127.64
935.519	7130.8
935.827	7098.26
936.135	7095.55
936.443	6998.15
936.751	7011.71
937.059	6969.9
937.367	6958.15
937.674	6894.65
937.982	6898.72
938.29	6856.68
938.597	6883.58
938.905	6752.96
939.213	6803.58
939.52	6766.29
939.827	6775.1
940.135	6716.8
940.442	6644.49
940.749	6594.09
941.056	6641.55
941.363	6581.89
941.67	6531.72
941.977	6560.42
942.284	6474.1
942.591	6439.07
942.898	6418.28
943.205	6481.33
943.511	6372.4
943.818	6352.29
944.125	6255.34
944.431	6279.07
944.738	6245.4
945.044	6210.15
945.35	6176.25
945.657	6198.85
945.963	6142.8
946.269	6086.76
946.575	6094.22
946.881	6114.1
947.187	6036.14
947.493	5994.56
947.799	5977.39
948.105	5956.14
948.41	5944.62
948.716	5922.7
949.022	5837.73
949.327	5863.26
949.633	5776.71
949.938	5744.4
950.244	5742.82
950.549	5693.78
950.854	5706.88
951.16	5706.21
951.465	5602.25
951.77	5608.36
952.075	5608.58
952.38	5629.6
952.685	5560
952.99	5565.42
953.294	5496.49
953.599	5459.88
953.904	5426.67
954.209	5454.01
954.513	5402.49
954.818	5383.73
955.122	5314.35
955.426	5368.81
955.731	5308.7
956.035	5281.13
956.339	5301.47
956.643	5275.48
956.948	5205.43
957.252	5160.23
957.556	5145.99
957.86	5129.27
958.163	5146.67
958.467	5159.1
958.771	5148.25
959.075	5081.59
959.378	5046.11
959.682	5073
959.985	5030.07
960.289	5001.59
960.592	4990.07
960.896	4946.23
961.199	4920.01
961.502	4887.02
961.805	4862.61
962.108	4833.46
962.411	4774.03
962.714	4758.89
963.017	4802.05
963.32	4812.67
963.623	4729.51
963.926	4727.7
964.228	4716.85
964.531	4707.36
964.833	4689.51
965.136	4656.06
965.438	4669.17
965.741	4624.88
966.043	4610.87
966.345	4593.01
966.648	4627.14
966.95	4556.86
967.252	4520.7
967.554	4498.1
967.856	4523.41
968.158	4424.66
968.46	4455.39
968.761	4356.18
969.063	4413.81
969.365	4373.81
969.666	4316.41
969.968	4337.2
970.269	4314.38
970.571	4311.44
970.872	4275.51
971.174	4256.53
971.475	4254.49
971.776	4213.82
972.077	4130.2
972.378	4176.98
972.679	4167.04
972.98	4137.89
973.281	4135.85
973.582	4117.55
973.883	4057.66
974.183	4072.8
974.484	4002.52
974.785	4005.01
975.085	4018.57
975.386	4012.92
975.686	4004.33
975.986	3934.95
976.287	3925.24
976.587	3875.29
976.887	3910.55
977.187	3864.67
977.487	3867.16
977.787	3883.65
978.087	3846.14
978.387	3824.22
978.687	3772.7
978.987	3788.06
979.286	3748.29
979.586	3751.68
979.885	3733.15
980.185	3712.59
980.484	3697.67
980.784	3657.45
981.083	3672.81
981.382	3623.55
981.682	3631.46
981.981	3661.74
982.28	3620.84
982.579	3595.75
982.878	3623.77
983.177	3557.11
983.475	3581.29
983.774	3518.92
984.073	3489.99
984.372	3477.11
984.67	3456.1
984.969	3428.98
985.267	3448.64
985.566	3374.06
985.864	3404.12
986.162	3430.11
986.461	3376.78
986.759	3359.83
987.057	3348.75
987.355	3341.97
987.653	3302.88
987.951	3306.49
988.249	3295.42
988.547	3262.88
988.844	3260.39
989.142	3247.74
989.44	3187.63
989.737	3235.54
990.035	3200.28
990.332	3148.76
990.63	3152.15
990.927	3131.81
991.224	3132.04
991.521	3120.29
991.819	3088.2
992.116	3067.18
992.413	3059.72
992.71	3062.43
993.006	3021.76
993.303	3012.27
993.6	3031.7
993.897	2956.67
994.193	2969.78
994.49	2950.12
994.787	2958.93
995.083	2911.7
995.379	2933.17
995.676	2904.02
995.972	2887.3
996.268	2850.91
996.565	2824.7
996.861	2818.82
997.157	2848.43
997.453	2815.89
997.749	2797.58
998.044	2774.31
998.34	2746.74
998.636	2750.8
998.932	2723.46
999.227	2736.11
999.523	2717.36
999.818	2664.25
1000.114	2675.55
1000.409	2651.6
1000.704	2616.34
1001	2650.92
1001.295	2591.94
1001.59	2598.04
1001.885	2618.38
1002.18	2562.33
1002.475	2577.93
1002.77	2522.33
1003.065	2548.77
1003.359	2540.19
1003.654	2516.69
1003.949	2466.07
1004.243	2481.66
1004.538	2478.95
1004.832	2463.58
1005.127	2435.33
1005.421	2424.03
1005.715	2407.76
1006.009	2382.23
1006.304	2403.02
1006.598	2363.24
1006.892	2358.05
1007.186	2371.83
1007.48	2299.74
1007.773	2280.99
1008.067	2290.7
1008.361	2310.81
1008.655	2284.83
1008.948	2289.8
1009.242	2270.82
1009.535	2238.5
1009.829	2241.89
1010.122	2231.95
1010.415	2189.69
1010.708	2169.12
1011.001	2182.68
1011.295	2165.06
1011.588	2168.22
1011.881	2133.42
1012.173	2110.37
1012.466	2099.97
1012.759	2101.33
1013.052	2107.2
1013.344	2069.69
1013.637	2067.66
1013.93	2013.65
1014.222	2024.04
1014.514	2024.95
1014.807	1992.86
1015.099	1979.3
1015.391	2008.45
1015.683	1957.15
1015.976	1979.75
1016.268	1970.94
1016.56	1915.8
1016.851	1881.9
1017.143	1912.63
1017.435	1873.76
1017.727	1861.34
1018.018	1872.86
1018.31	1861.11
1018.602	1855.23
1018.893	1824.95
1019.185	1848
1019.476	1803.26
1019.767	1803.71
1020.058	1768.68
1020.35	1787.44
1020.641	1757.61
1020.932	1779.08
1021.223	1725.97
1021.514	1717.38
1021.804	1711.73
1022.095	1686.2
1022.386	1707.44
1022.677	1703.83
1022.967	1703.15
1023.258	1647.1
1023.548	1667.67
1023.839	1619.31
1024.129	1629.93
1024.419	1626.54
1024.709	1598.07
1025	1588.35
1025.29	1579.53
1025.58	1570.95
1025.87	1563.26
1026.16	1540.67
1026.449	1536.37
1026.739	1533.89
1027.029	1498.63
1027.319	1497.28
1027.608	1501.8
1027.898	1504.96
1028.187	1457.05
1028.477	1457.05
1028.766	1456.15
1029.055	1441.46
1029.344	1467.22
1029.634	1456.37
1029.923	1405.98
1030.212	1389.48
1030.501	1386.55
1030.79	1345.42
1031.078	1370.73
1031.367	1367.11
1031.656	1330.95
1031.945	1344.06
1032.233	1325.3
1032.522	1363.04
1032.81	1298.64
1033.099	1345.42
1033.387	1300.67
1033.675	1294.12
1033.963	1273.55
1034.251	1288.47
1034.54	1287.11
1034.828	1249.6
1035.116	1240.56
1035.403	1253.44
1035.691	1244.4
1035.979	1234.46
1036.267	1226.78
1036.554	1222.93
1036.842	1202.82
1037.129	1190.39
1037.417	1186.1
1037.704	1166.44
1037.992	1140.68
1038.279	1178.64
1038.566	1147.68
1038.853	1147.68
1039.14	1147.68
