Data from plate_porcelain_FLMS001491_060.txt Node
Date: Tue Feb 07 11:19:33 GMT 2017
User: dcchb
Spectrometer: FLMS00149
Trigger mode: 0
Integration Time (sec): 2.000000E-2
Scans to average: 10
Electric dark correction enabled: true
Nonlinearity correction enabled: false
Boxcar width: 0
XAxis mode: Wavelengths
Number of Pixels in Spectrum: 2048
>>>>>Begin Spectral Data<<<<<
341.393	-7.92
341.776	-7.92
342.16	-7.92
342.543	-48.6
342.927	-67.36
343.31	-59.9
343.693	-87.47
344.077	-63.97
344.46	-59.67
344.843	-64.87
345.226	-40.24
345.61	-25.78
345.993	-26.68
346.376	-1.14
346.759	19.19
347.142	26.65
347.525	51.28
347.908	60.32
348.291	64.84
348.674	100.77
349.057	106.65
349.44	121.34
349.823	140.55
350.206	167.44
350.588	229.36
350.971	247.89
351.354	246.99
351.737	263.48
352.119	272.75
352.502	282.01
352.884	315.46
353.267	312.97
353.65	346.64
354.032	355.46
354.414	363.37
354.797	334.44
355.179	342.58
355.562	374.89
355.944	364.04
356.326	361.78
356.709	375.57
357.091	385.96
357.473	390.48
357.855	384.83
358.238	374.44
358.62	390.48
359.002	370.82
359.384	387.32
359.766	406.53
360.148	393.65
360.53	396.59
360.912	403.59
361.294	354.1
361.676	400.2
362.057	397.04
362.439	386.87
362.821	375.12
363.203	379.41
363.584	398.17
363.966	399.07
364.348	382.35
364.729	372.86
365.111	391.39
365.493	393.65
365.874	387.32
366.256	405.4
366.637	399.07
367.019	377.15
367.4	398.39
367.781	404.04
368.163	369.24
368.544	392.29
368.925	395.91
369.306	386.87
369.688	390.94
370.069	395.23
370.45	413.08
370.831	388.68
371.212	395.46
371.593	400.2
371.974	417.38
372.355	443.59
372.736	432.52
373.117	421.44
373.498	416.02
373.879	419.64
374.26	399.3
374.641	430.93
375.021	413.31
375.402	422.12
375.783	458.28
376.163	469.35
376.544	489.46
376.925	456.92
377.305	442.23
377.686	449.92
378.066	465.74
378.447	460.09
378.827	493.31
379.208	462.12
379.588	475.45
379.968	494.44
380.349	499.86
380.729	508.45
381.109	500.31
381.489	505.51
381.87	473.42
382.25	496.24
382.63	516.36
383.01	538.95
383.39	524.94
383.77	557.26
384.15	531.95
384.53	532.63
384.91	538.95
385.29	557.49
385.67	562.46
386.049	559.97
386.429	550.48
386.809	555.45
387.189	585.51
387.568	595
387.948	605.85
388.328	606.52
388.707	610.59
389.087	595.45
389.466	619.86
389.846	622.34
390.225	627.77
390.605	635.68
390.984	648.33
391.363	672.28
391.743	659.86
392.122	649.91
392.501	687.88
392.881	708.44
393.26	688.78
393.639	691.95
394.018	705.73
394.397	706.41
394.776	720.87
395.155	721.32
395.534	729.46
395.913	720.42
396.292	743.02
396.671	762.9
397.05	754.32
397.429	780.76
397.808	752.06
398.186	771.72
398.565	782.79
398.944	790.7
399.323	796.8
399.701	852.84
400.08	820.3
400.458	798.61
400.837	861.43
401.215	871.83
401.594	852.17
401.972	863.01
402.351	890.58
402.729	881.09
403.107	901.43
403.486	921.09
403.864	927.65
404.242	922.22
404.62	933.97
404.999	927.65
405.377	971.03
405.755	959.51
406.133	959.28
406.511	1001.09
406.889	981.2
407.267	1039.51
407.645	1041.77
408.023	1061.43
408.401	1050.35
408.779	1057.36
409.156	1092.16
409.534	1103.01
409.912	1127.19
410.29	1125.38
410.667	1151.14
411.045	1164.93
411.422	1199.73
411.8	1182.78
412.178	1206.96
412.555	1248.09
412.933	1230.69
413.31	1289.22
413.687	1263.46
414.065	1294.42
414.442	1347.52
414.819	1326.96
415.197	1352.94
415.574	1357.24
415.951	1361.08
416.328	1395.2
416.705	1414.41
417.082	1430
417.46	1448.31
417.837	1446.73
418.214	1459.38
418.591	1491.92
418.967	1537.57
419.344	1544.8
419.721	1532.15
420.098	1521.53
420.475	1578.48
420.852	1572.6
421.228	1600.62
421.605	1623.22
421.982	1647.17
422.358	1642.65
422.735	1675.65
423.111	1702.54
423.488	1691.69
423.864	1710.22
424.241	1740.05
424.617	1779.83
424.994	1794.74
425.37	1822.76
425.746	1813.27
426.123	1838.58
426.499	1863.21
426.875	1893.27
427.251	1927.39
427.627	1982.53
428.003	1969.43
428.379	2004.45
428.756	2018.46
429.132	2090.78
429.507	2109.53
429.883	2132.59
430.259	2181.4
430.635	2166.93
431.011	2241.96
431.387	2239.02
431.763	2262.53
432.138	2309.53
432.514	2316.08
432.89	2307.5
433.265	2420.04
433.641	2439.02
434.016	2446.25
434.392	2482.41
434.767	2555.85
435.143	2537.55
435.518	2581.61
435.894	2635.17
436.269	2613.25
436.644	2705
437.02	2761.04
437.395	2735.28
437.77	2800.36
438.145	2798.56
438.52	2874.03
438.895	2886.46
439.271	2883.75
439.646	2928.27
440.021	2963.98
440.395	2996.97
440.77	2977.08
441.145	2998.33
441.52	3092.79
441.895	3071.32
442.27	3098.89
442.645	3130.98
443.019	3146.57
443.394	3151.77
443.769	3205.78
444.143	3163.29
444.518	3241.93
444.892	3246.23
445.267	3269.5
445.641	3308.15
446.016	3352.89
446.39	3381.82
446.764	3387.24
447.139	3410.07
447.513	3418.2
447.887	3503.85
448.262	3507.24
448.636	3476.96
449.01	3584.3
449.384	3585.65
449.758	3572.1
450.132	3632.43
450.506	3669.49
450.88	3679.89
451.254	3736.84
451.628	3821.13
452.002	3861.58
452.376	3876.72
452.75	3895.48
453.123	3966.89
453.497	4006.89
453.871	4042.37
454.244	4132.08
454.618	4149.48
454.992	4248.24
455.365	4220.89
455.739	4313.54
456.112	4365.29
456.486	4426.31
456.859	4430.38
457.232	4545.18
457.606	4542.69
457.979	4607.77
458.352	4749.69
458.725	4820.2
459.099	4790.82
459.472	4937.94
459.845	4970.7
460.218	5000.31
460.591	5022.68
460.964	5051.6
461.337	5222.67
461.71	5314.42
462.083	5336.12
462.456	5400.97
462.829	5417.24
463.201	5458.37
463.574	5528.88
463.947	5628.99
464.32	5755.54
464.692	5781.53
465.065	5843
465.438	5898.81
465.81	6030.56
466.183	6107.4
466.555	6193.72
466.928	6264
467.3	6262.19
467.672	6389.87
468.045	6532.02
468.417	6558.46
468.789	6582.41
469.161	6710.09
469.534	6756.64
469.906	6992.34
470.278	7024.43
470.65	7145.11
471.022	7253.58
471.394	7399.57
471.766	7482.95
472.138	7539.67
472.51	7676.17
472.882	7829.61
473.253	7913
473.625	8108.93
473.997	8250.39
474.369	8316.38
474.74	8396.6
475.112	8589.59
475.484	8703.03
475.855	8866.42
476.227	8918.85
476.598	9127.43
476.97	9292.62
477.341	9439.51
477.713	9523.35
478.084	9664.59
478.455	9949.55
478.827	10036.78
479.198	10374.63
479.569	10398.58
479.94	10608.97
480.311	10747.5
480.682	11012.8
481.053	11232.01
481.424	11417.31
481.795	11557.65
482.166	11797.42
482.537	11903.4
482.908	12207.57
483.279	12262.26
483.65	12472.43
484.021	12833.09
484.391	12936.59
484.762	12910.61
485.133	13177.72
485.503	13377.49
485.874	13627.42
486.244	13820.41
486.615	14044.36
486.985	14164.81
487.356	14472.15
487.726	14691.58
488.097	14932.7
488.467	15057.9
488.837	15334.05
489.207	15499.24
489.578	15732.23
489.948	15909.62
490.318	16134.93
490.688	16166.34
491.058	16449.5
491.428	16668.02
491.798	16819.2
492.168	17236.37
492.538	17263.03
492.908	17537.15
493.278	17762.23
493.648	17726.53
494.017	17985.28
494.387	18215.78
494.757	18336.68
495.126	18568.31
495.496	18658.25
495.866	18756.78
496.235	19038.81
496.605	19172.14
496.974	19260.04
497.344	19547.49
497.713	19702.29
498.082	19776.19
498.452	20024.32
498.821	20079.46
499.19	20150.87
499.559	20375.5
499.928	20476.74
500.298	20692.1
500.667	20932.32
501.036	20858.65
501.405	21026.33
501.774	21315.13
502.143	21443.94
502.512	21501.79
502.88	21648
503.249	21762.8
503.618	22024.94
503.987	22199.18
504.356	22296.57
504.724	22377.93
505.093	22529.56
505.462	22564.36
505.83	22740.4
506.199	23027.4
506.567	23234.86
506.936	23251.35
507.304	23562.08
507.672	23692.7
508.041	23770.43
508.409	23973.14
508.777	24274.83
509.145	24378.33
509.514	24367.71
509.882	24611.99
510.25	24588.94
510.618	24992.55
510.986	25019.89
511.354	25249.94
511.722	25493.1
512.09	25789.59
512.458	25820.1
512.826	25996.36
513.193	26115.23
513.561	26318.39
513.929	26550.02
514.297	26834.08
514.664	26965.15
515.032	27118.37
515.4	27392.94
515.767	27576.44
516.135	27695.08
516.502	27553.16
516.869	27984.11
517.237	28224.55
517.604	28210.54
517.972	28536.41
518.339	28756.52
518.706	28803.3
519.073	28994.93
519.44	29279.22
519.808	29609.15
520.175	29589.49
520.542	30085.52
520.909	30075.13
521.276	30236.93
521.643	30657.71
522.009	30902.9
522.376	30914.88
522.743	31395.09
523.11	31623.56
523.477	31906.04
523.843	32155.07
524.21	32487.04
524.577	32621.05
524.943	32715.74
525.31	32947.37
525.676	33259.68
526.043	33489.95
526.409	33796.39
526.776	34104.85
527.142	34183.95
527.508	34422.58
527.874	34645.63
528.241	34881.33
528.607	34878.84
528.973	35337.59
529.339	35381.2
529.705	35794.07
530.071	36026.16
530.437	36117.23
530.803	36376.43
531.169	36590.21
531.535	36646.48
531.901	36758.34
532.267	36899.81
532.632	37226.35
532.998	37422.73
533.364	37602.16
533.73	37789.95
534.095	38154.69
534.461	38171.19
534.826	38484.62
535.192	38628.57
535.557	38902.01
535.923	38838.29
536.288	38979.98
536.653	39279.41
537.019	39233.08
537.384	39392.62
537.749	39566.63
538.114	39578.61
538.479	39843.01
538.845	39967.3
539.21	40061.53
539.575	40226.05
539.94	40502.2
540.305	40644.57
540.67	40745.36
541.034	40720.5
541.399	41040.94
541.764	41026.48
542.129	41299.24
542.494	41342.4
542.858	41489.74
543.223	41633.24
543.587	41793.01
543.952	41945.1
544.316	41944.19
544.681	42086.34
545.045	42265.99
545.41	42437.51
545.774	42580.11
546.138	42660.56
546.503	42769.93
546.867	42870.27
547.231	43220.09
547.595	43167.66
547.959	43247.21
548.324	43339.64
548.688	43467.54
549.052	43641.55
549.416	43761.77
549.779	43838.16
550.143	44081.99
550.507	44394.98
550.871	44553.16
551.235	44551.36
551.599	44860.05
551.962	44900.5
552.326	44921.06
552.689	45215.75
553.053	45337.78
553.417	45384.56
553.78	45893.92
554.143	45738.67
554.507	45982.05
554.87	46084.88
555.234	46537.75
555.597	46359.22
555.96	46424.3
556.323	46772.99
556.686	46797.85
557.05	47059.09
557.413	47218.41
557.776	47195.81
558.139	47510.15
558.502	47537.04
558.865	47651.84
559.228	48076.01
559.59	48046.41
559.953	48181.77
560.316	48530.01
560.679	48619.05
561.041	48850.23
561.404	49009.77
561.767	49107.4
562.129	49137.45
562.492	49498.12
562.854	49544.9
563.217	49726.36
563.579	49821.5
563.941	50073.92
564.304	50217.42
564.666	50484.53
565.028	50516.62
565.39	50663.06
565.753	50832.55
566.115	50944.86
566.477	51098.08
566.839	51122.48
567.201	51368.35
567.563	51265.76
567.925	51641.11
568.287	51696.25
568.648	51769.25
569.01	51797.27
569.372	52075.9
569.734	52067.32
570.095	52274.77
570.457	52375.56
570.819	52329.68
571.18	52490.13
571.542	52701.88
571.903	52756.11
572.265	52898.03
572.626	52827.3
572.987	53084.69
573.349	53017.57
573.71	53257.57
574.071	53219.38
574.432	53360.84
574.794	53514.96
575.155	53633.15
575.516	53482.65
575.877	53609.88
576.238	53735.07
576.599	53824.79
576.96	53851.23
577.32	53881.28
577.681	54010.77
578.042	54062.75
578.403	54151.56
578.763	54204.66
579.124	54191.1
579.485	54235.62
579.845	54368.73
580.206	54324.43
580.566	54276.52
580.927	54333.25
581.287	54421.15
581.648	54382.51
582.008	54524.43
582.368	54449.18
582.728	54515.61
583.089	54442.85
583.449	54451.89
583.809	54487.37
584.169	54552.22
584.529	54519.91
584.889	54707.02
585.249	54473.58
585.609	54483.53
585.969	54622.5
586.329	54539.79
586.688	54596.29
587.048	54606.69
587.408	54553.35
587.768	54591.77
588.127	54624.31
588.487	54610.53
588.846	54791.77
589.206	54559.23
589.565	54629.51
589.925	54791.99
590.284	54641.49
590.643	54741.6
591.003	54760.58
591.362	54809.62
591.721	54711.77
592.08	54753.12
592.44	54948.6
592.799	54810.07
593.158	54781.6
593.517	54830.18
593.876	54773.01
594.235	54740.69
594.593	54849.17
594.952	54976.39
595.311	54871.99
595.67	54862.95
596.029	55012.1
596.387	55081.93
596.746	55054.36
597.104	54954.25
597.463	55008.93
597.822	55163.28
598.18	54951.99
598.538	55007.58
598.897	55136.16
599.255	54920.35
599.613	55242.6
599.972	55081.48
600.33	55213.9
600.688	55220.68
601.046	55189.27
601.404	55404.86
601.762	55219.1
602.12	55417.74
602.478	55419.77
602.836	55448.7
603.194	55296.61
603.552	55337.74
603.91	55240.79
604.268	55366.21
604.625	55364.86
604.983	55578.86
605.341	55371.64
605.698	55526.89
606.056	55592.42
606.413	55527.79
606.771	55675.58
607.128	55674.68
607.485	55546.77
607.843	55591.07
608.2	55769.37
608.557	55819.54
608.914	55721.01
609.272	55850.72
609.629	55901.34
609.986	55967.33
610.343	55868.57
610.7	56092.3
611.057	56003.26
611.414	55999.87
611.771	56049.36
612.127	56104.5
612.484	56038.96
612.841	56212.52
613.198	56117.61
613.554	56128.23
613.911	56276.25
614.267	56167.1
614.624	56229.24
614.98	56335.91
615.337	56442.12
615.693	56448.45
616.05	56356.47
616.406	56478.5
616.762	56398.95
617.118	56452.51
617.475	56433.98
617.831	56538.39
618.187	56470.82
618.543	56528.67
618.899	56633.53
619.255	56629.46
619.611	56617.03
619.967	56631.49
620.323	56674.2
620.678	56558.72
621.034	56591.72
621.39	56595.56
621.746	56498.61
622.101	56863.58
622.457	56586.52
622.812	56709.68
623.168	56733.41
623.523	56787.87
623.879	56784.48
624.234	56611.83
624.589	56710.36
624.945	56706.74
625.3	56736.57
625.655	56751.49
626.01	56731.15
626.365	56882.11
626.72	56699.96
627.075	56683.47
627.43	56717.59
627.785	56562.11
628.14	56628.78
628.495	56681.21
628.85	56571.83
629.205	56538.84
629.559	56709.68
629.914	56526.86
630.269	56556.46
630.623	56534.77
630.978	56328.67
631.332	56512.4
631.687	56506.07
632.041	56405.06
632.396	56476.24
632.75	56345.85
633.104	56485.51
633.459	56316.47
633.813	56263.59
634.167	56279.41
634.521	56273.08
634.875	56298.62
635.229	56212.07
635.583	56123.93
635.937	56062.01
636.291	56153.99
636.645	56102.92
636.999	56063.37
637.352	56037.61
637.706	55889.59
638.06	55972.53
638.413	55870.38
638.767	55899.08
639.121	55856.6
639.474	55635.13
639.828	55777.28
640.181	55783.15
640.534	55751.74
640.888	55651.18
641.241	55588.58
641.594	55528.7
641.947	55618.18
642.301	55577.96
642.654	55562.37
643.007	55575.7
643.36	55445.53
643.713	55448.02
644.066	55602.14
644.419	55311.07
644.771	55192.88
645.124	54888.03
645.477	54864.76
645.83	54719.68
646.182	54560.13
646.535	54436.29
646.888	54469.51
647.24	54301.83
647.593	54507.03
647.945	54443.3
648.298	54329.63
648.65	54183.19
649.002	54111.56
649.355	54261.61
649.707	54183.19
650.059	54322.63
650.411	54627.7
650.763	54707.02
651.115	54850.3
651.467	54748.15
651.819	54691.88
652.171	54685.55
652.523	54668.38
652.875	54652.33
653.227	54481.72
653.578	54687.14
653.93	54555.39
654.282	54416.86
654.633	54441.04
654.985	54437.88
655.337	54459.12
655.688	54367.6
656.039	54523.75
656.391	54200.14
656.742	54343.64
657.094	54314.49
657.445	54410.08
657.796	54369.4
658.147	54283.08
658.498	54131.22
658.849	54320.37
659.2	54174.83
659.551	54144.55
659.902	54330.31
660.253	54129.18
660.604	54270.65
660.955	54057.55
661.306	54176.19
661.656	54141.39
662.007	54145.91
662.358	54095.29
662.708	54105.91
663.059	53989.07
663.409	53865.24
663.76	53951.79
664.11	53953.6
664.461	53997.89
664.811	54011.45
665.161	53928.06
665.511	53876.76
665.862	53934.84
666.212	54001.05
666.562	54042.41
666.912	53914.5
667.262	53893.71
667.612	53853.71
667.962	53987.49
668.312	53946.82
668.662	54021.16
669.011	53840.15
669.361	53810.32
669.711	53719.25
670.06	53748.86
670.41	53661.85
670.76	53746.14
671.109	53643.1
671.459	53728.97
671.808	53656.88
672.157	53745.92
672.507	53517
672.856	53592.25
673.205	53602.42
673.554	53699.36
673.904	53559.71
674.253	53651
674.602	53527.39
674.951	53194.52
675.3	53002.43
675.649	53553.83
675.998	53407.85
676.346	53430.9
676.695	53493.95
677.044	53280.17
677.393	53315.87
677.741	53460.05
678.09	53328.75
678.438	53274.97
678.787	53318.13
679.135	53346.38
679.484	53155.65
679.832	53270.45
680.181	53126.05
680.529	53105.71
680.877	52979.84
681.225	52952.27
681.573	53130.11
681.922	52971.7
682.27	52864.58
682.618	52870.69
682.966	52784.36
683.314	52783.23
683.661	52693.97
684.009	52509.57
684.357	52426.18
684.705	52351.6
685.053	52539.62
685.4	52416.46
685.748	52157.26
686.095	52231.38
686.443	52098.73
686.79	52022.35
687.138	52086.98
687.485	52040.2
687.832	52054.66
688.18	52098.95
688.527	51827.1
688.874	51879.75
689.221	51737.61
689.568	51626.43
689.915	51523.38
690.262	51413.55
690.609	51355.92
690.956	51296.49
691.303	51254.46
691.65	51001.81
691.997	50985.99
692.344	50778.76
692.69	50796.84
693.037	50849.72
693.383	50533.12
693.73	50790.29
694.077	50511.43
694.423	50429.85
694.769	50418.55
695.116	50279.34
695.462	50233.24
695.808	50160.47
696.155	50203.86
696.501	49931.1
696.847	49913.7
697.193	49618.79
697.539	49798.45
697.885	49527.95
698.231	49532.69
698.577	49619.7
698.923	49450.66
699.269	49155.76
699.614	48922.77
699.96	48930.22
700.306	49001.18
700.651	48805.93
700.997	48753.05
701.342	48671.25
701.688	48589.89
702.033	48252.28
702.379	48318.26
702.724	48211.15
703.069	48244.37
703.415	47884.15
703.76	47890.48
704.105	47789.01
704.45	47637.38
704.795	47437.83
705.14	47329.81
705.485	47336.59
705.83	47225.86
706.175	47270.16
706.52	47140.67
706.865	46932.31
707.209	47019.09
707.554	46825.87
707.899	46914.68
708.243	46689.38
708.588	46697.74
708.932	46408.94
709.277	46323.06
709.621	46469.95
709.966	46220.47
710.31	46240.35
710.654	45928.72
710.998	45963.52
711.342	45993.35
711.687	45836.07
712.031	45620.26
712.375	45541.84
712.719	45510.43
713.063	45541.84
713.407	45505
713.75	45276.31
714.094	45301.85
714.438	45055.07
714.782	45078.57
715.125	44895.08
715.469	44809.88
715.812	44773.95
716.156	44486.05
716.499	44561.75
716.843	44537.12
717.186	44401.76
717.53	44487.18
717.873	44478.14
718.216	44340.51
718.559	44165.6
718.902	44035.44
719.246	44079.05
719.589	43876.35
719.932	43893.3
720.275	43738.04
720.617	43620.99
720.96	43728.1
721.303	43651.95
721.646	43618.05
721.989	43412.18
722.331	43496.7
722.674	43318.85
723.016	43432.52
723.359	43134.44
723.701	43278.17
724.044	43024.62
724.386	42809.03
724.729	43034.33
725.071	42779.65
725.413	42782.59
725.755	42649.71
726.097	42532.65
726.439	42205.43
726.782	42388.02
727.124	42395.03
727.465	42280.46
727.807	42309.38
728.149	42244.07
728.491	42124.08
728.833	42042.27
729.175	41842.95
729.516	41901.48
729.858	41818.55
730.199	41801.6
730.541	41743.3
730.882	41558.67
731.224	41564.32
731.565	41433.92
731.906	41535.39
732.248	41514.37
732.589	41362.74
732.93	41195.74
733.271	41193.25
733.612	41280.26
733.953	41334.72
734.294	40957.78
734.635	40936.31
734.976	41029.64
735.317	40772.02
735.658	40627.39
735.999	40801.4
736.339	40785.58
736.68	40793.49
737.021	40474.85
737.361	40282.99
737.702	40649.31
738.042	40419.04
738.383	40389.66
738.723	40347.63
739.063	40170.68
739.404	40308.98
739.744	40114.64
740.084	40032.38
740.424	40103.34
740.764	39895.43
741.104	40004.36
741.444	39742.67
741.784	39600.98
742.124	39685.95
742.464	39525.95
742.804	39597.81
743.143	39408.22
743.483	39496.12
743.823	39268.78
744.162	39269.01
744.502	39222.01
744.841	39072.63
745.181	39282.34
745.52	39017.27
745.86	39078.51
746.199	39008.23
746.538	38867.66
746.877	38970.71
747.216	38814.78
747.556	38586.77
747.895	38645.07
748.234	38328.7
748.573	38485.53
748.911	38346.77
749.25	38384.51
749.589	38154.01
749.928	38208.7
750.267	38148.81
750.605	37978.2
750.944	38000.12
751.283	37816.17
751.621	37805.32
751.96	37771.65
752.298	37650.75
752.636	37709.28
752.975	37526.91
753.313	37323.98
753.651	37321.04
753.989	37124.66
754.327	37138.9
754.666	37048.73
755.004	37022.29
755.342	37125.34
755.679	36962.63
756.017	36759.02
756.355	37002.63
756.693	36553.15
757.031	36715.86
757.368	36421.18
757.706	36420.72
758.044	36230.67
758.381	36367.39
758.719	36091.01
759.056	36188.86
759.394	36074.52
759.731	35667.97
760.068	35808.31
760.405	35664.58
760.743	35486.74
761.08	35508.88
761.417	35327.64
761.754	35212.62
762.091	35199.51
762.428	35101.44
762.765	34913.19
763.102	35006.07
763.438	34677.04
763.775	34617.83
764.112	34601.34
764.449	34530.15
764.785	34352.98
765.122	34200.44
765.458	34050.16
765.795	33896.27
766.131	33917.29
766.467	33700.34
766.804	33719.55
767.14	33525.21
767.476	33371.09
767.812	33165.44
768.148	33217.42
768.485	33114.14
768.821	32800.03
769.157	33084.31
769.492	32862.85
769.828	32740.82
770.164	32433.48
770.5	32469.41
770.836	32392.58
771.171	32120.72
771.507	31998.69
771.842	31845.25
772.178	31950.11
772.513	31800.96
772.849	31871.01
773.184	31656.1
773.519	31603.22
773.855	31356.22
774.19	31292.04
774.525	31153.07
774.86	31118.72
775.195	31152.39
775.53	30939.51
775.865	30674.43
776.2	30517.15
776.535	30330.94
776.87	30378.62
777.205	30166.2
777.539	30182.92
777.874	30148.8
778.209	29840.56
778.543	29896.37
778.878	29684.18
779.212	29638.3
779.547	29458.65
779.881	29332.55
780.215	29166
780.55	29254.81
780.884	29183.85
781.218	29081.48
781.552	28977.3
781.886	28885.33
782.22	28561.95
782.554	28631.78
782.888	28223.42
783.222	28246.25
783.556	28050.77
783.889	28140.26
784.223	27964.45
784.557	27929.65
784.89	27836.99
785.224	27672.48
785.557	27623.21
785.891	27491.01
786.224	27420.51
786.558	27352.94
786.891	27183.9
787.224	27038.14
787.557	27043.57
787.891	26972.61
788.224	26940.97
788.557	26869.56
788.89	26808.55
789.223	26699.85
789.556	26555.67
789.888	26472.96
790.221	26246.08
790.554	26115.01
790.887	26161.56
791.219	26022.13
791.552	25898.06
791.884	25828.23
792.217	25781.68
792.549	25615.81
792.882	25526.32
793.214	25387.79
793.546	25400
793.879	25179.21
794.211	25096.73
794.543	25275.48
794.875	24938.09
795.207	25083.62
795.539	24930.18
795.871	24918.43
796.203	24720.47
796.535	24478.44
796.867	24478.44
797.198	24457.65
797.53	24355.28
797.862	24222.4
798.193	24219.69
798.525	24059.01
798.856	24155.51
799.188	23805.46
799.519	23858.12
799.85	23632.36
800.182	23815.18
800.513	23790.55
800.844	23538.8
801.175	23675.07
801.506	23549.42
801.837	23372.93
802.168	23323.67
802.499	23327.06
802.83	23052.71
803.161	23187.62
803.491	23107.63
803.822	23019.04
804.153	22922.77
804.483	22807.97
804.814	22667.41
805.145	22692.72
805.475	22565.27
805.805	22659.73
806.136	22541.54
806.466	22498.38
806.796	22531.82
807.126	22303.58
807.457	22261.55
807.787	22215.9
808.117	22188.1
808.447	21976.58
808.777	21953.76
809.107	22058.39
809.436	21860.2
809.766	21949.01
810.096	21791.96
810.426	21758.74
810.755	21696.59
811.085	21709.7
811.414	21607.33
811.744	21485.3
812.073	21324.4
812.403	21422.02
812.732	21233.55
813.061	21226.32
813.39	21192.2
813.719	21110.62
814.049	21118.3
814.378	21015.03
814.707	20937.06
815.036	20904.52
815.365	20752.89
815.693	20562.61
816.022	20608.03
816.351	20618.43
816.68	20434.25
817.008	20491.65
817.337	20318.55
817.665	20319.45
817.994	20394.03
818.322	20297.53
818.651	20214.37
818.979	20166.69
819.307	20157.2
819.636	20093.24
819.964	19959.01
820.292	20067.93
820.62	20081.27
820.948	19866.36
821.276	19966.69
821.604	19951.33
821.932	19975.28
822.259	19992.91
822.587	19925.56
822.915	19893.25
823.243	19889.86
823.57	19901.38
823.898	19908.39
824.225	19830.42
824.553	19871.1
824.88	19898.9
825.207	19905.23
825.535	19853.02
825.862	19970.08
826.189	19766.47
826.516	19958.78
826.843	20053.02
827.17	20030.19
827.497	19900.03
827.824	19898.67
828.151	19978.44
828.478	19879.92
828.805	19893.7
829.131	19843.76
829.458	19839.69
829.785	19822.97
830.111	19789.75
830.438	19866.36
830.764	19816.87
831.09	19773.48
831.417	19675.85
831.743	19807.15
832.069	19714.04
832.395	19657.77
832.722	19735.74
833.048	19696.64
833.374	19684.21
833.7	19523.31
834.026	19614.84
834.351	19692.12
834.677	19615.52
835.003	19612.58
835.329	19557.44
835.654	19488.74
835.98	19431.11
836.306	19471.79
836.631	19347.95
836.956	19504.56
837.282	19350.44
837.607	19303.21
837.932	19269.54
838.258	19321.29
838.583	19217.11
838.908	19202.19
839.233	19127.62
839.558	19074.51
839.883	19032.48
840.208	18943.22
840.533	18993.38
840.858	19025.7
841.182	19013.95
841.507	19025.47
841.832	18912.26
842.156	18830.9
842.481	18844.91
842.805	18685.6
843.13	18721.75
843.454	18624.13
843.778	18589.78
844.103	18466.84
844.427	18538.71
844.751	18575.54
845.075	18438.15
845.399	18336.68
845.723	18261.65
846.047	18309.33
846.371	18118.38
846.695	18119.74
847.019	17962.45
847.343	17885.39
847.666	17836.35
847.99	17745.73
848.313	17768.56
848.637	17578.05
848.96	17687.88
849.284	17530.6
849.607	17347.78
849.931	17395.23
850.254	17269.14
850.577	17152.98
850.9	17116.15
851.223	17028.92
851.546	16980.1
851.869	16870.05
852.192	16890.84
852.515	16698.08
852.838	16755.7
853.161	16707.12
853.483	16585.54
853.806	16519.1
854.129	16489.04
854.451	16468.71
854.774	16299.9
855.096	16313.23
855.419	16363.85
855.741	16261.71
856.063	16255.6
856.385	16042.95
856.708	16066.46
857.03	15977.42
857.352	15913.69
857.674	15897.65
857.996	15812.9
858.318	15765
858.64	15757.31
858.961	15712.12
859.283	15700.36
859.605	15598.45
859.926	15652.68
860.248	15524.1
860.57	15522.06
860.891	15478.45
861.212	15268.28
861.534	15484.78
861.855	15360.71
862.176	15368.85
862.498	15300.15
862.819	15348.28
863.14	15230.32
863.461	15277.1
863.782	15097.67
864.103	15156.65
864.424	15110.32
864.745	15151.23
865.065	15068.29
865.386	14979.25
865.707	15016.54
866.027	15085.46
866.348	14949.42
866.668	15004.79
866.989	14866.04
867.309	14875.3
867.63	14855.87
867.95	14805.47
868.27	14686.83
868.59	14730.45
868.91	14801.4
869.23	14790.11
869.55	14662.2
869.87	14724.57
870.19	14647.28
870.51	14673.27
870.83	14678.92
871.15	14482.99
871.469	14580.62
871.789	14495.42
872.109	14410.91
872.428	14346.95
872.748	14557.12
873.067	14336.56
873.386	14422.88
873.706	14389.89
874.025	14269.44
874.344	14261.08
874.663	14294.75
874.982	14294.53
875.301	14219.5
875.62	14106.28
875.939	14094.3
876.258	14147.86
876.577	14074.87
876.896	14085.72
877.214	14071.71
877.533	14106.28
877.852	14121.42
878.17	14071.93
878.489	14054.98
878.807	14054.98
879.125	13916.91
879.444	13984.48
879.762	13887.08
880.08	13875.33
880.398	13820.87
880.716	13860.64
881.034	13848.66
881.352	13827.19
881.67	13764.14
881.988	13732.05
882.306	13717.37
882.624	13616.58
882.941	13567.31
883.259	13553.98
883.577	13468.11
883.894	13464.72
884.212	13445.06
884.529	13460.87
884.846	13344.95
885.164	13359.18
885.481	13248.9
885.798	13387.88
886.115	13148.79
886.432	13250.94
886.75	13194.67
887.067	13172.29
887.383	13092.3
887.7	13175.23
888.017	13048.46
888.334	13094.56
888.651	13025.63
888.967	12963.03
889.284	12962.58
889.6	12906.31
889.917	12799.2
890.233	12770.72
890.55	12801.01
890.866	12802.14
891.182	12734.34
891.498	12688.69
891.815	12455.48
892.131	12568.02
892.447	12546.32
892.763	12534.57
893.079	12490.96
893.395	12468.81
893.71	12370.28
894.026	12376.84
894.342	12284.18
894.657	12342.49
894.973	12288.7
895.289	12209.61
895.604	12254.8
895.92	12115.15
896.235	12051.42
896.55	12027.01
896.865	12021.82
897.181	11998.77
897.496	11997.18
897.811	11934.59
898.126	11873.12
898.441	11802.16
898.756	11804.65
899.071	11718.32
899.386	11766.68
899.7	11634.26
900.015	11600.13
900.33	11438.33
900.644	11508.84
900.959	11495.28
901.273	11478.55
901.588	11423.41
901.902	11323.3
902.216	11177.77
902.531	11254.61
902.845	11262.74
903.159	11185.45
903.473	11085.12
903.787	11079.47
904.101	10989.08
904.415	11029.98
904.729	10978
905.042	10839.7
905.356	10852.58
905.67	10889.64
905.984	10828.18
906.297	10805.58
906.611	10710.89
906.924	10673.6
907.237	10721.96
907.551	10667.28
907.864	10520.61
908.177	10581.63
908.491	10467.28
908.804	10438.58
909.117	10400.16
909.43	10301.18
909.743	10246.72
910.056	10216.89
910.368	10164.46
910.681	10218.47
910.994	10153.84
911.307	10067.29
911.619	10018.25
911.932	10033.62
912.244	9979.84
912.557	9919.73
912.869	9878.14
913.181	9863.91
913.494	9807.19
913.806	9776.68
914.118	9699.39
914.43	9632.27
914.742	9661.65
915.054	9597.47
915.366	9555.44
915.678	9524.26
915.99	9524.26
916.302	9399.06
916.613	9408.1
916.925	9339.4
917.236	9360.64
917.548	9321.77
917.859	9339.4
918.171	9290.82
918.482	9167.43
918.794	9158.39
919.105	9143.7
919.416	9048.56
919.727	9020.54
920.038	9001.33
920.349	8990.71
920.66	8906.42
920.971	8865.06
921.282	8837.49
921.593	8787.1
921.903	8729.7
922.214	8695.58
922.525	8632.75
922.835	8596.14
923.146	8621.45
923.456	8559.08
923.767	8522.02
924.077	8484.51
924.387	8462.36
924.697	8395.47
925.008	8354.57
925.318	8346.89
925.628	8287.23
925.938	8269.15
926.248	8210.17
926.558	8235.48
926.867	8150.51
927.177	8127.91
927.487	8088.36
927.796	8082.49
928.106	8027.12
928.416	7988.25
928.725	7994.8
929.034	7914.13
929.344	7945.54
929.653	7842.49
929.962	7769.95
930.271	7791.19
930.581	7746.9
930.89	7715.26
931.199	7601.37
931.508	7627.58
931.817	7603.4
932.125	7574.93
932.434	7595.27
932.743	7590.97
933.051	7491.31
933.36	7429.4
933.669	7348.95
933.977	7303.07
934.286	7328.61
934.594	7274.37
934.902	7225.33
935.21	7174.94
935.519	7220.36
935.827	7144.43
936.135	7129.29
936.443	7055.39
936.751	7082.96
937.059	7026.69
937.367	6992.8
937.674	7016.07
937.982	6983.08
938.29	6870.54
938.597	6931.78
938.905	6886.58
939.213	6794.84
939.52	6845.91
939.827	6830.31
940.135	6750.77
940.442	6649.3
940.749	6655.18
941.056	6699.7
941.363	6585.35
941.67	6652.69
941.977	6581.73
942.284	6543.54
942.591	6555.97
942.898	6519.81
943.205	6476.43
943.511	6383.77
943.818	6400.95
944.125	6314.4
944.431	6305.13
944.738	6353.27
945.044	6270.1
945.35	6197.34
945.657	6227.62
945.963	6211.35
946.269	6171.35
946.575	6149.88
946.881	6072.59
947.187	6108.07
947.493	6036.89
947.799	6058.81
948.105	6055.87
948.41	5918.47
948.716	5979.72
949.022	5970.45
949.327	5910.56
949.633	5796.67
949.938	5842.54
950.244	5818.36
950.549	5786.73
950.854	5739.5
951.16	5751.02
951.465	5739.95
951.77	5650.68
952.075	5620.63
952.38	5624.92
952.685	5588.31
952.99	5573.62
953.294	5544.92
953.599	5516.45
953.904	5467.64
954.209	5498.37
954.513	5480.97
954.818	5427.64
955.122	5388.54
955.426	5415.21
955.731	5382.67
956.035	5358.49
956.339	5309.45
956.643	5331.6
956.948	5285.5
957.252	5251.6
957.556	5152.62
957.86	5196.91
958.163	5152.84
958.467	5198.95
958.771	5141.55
959.075	5134.77
959.378	5049.57
959.682	5090.25
959.985	5050.93
960.289	5029.68
960.592	4981.1
960.896	4970.48
961.199	4939.07
961.502	4971.15
961.805	4886.86
962.108	4859.52
962.411	4865.85
962.714	4860.88
963.017	4812.74
963.32	4820.88
963.623	4775
963.926	4777.94
964.228	4713.31
964.531	4733.65
964.833	4693.65
965.136	4696.36
965.438	4687.32
965.741	4678.51
966.043	4645.29
966.345	4606.87
966.648	4597.38
966.95	4580.43
967.252	4553.54
967.554	4528.91
967.856	4547.21
968.158	4500.88
968.46	4455.24
968.761	4433.09
969.063	4460.66
969.365	4374.11
969.666	4375.01
969.968	4354.22
970.269	4322.36
970.571	4319.19
970.872	4295.24
971.174	4306.77
971.475	4226.32
971.776	4252.08
972.077	4197.39
972.378	4188.8
972.679	4140.67
972.98	4166.88
973.281	4155.36
973.582	4149.03
973.883	4120.78
974.183	4080.33
974.484	4108.8
974.785	4054.12
975.085	4067.9
975.386	4051.86
975.686	3992.42
975.986	3993.55
976.287	3960.56
976.587	3911.75
976.887	3923.95
977.187	3911.75
977.487	3905.87
977.787	3869.71
978.087	3851.64
978.387	3869.26
978.687	3827.46
978.987	3816.16
979.286	3788.36
979.586	3755.82
979.885	3737.97
980.185	3730.51
980.484	3743.39
980.784	3697.74
981.083	3698.65
981.382	3674.01
981.682	3629.72
981.981	3597.41
982.28	3643.73
982.579	3584.52
982.878	3596.05
983.177	3601.7
983.475	3595.6
983.774	3539.55
984.073	3509.27
984.372	3517.86
984.67	3476.28
984.969	3496.17
985.267	3452.55
985.566	3445.32
985.864	3421.14
986.162	3407.81
986.461	3413
986.759	3368.26
987.057	3373
987.355	3332.55
987.653	3347.69
987.951	3309.28
988.249	3328.26
988.547	3290.07
988.844	3229.96
989.142	3279.67
989.44	3278.32
989.737	3217.75
990.035	3187.7
990.332	3215.95
990.63	3158.77
990.927	3192.44
991.224	3160.35
991.521	3142.73
991.819	3133.91
992.116	3156.97
992.413	3092.56
992.71	3067.7
993.006	3042.17
993.303	3033.35
993.6	3016.18
993.897	2994.94
994.193	3016.86
994.49	3002.17
994.787	2950.42
995.083	2961.26
995.379	2904.77
995.676	2903.86
995.972	2866.58
996.268	2910.42
996.565	2857.31
996.861	2829.97
997.157	2838.33
997.453	2824.77
997.749	2803.75
998.044	2813.02
998.34	2769.63
998.636	2788.16
998.932	2737.32
999.227	2728.5
999.523	2709.75
999.818	2713.36
1000.114	2666.36
1000.409	2676.98
1000.704	2667.94
1001	2649.63
1001.295	2628.17
1001.59	2633.36
1001.885	2624.1
1002.18	2572.35
1002.475	2566.7
1002.77	2577.55
1003.065	2510.43
1003.359	2558.79
1003.654	2521.05
1003.949	2510.43
1004.243	2469.3
1004.538	2476.98
1004.832	2481.95
1005.127	2430.2
1005.421	2476.76
1005.715	2412.8
1006.009	2399.47
1006.304	2393.82
1006.598	2367.38
1006.892	2381.84
1007.186	2359.25
1007.48	2316.54
1007.773	2338.68
1008.067	2304.11
1008.361	2306.37
1008.655	2279.25
1008.948	2275.63
1009.242	2260.94
1009.535	2256.88
1009.829	2202.87
1010.122	2220.72
1010.415	2214.39
1010.708	2190.89
1011.001	2185.69
1011.295	2167.84
1011.588	2150.44
1011.881	2157.67
1012.173	2128.07
1012.466	2118.57
1012.759	2096.65
1013.052	2088.97
1013.344	2060.72
1013.637	2066.37
1013.93	2074.06
1014.222	2032.47
1014.514	2025.02
1014.807	2018.46
1015.099	2033.38
1015.391	2007.84
1015.683	2004
1015.976	1969.2
1016.268	1961.74
1016.56	1962.65
1016.851	1928.75
1017.143	1928.97
1017.435	1888.3
1017.727	1907.51
1018.018	1881.97
1018.31	1856.89
1018.602	1863.67
1018.893	1834.97
1019.185	1817.57
1019.476	1815.53
1019.767	1793.16
1020.058	1781.86
1020.35	1791.8
1020.641	1773.95
1020.932	1755.42
1021.223	1746.15
1021.514	1717.23
1021.804	1708.19
1022.095	1734.86
1022.386	1716.32
1022.677	1669.32
1022.967	1660.96
1023.258	1650.56
1023.548	1634.75
1023.839	1654.63
1024.129	1641.3
1024.419	1633.16
1024.709	1594.07
1025	1593.39
1025.29	1591.13
1025.58	1580.74
1025.87	1528.53
1026.16	1553.39
1026.449	1529.21
1026.739	1501.42
1027.029	1519.49
1027.319	1519.04
1027.608	1493.51
1027.898	1501.42
1028.187	1455.77
1028.477	1481.3
1028.766	1444.24
1029.055	1418.48
1029.344	1443.11
1029.634	1457.12
1029.923	1422.77
1030.212	1435.2
1030.501	1410.57
1030.79	1413.28
1031.078	1393.17
1031.367	1357.46
1031.656	1331.7
1031.945	1334.64
1032.233	1322.44
1032.522	1315.21
1032.81	1328.54
1033.099	1328.99
1033.387	1306.84
1033.675	1293.96
1033.963	1273.62
1034.251	1281.53
1034.54	1257.13
1034.828	1283.79
1035.116	1266.85
1035.403	1243.34
1035.691	1247.41
1035.979	1204.93
1036.267	1220.29
1036.554	1196.79
1036.842	1189.33
1037.129	1189.33
1037.417	1161.76
1037.704	1183.23
1037.992	1168.32
1038.279	1163.8
1038.566	1130.8
1038.853	1130.8
1039.14	1130.8
