Data from plate_ceramic_FLMS001491_077.txt Node
Date: Tue Feb 07 11:17:16 GMT 2017
User: dcchb
Spectrometer: FLMS00149
Trigger mode: 0
Integration Time (sec): 2.000000E-2
Scans to average: 10
Electric dark correction enabled: true
Nonlinearity correction enabled: false
Boxcar width: 0
XAxis mode: Wavelengths
Number of Pixels in Spectrum: 2048
>>>>>Begin Spectral Data<<<<<
341.393	-7.39
341.776	-7.39
342.16	-7.39
342.543	-50.1
342.927	-69.98
343.31	-71.11
343.693	-79.7
344.077	-69.76
344.46	-66.59
344.843	-29.31
345.226	-48.06
345.61	-41.28
345.993	-1.74
346.376	-0.61
346.759	-5.13
347.142	12.05
347.525	29.45
347.908	62.22
348.291	104.02
348.674	94.08
349.057	111.48
349.44	138.6
349.823	143.34
350.206	151.93
350.588	216.56
350.971	234.64
351.354	240.06
351.737	253.62
352.119	262.66
352.502	281.19
352.884	274.64
353.267	311.02
353.65	295.43
354.032	312.6
354.414	341.98
354.797	335.66
355.179	330.68
355.562	354.86
355.944	340.85
356.326	350.12
356.709	346.28
357.091	363.68
357.473	360.97
357.855	379.72
358.238	372.72
358.62	358.48
359.002	373.85
359.384	363.68
359.766	357.35
360.148	372.72
360.53	345.15
360.912	378.14
361.294	361.64
361.676	370.46
362.057	367.97
362.439	361.87
362.821	364.81
363.203	366.84
363.584	376.33
363.966	374.3
364.348	383.34
364.729	362.77
365.111	359.16
365.493	364.81
365.874	348.31
366.256	341.98
366.637	354.19
367.019	339.5
367.4	363.22
367.781	360.06
368.163	385.15
368.544	377.01
368.925	352.38
369.306	362.32
369.688	342.66
370.069	374.98
370.45	363.9
370.831	361.19
371.212	363.45
371.593	355.77
371.974	368.2
372.355	367.29
372.736	378.37
373.117	384.47
373.498	374.75
373.879	374.52
374.26	370.91
374.641	360.06
375.021	376.56
375.402	392.38
375.783	390.79
376.163	404.81
376.544	397.57
376.925	433.05
377.305	386.28
377.686	403.22
378.066	388.08
378.447	390.79
378.827	411.81
379.208	410.68
379.588	401.42
379.968	403.9
380.349	421.3
380.729	417.69
381.109	410.68
381.489	439.16
381.87	438.48
382.25	433.51
382.63	428.76
383.01	459.72
383.39	452.04
383.77	448.87
384.15	449.55
384.53	456.1
384.91	445.71
385.29	452.49
385.67	481.19
386.049	460.62
386.429	483.22
386.809	464.47
387.189	489.78
387.568	470.79
387.948	480.96
388.328	497.68
388.707	500.85
389.087	492.94
389.466	490.23
389.846	504.92
390.225	520.51
390.605	523.45
390.984	506.05
391.363	516.44
391.743	529.55
392.122	551.02
392.501	533.84
392.881	558.93
393.26	550.79
393.639	582.65
394.018	571.36
394.397	574.29
394.776	608.19
395.155	594.63
395.534	589.43
395.913	596.67
396.292	590.34
396.671	600.28
397.05	619.26
397.429	614.74
397.808	606.61
398.186	619.94
398.565	604.12
398.944	612.03
399.323	633.27
399.701	632.14
400.08	648.64
400.458	663.1
400.837	670.79
401.215	646.16
401.594	642.77
401.972	694.52
402.351	673.05
402.729	680.5
403.107	727.28
403.486	704.23
403.864	722.76
404.242	718.7
404.62	736.32
404.999	734.29
405.377	749.66
405.755	724.8
406.133	737.45
406.511	743.55
406.889	781.97
407.267	767.73
407.645	790.11
408.023	780.84
408.401	812.93
408.779	812.48
409.156	823.1
409.534	842.08
409.912	857.22
410.29	863.32
410.667	871.46
411.045	879.6
411.422	876.88
411.8	901.52
412.178	914.4
412.555	918.69
412.933	959.82
413.31	963.66
413.687	969.08
414.065	976.32
414.442	980.16
414.819	971.34
415.197	990.78
415.574	1013.6
415.951	1023.09
416.328	1026.03
416.705	1050.21
417.082	1048.63
417.46	1049.53
417.837	1060.38
418.214	1098.12
418.591	1112.58
418.967	1093.6
419.344	1120.95
419.721	1136.54
420.098	1133.15
420.475	1174.05
420.852	1173.37
421.228	1190.32
421.605	1209.76
421.982	1195.52
422.358	1210.43
422.735	1227.61
423.111	1241.85
423.488	1288.85
423.864	1268.96
424.241	1273.26
424.617	1285.69
424.994	1311
425.37	1320.71
425.746	1319.13
426.123	1328.4
426.499	1346.93
426.875	1360.94
427.251	1400.71
427.627	1403.42
428.003	1448.39
428.379	1454.95
428.756	1416.08
429.132	1506.02
429.507	1511.44
429.883	1531.56
430.259	1559.58
430.635	1562.06
431.011	1543.53
431.387	1613.59
431.763	1629.86
432.138	1640.71
432.514	1694.49
432.89	1708.27
433.265	1713.25
433.641	1750.31
434.016	1767.48
434.392	1766.8
434.767	1799.12
435.143	1823.3
435.518	1828.05
435.894	1837.99
436.269	1888.83
436.644	1878.21
437.02	1926.57
437.395	1909.62
437.77	1950.98
438.145	2031.66
438.52	1963.41
438.895	2031.88
439.271	2025.78
439.646	2077.3
440.021	2104.65
440.395	2110.52
440.77	2121.37
441.145	2100.35
441.52	2171.76
441.895	2110.3
442.27	2170.64
442.645	2180.8
443.019	2270.07
443.394	2219.67
443.769	2211.99
444.143	2220.8
444.518	2245.21
444.892	2242.5
445.267	2304.42
445.641	2313.91
446.016	2319.33
446.39	2346.68
446.764	2346
447.139	2359.56
447.513	2418.76
447.887	2410.63
448.262	2399.78
448.636	2395.04
449.01	2479.55
449.384	2508.48
449.758	2515.26
450.132	2579.44
450.506	2518.87
450.88	2561.59
451.254	2553.22
451.628	2601.58
452.002	2631.19
452.376	2618.98
452.75	2673.45
453.123	2723.61
453.497	2728.81
453.871	2775.36
454.244	2827.34
454.618	2876.83
454.992	2917.73
455.365	2895.59
455.739	2979.43
456.112	3004.06
456.486	3013.55
456.859	3054
457.232	3120.44
457.606	3101.91
457.979	3186.2
458.352	3210.16
458.725	3255.35
459.099	3283.6
459.472	3355.24
459.845	3389.59
460.218	3423.03
460.591	3459.87
460.964	3470.04
461.337	3566.08
461.71	3621.9
462.083	3684.95
462.456	3681.78
462.829	3708
463.201	3787.32
463.574	3781.89
463.947	3815.34
464.32	3926.07
464.692	3947.31
465.065	3962.23
465.438	4023.92
465.81	4116.57
466.183	4113.41
466.555	4224.14
466.928	4262.11
467.3	4307.75
467.672	4363.12
468.045	4485.6
468.417	4470.01
468.789	4527.86
469.161	4553.4
469.534	4646.28
469.906	4781.41
470.278	4765.6
470.65	4838.14
471.022	4917.46
471.394	4988.87
471.766	4998.36
472.138	5127.62
472.51	5208.3
472.882	5303.66
473.253	5347.05
473.625	5450.77
473.997	5581.84
474.369	5587.27
474.74	5663.88
475.112	5742.97
475.484	5859.13
475.855	5990.42
476.227	6027.93
476.598	6207.14
476.97	6257.53
477.341	6350.41
477.713	6443.52
478.084	6494.14
478.455	6693.23
478.827	6770.06
479.198	6975.93
479.569	6993.11
479.94	7137.06
480.311	7266.55
480.682	7432.64
481.053	7499.53
481.424	7704.73
481.795	7797.38
482.166	7821.33
482.537	8016.13
482.908	8136.81
483.279	8293.64
483.65	8408.44
484.021	8605.49
484.391	8669.67
484.762	8847.97
485.133	8871.02
485.503	8958.48
485.874	9160.73
486.244	9179.49
486.615	9374.74
486.985	9572.7
487.356	9656.54
487.726	9767.5
488.097	10045.23
488.467	10043.42
488.837	10233.47
489.207	10356.18
489.578	10562.05
489.948	10664.87
490.318	10762.05
490.688	10880.01
491.058	10983.51
491.428	11082.04
491.798	11297.17
492.168	11497.85
492.538	11503.27
492.908	11739.42
493.278	11951.39
493.648	11839.53
494.017	12047.44
494.387	12057.15
494.757	12179.41
495.126	12392.97
495.496	12416.92
495.866	12536.46
496.235	12725.16
496.605	12832.95
496.974	12886.29
497.344	13047.19
497.713	13096.68
498.082	13313.62
498.452	13305.71
498.821	13374.18
499.19	13459.83
499.559	13598.58
499.928	13751.8
500.298	13802.87
500.667	13953.83
501.036	13844.68
501.405	14082.86
501.774	14159.02
502.143	14338.22
502.512	14333.03
502.88	14498.9
503.249	14597.2
503.618	14700.02
503.987	14704.99
504.356	14892.56
504.724	14881.94
505.093	15015.04
505.462	15076.28
505.83	15262.95
506.199	15370.97
506.567	15524.86
506.936	15508.14
507.304	15710.84
507.672	15805.08
508.041	15864.06
508.409	15956.49
508.777	16180.66
509.145	16306.53
509.514	16297.5
509.882	16370.49
510.25	16426.53
510.618	16599.41
510.986	16757.37
511.354	16874.88
511.722	16965.27
512.09	17132.05
512.458	17243.91
512.826	17402.1
513.193	17434.41
513.561	17519.61
513.929	17671.7
514.297	17909.2
514.664	18019.03
515.032	18075.53
515.4	18138.12
515.767	18351.45
516.135	18462.41
516.502	18379.25
516.869	18799.8
517.237	18862.63
517.604	18815.85
517.972	19141.94
518.339	19248.38
518.706	19227.81
519.073	19370.18
519.44	19569.05
519.808	19743.28
520.175	19741.25
520.542	20013.1
520.909	20150.5
521.276	20333.32
521.643	20507.78
522.009	20554.56
522.376	20737.6
522.743	20811.95
523.11	21059.86
523.477	21162.45
523.843	21242.45
524.21	21635.43
524.577	21675.43
524.943	21919.27
525.31	21928.08
525.676	22237
526.043	22382.53
526.409	22432.02
526.776	22691.9
527.142	22857.1
527.508	23028.62
527.874	23139.35
528.241	23325.33
528.607	23384.31
528.973	23596.51
529.339	23607.81
529.705	23926.67
530.071	24030.4
530.437	24096.61
530.803	24308.81
531.169	24490.5
531.535	24448.92
531.901	24634.45
532.267	24813.43
532.632	24975.01
532.998	25056.59
533.364	25174.1
533.73	25293.87
534.095	25536.8
534.461	25613.18
534.826	25630.13
535.192	25781.31
535.557	26002.32
535.923	26014.08
536.288	26127.52
536.653	26272.6
537.019	26232.15
537.384	26416.78
537.749	26517.57
538.114	26719.59
538.479	26724.34
538.845	26755.98
539.21	26771.57
539.575	27026.25
539.94	26973.82
540.305	27164.1
540.67	27168.4
541.034	27354.61
541.399	27587.37
541.764	27528.39
542.129	27654.03
542.494	27717.31
542.858	27885.67
543.223	27935.83
543.587	28217.86
543.952	28091.08
544.316	28192.1
544.681	28168.6
545.045	28359.1
545.41	28652.2
545.774	28598.41
546.138	28638.87
546.503	28801.12
546.867	28726.09
547.231	29005.18
547.595	29097.84
547.959	29048.57
548.324	29184.84
548.688	29422.12
549.052	29622.34
549.416	29712.28
549.779	29703.7
550.143	29893.07
550.507	30027.3
550.871	30101.43
551.235	30044.93
551.599	30302.1
551.962	30229.33
552.326	30423
552.689	30571.7
553.053	30699.6
553.417	30626.38
553.78	31076.54
554.143	31054.85
554.507	31151.79
554.87	31181.62
555.234	31569.86
555.597	31461.39
555.96	31558.56
556.323	31832
556.686	31786.35
557.05	32020.47
557.413	32154.48
557.776	32240.8
558.139	32556.28
558.502	32708.14
558.865	32648.93
559.228	32945.42
559.59	33052.53
559.953	33013.21
560.316	33394.9
560.679	33509.7
561.041	33716.25
561.404	33813.64
561.767	33915.34
562.129	33943.81
562.492	34289.34
562.854	34325.5
563.217	34376.12
563.579	34626.28
563.941	34816.1
564.304	35087.74
564.666	35180.39
565.028	35226.49
565.39	35467.61
565.753	35519.14
566.115	35714.39
566.477	35725.91
566.839	35901.73
567.201	36219.91
567.563	36197.76
567.925	36490.18
568.287	36555.04
568.648	36501.26
569.01	36686.56
569.372	36955.03
569.734	36967.69
570.095	37263.27
570.457	37365.42
570.819	37374.46
571.18	37426.88
571.542	37791.62
571.903	37660.1
572.265	37980.99
572.626	37968.56
572.987	38175.56
573.349	38178.05
573.71	38404.94
574.071	38478.61
574.432	38537.81
574.794	38815.32
575.155	38909.33
575.516	38715.66
575.877	38864.36
576.238	39005.6
576.599	39077.91
576.96	39164.24
577.32	39224.12
577.681	39437
578.042	39605.13
578.403	39463.21
578.763	39605.13
579.124	39653.04
579.485	39867.72
579.845	39916.08
580.206	39853.26
580.566	39763.09
580.927	39787.05
581.287	39880.38
581.648	39860.27
582.008	40092.12
582.368	39959.47
582.728	40017.32
583.089	40050.77
583.449	40063.2
583.809	40209.18
584.169	40189.52
584.529	40032.46
584.889	40482.62
585.249	40254.38
585.609	40121.5
585.969	40341.16
586.329	40257.77
586.688	40352.23
587.048	40313.36
587.408	40256.41
587.768	40259.58
588.127	40108.62
588.487	40192.91
588.846	40601.04
589.206	40384.32
589.565	40324.66
589.925	40522.62
590.284	40394.26
590.643	40380.48
591.003	40396.3
591.362	40563.52
591.721	40575.27
592.08	40584.09
592.44	40703.41
592.799	40693.46
593.158	40573.47
593.517	40585.44
593.876	40740.92
594.235	40669.74
594.593	40559.91
594.952	40735.72
595.311	40614.82
595.67	40801.94
596.029	41102.04
596.387	40944.53
596.746	41048.03
597.104	40812.78
597.463	40838.77
597.822	41082.38
598.18	40827.25
598.538	40907.47
598.897	41264.52
599.255	40946.79
599.613	41502.03
599.972	41117.63
600.33	41283.05
600.688	41216.16
601.046	41270.85
601.404	41370.06
601.762	41374.12
602.12	41486.21
602.478	41534.8
602.836	41473.78
603.194	41306.1
603.552	41569.6
603.91	41280.79
604.268	41579.54
604.625	41372.09
604.983	41512.43
605.341	41492.54
605.698	41651.63
606.056	41708.58
606.413	41794
606.771	41916.03
607.128	41963.71
607.485	41687.11
607.843	41918.74
608.2	42044.39
608.557	42147.66
608.914	41962.13
609.272	42084.39
609.629	42323.48
609.986	42464.49
610.343	42162.58
610.7	42455
611.057	42521.44
611.414	42392.4
611.771	42507.65
612.127	42462.91
612.484	42523.02
612.841	42741.55
613.198	42532.29
613.554	42638.95
613.911	42926.63
614.267	42736.8
614.624	42714.2
614.98	42885.72
615.337	42936.34
615.693	43096.56
616.05	42964.82
616.406	43075.32
616.762	43021.54
617.118	43085.04
617.475	43061.31
617.831	43109.9
618.187	43285.94
618.543	43169.78
618.899	43287.29
619.255	43076.9
619.611	43166.85
619.967	43371.13
620.323	43505.59
620.678	43291.14
621.034	43241.87
621.39	43176.79
621.746	43345.82
622.101	43643.22
622.457	43282.55
622.812	43447.52
623.168	43475.54
623.523	43570.22
623.879	43533.16
624.234	43309.21
624.589	43459.49
624.945	43652.93
625.3	43551.24
625.655	43442.09
626.01	43487.74
626.365	43593.27
626.72	43398.7
627.075	43532.49
627.43	43437.57
627.785	43450.23
628.14	43487.74
628.495	43428.31
628.85	43450.91
629.205	43288.88
629.559	43463.56
629.914	43250.23
630.269	43268.76
630.623	43213.17
630.978	43217.69
631.332	43299.72
631.687	43412.71
632.041	43076.68
632.396	43203.68
632.75	42975.89
633.104	43092.72
633.459	42777.25
633.813	42825.16
634.167	42706.07
634.521	42733.64
634.875	42955.55
635.229	42878.94
635.583	42579.52
635.937	42554.21
636.291	42547.2
636.645	42579.29
636.999	42456.58
637.352	42634.2
637.706	42386.98
638.06	42456.81
638.413	42389.24
638.767	42244.61
639.121	42307.66
639.474	42034.67
639.828	41998.29
640.181	42049.13
640.534	42064.95
640.888	42092.07
641.241	41833.55
641.594	41895.01
641.947	42134.1
642.301	41997.61
642.654	41810.04
643.007	41857.95
643.36	41765.07
643.713	41716.26
644.066	41823.38
644.419	41448.92
644.771	41236.73
645.124	40808.49
645.477	40817.53
645.83	40551.77
646.182	40414.6
646.535	40239.24
646.888	40568.27
647.24	40275.62
647.593	40415.05
647.945	40270.42
648.298	40119.47
648.65	40068.17
649.002	39794.96
649.355	40067.49
649.707	39948.62
650.059	39927.38
650.411	40589.06
650.763	40574.15
651.115	41038.54
651.467	40883.06
651.819	40812.56
652.171	40871.76
652.523	40579.57
652.875	40593.81
653.227	40517.65
653.578	40756.97
653.93	40689.17
654.282	40453.7
654.633	40391.78
654.985	40402.62
655.337	40544.77
655.688	40402.4
656.039	40634.48
656.391	40174.38
656.742	40260.93
657.094	40197.66
657.445	40441.49
657.796	40285.79
658.147	40249.63
658.498	40044.89
658.849	40151.33
659.2	40076.3
659.551	40063.2
659.902	40042.18
660.253	40050.99
660.604	40062.07
660.955	39844.9
661.306	40115.17
661.656	40022.3
662.007	40024.33
662.358	40082.41
662.708	40038.57
663.059	39821.85
663.409	39773.04
663.76	39964.9
664.11	39824.11
664.461	39883.99
664.811	39797.89
665.161	39805.35
665.511	39895.29
665.862	39909.76
666.212	39844.45
666.562	39871.11
666.912	39919.02
667.262	39676.32
667.612	39592.25
667.962	39667.95
668.312	39508.64
668.662	39768.06
669.011	39469.99
669.361	39511.12
669.711	39553.15
670.06	39486.94
670.41	39456.43
670.76	39364.23
671.109	39597.67
671.459	39262.09
671.808	39288.3
672.157	39396.1
672.507	39084.24
672.856	39194.07
673.205	39193.84
673.554	39232.03
673.904	39149.32
674.253	39409.2
674.602	39189.1
674.951	38816.45
675.3	38641.09
675.649	39025.94
675.998	39145.93
676.346	39155.88
676.695	39300.51
677.044	38798.6
677.393	39019.61
677.741	39063
678.09	38772.16
678.438	38735.1
678.787	38863.91
679.135	38899.61
679.484	38616.23
679.832	38804.25
680.181	38533.29
680.529	38554.99
680.877	38445.61
681.225	38401.55
681.573	38623.01
681.922	38354.77
682.27	38211.72
682.618	38267.54
682.966	38274.77
683.314	38211.72
683.661	38235.68
684.009	38049.47
684.357	37868.45
684.705	37774.44
685.053	37954.78
685.4	37737.38
685.748	37510.95
686.095	37767.21
686.443	37651.96
686.79	37486.32
687.138	37531.06
687.485	37452.87
687.832	37331.07
688.18	37322.03
688.527	37245.19
688.874	37232.99
689.221	36961.81
689.568	36967.91
689.915	36866.22
690.262	36889.5
690.609	36791.65
690.956	36622.61
691.303	36574.93
691.65	36461.03
691.997	36450.19
692.344	36353.92
692.69	36421.26
693.037	36383.07
693.383	35985.34
693.73	36156.18
694.077	35792.35
694.423	35910.99
694.769	35837.32
695.116	35758.68
695.462	35649.3
695.808	35408.41
696.155	35521.85
696.501	35207.51
696.847	35238.24
697.193	34995.76
697.539	35122.76
697.885	34839.15
698.231	34738.37
698.577	34770.91
698.923	34810.68
699.269	34528.88
699.614	34420.41
699.96	34326.63
700.306	34388.54
700.651	34267.19
700.997	34070.59
701.342	34126.18
701.688	33974.09
702.033	33761.89
702.379	33964.83
702.724	33670.15
703.069	33809.13
703.415	33409.59
703.76	33517.61
704.105	33297.73
704.45	33373.2
704.795	33099.54
705.14	32945.19
705.485	32921.01
705.83	32851.18
706.175	32909.49
706.52	32835.59
706.865	32674.47
707.209	32736.84
707.554	32493
707.899	32726.44
708.243	32527.35
708.588	32405.09
708.932	32215.72
709.277	32217.98
709.621	32146.8
709.966	32008.95
710.31	32134.37
710.654	31788.61
710.998	31888.05
711.342	31747.94
711.687	31653.93
712.031	31554.5
712.375	31458
712.719	31569.64
713.063	31455.97
713.407	31444.67
713.75	31298
714.094	31303.43
714.438	31256.88
714.782	31264.56
715.125	31094.62
715.469	31225.69
715.812	30932.59
716.156	30836.77
716.499	30865.93
716.843	30902.31
717.186	30618.02
717.53	30877.45
717.873	30799.49
718.216	30696.21
718.559	30453.06
718.902	30483.11
719.246	30522.88
719.589	30318.14
719.932	30236.56
720.275	30024.14
720.617	30051.48
720.96	30053.07
721.303	29963.8
721.646	30052.61
721.989	29788.21
722.331	29872.51
722.674	29852.62
723.016	29737.37
723.359	29738.95
723.701	29743.02
724.044	29466.19
724.386	29457.15
724.729	29565.17
725.071	29437.49
725.413	29331.28
725.755	29370.37
726.097	29296.25
726.439	29078.85
726.782	29221
727.124	29214.67
727.465	29097.61
727.807	29025.75
728.149	28946.43
728.491	28964.05
728.833	28979.65
729.175	28916.37
729.516	28739.88
729.858	28794.57
730.199	28799.77
730.541	28695.36
730.882	28669.15
731.224	28701.69
731.565	28488.14
731.906	28516.38
732.248	28493.33
732.589	28340.12
732.93	28324.75
733.271	28356.61
733.612	28381.7
733.953	28162.95
734.294	28193.68
734.635	28169.73
734.976	28240.68
735.317	28044.76
735.658	28143.96
735.999	27962.73
736.339	27971.54
736.68	28083.4
737.021	27954.82
737.361	27858.77
737.702	27983.29
738.042	27771.09
738.383	27641.83
738.723	27803.86
739.063	27560.93
739.404	27761.37
739.744	27496.07
740.084	27439.8
740.424	27502.4
740.764	27447.48
741.104	27514.15
741.444	27312.12
741.784	27323.19
742.124	27372.23
742.464	27178.79
742.804	27087.27
743.143	27016.99
743.483	27125.46
743.823	26980.83
744.162	27048.17
744.502	27053.82
744.841	26869.42
745.181	27025.8
745.52	26750.1
745.86	26852.02
746.199	26753.04
746.538	26685.24
746.877	26767.73
747.216	26731.35
747.556	26497.68
747.895	26560.5
748.234	26465.36
748.573	26345.14
748.911	26357.57
749.25	26518.02
749.589	26295.2
749.928	26257.23
750.267	26175.88
750.605	26007.3
750.944	26071.02
751.283	26045.94
751.621	25981.99
751.96	25835.32
752.298	25916.68
752.636	25798.71
752.975	25818.37
753.313	25520.3
753.651	25791.93
753.989	25521.66
754.327	25539.74
754.666	25461.77
755.004	25402.57
755.342	25433.07
755.679	25451.6
756.017	25237.37
756.355	25273.3
756.693	25143.82
757.031	25261.78
757.368	24988.57
757.706	24904.05
758.044	24913.09
758.381	24890.04
758.719	24824.73
759.056	24616.6
759.394	24685.52
759.731	24638.74
760.068	24517.39
760.405	24539.99
760.743	24365.31
761.08	24473.33
761.417	24301.35
761.754	24073.79
762.091	24061.36
762.428	24030.63
762.765	23902.49
763.102	23782.5
763.438	23794.7
763.775	23635.16
764.112	23803.51
764.449	23690.07
764.785	23577.98
765.122	23442.17
765.458	23295.73
765.795	23369.17
766.131	23334.6
766.467	23300.93
766.804	23222.51
767.14	22994.72
767.476	23009.18
767.812	22815.97
768.148	23041.5
768.485	22749.75
768.821	22619.81
769.157	22526.26
769.492	22607.39
769.828	22535.3
770.164	22190.9
770.5	22273.16
770.836	22214.85
771.171	22074.97
771.507	22135.99
771.842	21887.86
772.178	21845.82
772.513	21879.72
772.849	21783
773.184	21670.69
773.519	21683.34
773.855	21480.18
774.19	21426.85
774.525	21341.66
774.86	21309.79
775.195	21185.95
775.53	21184.15
775.865	21008.56
776.2	20907.77
776.535	20745.97
776.87	20754.55
777.205	20637.04
777.539	20606.31
777.874	20680.66
778.209	20384.85
778.543	20387.33
778.878	20252.19
779.212	20221.91
779.547	20130.84
779.881	20164.74
780.215	20034.57
780.55	19922.26
780.884	19896.5
781.218	19876.84
781.552	19842.26
781.886	19685.65
782.22	19656.28
782.554	19579.89
782.888	19391.2
783.222	19364.99
783.556	19317.98
783.889	19181.49
784.223	19119.79
784.557	19116.63
784.89	19081.38
785.224	18926.58
785.557	18856.75
785.891	18823.08
786.224	18748.73
786.558	18772.46
786.891	18560.49
787.224	18569.07
787.557	18586.7
787.891	18455.63
788.224	18361.62
788.557	18415.18
788.89	18293.15
789.223	18207.95
789.556	18162.53
789.888	18034.85
790.221	18028.07
790.554	17835.08
790.887	17859.94
791.219	17799.15
791.552	17649.78
791.884	17607.74
792.217	17661.98
792.549	17534.07
792.882	17415.43
793.214	17227.19
793.546	17301.76
793.879	17204.59
794.211	17122.56
794.543	17083.92
794.875	17110.36
795.207	17130.24
795.539	17067.42
795.871	17048.66
796.203	16871.04
796.535	16814.77
796.867	16803.02
797.198	16697.03
797.53	16630.82
797.862	16646.41
798.193	16522.8
798.525	16454.33
798.856	16477.15
799.188	16332.52
799.519	16321
799.85	16220.89
800.182	16181.79
800.513	16178.4
800.844	16067.67
801.175	16145.18
801.506	16132.98
801.837	16026.54
802.168	15968.01
802.499	15953.78
802.83	15870.84
803.161	15739.32
803.491	15728.47
803.822	15773.44
804.153	15731.18
804.483	15470.17
804.814	15500.45
805.145	15408.48
805.475	15409.38
805.805	15398.54
806.136	15375.94
806.466	15334.58
806.796	15310.63
807.126	15250.97
807.457	15146.34
807.787	15131.42
808.117	15025.44
808.447	15061.14
808.777	15025.21
809.107	14980.69
809.436	14894.37
809.766	14867.02
810.096	14877.87
810.426	14760.59
810.755	14790.64
811.085	14735.95
811.414	14693.7
811.744	14506.36
812.073	14570.76
812.403	14498.45
812.732	14383.42
813.061	14411.44
813.39	14323.54
813.719	14337.32
814.049	14459.8
814.378	14337.77
814.707	14232.01
815.036	14227.95
815.365	14215.97
815.693	14099.59
816.022	14184.33
816.351	14135.52
816.68	14034.28
817.008	14046.93
817.337	13860.95
817.665	13905.02
817.994	13900.95
818.322	13824.11
818.651	13847.62
818.979	13737.34
819.307	13823.89
819.636	13799.71
819.964	13663.67
820.292	13662.08
820.62	13729.65
820.948	13667.28
821.276	13694.85
821.604	13639.03
821.932	13609.88
822.259	13652.37
822.587	13629.54
822.915	13595.42
823.243	13615.53
823.57	13577.79
823.898	13548.19
824.225	13486.95
824.553	13560.39
824.88	13589.09
825.207	13564.23
825.535	13500.28
825.862	13520.39
826.189	13460.73
826.516	13555.87
826.843	13535.76
827.17	13502.31
827.497	13579.15
827.824	13547.51
828.151	13604.91
828.478	13487.63
828.805	13556.32
829.131	13472.94
829.458	13425.03
829.785	13359.95
830.111	13446.27
830.438	13549.54
830.764	13454.18
831.09	13479.49
831.417	13405.82
831.743	13431.58
832.069	13472.26
832.395	13409.66
832.722	13407.4
833.048	13382.09
833.374	13377.12
833.7	13315.2
834.026	13340.96
834.351	13386.16
834.677	13314.52
835.003	13358.59
835.329	13325.14
835.654	13278.37
835.98	13143.68
836.306	13211.25
836.631	13198.37
836.956	13230.91
837.282	13185.03
837.607	13079.95
837.932	13089.44
838.258	13073.17
838.583	13016.9
838.908	13028.65
839.233	12966.74
839.558	13009.9
839.883	12951.14
840.208	12902.78
840.533	13010.58
840.858	12939.62
841.182	12946.85
841.507	12911.6
841.832	12798.38
842.156	12736.68
842.481	12761.54
842.805	12730.36
843.13	12664.6
843.454	12683.8
843.778	12581.66
844.103	12596.58
844.427	12649.46
844.751	12679.74
845.075	12565.39
845.399	12528.1
845.723	12350.93
846.047	12366.3
846.371	12283.59
846.695	12338.73
847.019	12218.96
847.343	12200.43
847.666	12167.89
847.99	12026.87
848.313	12118.62
848.637	11987.78
848.96	12035.91
849.284	11901.9
849.607	11845.41
849.931	11894.9
850.254	11739.42
850.577	11710.72
850.9	11664.62
851.223	11618.3
851.546	11520.9
851.869	11468.47
852.192	11515.02
852.515	11527
852.838	11454.23
853.161	11401.8
853.483	11307.12
853.806	11316.61
854.129	11182.83
854.451	11228.48
854.774	11113.68
855.096	11073
855.419	11127.24
855.741	11026.22
856.063	11010.63
856.385	10949.84
856.708	10933.34
857.03	10846.57
857.352	10950.74
857.674	10837.07
857.996	10806.11
858.318	10664.87
858.64	10784.65
858.961	10678.43
859.283	10600.02
859.605	10589.17
859.926	10705.33
860.248	10557.99
860.57	10487.48
860.891	10608.61
861.212	10532.68
861.534	10412.68
861.855	10431.66
862.176	10423.53
862.498	10419.01
862.819	10473.02
863.14	10378.78
863.461	10462.62
863.782	10349.63
864.103	10323.64
864.424	10346.24
864.745	10259.01
865.065	10246.58
865.386	10186.92
865.707	10248.16
866.027	10213.14
866.348	10166.13
866.668	10193.7
866.989	10152.12
867.309	10059.24
867.63	10050.65
867.95	10096.75
868.27	9977.44
868.59	10038.22
868.91	10125.91
869.23	9946.48
869.55	9995.97
869.87	9976.76
870.19	9973.82
870.51	10004.78
870.83	9979.7
871.15	9816.54
871.469	9900.83
871.789	9891.34
872.109	9835.29
872.428	9799.13
872.748	9920.49
873.067	9804.33
873.386	9830.55
873.706	9787.84
874.025	9737.89
874.344	9755.29
874.663	9783.77
874.982	9715.97
875.301	9722.53
875.62	9654.05
875.939	9672.13
876.258	9653.6
876.577	9627.84
876.896	9656.54
877.214	9583.1
877.533	9535.19
877.852	9524.34
878.17	9549.88
878.489	9583.32
878.807	9523.89
879.125	9498.13
879.444	9474.85
879.762	9514.85
880.08	9415.87
880.398	9392.82
880.716	9456.55
881.034	9312.59
881.352	9287.06
881.67	9309.88
881.988	9358.02
882.306	9297
882.624	9299.49
882.941	9227.62
883.259	9195.31
883.577	9140.4
883.894	9173.16
884.212	9170.68
884.529	9122.32
884.846	9146.5
885.164	9067.4
885.481	9082.32
885.798	9128.19
886.115	9049.32
886.432	9050
886.75	8977.69
887.067	9017.91
887.383	8942.21
887.7	8962.32
888.017	8867.18
888.334	8858.37
888.651	8862.21
888.967	8898.82
889.284	8746.28
889.6	8749.9
889.917	8699.05
890.233	8728.65
890.55	8754.42
890.866	8767.75
891.182	8668.32
891.498	8676.23
891.815	8588.55
892.131	8608.21
892.447	8541.77
892.763	8530.47
893.079	8480.53
893.395	8497.02
893.71	8452.96
894.026	8492.05
894.342	8451.83
894.657	8374.77
894.973	8328.89
895.289	8258.38
895.604	8356.01
895.92	8303.81
896.235	8243.7
896.55	8228.55
896.865	8177.71
897.181	8076.02
897.496	8141.55
897.811	8109.01
898.126	8044.15
898.441	8097.71
898.756	8027.88
899.071	7991.05
899.386	8045.06
899.7	7916.7
900.015	7893.2
900.33	7868.11
900.644	7848.9
900.959	7827.66
901.273	7879.41
901.588	7865.85
901.902	7823.37
902.216	7749.25
902.531	7693.43
902.845	7686.65
903.159	7586.76
903.473	7569.82
903.787	7536.82
904.101	7528.23
904.415	7530.27
904.729	7444.62
905.042	7417.73
905.356	7421.12
905.67	7468.8
905.984	7397.39
906.297	7339.09
906.611	7290.95
906.924	7309.26
907.237	7226.55
907.551	7197.85
907.864	7208.24
908.177	7239.88
908.491	7222.03
908.804	7112.2
909.117	7124.63
909.43	7045.76
909.743	7009.6
910.056	6990.17
910.368	7003.73
910.681	6983.39
910.994	6929.61
911.307	6887.12
911.619	6839.44
911.932	6869.49
912.244	6801.7
912.557	6768.71
912.869	6765.77
913.181	6710.85
913.494	6756.5
913.806	6660.46
914.118	6639.22
914.43	6641.48
914.742	6615.94
915.054	6534.59
915.366	6512.44
915.678	6508.83
915.99	6466.57
916.302	6442.61
916.613	6406
916.925	6390.41
917.236	6376.17
917.548	6363.52
917.859	6338.66
918.171	6263.18
918.482	6279.68
918.794	6201.72
919.105	6178.67
919.416	6144.99
919.727	6176.18
920.038	6163.3
920.349	6076.97
920.66	6096.41
920.971	6078.1
921.282	6069.06
921.593	6027.93
921.903	6000.36
922.214	5944.77
922.525	5944.55
922.835	5919.91
923.146	5873.36
923.456	5867.94
923.767	5824.55
924.077	5847.83
924.387	5796.3
924.697	5769.86
925.008	5760.6
925.318	5720.6
925.628	5681.5
925.938	5710.88
926.248	5620.49
926.558	5576.87
926.867	5560.38
927.177	5561.51
927.487	5552.47
927.796	5525.8
928.106	5484.22
928.416	5486.48
928.725	5453.26
929.034	5406.71
929.344	5400.61
929.653	5353.83
929.962	5331.68
930.271	5327.39
930.581	5334.85
930.89	5279.93
931.199	5231.57
931.508	5241.74
931.817	5192.93
932.125	5174.62
932.434	5171.46
932.743	5151.8
933.051	5135.75
933.36	5102.31
933.669	5049.66
933.977	5113.61
934.286	5065.47
934.594	5018.7
934.902	5027.51
935.21	4937.57
935.519	4935.08
935.827	4945.03
936.135	4938.02
936.443	4842.2
936.751	4891.47
937.059	4828.19
937.367	4840.85
937.674	4794.52
937.982	4789.78
938.29	4738.25
938.597	4747.06
938.905	4764.01
939.213	4719.95
939.52	4709.78
939.827	4637.01
940.135	4649.67
940.442	4611.25
940.749	4619.38
941.056	4597.92
941.363	4618.25
941.67	4502.55
941.977	4499.16
942.284	4507.3
942.591	4468.65
942.898	4405.6
943.205	4459.61
943.511	4397.24
943.818	4377.58
944.125	4401.08
944.431	4375.55
944.738	4335.55
945.044	4311.14
945.35	4241.09
945.657	4275.44
945.963	4280.18
946.269	4287.87
946.575	4284.03
946.881	4212.39
947.187	4248.32
947.493	4197.25
947.799	4170.36
948.105	4119.74
948.41	4138.27
948.716	4111.6
949.022	4072.73
949.327	4097.82
949.633	4052.62
949.938	4018.04
950.244	4015.11
950.549	4000.19
950.854	3973.75
951.16	3976.24
951.465	3961.32
951.77	3963.13
952.075	3886.07
952.38	3893.98
952.685	3927.65
952.99	3859.86
953.294	3851.04
953.599	3838.84
953.904	3823.7
954.209	3786.86
954.513	3805.39
954.818	3768.11
955.122	3743.25
955.426	3774.66
955.731	3700.09
956.035	3719.29
956.339	3693.53
956.643	3654.89
956.948	3658.51
957.252	3643.59
957.556	3650.82
957.86	3598.85
958.163	3583.03
958.467	3574.67
958.771	3581.45
959.075	3574.89
959.378	3499.64
959.682	3564.5
959.985	3456.48
960.289	3533.99
960.592	3481.34
960.896	3438.4
961.199	3419.42
961.502	3433.88
961.805	3420.55
962.108	3399.53
962.411	3397.5
962.714	3379.64
963.017	3353.65
963.32	3322.7
963.623	3327.44
963.926	3313.88
964.228	3292.87
964.531	3281.57
964.833	3230.49
965.136	3238.4
965.438	3271.4
965.741	3227.78
966.043	3205.18
966.345	3193.66
966.648	3197.05
966.95	3177.16
967.252	3147.78
967.554	3128.35
967.856	3148.46
968.158	3115.24
968.46	3101.46
968.761	3119.31
969.063	3083.83
969.365	3054.45
969.666	3054.45
969.968	3000.22
970.269	3032.31
970.571	2976.49
970.872	3015.36
971.174	2962.25
971.475	2952.76
971.776	2941.46
972.077	2987.11
972.378	2919.54
972.679	2903.95
972.98	2933.55
973.281	2877.96
973.582	2904.18
973.883	2898.07
974.183	2842.26
974.484	2844.74
974.785	2865.31
975.085	2830.28
975.386	2807.23
975.686	2823.95
975.986	2788.02
976.287	2758.42
976.587	2730.17
976.887	2755.48
977.187	2757.96
977.487	2726.78
977.787	2702.15
978.087	2687.46
978.387	2691.53
978.687	2649.72
978.987	2682.03
979.286	2642.04
979.586	2696.95
979.885	2649.72
980.185	2657.63
980.484	2597.97
980.784	2562.04
981.083	2592.09
981.382	2564.97
981.682	2564.97
981.981	2564.3
982.28	2532.89
982.579	2533.34
982.878	2496.05
983.177	2492.66
983.475	2506.45
983.774	2490.63
984.073	2520.23
984.372	2447.24
984.67	2455.37
984.969	2455.37
985.267	2439.1
985.566	2416.05
985.864	2380.12
986.162	2413.57
986.461	2432.1
986.759	2377.86
987.057	2369.05
987.355	2340.57
987.653	2362.27
987.951	2335.15
988.249	2333.12
988.547	2331.31
988.844	2294.02
989.142	2278.2
989.44	2280.01
989.737	2285.89
990.035	2237.3
990.332	2237.53
990.63	2241.14
990.927	2236.17
991.224	2228.49
991.521	2214.25
991.819	2193.23
992.116	2162.5
992.413	2180.35
992.71	2138.32
993.006	2144.65
993.303	2146.23
993.6	2159.11
993.897	2102.16
994.193	2129.28
994.49	2091.99
994.787	2116.63
995.083	2075.5
995.379	2033.69
995.676	2024.88
995.972	2095.83
996.268	2053.58
996.565	2038.89
996.861	2034.59
997.157	2028.72
997.453	2023.07
997.749	1979.45
998.044	1970.64
998.34	1981.71
998.636	1993.92
998.932	1985.33
999.227	1928.61
999.523	1967.02
999.818	1919.12
1000.114	1924.31
1000.409	1923.86
1000.704	1862.17
1001	1881.6
1001.295	1898.55
1001.59	1872.79
1001.885	1884.99
1002.18	1857.87
1002.475	1828.05
1002.77	1829.85
1003.065	1818.55
1003.359	1819.23
1003.654	1811.77
1003.949	1820.81
1004.243	1779.23
1004.538	1770.87
1004.832	1767.71
1005.127	1779.23
1005.421	1770.42
1005.715	1736.07
1006.009	1736.07
1006.304	1745.56
1006.598	1718.44
1006.892	1712.12
1007.186	1702.85
1007.48	1681.38
1007.773	1676.64
1008.067	1669.18
1008.361	1637.99
1008.655	1676.64
1008.948	1647.71
1009.242	1633.25
1009.535	1621.04
1009.829	1641.16
1010.122	1587.6
1010.415	1580.82
1010.708	1583.31
1011.001	1579.24
1011.295	1563.42
1011.588	1567.26
1011.881	1539.69
1012.173	1579.92
1012.466	1531.33
1012.759	1535.17
1013.052	1510.31
1013.344	1520.26
1013.637	1503.31
1013.93	1475.51
1014.222	1507.38
1014.514	1517.32
1014.807	1471.9
1015.099	1443.87
1015.391	1462.18
1015.683	1424.67
1015.976	1425.34
1016.268	1388.51
1016.56	1393.25
1016.851	1414.5
1017.143	1405.91
1017.435	1385.34
1017.727	1383.54
1018.018	1373.59
1018.31	1352.35
1018.602	1354.61
1018.893	1329.75
1019.185	1330.88
1019.476	1324.1
1019.767	1336.08
1020.058	1318.45
1020.35	1317.32
1020.641	1333.82
1020.932	1289.75
1021.223	1293.82
1021.514	1273.71
1021.804	1268.96
1022.095	1263.77
1022.386	1260.83
1022.677	1248.17
1022.967	1218.12
1023.258	1216.08
1023.548	1214.05
1023.839	1222.64
1024.129	1201.85
1024.419	1224.45
1024.709	1198.91
1025	1171.79
1025.29	1167.72
1025.58	1162.98
1025.87	1157.1
1026.16	1161.85
1026.449	1128.63
1026.739	1135.63
1027.029	1126.59
1027.319	1132.24
1027.608	1140.61
1027.898	1116.2
1028.187	1086.82
1028.477	1094.28
1028.766	1086.14
1029.055	1080.95
1029.344	1073.26
1029.634	1059.25
1029.923	1064.9
1030.212	1070.1
1030.501	1047.27
1030.79	1059.7
1031.078	1037.78
1031.367	1032.36
1031.656	1028.74
1031.945	1023.32
1032.233	1010.67
1032.522	995.98
1032.81	1007.73
1033.099	984.45
1033.387	954.85
1033.675	966.6
1033.963	971.57
1034.251	967.5
1034.54	942.87
1034.828	972.7
1035.116	948.75
1035.403	939.03
1035.691	937.9
1035.979	954.17
1036.267	914.85
1036.554	920.5
1036.842	895.87
1037.129	890.89
1037.417	917.11
1037.704	930.89
1037.992	867.39
1038.279	883.44
1038.566	860.84
1038.853	860.84
1039.14	860.84
