Data from plate_porcelain_FLMS001491_016.txt Node
Date: Tue Feb 07 11:18:52 GMT 2017
User: dcchb
Spectrometer: FLMS00149
Trigger mode: 0
Integration Time (sec): 2.000000E-2
Scans to average: 10
Electric dark correction enabled: true
Nonlinearity correction enabled: false
Boxcar width: 0
XAxis mode: Wavelengths
Number of Pixels in Spectrum: 2048
>>>>>Begin Spectral Data<<<<<
341.393	3.39
341.776	3.39
342.16	3.39
342.543	-44.29
342.927	-73.44
343.31	-55.59
343.693	-64.86
344.077	-63.95
344.46	-70.51
344.843	-47
345.226	-32.09
345.61	-30.73
345.993	-35.71
346.376	7.91
346.759	-1.58
347.142	29.15
347.525	37.29
347.908	63.05
348.291	77.74
348.674	86.33
349.057	100.56
349.44	117.06
349.823	154.57
350.206	182.59
350.588	217.4
350.971	236.6
351.354	229.15
351.737	274.57
352.119	277.73
352.502	299.2
352.884	291.97
353.267	322.48
353.65	318.41
354.032	350.27
354.414	347.56
354.797	346.88
355.179	347.79
355.562	331.97
355.944	382.36
356.326	367.45
356.709	371.29
357.091	369.93
357.473	387.33
357.855	399.99
358.238	367.9
358.62	393.89
359.002	379.2
359.384	392.08
359.766	386.88
360.148	383.04
360.53	403.61
360.912	375.58
361.294	383.94
361.676	409.48
362.057	380.33
362.439	369.26
362.821	380.78
363.203	388.69
363.584	391.63
363.966	363.15
364.348	365.87
364.729	371.29
365.111	374.68
365.493	372.65
365.874	369.71
366.256	390.27
366.637	384.4
367.019	388.01
367.4	377.84
367.781	377.62
368.163	390.72
368.544	376.71
368.925	374
369.306	418.97
369.688	399.54
370.069	383.27
370.45	392.53
370.831	393.44
371.212	399.31
371.593	398.86
371.974	402.93
372.355	406.32
372.736	428.24
373.117	385.98
373.498	411.06
373.879	422.14
374.26	403.38
374.641	383.94
375.021	442.02
375.402	420.1
375.783	430.5
376.163	449.71
376.544	474.56
376.925	421.01
377.305	421.68
377.686	435.47
378.066	443.15
378.447	471.63
378.827	435.47
379.208	470.27
379.588	451.29
379.968	475.92
380.349	466.88
380.729	450.84
381.109	491.29
381.489	502.81
381.87	450.38
382.25	491.96
382.63	496.03
383.01	492.64
383.39	484.96
383.77	503.49
384.15	506.2
384.53	511.17
384.91	527.67
385.29	525.64
385.67	518.4
386.049	526.77
386.429	549.59
386.809	547.1
387.189	570.38
387.568	562.25
387.948	566.76
388.328	535.35
388.707	564.28
389.087	583.04
389.466	562.25
389.846	581
390.225	591.17
390.605	606.31
390.984	634.11
391.363	608.57
391.743	604.96
392.122	607.67
392.501	636.82
392.881	637.72
393.26	619.42
393.639	644.95
394.018	662.58
394.397	677.04
394.776	662.13
395.155	690.38
395.534	694.45
395.913	681.56
396.292	709.81
396.671	712.52
397.05	708.91
397.429	739.42
397.808	712.07
398.186	728.57
398.565	742.13
398.944	709.36
399.323	757.72
399.701	743.26
400.08	757.95
400.458	776.25
400.837	777.61
401.215	777.15
401.594	790.04
401.972	821.67
402.351	795.91
402.729	838.17
403.107	816.7
403.486	816.02
403.864	868
404.242	875.01
404.62	851.95
404.999	890.37
405.377	867.55
405.755	887.43
406.133	897.6
406.511	922.69
406.889	920.2
407.267	951.39
407.645	922.24
408.023	942.12
408.401	970.14
408.779	966.3
409.156	992.52
409.534	992.29
409.912	1043.81
410.29	1022.57
410.667	1056.92
411.045	1056.02
411.422	1082.91
411.8	1076.36
412.178	1105.06
412.555	1114.09
412.933	1129.24
413.31	1136.92
413.687	1183.47
414.065	1157.26
414.442	1203.13
414.819	1178.73
415.197	1198.84
415.574	1264.6
415.951	1274.09
416.328	1252.17
416.705	1264.83
417.082	1309.57
417.46	1325.84
417.837	1320.19
418.214	1314.09
418.591	1333.07
418.967	1344.6
419.344	1359.51
419.721	1361.55
420.098	1394.77
420.475	1422.56
420.852	1414.65
421.228	1442.67
421.605	1427.53
421.982	1463.69
422.358	1472.05
422.735	1491.71
423.111	1489.45
423.488	1535.78
423.864	1521.77
424.241	1547.08
424.617	1592.27
424.994	1584.82
425.37	1642.67
425.746	1615.78
426.123	1648.09
426.499	1657.36
426.875	1666.4
427.251	1729.67
427.627	1732.16
428.003	1764.02
428.379	1778.94
428.756	1815.77
429.132	1835.66
429.507	1839.05
429.883	1869.33
430.259	1888.99
430.635	1906.84
431.011	1931.25
431.387	1965.6
431.763	2022.09
432.138	2007.86
432.514	2016.9
432.89	2035.65
433.265	2102.77
433.641	2133.05
434.016	2131.47
434.392	2191.58
434.767	2218.47
435.143	2216.89
435.518	2254.18
435.894	2292.6
436.269	2291.01
436.644	2354.74
437.02	2366.94
437.395	2378.02
437.77	2393.16
438.145	2464.79
438.52	2482.65
438.895	2522.42
439.271	2509.31
439.646	2542.08
440.021	2541.85
440.395	2578.69
440.77	2543.89
441.145	2596.54
441.52	2650.78
441.895	2655.75
442.27	2643.55
442.645	2694.39
443.019	2712.25
443.394	2743.88
443.769	2762.19
444.143	2751.11
444.518	2793.15
444.892	2811.45
445.267	2824.56
445.641	2834.5
446.016	2865.91
446.39	2918.57
446.764	2887.38
447.139	2911.11
447.513	2969.19
447.887	2968.28
448.262	2984.78
448.636	2997.21
449.01	3043.08
449.384	3090.54
449.758	3096.19
450.132	3157.66
450.506	3177.77
450.88	3198.33
451.254	3206.24
451.628	3239.24
452.002	3297.54
452.376	3299.8
452.75	3351.78
453.123	3389.29
453.497	3414.83
453.871	3466.35
454.244	3567.14
454.618	3561.04
454.992	3604.42
455.365	3618.89
455.739	3703.86
456.112	3743.18
456.486	3763.06
456.859	3828.15
457.232	3856.85
457.606	3867.92
457.979	3916.73
458.352	4037.18
458.725	4037.86
459.099	4121.02
459.472	4126.22
459.845	4135.03
460.218	4242.83
460.591	4285.09
460.964	4286.89
461.337	4451.86
461.71	4504.06
462.083	4513.1
462.456	4542.48
462.829	4584.06
463.201	4688.01
463.574	4688.01
463.947	4748.35
464.32	4857.73
464.692	4875.8
465.065	4887.1
465.438	5029.7
465.81	5091.39
466.183	5104.5
466.555	5263.59
466.928	5263.14
467.3	5250.48
467.672	5367.99
468.045	5514.43
468.417	5484.83
468.789	5524.6
469.161	5599.4
469.534	5731.6
469.906	5828.32
470.278	5880.75
470.65	5957.58
471.022	6062.21
471.394	6196
471.766	6278.25
472.138	6262.21
472.51	6486.38
472.882	6566.83
473.253	6607.28
473.625	6714.63
473.997	6928.18
474.369	6894.73
474.74	6912.59
475.112	7147.83
475.484	7253.14
475.855	7400.03
476.227	7522.97
476.598	7660.59
476.97	7739.68
477.341	7796.86
477.713	7981.26
478.084	8021.03
478.455	8272.55
478.827	8383.96
479.198	8598.42
479.569	8606.1
479.94	8901.23
480.311	8988.92
480.682	9167.44
481.053	9355.91
481.424	9444.5
481.795	9599.75
482.166	9689.01
482.537	9854.66
482.908	10066.63
483.279	10169.68
483.65	10333.29
484.021	10611.02
484.391	10702.54
484.762	10794.52
485.133	10862.77
485.503	11074.06
485.874	11293.94
486.244	11418.68
486.615	11582.29
486.985	11743.42
487.356	11966.92
487.726	12095.95
488.097	12348.38
488.467	12445.77
488.837	12639.67
489.207	12806.89
489.578	12951.98
489.948	13087.79
490.318	13361.91
490.688	13295.7
491.058	13542.24
491.428	13733.65
491.798	13851.39
492.168	14142.23
492.538	14170.47
492.908	14383.58
493.278	14605.27
493.648	14588.54
494.017	14831.25
494.387	14993.05
494.757	15081.86
495.126	15221.97
495.496	15341.97
495.866	15413.61
496.235	15658.57
496.605	15721.39
496.974	15906.47
497.344	15951.44
497.713	16149.18
498.082	16268.72
498.452	16461.49
498.821	16573.35
499.19	16600.02
499.559	16769.95
499.928	16877.52
500.298	17034.35
500.667	17234.12
501.036	17120.68
501.405	17458.75
501.774	17463.5
502.143	17615.58
502.512	17608.12
502.88	17872.75
503.249	17939.19
503.618	18017.61
503.987	18165.85
504.356	18164.04
504.724	18432.74
505.093	18543.47
505.462	18647.65
505.83	18690.36
506.199	18943
506.567	19090.35
506.936	19190.23
507.304	19344.58
507.672	19449.21
508.041	19615.76
508.409	19718.8
508.777	19792.47
509.145	20015.74
509.514	20050.09
509.882	20219.36
510.25	20223.65
510.618	20495.05
510.986	20548.39
511.354	20832.45
511.722	20979.79
512.09	21136.85
512.458	21207.8
512.826	21333.45
513.193	21378.65
513.561	21622.93
513.929	21790.16
514.297	21986.31
514.664	22144.28
515.032	22301.33
515.4	22442.12
515.767	22534.55
516.135	22663.58
516.502	22566.19
516.869	23114.19
517.237	23200.75
517.604	23188.09
517.972	23456.78
518.339	23701.98
518.706	23710.34
519.073	23933.38
519.44	24109.65
519.808	24312.81
520.175	24262.41
520.542	24699.69
520.909	24688.39
521.276	24744.66
521.643	25199.56
522.009	25410.18
522.376	25472.1
522.743	25657.4
523.11	25894.46
523.477	26202.02
523.843	26314.56
524.21	26583.48
524.577	26769.69
524.943	26741.67
525.31	27138.5
525.676	27318.6
526.043	27526.06
526.409	27609.22
526.776	28009.88
527.142	28023.44
527.508	28140.73
527.874	28470.21
528.241	28725.57
528.607	28727.61
528.973	28963.31
529.339	29049.18
529.705	29272.9
530.071	29602.39
530.437	29709.28
530.803	29885.77
531.169	30062.71
531.535	30107.23
531.901	30330.05
532.267	30455.47
532.632	30612.98
532.998	30749.93
533.364	30916.25
533.73	31086.87
534.095	31407.76
534.461	31477.36
534.826	31492.28
535.192	31735.89
535.557	32007.29
535.923	31927.52
536.288	32157.57
536.653	32342.43
537.019	32141.08
537.384	32323.67
537.749	32609.99
538.114	32707.39
538.479	32829.65
538.845	32962.3
539.21	32889.76
539.575	33050.2
539.94	33253.36
540.305	33467.14
540.67	33400.7
541.034	33593.69
541.399	33851.54
541.764	33832.1
542.129	34051.31
542.494	33901.26
542.858	34253.11
543.223	34383.73
543.587	34546.21
543.952	34492.2
544.316	34631.86
544.681	34646.55
545.045	34871.17
545.41	35103.48
545.774	35036.37
546.138	35271.39
546.503	35413.08
546.867	35405.4
547.231	35734.88
547.595	35893.29
547.959	35982.78
548.324	35938.26
548.688	36115.89
549.052	36278.37
549.416	36281.31
549.779	36343.68
550.143	36624.8
550.507	36732.14
550.871	37079.48
551.235	36894.17
551.599	37160.6
551.962	37130.32
552.326	37419.58
552.689	37478.34
553.053	37613.7
553.417	37728.05
553.78	38113.57
554.143	37958.1
554.507	38290.07
554.87	38316.05
555.234	38823.61
555.597	38565.54
555.96	38754.91
556.323	38882.14
556.686	39147.67
557.05	39250.04
557.413	39366.2
557.776	39643.25
558.139	39847.31
558.502	39914.2
558.865	40012.96
559.228	40332.05
559.59	40259.28
559.953	40466.96
560.316	40893.16
560.679	40927.29
561.041	41194.62
561.404	41298.12
561.767	41617.21
562.129	41456.99
562.492	42033.92
562.854	41841.16
563.217	42094.71
563.579	42306.91
563.941	42402.95
564.304	42584.42
564.666	42967.91
565.028	42909.83
565.39	43156.38
565.753	43196.38
566.115	43336.49
566.477	43569.7
566.839	43819.41
567.201	43785.29
567.563	43978.28
567.925	44404.93
568.287	44490.36
568.648	44515.44
569.01	44755.43
569.372	44905.94
569.734	44992.49
570.095	45222.99
570.457	45405.81
570.819	45333.72
571.18	45624.11
571.542	45777.78
571.903	45770.55
572.265	45938.91
572.626	46013.48
572.987	46200.59
573.349	46221.38
573.71	46497.53
574.071	46565.56
574.432	46641.26
574.794	46941.82
575.155	46843.97
575.516	46709.28
575.877	46945.43
576.238	47152.21
576.599	47160.57
576.96	47245.09
577.32	47292.99
577.681	47421.8
578.042	47464.74
578.403	47600.56
578.763	47599.65
579.124	47677.62
579.485	47734.34
579.845	47957.84
580.206	47816.82
580.566	47782.02
580.927	47869.7
581.287	48011.84
581.648	47850.04
582.008	48135.91
582.368	47941.79
582.728	48097.27
583.089	48025.86
583.449	48031.96
583.809	48173.65
584.169	48243.7
584.529	48133.65
584.889	48331.38
585.249	48144.04
585.609	48050.71
585.969	48352.63
586.329	48215.46
586.688	48305.4
587.048	48107.66
587.408	48113.54
587.768	48248.9
588.127	48189.02
588.487	48153.08
588.846	48465.17
589.206	48285.96
589.565	48272.86
589.925	48466.52
590.284	48298.39
590.643	48309.24
591.003	48450.03
591.362	48587.87
591.721	48579.97
592.08	48396.02
592.44	48652.73
592.799	48626.52
593.158	48532.28
593.517	48533.64
593.876	48601.66
594.235	48473.3
594.593	48655.22
594.952	48625.61
595.311	48530.48
595.67	48711.94
596.029	48849.34
596.387	48891.6
596.746	48820.64
597.104	48671.49
597.463	48744.93
597.822	48939.73
598.18	48626.74
598.538	48658.38
598.897	48966.17
599.255	48637.14
599.613	49151.7
599.972	48953.06
600.33	48974.76
600.688	48898.6
601.046	49086.39
601.404	49211.59
601.762	49085.72
602.12	49220.63
602.478	49253.85
602.836	49353.28
603.194	49045.72
603.552	49279.83
603.91	49112.83
604.268	49357.35
604.625	49188.99
604.983	49410
605.341	49258.14
605.698	49556.44
606.056	49570.67
606.413	49532.03
606.771	49590.79
607.128	49654.29
607.485	49542.43
607.843	49484.8
608.2	49689.99
608.557	49802.53
608.914	49710.78
609.272	49846.37
609.629	49882.98
609.986	50075.52
610.343	49839.37
610.7	50062.41
611.057	50056.54
611.414	50026.03
611.771	50063.32
612.127	50187.38
612.484	50056.99
612.841	50279.58
613.198	50071.23
613.554	50187.61
613.911	50336.98
614.267	50455.17
614.624	50366.59
614.98	50326.81
615.337	50650.87
615.693	50530.42
616.05	50473.25
616.406	50618.56
616.762	50516.64
617.118	50589.86
617.475	50474.15
617.831	50546.02
618.187	50636.63
618.543	50659.01
618.899	50848.38
619.255	50742.62
619.611	50698.78
619.967	50886.12
620.323	50890.19
620.678	50773.58
621.034	50652.68
621.39	50705.56
621.746	50717.31
622.101	51136.51
622.457	50809.51
622.812	50824.65
623.168	50954.14
623.523	50891.09
623.879	51118.66
624.234	50770.87
624.589	50958.89
624.945	51063.06
625.3	50965.67
625.655	50981.71
626.01	50897.42
626.365	51039.56
626.72	50891.32
627.075	50938.55
627.43	50875.5
627.785	50722.96
628.14	50824.65
628.495	50878.44
628.85	50773.58
629.205	50753.69
629.559	50888.38
629.914	50711.66
630.269	50696.52
630.623	50657.88
630.978	50505.11
631.332	50752.79
631.687	50675.05
632.041	50403.87
632.396	50608.84
632.75	50443.87
633.104	50573.59
633.459	50373.14
633.813	50402.06
634.167	50276.87
634.521	50384.21
634.875	50403.65
635.229	50242.29
635.583	50165.23
635.937	50123.43
636.291	50059.93
636.645	50177.66
636.999	50028.06
637.352	50086.82
637.706	49920.5
638.06	49999.82
638.413	49839.59
638.767	49781.29
639.121	49918.91
639.474	49621.29
639.828	49531.35
640.181	49565.93
640.534	49697
640.888	49599.83
641.241	49352.15
641.594	49471.02
641.947	49436.21
642.301	49412.71
642.654	49356.67
643.007	49404.58
643.36	49424.01
643.713	49281.87
644.066	49217.91
644.419	48984.7
644.771	48838.94
645.124	48409.35
645.477	48267.66
645.83	48047.78
646.182	47985.63
646.535	47868.57
646.888	47949.02
647.24	47795.35
647.593	48088.23
647.945	47897.5
648.298	47642.82
648.65	47614.34
649.002	47392.65
649.355	47728.91
649.707	47497.06
650.059	47633.1
650.411	48024.5
650.763	47995.12
651.115	48447.54
651.467	48265.17
651.819	48425.85
652.171	48184.04
652.523	48100.43
652.875	48095.01
653.227	47777.05
653.578	48106.08
653.93	47973.65
654.282	47842.36
654.633	47646.88
654.985	47744.73
655.337	47780.89
655.688	47850.95
656.039	47916.25
656.391	47626.54
656.742	47591.07
657.094	47658.18
657.445	47852.98
657.796	47779.99
658.147	47696.82
658.498	47625.87
658.849	47708.12
659.2	47581.35
659.551	47500.22
659.902	47671.51
660.253	47524.85
660.604	47594.23
660.955	47326.44
661.306	47543.38
661.656	47430.39
662.007	47424.06
662.358	47370.51
662.708	47270.4
663.059	47291.86
663.409	47140.23
663.76	47358.08
664.11	47299.32
664.461	47372.31
664.811	47367.34
665.161	47348.81
665.511	47235.37
665.862	47376.16
666.212	47470.16
666.562	47362.37
666.912	47281.69
667.262	47194.24
667.612	47255.25
667.962	47158.99
668.312	46966.45
668.662	47264.97
669.011	47139.55
669.361	47060.68
669.711	47034.7
670.06	46955.83
670.41	46903.63
670.76	46940.01
671.109	47120.79
671.459	46883.29
671.808	46740.69
672.157	46914.25
672.507	46616.85
672.856	46574.82
673.205	46707.92
673.554	46715.38
673.904	46610.53
674.253	46816.4
674.602	46618.44
674.951	46142.74
675.3	46032.24
675.649	46574.37
675.998	46685.78
676.346	46460.02
676.695	46605.78
677.044	46328.05
677.393	46525.56
677.741	46502.51
678.09	46444.65
678.438	46218.22
678.787	46312.45
679.135	46313.36
679.484	45938.68
679.832	46170.09
680.181	45978.68
680.529	46057.55
680.877	45955.18
681.225	45831.11
681.573	45956.31
681.922	45733.49
682.27	45589.99
682.618	45730.77
682.966	45590.67
683.314	45598.12
683.661	45390.67
684.009	45263.22
684.357	45135.76
684.705	45030
685.053	45361.97
685.4	45158.36
685.748	44977.35
686.095	44938.48
686.443	44717.24
686.79	44807.18
687.138	44766.05
687.485	44766.28
687.832	44624.59
688.18	44641.54
688.527	44335.33
688.874	44355.22
689.221	44277.25
689.568	43975.57
689.915	44033.87
690.262	43982.12
690.609	43840.2
690.956	43708.68
691.303	43749.58
691.65	43544.84
691.997	43447.45
692.344	43263.5
692.69	43246.09
693.037	43284.74
693.383	42882.26
693.73	43001.36
694.077	42782.6
694.423	42933.79
694.769	42668.03
695.116	42597.52
695.462	42479.34
695.808	42347.14
696.155	42499.45
696.501	41995.73
696.847	42160.7
697.193	41660.37
697.539	42079.8
697.885	41608.4
698.231	41617.66
698.577	41600.04
698.923	41568.4
699.269	41449.98
699.614	41216.09
699.96	41175.64
700.306	41065.59
700.651	40913.27
700.997	40935.19
701.342	40786.5
701.688	40694.52
702.033	40519.61
702.379	40547.41
702.724	40385.6
703.069	40326.4
703.415	40024.26
703.76	40001.21
704.105	39883.7
704.45	39874.43
704.795	39771.38
705.14	39652.74
705.485	39467.44
705.83	39497.94
706.175	39396.25
706.52	39335.69
706.865	39156.03
707.209	39199.2
707.554	39036.71
707.899	39105.64
708.243	38999.2
708.588	38812.54
708.932	38651.87
709.277	38644.41
709.621	38540.23
709.966	38304.08
710.31	38392.89
710.654	38122.61
710.998	38135.27
711.342	38119.45
711.687	37995.16
712.031	37800.81
712.375	37701.38
712.719	37711.55
713.063	37633.13
713.407	37816.41
713.75	37496.19
714.094	37485.34
714.438	37319.47
714.782	37391.11
715.125	37159.47
715.469	37302.3
715.812	37054.62
716.156	36920.61
716.499	36854.62
716.843	36867.28
717.186	36632.94
717.53	36869.77
717.873	36699.83
718.216	36618.25
718.559	36533.5
718.902	36394.07
719.246	36469.1
719.589	36151.37
719.932	36172.61
720.275	36090.12
720.617	35984.14
720.96	35999.73
721.303	36034.53
721.646	35900.98
721.989	35698.72
722.331	35771.49
722.674	35571.49
723.016	35647.88
723.359	35544.15
723.701	35544.6
724.044	35361.56
724.386	35143.71
724.729	35387.32
725.071	35239.53
725.413	35251.73
725.755	35184.39
726.097	35062.13
726.439	34797.5
726.782	34943.26
727.124	35057.38
727.465	34692.42
727.807	34771.74
728.149	34769.26
728.491	34591.41
728.833	34635.02
729.175	34572.2
729.516	34561.8
729.858	34543.27
730.199	34432.99
730.541	34363.16
730.882	34350.28
731.224	34423.28
731.565	34172.43
731.906	34196.16
732.248	34144.19
732.589	34074.58
732.93	33896.06
733.271	33829.17
733.612	33800.02
733.953	33879.34
734.294	33765.21
734.635	33644.99
734.976	33650.41
735.317	33494.94
735.658	33536.97
735.999	33509.85
736.339	33429.4
736.68	33469.4
737.021	33287.49
737.361	33053.14
737.702	33373.13
738.042	33271.67
738.383	33079.36
738.723	33152.35
739.063	33037.32
739.404	33025.12
739.744	33047.49
740.084	32907.84
740.424	32779.7
740.764	32773.38
741.104	32939.02
741.444	32637.33
741.784	32460.84
742.124	32694.73
742.464	32600.05
742.804	32421.29
743.143	32463.33
743.483	32395.98
743.823	32350.34
744.162	32258.81
744.502	32173.17
744.841	32193.28
745.181	32201.19
745.52	32033.06
745.86	32117.12
746.199	32063.56
746.538	31863.79
746.877	31889.33
747.216	31780.41
747.556	31697.92
747.895	31723.46
748.234	31618.83
748.573	31462.68
748.911	31616.34
749.25	31529.34
749.589	31242.34
749.928	31305.62
750.267	31240.53
750.605	31108.33
750.944	31065.62
751.283	30909.02
751.621	30968.45
751.96	30838.51
752.298	30823.37
752.636	30824.27
752.975	30657.72
753.313	30557.61
753.651	30742.02
753.989	30580.66
754.327	30443.49
754.666	30345.64
755.004	30349.48
755.342	30309.26
755.679	30254.35
756.017	30214.57
756.355	30103.16
756.693	30008.7
757.031	30006.67
757.368	29887.35
757.706	29766.45
758.044	29632.89
758.381	29747.92
758.719	29547.92
759.056	29553.35
759.394	29472.9
759.731	29365.78
760.068	29116.07
760.405	29082.63
760.743	29064.09
761.08	29192
761.417	28967.6
761.754	28872.69
762.091	28809.64
762.428	28721.28
762.765	28461.17
763.102	28605.35
763.438	28476.31
763.775	28306.6
764.112	28179.37
764.449	28228.86
764.785	28166.27
765.122	27946.38
765.458	27999.72
765.795	27741.42
766.131	27799.72
766.467	27706.39
766.804	27519.5
767.14	27479.05
767.476	27372.61
767.812	27281.77
768.148	27217.14
768.485	27105.28
768.821	26967.2
769.157	26907.09
769.492	26793.42
769.828	26822.35
770.164	26535.57
770.5	26457.16
770.836	26564.73
771.171	26351.4
771.507	26418.97
771.842	26124.28
772.178	26116.6
772.513	25957.06
772.849	25927.91
773.184	25775.59
773.519	25768.14
773.855	25531.53
774.19	25567.24
774.525	25525.88
774.86	25395.72
775.195	25300.13
775.53	25171.99
775.865	25095.61
776.2	24798.44
776.535	24769.07
776.87	24896.07
777.205	24630.99
777.539	24538.56
777.874	24699.01
778.209	24346.48
778.543	24404.1
778.878	24130.66
779.212	24147.84
779.547	23906.94
779.881	23881.41
780.215	23874.85
780.55	23873.04
780.884	23667.63
781.218	23812.26
781.552	23750.79
781.886	23541.98
782.22	23377.24
782.554	23326.84
782.888	23144.25
783.222	23027.64
783.556	22991.03
783.889	22985.84
784.223	22654.09
784.557	22798.72
784.89	22792.62
785.224	22692.28
785.557	22449.81
785.891	22510.37
786.224	22318.74
786.558	22370.26
786.891	22116.93
787.224	22100.89
787.557	22026.99
787.891	21985.41
788.224	21983.15
788.557	21877.62
788.89	21883.94
789.223	21738.64
789.556	21591.97
789.888	21582.71
790.221	21385.2
790.554	21376.39
790.887	21316.5
791.219	21201.93
791.552	21201.48
791.884	21047.36
792.217	21060.46
792.549	20900.47
792.882	20846.46
793.214	20723.3
793.546	20777.98
793.879	20463.19
794.211	20547.03
794.543	20574.83
794.875	20428.62
795.207	20493.02
795.539	20331.89
795.871	20392.46
796.203	20162.86
796.535	20002.64
796.867	19918.57
797.198	20025.91
797.53	19914.96
797.862	19837.22
798.193	19853.04
798.525	19687.84
798.856	19705.24
799.188	19622.31
799.519	19406.5
799.85	19343.22
800.182	19417.12
800.513	19385.7
800.844	19137.12
801.175	19350.45
801.506	19208.08
801.837	19224.13
802.168	19037.92
802.499	18993.17
802.83	18879.73
803.161	18873.63
803.491	18812.84
803.822	18910.01
804.153	18729.68
804.483	18611.94
804.814	18419.85
805.145	18407.65
805.475	18453.07
805.805	18379.4
806.136	18409.91
806.466	18369.46
806.796	18303.47
807.126	18238.16
807.457	18096.7
807.787	18122.46
808.117	17967.44
808.447	17953.65
808.777	17987.78
809.107	17937.38
809.436	17908
809.766	17837.95
810.096	17722.92
810.426	17602.02
810.755	17593.66
811.085	17650.16
811.414	17527.45
811.744	17424.85
812.073	17329.94
812.403	17411.75
812.732	17238.64
813.061	17288.36
813.39	17134.46
813.719	17251.52
814.049	17268.25
814.378	17129.49
814.707	17053.34
815.036	17080.45
815.365	16986.22
815.693	16738.77
816.022	16833.46
816.351	16830.97
816.68	16709.62
817.008	16723.4
817.337	16599.56
817.665	16598.43
817.994	16701.26
818.322	16575.84
818.651	16469.62
818.979	16463.97
819.307	16500.13
819.636	16439.79
819.964	16300.59
820.292	16469.62
820.62	16430.08
820.948	16242.06
821.276	16398.44
821.604	16207.94
821.932	16289.97
822.259	16260.59
822.587	16225.56
822.915	16338.55
823.243	16240.25
823.57	16212.23
823.898	16262.4
824.225	16160.71
824.553	16107.6
824.88	16181.27
825.207	16186.24
825.535	16216.75
825.862	16215.62
826.189	16137.88
826.516	16171.55
826.843	16150.08
827.17	16212.23
827.497	16143.08
827.824	16125.45
828.151	16110.54
828.478	16122.29
828.805	16161.61
829.131	16133.36
829.458	16086.36
829.785	16067.37
830.111	15974.5
830.438	16065.57
830.764	16055.4
831.09	16120.93
831.417	15993.25
831.743	16033.7
832.069	16121.84
832.395	15991.22
832.722	15983.08
833.048	15997.77
833.374	16021.27
833.7	15881.16
834.026	16013.59
834.351	16007.49
834.677	15959.35
835.003	15902.63
835.329	15892.46
835.654	15869.87
835.98	15834.16
836.306	15854.27
836.631	15758
836.956	15899.47
837.282	15822.18
837.607	15714.39
837.932	15690.21
838.258	15740.15
838.583	15616.31
838.908	15634.39
839.233	15584.67
839.558	15647.72
839.883	15469.42
840.208	15541.51
840.533	15459.25
840.858	15392.82
841.182	15477.11
841.507	15371.57
841.832	15289.09
842.156	15355.3
842.481	15385.58
842.805	15257.45
843.13	15260.39
843.454	15208.87
843.778	15104.46
844.103	15067.85
844.427	15130.9
844.751	15067.85
845.075	14925.26
845.399	14920.06
845.723	14863.79
846.047	14919.16
846.371	14704.25
846.695	14780.4
847.019	14716.9
847.343	14607.3
847.666	14576.79
847.99	14480.3
848.313	14415.67
848.637	14317.36
848.96	14300.87
849.284	14296.35
849.607	14197.14
849.931	14146.52
850.254	14060.65
850.577	14046.64
850.9	13831.73
851.223	13868.56
851.546	13773.88
851.869	13730.71
852.192	13860.65
852.515	13682.58
852.838	13516.71
853.161	13637.83
853.483	13581.79
853.806	13470.61
854.129	13408.24
854.451	13398.74
854.774	13337.28
855.096	13271.74
855.419	13286.88
855.741	13231.29
856.063	13167.56
856.385	13136.38
856.708	13144.97
857.03	13030.39
857.352	13066.55
857.674	12992.2
857.996	12849.15
858.318	12848.02
858.64	12849.15
858.961	12838.76
859.283	12792.21
859.605	12687.12
859.926	12778.65
860.248	12643.28
860.57	12678.99
860.891	12653.68
861.212	12551.53
861.534	12495.49
861.855	12394.7
862.176	12447.58
862.498	12523.29
862.819	12480.35
863.14	12389.96
863.461	12351.31
863.782	12339.11
864.103	12335.72
864.424	12360.58
864.745	12286.68
865.065	12158.78
865.386	12212.79
865.707	12200.58
866.027	12199
866.348	12145.44
866.668	12239
866.989	12111.32
867.309	12084.88
867.63	12028.16
867.95	12059.57
868.27	11990.65
868.59	11941.83
868.91	11952.68
869.23	11944.54
869.55	11861.16
869.87	11927.14
870.19	11903.64
870.51	11897.31
870.83	11885.56
871.15	11820.71
871.469	11770.31
871.789	11843.3
872.109	11793.36
872.428	11735.74
872.748	11797.43
873.067	11727.15
873.386	11705.45
873.706	11689.64
874.025	11673.82
874.344	11609.19
874.663	11655.96
874.982	11576.87
875.301	11613.93
875.62	11521.96
875.939	11542.97
876.258	11611.9
876.577	11444.44
876.896	11504.56
877.214	11377.1
877.533	11480.38
877.852	11442.41
878.17	11401.51
878.489	11434.28
878.807	11349.08
879.125	11349.53
879.444	11394.73
879.762	11262.75
880.08	11292.58
880.398	11278.35
880.716	11228.41
881.034	11128.29
881.352	11121.52
881.67	11162.42
881.988	11152.48
882.306	11153.83
882.624	11151.12
882.941	11008.98
883.259	10991.12
883.577	11033.16
883.894	10976.89
884.212	10873.61
884.529	10906.61
884.846	10955.42
885.164	10885.59
885.481	10841.3
885.798	10863.22
886.115	10768.53
886.432	10775.54
886.75	10766.27
887.067	10683.56
887.383	10663
887.7	10682.66
888.017	10672.94
888.334	10611.7
888.651	10574.64
888.967	10511.59
889.284	10484.02
889.6	10459.84
889.917	10475.88
890.233	10411.93
890.55	10394.3
890.866	10438.6
891.182	10364.47
891.498	10307.53
891.815	10316.34
892.131	10278.37
892.447	10153.63
892.763	10212.16
893.079	10149.34
893.395	10117.02
893.71	10085.38
894.026	10096.01
894.342	10077.02
894.657	9967.65
894.973	10004.93
895.289	9926.29
895.604	9903.02
895.92	9845.16
896.235	9803.36
896.55	9792.74
896.865	9769.23
897.181	9708.9
897.496	9676.13
897.811	9653.31
898.126	9665.73
898.441	9612.85
898.756	9610.37
899.071	9555.68
899.386	9453.08
899.7	9452.18
900.015	9459.86
900.33	9384.16
900.644	9443.14
900.959	9361.11
901.273	9326.08
901.588	9256.48
901.902	9279.98
902.216	9260.1
902.531	9174.9
902.845	9156.14
903.159	9056.49
903.473	9051.97
903.787	8971.52
904.101	8938.07
904.415	8924.96
904.729	8959.54
905.042	8947.34
905.356	8828.24
905.67	8912.76
905.984	8822.14
906.297	8749.83
906.611	8727
906.924	8709.83
907.237	8694.23
907.551	8681.35
907.864	8619.66
908.177	8600.68
908.491	8547.12
908.804	8550.96
909.117	8500.57
909.43	8418.99
909.743	8452.66
910.056	8397.29
910.368	8352.32
910.681	8276.17
910.994	8214.02
911.307	8246.11
911.619	8157.75
911.932	8181.71
912.244	8107.81
912.557	8132.44
912.869	8070.75
913.181	7989.62
913.494	8008.83
913.806	7940.36
914.118	7939.68
914.43	7845.22
914.742	7898.78
915.054	7795.95
915.366	7790.08
915.678	7782.39
915.99	7727.03
916.302	7687.26
916.613	7639.35
916.925	7558.45
917.236	7539.46
917.548	7517.32
917.859	7582.4
918.171	7483.65
918.482	7422.18
918.794	7413.82
919.105	7455.17
919.416	7340.37
919.727	7301.28
920.038	7345.57
920.349	7235.29
920.66	7251.11
920.971	7298.11
921.282	7174.5
921.593	7146.48
921.903	7132.47
922.214	7069.64
922.525	7046.82
922.835	7014.73
923.146	6966.37
923.456	6986.26
923.767	6872.59
924.077	6920.95
924.387	6856.77
924.697	6836.43
925.008	6849.76
925.318	6816.32
925.628	6737.45
925.938	6764.57
926.248	6661.97
926.558	6633.5
926.867	6654.97
927.177	6594.4
927.487	6622.65
927.796	6535.42
928.106	6527.06
928.416	6524.8
928.725	6489.09
929.034	6422.43
929.344	6448.87
929.653	6427.63
929.962	6363.45
930.271	6307.18
930.581	6234.64
930.89	6259.5
931.199	6218.37
931.508	6190.57
931.817	6188.99
932.125	6189.89
932.434	6181.08
932.743	6073.29
933.051	6048.88
933.36	6037.81
933.669	5972.95
933.977	5952.61
934.286	5965.49
934.594	5938.6
934.902	5910.35
935.21	5885.27
935.519	5874.87
935.827	5820.64
936.135	5848.43
936.443	5799.62
936.751	5734.31
937.059	5705.84
937.367	5702
937.674	5690.25
937.982	5641.21
938.29	5632.62
938.597	5688.89
938.905	5560.98
939.213	5536.58
939.52	5540.19
939.827	5600.3
940.135	5442.57
940.442	5464.72
940.749	5401.89
941.056	5447.99
941.363	5357.6
941.67	5354.21
941.977	5337.49
942.284	5325.06
942.591	5309.92
942.898	5252.07
943.205	5249.35
943.511	5218.85
943.818	5255.68
944.125	5165.97
944.431	5170.26
944.738	5108.11
945.044	5116.02
945.35	5119.87
945.657	5034.22
945.963	5087.55
946.269	5057.49
946.575	5035.35
946.881	5021.79
947.187	4943.6
947.493	4952.64
947.799	4949.93
948.105	4881.23
948.41	4881
948.716	4874.22
949.022	4832.42
949.327	4812.53
949.633	4745.64
949.938	4759.42
950.244	4725.98
950.549	4713.55
950.854	4731.4
951.16	4741.34
951.465	4665.41
951.77	4598.07
952.075	4588.58
952.38	4608.01
952.685	4544.97
952.99	4549.03
953.294	4530.73
953.599	4511.75
953.904	4466.32
954.209	4450.05
954.513	4442.82
954.818	4450.5
955.122	4406.44
955.426	4398.3
955.731	4391.3
956.035	4371.64
956.339	4351.3
956.643	4365.76
956.948	4297.97
957.252	4255.26
957.556	4286.89
957.86	4237.18
958.163	4236.5
958.467	4224.97
958.771	4275.59
959.075	4213.67
959.378	4143.39
959.682	4186.78
959.985	4138.65
960.289	4116.28
960.592	4091.19
960.896	4066.11
961.199	4044.87
961.502	3993.57
961.805	4021.82
962.108	3984.75
962.411	3987.69
962.714	3958.31
963.017	3984.08
963.32	3946.79
963.623	3889.16
963.926	3850.07
964.228	3872.21
964.531	3855.49
964.833	3869.5
965.136	3815.49
965.438	3810.07
965.741	3784.53
966.043	3799.9
966.345	3761.93
966.648	3753.57
966.95	3711.99
967.252	3701.37
967.554	3690.98
967.856	3671.77
968.158	3642.39
968.46	3635.61
968.761	3665.44
969.063	3584.99
969.365	3569.4
969.666	3572.56
969.968	3531.43
970.269	3529.4
970.571	3518.33
970.872	3566.46
971.174	3481.72
971.475	3493.69
971.776	3479
972.077	3440.14
972.378	3446.69
972.679	3454.15
972.98	3417.99
973.281	3395.84
973.582	3374.6
973.883	3394.71
974.183	3352.45
974.484	3367.14
974.785	3317.65
975.085	3295.96
975.386	3316.52
975.686	3273.59
975.986	3246.69
976.287	3202.4
976.587	3226.36
976.887	3224.1
977.187	3220.25
977.487	3166.24
977.787	3164.89
978.087	3127.38
978.387	3163.98
978.687	3162.85
978.987	3125.79
979.286	3096.42
979.586	3072.46
979.885	3063.65
980.185	3029.98
980.484	3035.17
980.784	3020.03
981.083	3041.5
981.382	3007.15
981.682	2999.7
981.981	2970.32
982.28	2933.48
982.579	2950.43
982.878	2964.67
983.177	2913.6
983.475	2924.22
983.774	2900.94
984.073	2887.61
984.372	2879.47
984.67	2861.17
984.969	2849.19
985.267	2853.48
985.566	2810.55
985.864	2809.64
986.162	2813.03
986.461	2806.48
986.759	2748.4
987.057	2751.34
987.355	2743.66
987.653	2702.53
987.951	2699.14
988.249	2691.91
988.547	2694.84
988.844	2660.72
989.142	2684.68
989.44	2671.34
989.737	2634.06
990.035	2635.86
990.332	2634.06
990.63	2599.03
990.927	2612.36
991.224	2623.66
991.521	2558.58
991.819	2554.74
992.116	2544.57
992.413	2544.34
992.71	2532.59
993.006	2547.28
993.303	2504.57
993.6	2517.67
993.897	2480.39
994.193	2472.48
994.49	2465.25
994.787	2438.13
995.083	2419.37
995.379	2427.96
995.676	2397.23
995.972	2386.38
996.268	2362.42
996.565	2351.58
996.861	2351.35
997.157	2344.12
997.453	2334.85
997.749	2298.7
998.044	2309.32
998.34	2306.61
998.636	2252.14
998.932	2306.61
999.227	2261.18
999.523	2271.13
999.818	2226.83
1000.114	2195.2
1000.409	2220.96
1000.704	2164.01
1001	2230.9
1001.295	2155.65
1001.59	2160.17
1001.885	2174.63
1002.18	2145.71
1002.475	2127.85
1002.77	2131.92
1003.065	2071.81
1003.359	2092.37
1003.654	2077.01
1003.949	2101.19
1004.243	2061.19
1004.538	2059.61
1004.832	2053.96
1005.127	2016.67
1005.421	2011.25
1005.715	2022.32
1006.009	2015.31
1006.304	1983.9
1006.598	1954.3
1006.892	1979.16
1007.186	1946.62
1007.48	1941.64
1007.773	1939.16
1008.067	1908.42
1008.361	1894.87
1008.655	1928.99
1008.948	1883.11
1009.242	1883.11
1009.535	1878.14
1009.829	1878.14
1010.122	1842.89
1010.415	1829.56
1010.708	1822.78
1011.001	1822.55
1011.295	1838.82
1011.588	1792.27
1011.881	1773.06
1012.173	1782.55
1012.466	1787.07
1012.759	1747.52
1013.052	1738.03
1013.344	1691.25
1013.637	1740.29
1013.93	1692.16
1014.222	1702.33
1014.514	1720.41
1014.807	1692.38
1015.099	1656.68
1015.391	1670.01
1015.683	1660.97
1015.976	1632.27
1016.268	1615.32
1016.56	1585.95
1016.851	1615.55
1017.143	1593.86
1017.435	1592.73
1017.727	1554.54
1018.018	1578.04
1018.31	1529.23
1018.602	1531.49
1018.893	1526.97
1019.185	1533.74
1019.476	1531.94
1019.767	1493.75
1020.058	1506.4
1020.35	1496.68
1020.641	1503.01
1020.932	1486.97
1021.223	1462.79
1021.514	1466.18
1021.804	1424.37
1022.095	1451.49
1022.386	1419.17
1022.677	1400.64
1022.967	1383.47
1023.258	1394.31
1023.548	1375.56
1023.839	1382.56
1024.129	1381.66
1024.419	1354.54
1024.709	1347.54
1025	1334.65
1025.29	1313.41
1025.58	1305.73
1025.87	1289.01
1026.16	1267.09
1026.449	1300.08
1026.739	1298.95
1027.029	1271.15
1027.319	1288.55
1027.608	1295.79
1027.898	1234.09
1028.187	1252.17
1028.477	1220.76
1028.766	1233.87
1029.055	1210.59
1029.344	1202
1029.634	1215.34
1029.923	1194.32
1030.212	1198.16
1030.501	1190.48
1030.79	1192.06
1031.078	1167.65
1031.367	1146.18
1031.656	1145.73
1031.945	1134.66
1032.233	1140.31
1032.522	1125.17
1032.81	1105.28
1033.099	1099.18
1033.387	1101.44
1033.675	1081.78
1033.963	1069.8
1034.251	1088.33
1034.54	1100.76
1034.828	1058.5
1035.116	1062.8
1035.403	1057.6
1035.691	1039.29
1035.979	1045.85
1036.267	1028.67
1036.554	1016.7
1036.842	1008.79
1037.129	1002.91
1037.417	1020.31
1037.704	983.02
1037.992	984.15
1038.279	977.15
1038.566	983.93
1038.853	983.93
1039.14	983.93
