Data from plate_porcelain_FLMS001491_047.txt Node
Date: Tue Feb 07 11:19:23 GMT 2017
User: dcchb
Spectrometer: FLMS00149
Trigger mode: 0
Integration Time (sec): 2.000000E-2
Scans to average: 10
Electric dark correction enabled: true
Nonlinearity correction enabled: false
Boxcar width: 0
XAxis mode: Wavelengths
Number of Pixels in Spectrum: 2048
>>>>>Begin Spectral Data<<<<<
341.393	-11.82
341.776	-11.82
342.16	-11.82
342.543	-43.91
342.927	-60.18
343.31	-64.25
343.693	-67.64
344.077	-74.64
344.46	-64.93
344.843	-23.8
345.226	-36.91
345.61	-25.38
345.993	-17.92
346.376	-13.18
346.759	-3.46
347.142	20.95
347.525	46.93
347.908	57.1
348.291	78.35
348.674	91.23
349.057	97.55
349.44	139.81
349.823	143.2
350.206	167.61
350.588	247.83
350.971	252.8
351.354	241.73
351.737	274.27
352.119	281.5
352.502	304.33
352.884	302.75
353.267	321.05
353.65	306.81
354.032	340.26
354.414	348.17
354.797	357.43
355.179	353.37
355.562	367.15
355.944	360.37
356.326	366.7
356.709	385.68
357.091	393.37
357.473	390.43
357.855	395.63
358.238	386.59
358.62	393.82
359.002	382.52
359.384	377.32
359.766	402.86
360.148	391.33
360.53	402.18
360.912	426.13
361.294	396.53
361.676	382.29
362.057	419.35
362.439	419.58
362.821	399.24
363.203	395.17
363.584	387.04
363.966	392.01
364.348	399.47
364.729	405.79
365.111	387.49
365.493	392.01
365.874	362.41
366.256	376.64
366.637	396.53
367.019	382.74
367.4	396.98
367.781	368.28
368.163	395.17
368.544	386.36
368.925	399.69
369.306	404.44
369.688	414.83
370.069	408.73
370.45	416.87
370.831	419.58
371.212	407.15
371.593	417.09
371.974	417.32
372.355	419.58
372.736	428.39
373.117	439.69
373.498	434.95
373.879	439.24
374.26	429.97
374.641	416.42
375.021	431.78
375.402	430.43
375.783	456.64
376.163	463.65
376.544	444.21
376.925	487.15
377.305	462.74
377.686	476.3
378.066	467.04
378.447	472.46
378.827	472.69
379.208	473.14
379.588	468.62
379.968	513.36
380.349	509.07
380.729	485.34
381.109	516.3
381.489	494.38
381.87	505.45
382.25	532.12
382.63	541.84
383.01	529.41
383.39	529.63
383.77	535.73
384.15	502.74
384.53	549.07
384.91	550.88
385.29	532.8
385.67	560.14
386.049	567.82
386.429	580.71
386.809	603.3
387.189	611.21
387.568	588.39
387.948	577.09
388.328	630.65
388.707	608.27
389.087	608.95
389.466	634.94
389.846	636.75
390.225	647.6
390.605	633.36
390.984	637.43
391.363	651.89
391.743	657.09
392.122	655.28
392.501	657.31
392.881	714.71
393.26	689.63
393.639	692.34
394.018	706.35
394.397	705
394.776	722.85
395.155	709.97
395.534	727.37
395.913	756.29
396.292	760.81
396.671	793.35
397.05	766.69
397.429	780.02
397.808	768.72
398.186	780.7
398.565	811.21
398.944	799.46
399.323	810.3
399.701	796.74
400.08	847.36
400.458	833.35
400.837	832.22
401.215	849.62
401.594	860.25
401.972	877.65
402.351	867.7
402.729	894.14
403.107	894.37
403.486	878.32
403.864	908.83
404.242	919
404.62	941.37
404.999	944.76
405.377	949.73
405.755	992.9
406.133	989.73
406.511	998.1
406.889	978.21
407.267	1048.72
407.645	1028.6
408.023	1061.82
408.401	1068.6
408.779	1075.38
409.156	1093.23
409.534	1106.11
409.912	1123.06
410.29	1170.07
410.667	1163.51
411.045	1174.36
411.422	1207.36
411.8	1188.6
412.178	1227.02
412.555	1246.9
412.933	1247.81
413.31	1286.68
413.687	1296.84
414.065	1311.31
414.442	1334.58
414.819	1351.98
415.197	1356.28
415.574	1378.42
415.951	1393.34
416.328	1408.03
416.705	1425.2
417.082	1416.84
417.46	1485.54
417.837	1488.48
418.214	1493.68
418.591	1489.38
418.967	1495.71
419.344	1542.04
419.721	1543.84
420.098	1589.94
420.475	1579.1
420.852	1579.55
421.228	1615.93
421.605	1647.57
421.982	1655.48
422.358	1674.46
422.735	1709.94
423.111	1684.63
423.488	1724.18
423.864	1741.58
424.241	1796.49
424.617	1805.98
424.994	1831.75
425.37	1831.07
425.746	1840.33
426.123	1843.72
426.499	1854.12
426.875	1900.44
427.251	1940.9
427.627	1968.47
428.003	1978.18
428.379	2012.53
428.756	2018.63
429.132	2049.37
429.507	2093.89
429.883	2122.81
430.259	2194.45
430.635	2185.63
431.011	2205.3
431.387	2299.98
431.763	2289.81
432.138	2303.37
432.514	2372.75
432.89	2376.14
433.265	2411.62
433.641	2462.24
434.016	2489.58
434.392	2496.59
434.767	2586.75
435.143	2555.57
435.518	2610.26
435.894	2628.33
436.269	2667.66
436.644	2700.42
437.02	2677.6
437.395	2756.92
437.77	2805.05
438.145	2827.43
438.52	2873.3
438.895	2890.47
439.271	2887.54
439.646	2954.88
440.021	2984.26
440.395	3043.69
440.77	3008.89
441.145	2990.36
441.52	3086.85
441.895	3079.4
442.27	3139.96
442.645	3089.34
443.019	3150.58
443.394	3205.49
443.769	3223.8
444.143	3210.47
444.518	3296.79
444.892	3312.84
445.267	3294.53
445.641	3339.05
446.016	3381.54
446.39	3392.38
446.764	3386.06
447.139	3456.34
447.513	3477.58
447.887	3485.04
448.262	3508.54
448.636	3520.29
449.01	3577.24
449.384	3631.92
449.758	3636.44
450.132	3684.13
450.506	3695.88
450.88	3750.79
451.254	3755.76
451.628	3821.07
452.002	3835.76
452.376	3868.75
452.75	3951.69
453.123	3959.37
453.497	4044.79
453.871	4075.75
454.244	4162.31
454.618	4183.77
454.992	4227.39
455.365	4271
455.739	4348.29
456.112	4426.25
456.486	4418.34
456.859	4470.77
457.232	4594.38
457.606	4557.32
457.979	4628.73
458.352	4747.38
458.725	4813.36
459.099	4818.11
459.472	4949.86
459.845	4966.8
460.218	5012.9
460.591	5040.02
460.964	5072.56
461.337	5211.54
461.71	5341.71
462.083	5414.02
462.456	5395.72
462.829	5414.48
463.201	5529.73
463.574	5537.41
463.947	5665.09
464.32	5784.86
464.692	5762.72
465.065	5831.41
465.438	5947.57
465.81	6073.44
466.183	6119.99
466.555	6252.87
466.928	6294.45
467.3	6312.76
467.672	6452.42
468.045	6591.39
468.417	6629.13
468.789	6608.12
469.161	6792.29
469.534	6863.48
469.906	7023.93
470.278	7033.42
470.65	7174.88
471.022	7242
471.394	7467.98
471.766	7501.65
472.138	7701.42
472.51	7787.3
472.882	7929.66
473.253	7997.23
473.625	8135.08
473.997	8291.24
474.369	8389.31
474.74	8457.56
475.112	8606.93
475.484	8741.85
475.855	8918.56
476.227	8915.63
476.598	9184.09
476.97	9391.77
477.341	9548.15
477.713	9681.93
478.084	9768.94
478.455	9918.31
478.827	10157.18
479.198	10453.44
479.569	10413.21
479.94	10689.59
480.311	10908.12
480.682	11069.92
481.053	11347.2
481.424	11447.76
481.795	11623.13
482.166	11843.91
482.537	11966.62
482.908	12230.12
483.279	12336.78
483.65	12622.65
484.021	12794.4
484.391	12976.54
484.762	13120.04
485.133	13270.77
485.503	13527.26
485.874	13774.93
486.244	13906.46
486.615	14220.35
486.985	14354.81
487.356	14571.3
487.726	14753.21
488.097	15084.05
488.467	15078.18
488.837	15463.7
489.207	15596.13
489.578	15888.55
489.948	16073.41
490.318	16223.46
490.688	16293.96
491.058	16561.53
491.428	16791.8
491.798	16963.55
492.168	17281.28
492.538	17427.27
492.908	17565.12
493.278	17725.79
493.648	17868.84
494.017	18236.51
494.387	18374.59
494.757	18404.87
495.126	18707.46
495.496	18754.01
495.866	18958.75
496.235	19147.45
496.605	19326.43
496.974	19345.18
497.344	19667.43
497.713	19778.17
498.082	19923.7
498.452	20220.19
498.821	20329.56
499.19	20310.58
499.559	20514.19
499.928	20724.81
500.298	20848.65
500.667	20933.39
501.036	20991.24
501.405	21297.9
501.774	21220.39
502.143	21504.9
502.512	21719.13
502.88	21953.93
503.249	21953.93
503.618	22046.36
503.987	22209.06
504.356	22395.72
504.724	22570.18
505.093	22687.92
505.462	22784.42
505.83	22991.87
506.199	23158.87
506.567	23438.64
506.936	23346.89
507.304	23803.82
507.672	23964.05
508.041	23908.91
508.409	24209.46
508.777	24437.7
509.145	24608.55
509.514	24583.01
509.882	24917.92
510.25	24880.18
510.618	25230.68
510.986	25230.23
511.354	25590.67
511.722	25717.45
512.09	25863.2
512.458	25976.2
512.826	26159.92
513.193	26379.8
513.561	26635.84
513.929	26727.14
514.297	27029.05
514.664	27165.32
515.032	27292.32
515.4	27587.68
515.767	27653.89
516.135	27926.43
516.502	27729.37
516.869	28303.59
517.237	28478.95
517.604	28399.18
517.972	28788.78
518.339	28939.51
518.706	29145.6
519.073	29257.69
519.44	29561.86
519.808	29847.51
520.175	29884.34
520.542	30385.8
520.909	30471.22
521.276	30485.68
521.643	30915.73
522.009	30968.38
522.376	31403.4
522.743	31491.53
523.11	31734.24
523.477	31997.51
523.843	32337.38
524.21	32556.59
524.577	32762.46
524.943	32947.76
525.31	33261.88
525.676	33525.15
526.043	33615.32
526.409	33859.6
526.776	34166.71
527.142	34291.46
527.508	34551.56
527.874	35019.35
528.241	35077.43
528.607	35240.81
528.973	35572.55
529.339	35504.98
529.705	35949.72
530.071	36294.79
530.437	36443.26
530.803	36787.44
531.169	36927.32
531.535	36826.98
531.901	37087.77
532.267	37253.19
532.632	37483.69
532.998	37541.09
533.364	37830.8
533.73	38176.1
534.095	38305.14
534.461	38474.4
534.826	38731.57
535.192	38772.92
535.557	39268.73
535.923	39196.64
536.288	39355.96
536.653	39421.04
537.019	39430.53
537.384	39553.92
537.749	39721.82
538.114	39972.89
538.479	39968.37
538.845	40218.98
539.21	40393.9
539.575	40527.45
539.94	40715.69
540.305	40863.71
540.67	41076.59
541.034	41072.07
541.399	41392.97
541.764	41282.69
542.129	41567.65
542.494	41613.98
542.858	41811.94
543.223	41921.76
543.587	42092.38
543.952	42071.82
544.316	42320.4
544.681	42516.55
545.045	42542.99
545.41	42804.91
545.774	42839.03
546.138	42879.48
546.503	42945.47
546.867	43012.36
547.231	43397.66
547.595	43480.59
547.959	43769.4
548.324	43822.05
548.688	43808.27
549.052	43923.75
549.416	44075.83
549.779	44155.83
550.143	44324.64
550.507	44594.69
550.871	44700.45
551.235	44804.18
551.599	45291.39
551.962	45290.72
552.326	45317.38
552.689	45530.48
553.053	45420.2
553.417	45712.85
553.78	46163.69
554.143	45951.72
554.507	46159.85
554.87	46312.84
555.234	46852.48
555.597	46615.88
555.96	46821.07
556.323	46942.65
556.686	47102.19
557.05	47349.64
557.413	47426.48
557.776	47498.57
558.139	47920.25
558.502	47866.92
558.865	47959.12
559.228	48276.4
559.59	48402.72
559.953	48439.56
560.316	48926.55
560.679	48895.14
561.041	48936.04
561.404	49215.58
561.767	49635.01
562.129	49341.23
562.492	49917.94
562.854	49828.45
563.217	49891.27
563.579	50030.03
563.941	50353.86
564.304	50519.73
564.666	50608.99
565.028	50645.83
565.39	50843.79
565.753	51091.24
566.115	51186.83
566.477	51326.04
566.839	51335.3
567.201	51715.86
567.563	51574.62
567.925	51866.81
568.287	51903.65
568.648	52010.31
569.01	52201.04
569.372	52316.75
569.734	52260.48
570.095	52511.99
570.457	52628.38
570.819	52657.3
571.18	52756.28
571.542	52997.18
571.903	52922.83
572.265	53090.06
572.626	53151.3
572.987	53203.73
573.349	53449.15
573.71	53487.56
574.071	53530.95
574.432	53614.11
574.794	53820.66
575.155	53764.39
575.516	53733.43
575.877	53848.68
576.238	53928.45
576.599	54048.9
576.96	54019.75
577.32	54052.52
577.681	54207.32
578.042	54237.37
578.403	54249.35
578.763	54382
579.124	54398.95
579.485	54401.89
579.845	54663.35
580.206	54478.5
580.566	54509
580.927	54597.82
581.287	54671.49
581.648	54490.02
582.008	54704.71
582.368	54578.61
582.728	54696.57
583.089	54689.11
583.449	54683.01
583.809	54783.35
584.169	54802.33
584.529	54793.29
584.889	54916.9
585.249	54741.09
585.609	54688.66
585.969	54758.26
586.329	54689.11
586.688	54859.5
587.048	54831.48
587.408	54754.2
587.768	54771.82
588.127	54829.9
588.487	54779.73
588.846	54999.39
589.206	54806.4
589.565	54855.66
589.925	54981.53
590.284	54888.88
590.643	54901.31
591.003	55024.02
591.362	55059.05
591.721	54977.69
592.08	55051.59
592.44	55023.34
592.799	55104.47
593.158	55034.41
593.517	55010.46
593.876	55071.7
594.235	55036.9
594.593	55058.14
594.952	55100.63
595.311	55058.14
595.67	55065.37
596.029	55303.79
596.387	55190.34
596.746	55294.75
597.104	55164.35
597.463	55146.73
597.822	55280.74
598.18	55139.72
598.538	55145.37
598.897	55395.76
599.255	55099.5
599.613	55564.34
599.972	55362.77
600.33	55475.76
600.688	55368.87
601.046	55416.55
601.404	55612.03
601.762	55442.54
602.12	55659.03
602.478	55617.45
602.836	55675.98
603.194	55534.97
603.552	55540.84
603.91	55475.98
604.268	55656.77
604.625	55559.15
604.983	55787.39
605.341	55590.78
605.698	55759.14
606.056	55770.21
606.413	55739.71
606.771	55846.14
607.128	55929.08
607.485	55755.07
607.843	55831.91
608.2	55984.45
608.557	56043.2
608.914	55954.39
609.272	56014.73
609.629	56085.01
609.986	56168.85
610.343	56075.52
610.7	56252.01
611.057	56227.6
611.414	56175.63
611.771	56289.97
612.127	56344.66
612.484	56332.01
612.841	56447.03
613.198	56289.3
613.554	56339.24
613.911	56486.81
614.267	56406.13
614.624	56409.75
614.98	56482.96
615.337	56629.63
615.693	56635.73
616.05	56529.06
616.406	56691.77
616.762	56579.91
617.118	56629.63
617.475	56625.79
617.831	56703.52
618.187	56694.48
618.543	56715.73
618.899	56850.19
619.255	56829.62
619.611	56790.53
619.967	56792.33
620.323	56925.66
620.678	56793.92
621.034	56779.45
621.39	56787.36
621.746	56771.54
622.101	57039.79
622.457	56814.93
622.812	56821.94
623.168	56954.36
623.523	56922.95
623.879	56967.25
624.234	56838.66
624.589	56945.78
624.945	56917.75
625.3	56953.69
625.655	56859.9
626.01	56939.9
626.365	57025.1
626.72	56906.46
627.075	56977.19
627.43	56879.79
627.785	56801.83
628.14	56887.02
628.495	56855.84
628.85	56802.5
629.205	56696.97
629.559	56912.33
629.914	56728.61
630.269	56809.96
630.623	56698.55
630.978	56597.54
631.332	56730.42
631.687	56758.66
632.041	56659.46
632.396	56699.91
632.75	56615.39
633.104	56614.49
633.459	56388.73
633.813	56489.52
634.167	56624.66
634.521	56446.13
634.875	56511.89
635.229	56399.8
635.583	56262.86
635.937	56329.75
636.291	56332.23
636.645	56274.16
636.999	56200.94
637.352	56353.48
637.706	56176.08
638.06	56242.74
638.413	56163.65
638.767	56050.21
639.121	56108.96
639.474	55995.07
639.828	55962.53
640.181	55969.98
640.534	55969.76
640.888	55928.85
641.241	55796.88
641.594	55819.93
641.947	55953.71
642.301	55760.95
642.654	55816.77
643.007	55763.89
643.36	55733.15
643.713	55670.56
644.066	55780.16
644.419	55630.78
644.771	55424.23
645.124	55148.99
645.477	55223.56
645.83	54808.88
646.182	54730.47
646.535	54735.67
646.888	54712.84
647.24	54537.03
647.593	54719.62
647.945	54674.2
648.298	54437.14
648.65	54415.22
649.002	54391.95
649.355	54464.49
649.707	54460.19
650.059	54535.44
650.411	54833.52
650.763	55003.45
651.115	55162.32
651.467	54953.96
651.819	54957.81
652.171	54938.15
652.523	54893.18
652.875	54851.82
653.227	54667.64
653.578	54871.25
653.93	54790.13
654.282	54652.05
654.633	54663.8
654.985	54734.54
655.337	54670.13
655.688	54588.78
656.039	54739.06
656.391	54568.89
656.742	54545.84
657.094	54605.05
657.445	54723.01
657.796	54610.47
658.147	54529.12
658.498	54457.48
658.849	54508.55
659.2	54478.5
659.551	54353.53
659.902	54575.44
660.253	54464.94
660.604	54469.46
660.955	54228.56
661.306	54329.8
661.656	54321.21
662.007	54403.02
662.358	54324.15
662.708	54331.83
663.059	54289.8
663.409	54017.72
663.76	54302.46
664.11	54236.02
664.461	54276.24
664.811	54314.43
665.161	54248.22
665.511	54161.44
665.862	54224.72
666.212	54299.97
666.562	54280.08
666.912	54250.93
667.262	54133.42
667.612	54189.92
667.962	54190.37
668.312	54170.26
668.662	54303.59
669.011	54175
669.361	54167.32
669.711	53953.99
670.06	54011.62
670.41	53998.51
670.76	53937.04
671.109	54063.37
671.459	53991.5
671.808	54009.13
672.157	54066.98
672.507	53744.96
672.856	53784.96
673.205	53858.63
673.554	53960.54
673.904	53814.56
674.253	53869.25
674.602	53835.58
674.951	53387.45
675.3	53233.33
675.649	53774.56
675.998	53727.33
676.346	53674.45
676.695	53676.03
677.044	53553.32
677.393	53668.12
677.741	53584.06
678.09	53566.88
678.438	53537.5
678.787	53577.28
679.135	53564.17
679.484	53339.54
679.832	53554
680.181	53341.8
680.529	53442.82
680.877	53233.56
681.225	53158.53
681.573	53399.2
681.922	53134.8
682.27	53073.79
682.618	53156.27
682.966	53059.55
683.314	53031.08
683.661	52907.69
684.009	52786.56
684.357	52676.74
684.705	52689.84
685.053	52726
685.4	52708.15
685.748	52520.36
686.095	52513.58
686.443	52422.28
686.79	52211.21
687.138	52354.94
687.485	52355.61
687.832	52287.59
688.18	52329.85
688.527	52133.47
688.874	52028.84
689.221	51957.43
689.568	51801.96
689.915	51761.28
690.262	51846.25
690.609	51656.42
690.956	51595.41
691.303	51446.49
691.65	51340.27
691.997	51425.24
692.344	51160.39
692.69	51172.14
693.037	51220.73
693.383	50871.59
693.73	51039.72
694.077	50707.75
694.423	50889.21
694.769	50633.85
695.116	50590.24
695.462	50596.79
695.808	50499.39
696.155	50479.96
696.501	50317.7
696.847	50232.51
697.193	49954.77
697.539	50090.59
697.885	49872.29
698.231	49738.96
698.577	49870.48
698.923	49676.82
699.269	49438.63
699.614	49245.64
699.96	49291.06
700.306	49292.87
700.651	48968.59
700.997	49079.54
701.342	48942.15
701.688	48818.76
702.033	48658.76
702.379	48638.42
702.724	48419.22
703.069	48694.92
703.415	48273.46
703.76	48209.51
704.105	48212.9
704.45	48075.05
704.795	47762.97
705.14	47708.96
705.485	47611.11
705.83	47504.22
706.175	47673.48
706.52	47469.42
706.865	47354.16
707.209	47379.93
707.554	47130.44
707.899	47348.29
708.243	47008.64
708.588	47061.97
708.932	46756.89
709.277	46699.72
709.621	46785.82
709.966	46525.94
710.31	46501.53
710.654	46303.57
710.998	46290.24
711.342	46288.66
711.687	46181.77
712.031	45990.81
712.375	45878.72
712.719	45934.31
713.063	45815.22
713.407	45803.02
713.75	45637.15
714.094	45716.69
714.438	45363.03
714.782	45511.95
715.125	45303.37
715.469	45290.72
715.812	44878.3
716.156	44757.62
716.499	44861.57
716.843	44861.57
717.186	44584.75
717.53	44815.25
717.873	44764.85
718.216	44570.28
718.559	44545.2
718.902	44266.11
719.246	44655.93
719.589	44305.66
719.932	44076.74
720.275	44029.96
720.617	44018.66
720.96	43926.46
721.303	43931.88
721.646	43794.26
721.989	43618.22
722.331	43678.1
722.674	43662.51
723.016	43658.67
723.359	43628.39
723.701	43630.42
724.044	43244.89
724.386	43038.57
724.729	43361.05
725.071	43122.86
725.413	43107.72
725.755	43015.52
726.097	42829.54
726.439	42746.38
726.782	42770.33
727.124	42777.79
727.465	42587.06
727.807	42460.51
728.149	42448.76
728.491	42413.73
728.833	42468.19
729.175	42221.19
729.516	42220.06
729.858	42018.71
730.199	42218.03
730.541	42091.93
730.882	41995.89
731.224	42140.06
731.565	41849.68
731.906	41744.14
732.248	41891.48
732.589	41524.49
732.93	41587.76
733.271	41599.29
733.612	41550.7
733.953	41537.82
734.294	41304.15
734.635	41280.2
734.976	41384.15
735.317	41239.97
735.658	41203.59
735.999	41234.55
736.339	40858.74
736.68	41122.92
737.021	40883.83
737.361	40628.92
737.702	40877.27
738.042	40774.45
738.383	40619.88
738.723	40748.24
739.063	40630.05
739.404	40734.9
739.744	40432.54
740.084	40438.64
740.424	40300.56
740.764	40278.19
741.104	40400.45
741.444	40164.3
741.784	40000.91
742.124	40062.6
742.464	39955.71
742.804	39913.23
743.143	39890.41
743.483	39909.16
743.823	39658.55
744.162	39732.67
744.502	39639.34
744.841	39519.79
745.181	39715.95
745.52	39360.02
745.86	39436.41
746.199	39436.18
746.538	39272.12
746.877	39312.79
747.216	39207.49
747.556	39010.43
747.895	38880.94
748.234	38789.87
748.573	38790.77
748.911	38727.5
749.25	38758.23
749.589	38551.68
749.928	38510.56
750.267	38403.67
750.605	38349.88
750.944	38307.4
751.283	38198.25
751.621	38235.08
751.96	38071.02
752.298	37917.35
752.636	37971.13
752.975	37719.84
753.313	37684.36
753.651	37752.38
753.989	37527.53
754.327	37542.45
754.666	37364.6
755.004	37442.79
755.342	37560.98
755.679	37376.8
756.017	37073.08
756.355	37073.76
756.693	36948.34
757.031	36832.18
757.368	36785.18
757.706	36670.15
758.044	36662.92
758.381	36674.67
758.719	36461.34
759.056	36378.86
759.394	36335.47
759.731	36136.83
760.068	36008.25
760.405	35911.98
760.743	35834.02
761.08	35805.77
761.417	35637.41
761.754	35593.8
762.091	35555.83
762.428	35464.76
762.765	35248.04
763.102	35288.27
763.438	34975.96
763.775	34948.39
764.112	34884.66
764.449	34794.27
764.785	34603.77
765.122	34381.85
765.458	34248.52
765.795	34287.84
766.131	34298.91
766.467	34081.75
766.804	33815.54
767.14	33719.04
767.476	33713.17
767.812	33640.4
768.148	33576.22
768.485	33385.49
768.821	33257.36
769.157	33179.17
769.492	33091.71
769.828	32967.42
770.164	32761.78
770.5	32773.98
770.836	32703.25
771.171	32392.07
771.507	32369.93
771.842	32123.6
772.178	32218.74
772.513	32206.54
772.849	32048.35
773.184	31959.54
773.519	31876.15
773.855	31735.37
774.19	31637.29
774.525	31362.49
774.86	31427.8
775.195	31294.47
775.53	31193.46
775.865	31037.98
776.2	30682.06
776.535	30622.85
776.87	30618.11
777.205	30512.57
777.539	30447.04
777.874	30403.88
778.209	30259.47
778.543	30116.88
778.878	30000.72
779.212	29896.09
779.547	29713.5
779.881	29841.4
780.215	29449.55
780.55	29586.95
780.884	29487.29
781.218	29289.55
781.552	29217.01
781.886	29119.16
782.22	29058.6
782.554	28810.02
782.888	28659.74
783.222	28535.68
783.556	28415.23
783.889	28465.17
784.223	28266.53
784.557	28135.46
784.89	28246.64
785.224	27920.78
785.557	27826.32
785.891	27870.38
786.224	27756.26
786.558	27557.85
786.891	27276.95
787.224	27343.84
787.557	27125.77
787.891	27222.94
788.224	27062.72
788.557	27171.42
788.89	27063.17
789.223	26983.17
789.556	26720.36
789.888	26669.06
790.221	26613.92
790.554	26407.14
790.887	26443.53
791.219	26303.42
791.552	26222.52
791.884	26116.53
792.217	26023.2
792.549	25870.66
792.882	25855.29
793.214	25654.4
793.546	25593.15
793.879	25472.93
794.211	25305.7
794.543	25357
794.875	25296.67
795.207	25301.86
795.539	25158.36
795.871	25237.46
796.203	24940.29
796.535	24643.12
796.867	24723.57
797.198	24655.33
797.53	24818.03
797.862	24572.62
798.193	24600.64
798.525	24355.67
798.856	24331.49
799.188	24095.57
799.519	24025.74
799.85	23955.91
800.182	24046.08
800.513	23987.32
800.844	23809.25
801.175	23907.78
801.506	23899.41
801.837	23727.22
802.168	23626.2
802.499	23552.76
802.83	23367
803.161	23458.52
803.491	23318.41
803.822	23286.77
804.153	23188.7
804.483	22982.38
804.814	23001.58
805.145	22914.81
805.475	22795.94
805.805	22722.27
806.136	22802.04
806.466	22780.35
806.796	22706
807.126	22522.95
807.457	22434.59
807.787	22435.27
808.117	22316.18
808.447	22291.09
808.777	22203.64
809.107	22281.38
809.436	22108.95
809.766	22142.85
810.096	22046.58
810.426	21925
810.755	22001.61
811.085	21849.75
811.414	21675.52
811.744	21509.87
812.073	21490.66
812.403	21529.08
812.732	21469.2
813.061	21391.23
813.39	21304.68
813.719	21297.45
814.049	21329.76
814.378	21233.72
814.707	21162.08
815.036	21107.4
815.365	20982.88
815.693	20867.18
816.022	20866.73
816.351	20781.53
816.68	20744.47
817.008	20784.02
817.337	20543.12
817.665	20476
817.994	20608.2
818.322	20537.69
818.651	20482.78
818.979	20335.44
819.307	20436
819.636	20311.03
819.964	20179.51
820.292	20269.45
820.62	20225.84
820.948	20082.34
821.276	20172.73
821.604	20219.28
821.932	20230.36
822.259	20127.54
822.587	20153.75
822.915	20021.1
823.243	20105.16
823.57	20170.7
823.898	20049.57
824.225	19961.66
824.553	20000.76
824.88	20043.02
825.207	20124.37
825.535	20040.76
825.862	20100.42
826.189	20071.27
826.516	20193.52
826.843	20162.79
827.17	20227.42
827.497	20226.29
827.824	20063.58
828.151	20065.62
828.478	19994.66
828.805	20087.54
829.131	19909.01
829.458	20064.71
829.785	19940.87
830.111	20061.1
830.438	20062.68
830.764	19928.9
831.09	20094.99
831.417	19880.08
831.743	19994.21
832.069	19930.7
832.395	19807.09
832.722	19864.72
833.048	19876.69
833.374	19833.53
833.7	19723.93
834.026	19778.17
834.351	19754.44
834.677	19740.88
835.003	19758.96
835.329	19750.6
835.654	19665.4
835.98	19638.96
836.306	19756.7
836.631	19567.1
836.956	19695.68
837.282	19547.89
837.607	19498.17
837.932	19545.63
838.258	19523.26
838.583	19366.43
838.908	19351.28
839.233	19277.61
839.558	19241.91
839.883	19263.6
840.208	19164.62
840.533	19211.63
840.858	19286.65
841.182	19153.55
841.507	19190.16
841.832	18974.8
842.156	19085.08
842.481	18914.69
842.805	18845.31
843.13	18874.46
843.454	18875.82
843.778	18722.15
844.103	18748.81
844.427	18679.44
844.751	18657.52
845.075	18630.17
845.399	18576.16
845.723	18595.6
846.047	18449.39
846.371	18382.72
846.695	18304.98
847.019	18194.48
847.343	18056.63
847.666	18013.69
847.99	17962.62
848.313	18012.56
848.637	17783.87
848.96	17782.74
849.284	17756.75
849.607	17582.29
849.931	17505.46
850.254	17417.1
850.577	17413.48
850.9	17288.97
851.223	17179.82
851.546	17110.44
851.869	16991.8
852.192	17126.26
852.515	16903.89
852.838	16843.1
853.161	16821.41
853.483	16771.69
853.806	16739.6
854.129	16727.85
854.451	16594.3
854.774	16555.43
855.096	16400.18
855.419	16462.77
855.741	16374.19
856.063	16370.8
856.385	16318.82
856.708	16182.78
857.03	16163.57
857.352	16253.97
857.674	15956.57
857.996	16004.71
858.318	15852.85
858.64	16013.07
858.961	15857.59
859.283	15820.98
859.605	15769.68
859.926	15757.93
860.248	15703.47
860.57	15672.29
860.891	15609.24
861.212	15615.11
861.534	15479.75
861.855	15487.43
862.176	15498.96
862.498	15545.51
862.819	15565.85
863.14	15384.61
863.461	15390.71
863.782	15321.56
864.103	15373.99
864.424	15259.19
864.745	15237.95
865.065	15169.7
865.386	15169.7
865.707	15237.72
866.027	15161.56
866.348	15149.81
866.668	15137.16
866.989	15121.34
867.309	14957.05
867.63	14984.85
867.95	14922.7
868.27	14832.99
868.59	14946.2
868.91	14906.2
869.23	14931.74
869.55	14920.22
869.87	14950.04
870.19	14827.34
870.51	14795.47
870.83	14758.41
871.15	14658.53
871.469	14628.02
871.789	14636.15
872.109	14610.84
872.428	14494.69
872.748	14609.71
873.067	14537.63
873.386	14530.85
873.706	14532.43
874.025	14501.47
874.344	14422.6
874.663	14464.86
874.982	14443.39
875.301	14367.91
875.62	14361.13
875.939	14260.35
876.258	14363.39
876.577	14261.25
876.896	14278.65
877.214	14268.25
877.533	14239.78
877.852	14228.48
878.17	14203.4
878.489	14223.74
878.807	14115.26
879.125	14035.27
879.444	14120.91
879.762	14083.63
880.08	14029.62
880.398	13951.88
880.716	13991.65
881.034	13978.54
881.352	13949.85
881.67	13942.16
881.988	13860.81
882.306	13867.36
882.624	13803.86
882.941	13633.7
883.259	13670.3
883.577	13602.96
883.894	13614.03
884.212	13603.19
884.529	13552.57
884.846	13576.3
885.164	13549.4
885.481	13498.78
885.798	13492.91
886.115	13273.48
886.432	13360.93
886.75	13330.88
887.067	13403.42
887.383	13242.29
887.7	13350.54
888.017	13261.73
888.334	13279.13
888.651	13151.22
888.967	13196.87
889.284	13106.93
889.6	13141.05
889.917	13055.41
890.233	13001.4
890.55	12931.57
890.866	12916.2
891.182	12866.03
891.498	12786.94
891.815	12695.19
892.131	12761.4
892.447	12611.35
892.763	12650.44
893.079	12725.02
893.395	12577.9
893.71	12578.13
894.026	12517.11
894.342	12431.24
894.657	12399.15
894.973	12425.82
895.289	12360.28
895.604	12277.35
895.92	12161.87
896.235	12186.05
896.55	12234.18
896.865	12107.41
897.181	12134.75
897.496	12099.5
897.811	12092.94
898.126	12024.47
898.441	11958.26
898.756	11929.33
899.071	11881.2
899.386	11859.5
899.7	11726.85
900.015	11656.12
900.33	11664.48
900.644	11609.34
900.959	11675.33
901.273	11629.91
901.588	11497.71
901.902	11444.37
902.216	11465.16
902.531	11417.03
902.845	11317.37
903.159	11328.45
903.473	11177.04
903.787	11196.02
904.101	11065.85
904.415	11079.64
904.729	11008.23
905.042	11009.13
905.356	10982.69
905.67	11029.92
905.984	10968.45
906.297	10883.26
906.611	10876.25
906.924	10858.63
907.237	10798.29
907.551	10802.13
907.864	10715.58
908.177	10706.99
908.491	10588.8
908.804	10551.29
909.117	10574.57
909.43	10490.95
909.743	10444.17
910.056	10399.66
910.368	10365.53
910.681	10340
910.994	10274.24
911.307	10261.35
911.619	10184.52
911.932	10104.52
912.244	10076.5
912.557	10116.05
912.869	9968.25
913.181	9970.97
913.494	9997.18
913.806	9882.38
914.118	9871.53
914.43	9786.11
914.742	9788.15
915.054	9813.68
915.366	9738.66
915.678	9664.76
915.99	9622.05
916.302	9635.38
916.613	9472.45
916.925	9510.41
917.236	9458.21
917.548	9386.35
917.859	9407.59
918.171	9310.87
918.482	9297.09
918.794	9267.48
919.105	9226.58
919.416	9162.63
919.727	9104.32
920.038	9110.2
920.349	8963.54
920.66	8960.82
920.971	8958.11
921.282	8934.61
921.593	8852.13
921.903	8863.2
922.214	8790.43
922.525	8738.91
922.835	8776.87
923.146	8648.74
923.456	8672.24
923.767	8667.95
924.077	8582.98
924.387	8485.13
924.697	8518.12
925.008	8503.43
925.318	8449.42
925.628	8413.04
925.938	8393.83
926.248	8309.77
926.558	8290.56
926.867	8259.6
927.177	8201.75
927.487	8193.16
927.796	8122.2
928.106	8077.23
928.416	8051.7
928.725	8010.34
929.034	8039.72
929.344	7935.09
929.653	7941.19
929.962	7846.95
930.271	7876.78
930.581	7806.5
930.89	7754.3
931.199	7715.66
931.508	7714.53
931.817	7674.08
932.125	7651.03
932.434	7682.89
932.743	7582.1
933.051	7476.57
933.36	7505.49
933.669	7445.84
933.977	7392.05
934.286	7404.03
934.594	7420.07
934.902	7314.54
935.21	7331.04
935.519	7280.19
935.827	7234.77
936.135	7217.59
936.443	7153.87
936.751	7150.93
937.059	7105.51
937.367	7072.51
937.674	7121.32
937.982	7050.59
938.29	7008.11
938.597	6996.81
938.905	6941.44
939.213	6916.13
939.52	6907.77
939.827	6907.09
940.135	6828.22
940.442	6768.56
940.749	6761.11
941.056	6745.06
941.363	6701.45
941.67	6648.79
941.977	6628
942.284	6596.82
942.591	6591.39
942.898	6534.22
943.205	6521.79
943.511	6474.34
943.818	6446.54
944.125	6383.26
944.431	6420.1
944.738	6367.67
945.044	6368.58
945.35	6331.06
945.657	6231.18
945.963	6248.8
946.269	6211.07
946.575	6214.23
946.881	6143.95
947.187	6194.34
947.493	6165.87
947.799	6074.12
948.105	6065.76
948.41	6088.81
948.716	6039.77
949.022	5929.27
949.327	5987.34
949.633	5931.52
949.938	5910.06
950.244	5906.89
950.549	5890.17
950.854	5781.02
951.16	5770.85
951.465	5771.98
951.77	5744.86
952.075	5707.58
952.38	5726.56
952.685	5663.28
952.99	5628.26
953.294	5616.5
953.599	5597.75
953.904	5586.9
954.209	5529.05
954.513	5530.63
954.818	5471.88
955.122	5451.54
955.426	5468.03
955.731	5439.11
956.035	5417.19
956.339	5369.73
956.643	5392.33
956.948	5355.95
957.252	5332.67
957.556	5285.21
957.86	5257.87
958.163	5274.82
958.467	5191.43
958.771	5182.84
959.075	5231.43
959.378	5125.22
959.682	5167.7
959.985	5122.96
960.289	5094.26
960.592	5019.46
960.896	5064.2
961.199	5008.16
961.502	4992.79
961.805	4955.28
962.108	4948.5
962.411	4949.4
962.714	4862.85
963.017	4843.64
963.32	4860.82
963.623	4846.36
963.926	4855.62
964.228	4828.5
964.531	4787.37
964.833	4799.58
965.136	4772.69
965.438	4737.21
965.741	4693.37
966.043	4687.72
966.345	4657.89
966.648	4663.99
966.95	4622.18
967.252	4564.56
967.554	4582.18
967.856	4600.49
968.158	4522.07
968.46	4513.48
968.761	4522.52
969.063	4481.85
969.365	4427.38
969.666	4434.84
969.968	4407.27
970.269	4385.35
970.571	4374.5
970.872	4382.19
971.174	4313.04
971.475	4352.58
971.776	4295.41
972.077	4310.1
972.378	4263.55
972.679	4227.84
972.98	4172.93
973.281	4187.62
973.582	4165.47
973.883	4190.1
974.183	4100.39
974.484	4113.49
974.785	4121.63
975.085	4071.91
975.386	4077.56
975.686	4047.51
975.986	4013.84
976.287	4024
976.587	3994.17
976.887	3999.15
977.187	3980.39
977.487	3929.77
977.787	3893.84
978.087	3886.83
978.387	3850
978.687	3883.67
978.987	3859.49
979.286	3831.24
979.586	3833.95
979.885	3751.47
980.185	3810.22
980.484	3736.1
980.784	3772.26
981.083	3714.41
981.382	3692.94
981.682	3719.38
981.981	3682.54
982.28	3656.1
982.579	3678.93
982.878	3628.31
983.177	3592.83
983.475	3593.51
983.774	3566.84
984.073	3572.26
984.372	3563.9
984.67	3556.67
984.969	3522.55
985.267	3494.07
985.566	3473.74
985.864	3470.57
986.162	3439.61
986.461	3452.72
986.759	3439.39
987.057	3400.07
987.355	3387.64
987.653	3364.59
987.951	3353.51
988.249	3350.58
988.547	3363.91
988.844	3300.63
989.142	3283.46
989.44	3270.13
989.737	3242.1
990.035	3183.35
990.332	3214.53
990.63	3251.37
990.927	3197.59
991.224	3217.92
991.521	3191.03
991.819	3188.09
992.116	3108.1
992.413	3127.3
992.71	3129.34
993.006	3136.57
993.303	3058.15
993.6	3085.5
993.897	3066.74
994.193	3014.99
994.49	3024.26
994.787	3003.01
995.083	2974.77
995.379	2970.92
995.676	2919.63
995.972	2969.34
996.268	2925.05
996.565	2891.15
996.861	2905.84
997.157	2888.44
997.453	2876.69
997.749	2800.76
998.044	2845.96
998.34	2817.71
998.636	2832.17
998.932	2816.35
999.227	2790.59
999.523	2751.72
999.818	2763.47
1000.114	2732.29
1000.409	2685.96
1000.704	2709.91
1001	2665.17
1001.295	2618.84
1001.59	2658.62
1001.885	2612.06
1002.18	2657.94
1002.475	2596.7
1002.77	2599.64
1003.065	2575.91
1003.359	2548.56
1003.654	2551.05
1003.949	2529.81
1004.243	2550.37
1004.538	2496.81
1004.832	2481.67
1005.127	2504.72
1005.421	2456.36
1005.715	2452.07
1006.009	2412.3
1006.304	2433.54
1006.598	2396.93
1006.892	2387.21
1007.186	2408.45
1007.48	2374.56
1007.773	2350.15
1008.067	2348.79
1008.361	2313.99
1008.655	2307.67
1008.948	2309.25
1009.242	2330.72
1009.535	2270.6
1009.829	2275.12
1010.122	2213.2
1010.415	2234.22
1010.708	2200.32
1011.001	2206.2
1011.295	2200.55
1011.588	2204.39
1011.881	2191.51
1012.173	2140.44
1012.466	2153.55
1012.759	2108.8
1013.052	2138.4
1013.344	2106.09
1013.637	2119.65
1013.93	2054.11
1014.222	2088.69
1014.514	2061.57
1014.807	2026.32
1015.099	2023.6
1015.391	2028.8
1015.683	2001.01
1015.976	1981.12
1016.268	1966.43
1016.56	1966.21
1016.851	1942.03
1017.143	1918.97
1017.435	1936.6
1017.727	1913.55
1018.018	1863.16
1018.31	1857.96
1018.602	1877.62
1018.893	1865.64
1019.185	1882.14
1019.476	1818.64
1019.767	1805.76
1020.058	1803.05
1020.35	1798.3
1020.641	1794.23
1020.932	1765.76
1021.223	1761.24
1021.514	1783.61
1021.804	1729.15
1022.095	1737.06
1022.386	1716.72
1022.677	1682.37
1022.967	1689.6
1023.258	1678.08
1023.548	1682.37
1023.839	1670.39
1024.129	1639.89
1024.419	1640.56
1024.709	1626.78
1025	1631.07
1025.29	1605.76
1025.58	1615.71
1025.87	1585.88
1026.16	1559.66
1026.449	1552.2
1026.739	1536.39
1027.029	1542.49
1027.319	1548.82
1027.608	1514.24
1027.898	1498.65
1028.187	1512.43
1028.477	1500
1028.766	1480.79
1029.055	1478.76
1029.344	1445.54
1029.634	1455.26
1029.923	1443.28
1030.212	1440.8
1030.501	1419.1
1030.79	1402.83
1031.078	1403.73
1031.367	1380.68
1031.656	1367.35
1031.945	1368.93
1032.233	1343.85
1032.522	1319.89
1032.81	1330.06
1033.099	1336.39
1033.387	1314.02
1033.675	1302.95
1033.963	1303.62
1034.251	1276.05
1034.54	1275.38
1034.828	1277.64
1035.116	1250.52
1035.403	1250.97
1035.691	1234.25
1035.979	1240.57
1036.267	1231.99
1036.554	1202.61
1036.842	1200.58
1037.129	1193.12
1037.417	1208.71
1037.704	1175.72
1037.992	1208.49
1038.279	1177.98
1038.566	1171.88
1038.853	1171.88
1039.14	1171.88
