Data from plate_porcelain_FLMS001491_030.txt Node
Date: Tue Feb 07 11:19:02 GMT 2017
User: dcchb
Spectrometer: FLMS00149
Trigger mode: 0
Integration Time (sec): 2.000000E-2
Scans to average: 10
Electric dark correction enabled: true
Nonlinearity correction enabled: false
Boxcar width: 0
XAxis mode: Wavelengths
Number of Pixels in Spectrum: 2048
>>>>>Begin Spectral Data<<<<<
341.393	-27.02
341.776	-27.02
342.16	-27.02
342.543	-59.56
342.927	-90.29
343.31	-44.65
343.693	-60.24
344.077	-67.92
344.46	-40.58
344.843	-57.98
345.226	-28.15
345.61	-23.63
345.993	-24.08
346.376	-10.97
346.759	-2.39
347.142	23.6
347.525	42.36
347.908	50.94
348.291	60.89
348.674	76.48
349.057	106.31
349.44	129.36
349.823	141.34
350.206	137.27
350.588	198.74
350.971	242.13
351.354	255.46
351.737	261.11
352.119	275.8
352.502	293.42
352.884	304.5
353.267	318.06
353.65	314.44
354.032	330.49
354.414	311.73
354.797	340.65
355.179	369.13
355.562	367.55
355.944	368.68
356.326	350.6
356.709	380.65
357.091	371.61
357.473	374.78
357.855	376.59
358.238	385.17
358.62	376.59
359.002	368.9
359.384	387.21
359.766	382.01
360.148	383.59
360.53	373.42
360.912	378.62
361.294	394.44
361.676	387.89
362.057	395.57
362.439	386.08
362.821	393.53
363.203	379.98
363.584	385.63
363.966	379.3
364.348	368.68
364.729	404.83
365.111	371.39
365.493	373.42
365.874	379.3
366.256	377.26
366.637	397.6
367.019	390.37
367.4	388.56
367.781	399.64
368.163	378.62
368.544	396.47
368.925	385.63
369.306	409.58
369.688	385.85
370.069	401.22
370.45	388.34
370.831	408.22
371.212	410.94
371.593	402.35
371.974	421.56
372.355	399.64
372.736	429.69
373.117	426.3
373.498	415.46
373.879	423.14
374.26	433.53
374.641	408.9
375.021	431.73
375.402	424.04
375.783	453.65
376.163	463.82
376.544	478.05
376.925	450.71
377.305	423.36
377.686	439.41
378.066	463.36
378.447	452.97
378.827	450.03
379.208	462.46
379.588	461.56
379.968	465.85
380.349	494.1
380.729	479.41
381.109	476.47
381.489	484.61
381.87	488.45
382.25	525.73
382.63	494.32
383.01	498.16
383.39	506.98
383.77	535
384.15	490.71
384.53	529.12
384.91	532.97
385.29	553.76
385.67	538.39
386.049	548.79
386.429	576.58
386.809	552.4
387.189	564.6
387.568	567.54
387.948	570.71
388.328	605.05
388.707	599.63
389.087	603.92
389.466	614.77
389.846	607.77
390.225	632.62
390.605	635.79
390.984	645.96
391.363	632.85
391.743	646.86
392.122	659.74
392.501	689.35
392.881	690.48
393.26	687.99
393.639	692.96
394.018	707.88
394.397	711.72
394.776	706.97
395.155	703.58
395.534	723.92
395.913	727.09
396.292	752.62
396.671	749.01
397.05	749.68
397.429	745.84
397.808	747.2
398.186	754.2
398.565	787.42
398.944	785.16
399.323	782
399.701	809.12
400.08	805.95
400.458	814.54
400.837	833.3
401.215	843.01
401.594	839.4
401.972	879.4
402.351	877.82
402.729	883.24
403.107	873.52
403.486	909.45
403.864	890.7
404.242	918.49
404.62	926.18
404.999	925.27
405.377	943.12
405.755	970.69
406.133	970.24
406.511	955.33
406.889	975.67
407.267	1000.07
407.645	1023.35
408.023	1061.99
408.401	1022.22
408.779	1072.39
409.156	1088.88
409.534	1100.41
409.912	1082.78
410.29	1135.21
410.667	1138.83
411.045	1168.66
411.422	1166.85
411.8	1182.67
412.178	1189.22
412.555	1242.1
412.933	1228.32
413.31	1266.51
413.687	1293.17
414.065	1294.53
414.442	1316.67
414.819	1348.99
415.197	1332.27
415.574	1387.41
415.951	1371.36
416.328	1381.08
416.705	1416.78
417.082	1422.43
417.46	1440.51
417.837	1449.78
418.214	1447.97
418.591	1477.57
418.967	1488.65
419.344	1518.48
419.721	1525.71
420.098	1510.79
420.475	1564.8
420.852	1548.08
421.228	1586.72
421.605	1593.5
421.982	1620.17
422.358	1666.95
422.735	1645.03
423.111	1668.3
423.488	1694.97
423.864	1699.94
424.241	1753.27
424.617	1777.45
424.994	1757.11
425.37	1784.23
425.746	1812.48
426.123	1852.48
426.499	1863.55
426.875	1880.95
427.251	1936.55
427.627	1924.34
428.003	1953.95
428.379	1984
428.756	2009.09
429.132	2042.98
429.507	2086.6
429.883	2113.04
430.259	2130.21
430.635	2154.62
431.011	2193.26
431.387	2202.98
431.763	2280.04
432.138	2282.07
432.514	2322.52
432.89	2342.64
433.265	2386.48
433.641	2427.15
434.016	2450.66
434.392	2471.22
434.767	2535.63
435.143	2508.51
435.518	2543.53
435.894	2607.94
436.269	2607.04
436.644	2680.93
437.02	2677.09
437.395	2734.72
437.77	2770.87
438.145	2798.9
438.52	2823.3
438.895	2851.55
439.271	2875.5
439.646	2955.73
440.021	2953.69
440.395	2989.4
440.77	2943.75
441.145	3013.35
441.52	3040.24
441.895	3045.89
442.27	3110.3
442.645	3078.89
443.019	3174.03
443.394	3131.99
443.769	3178.55
444.143	3155.5
444.518	3242.27
444.892	3214.7
445.267	3269.84
445.641	3293.12
446.016	3372.89
446.39	3340.58
446.764	3389.61
447.139	3383.96
447.513	3466.22
447.887	3450.63
448.262	3461.48
448.636	3517.97
449.01	3545.32
449.384	3584.41
449.758	3621.7
450.132	3638.2
450.506	3669.15
450.88	3680.45
451.254	3722.03
451.628	3767.91
452.002	3851.75
452.376	3878.19
452.75	3874.12
453.123	3940.11
453.497	3983.5
453.871	4077.73
454.244	4093.32
454.618	4094.45
454.992	4211.06
455.365	4260.78
455.739	4268.24
456.112	4394.33
456.486	4405.41
456.859	4457.83
457.232	4566.76
457.606	4517.27
457.979	4550.94
458.352	4691.5
458.725	4774.21
459.099	4765.4
459.472	4843.36
459.845	4923.81
460.218	4992.74
460.591	5017.37
460.964	5046.07
461.337	5196.35
461.71	5252.62
462.083	5358.15
462.456	5318.15
462.829	5373.06
463.201	5507.98
463.574	5492.84
463.947	5607.64
464.32	5744.58
464.692	5750.23
465.065	5806.5
465.438	5883.33
465.81	6010.34
466.183	6128.07
466.555	6194.96
466.928	6254.4
467.3	6280.16
467.672	6340.05
468.045	6528.97
468.417	6564.22
468.789	6638.79
469.161	6735.29
469.534	6799.47
469.906	6971.22
470.278	6995.62
470.65	7100.48
471.022	7262.73
471.394	7363.07
471.766	7442.62
472.138	7507.47
472.51	7692.55
472.882	7887.35
473.253	7902.04
473.625	8038.98
473.997	8194.23
474.369	8280.11
474.74	8416.15
475.112	8509.03
475.484	8719.42
475.855	8790.15
476.227	8913.31
476.598	9195.34
476.97	9263.81
477.341	9520.3
477.713	9602.11
478.084	9710.13
478.455	9914.64
478.827	10030.8
479.198	10379.71
479.569	10418.58
479.94	10693.83
480.311	10805.69
480.682	11076.19
481.053	11289.97
481.424	11425.11
481.795	11579.91
482.166	11778.55
482.537	11889.05
482.908	12124.07
483.279	12296.72
483.65	12527.45
484.021	12774
484.391	12905.07
484.762	13019.64
485.133	13196.36
485.503	13451.27
485.874	13796.57
486.244	13880.86
486.615	14207.63
486.985	14208.09
487.356	14621.64
487.726	14658.92
488.097	14949.99
488.467	15023.43
488.837	15300.71
489.207	15509.52
489.578	15839.23
489.948	15893.47
490.318	16255.72
490.688	16284.42
491.058	16399.44
491.428	16694.8
491.798	16881.01
492.168	17272.64
492.538	17316.48
492.908	17547.89
493.278	17857.26
493.648	17806.18
494.017	18100.19
494.387	18263.57
494.757	18339.5
495.126	18619.27
495.496	18739.72
495.866	18829.43
496.235	19143.55
496.605	19261.74
496.974	19294.28
497.344	19644.1
497.713	19714.16
498.082	19927.26
498.452	20087.93
498.821	20195.95
499.19	20296.97
499.559	20430.3
499.928	20660.57
500.298	20747.35
500.667	21049.49
501.036	20976.72
501.405	21115.93
501.774	21341.01
502.143	21497.16
502.512	21630.04
502.88	21782.8
503.249	21839.52
503.618	22081.78
503.987	22095.11
504.356	22301.21
504.724	22537.13
505.093	22693.29
505.462	22734.42
505.83	22853.96
506.199	23182.77
506.567	23413.04
506.936	23366.94
507.304	23683.32
507.672	23740.94
508.041	23976.64
508.409	24101.61
508.777	24405.56
509.145	24509.28
509.514	24583.86
509.882	24778.43
510.25	24821.59
510.618	25031.31
510.986	25155.14
511.354	25474.23
511.722	25752.19
512.09	25906.08
512.458	25899.08
512.826	26170.71
513.193	26346.07
513.561	26481.66
513.929	26725.05
514.297	26967.75
514.664	27288.87
515.032	27282.32
515.4	27558.7
515.767	27688.41
516.135	27812.93
516.502	27773.38
516.869	28312.57
517.237	28339.69
517.604	28320.48
517.972	28736.74
518.339	29058.09
518.706	28964.08
519.073	29129.73
519.44	29477.97
519.808	29750.05
520.175	29772.42
520.542	30261.68
520.909	30282.01
521.276	30523.59
521.643	30821.21
522.009	31121.54
522.376	31243.57
522.743	31453.06
523.11	31793.39
523.477	32036.77
523.843	32168.97
524.21	32591.11
524.577	32822.51
524.943	33003.3
525.31	33272.9
525.676	33544.98
526.043	33671.53
526.409	33798.08
526.776	34224.96
527.142	34466.54
527.508	34634.44
527.874	34883.93
528.241	35074.66
528.607	35216.57
528.973	35582.67
529.339	35626.51
529.705	35889.1
530.071	36195.76
530.437	36529.08
530.803	36611.79
531.169	36870.99
531.535	36870.77
531.901	37143.3
532.267	37227.82
532.632	37381.26
532.998	37612.9
533.364	37913.23
533.73	38134.69
534.095	38275.25
534.461	38370.84
534.826	38699.65
535.192	38873.43
535.557	39030.03
535.923	38978.73
536.288	39168.33
536.653	39461.89
537.019	39372.85
537.384	39569
537.749	39791.37
538.114	39994.53
538.479	39931.93
538.845	40231.13
539.21	40250.57
539.575	40460.28
539.94	40558.81
540.305	40921.51
540.67	40776.88
541.034	41129.64
541.399	41130.32
541.764	41325.34
542.129	41453.02
542.494	41505.45
542.858	41831.54
543.223	41744.09
543.587	42119.22
543.952	42040.12
544.316	42276.05
544.681	42287.8
545.045	42581.8
545.41	42682.82
545.774	42759.43
546.138	42789.03
546.503	42934.34
546.867	43047.33
547.231	43416.36
547.595	43540.87
547.959	43713.07
548.324	43675.33
548.688	43808.21
549.052	43971.6
549.416	44078.26
549.779	44207.75
550.143	44363.68
550.507	44500.85
550.871	44730
551.235	44787.85
551.599	45101.96
551.962	45165.01
552.326	45307.61
552.689	45539.01
553.053	45377.44
553.417	45561.61
553.78	46153.46
554.143	45861.49
554.507	46134.03
554.87	46403.17
555.234	46762.03
555.597	46624.18
555.96	46807.68
556.323	46956.38
556.686	47132.42
557.05	47290.38
557.413	47334
557.776	47439.98
558.139	47859.63
558.502	47798.84
558.865	47982.11
559.228	48162
559.59	48431.59
559.953	48443.57
560.316	48893.5
560.679	48802.21
561.041	49138.47
561.404	49218.47
561.767	49489.42
562.129	49270.89
562.492	49799.92
562.854	49752.01
563.217	49929.18
563.579	50053.92
563.941	50194.26
564.304	50375.05
564.666	50623.4
565.028	50762.38
565.39	50800.12
565.753	51066.78
566.115	51086.21
566.477	51248.47
566.839	51340.22
567.201	51582.7
567.563	51704.28
567.925	51890.94
568.287	51927.32
568.648	51980.43
569.01	52154.66
569.372	52397.14
569.734	52178.16
570.095	52440.08
570.457	52558.26
570.819	52617.7
571.18	52738.15
571.542	52915.54
571.903	52918.48
572.265	53118.7
572.626	53094.97
572.987	53162.77
573.349	53279.6
573.71	53459.26
574.071	53416.55
574.432	53610.21
574.794	53819.02
575.155	53806.59
575.516	53694.51
575.877	53900.15
576.238	53945.35
576.599	53983.99
576.96	54047.94
577.32	54058.34
577.681	54169.97
578.042	54179.92
578.403	54287.03
578.763	54365.22
579.124	54389.18
579.485	54438.44
579.845	54463.75
580.206	54413.81
580.566	54457.65
580.927	54564.99
581.287	54586.01
581.648	54557.08
582.008	54687.02
582.368	54697.42
582.728	54752.78
583.089	54688.6
583.449	54677.08
583.809	54698.77
584.169	54793.46
584.529	54601.6
584.889	54929.5
585.249	54771.77
585.609	54651.77
585.969	54829.17
586.329	54770.41
586.688	54902.38
587.048	54835.04
587.408	54721.15
587.768	54845.89
588.127	54781.94
588.487	54903.51
588.846	54995.04
589.206	54826.45
589.565	54896.06
589.925	54871.2
590.284	54867.81
590.643	54954.36
591.003	54915.27
591.362	55045.21
591.721	54934.7
592.08	54972.89
592.44	55105.32
592.799	55054.02
593.158	55024.87
593.517	55072.78
593.876	55081.81
594.235	54990.07
594.593	55139.44
594.952	55094.02
595.311	54930.41
595.67	55153.68
596.029	55176.05
596.387	55230.29
596.746	55186.67
597.104	55174.69
597.463	55249.27
597.822	55319.1
598.18	55181.92
598.538	55284.29
598.897	55345.08
599.255	55151.19
599.613	55536.72
599.972	55329.72
600.33	55428.02
600.688	55328.59
601.046	55505.76
601.404	55536.94
601.762	55571.52
602.12	55652.19
602.478	55630.27
602.836	55672.99
603.194	55503.5
603.552	55566.55
603.91	55529.03
604.268	55631.63
604.625	55608.81
604.983	55729.48
605.341	55550.05
605.698	55718.18
606.056	55803.15
606.413	55788.01
606.771	55893.77
607.128	55825.3
607.485	55752.76
607.843	55839.76
608.2	55997.72
608.557	56013.54
608.914	55965.63
609.272	56018.74
609.629	56084.05
609.986	56179.64
610.343	56042.47
610.7	56283.36
611.057	56330.14
611.414	56347.32
611.771	56210.15
612.127	56374.21
612.484	56296.02
612.841	56417.15
613.198	56310.93
613.554	56361.78
613.911	56463.92
614.267	56501.21
614.624	56448.78
614.98	56518.61
615.337	56699.4
615.693	56611.04
616.05	56585.28
616.406	56679.06
616.762	56646.29
617.118	56583.92
617.475	56590.02
617.831	56687.42
618.187	56678.38
618.543	56779.85
618.899	56892.39
619.255	56844.71
619.611	56811.49
619.967	56828.89
620.323	56979.39
620.678	56913.63
621.034	56813.29
621.39	56790.47
621.746	56790.47
622.101	57047.86
622.457	56863.69
622.812	56883.8
623.168	56943.23
623.523	56939.84
623.879	57025.04
624.234	56881.54
624.589	56980.52
624.945	56970.13
625.3	56907.3
625.655	56906.85
626.01	56956.57
626.365	56966.51
626.72	56903.46
627.075	56962.44
627.43	56910.47
627.785	56801.77
628.14	56903.24
628.495	56898.26
628.85	56787.76
629.205	56737.82
629.559	56853.75
629.914	56765.39
630.269	56812.39
630.623	56714.09
630.978	56686.52
631.332	56827.08
631.687	56834.31
632.041	56637.25
632.396	56746.4
632.75	56559.06
633.104	56615.33
633.459	56492.85
633.813	56461.67
634.167	56552.06
634.521	56518.84
634.875	56541.66
635.229	56417.37
635.583	56344.15
635.937	56354.55
636.291	56302.12
636.645	56322.01
636.999	56211.28
637.352	56268.9
637.706	56180.32
638.06	56258.28
638.413	56182.8
638.767	56104.39
639.121	56154.1
639.474	55993.88
639.828	55978.51
640.181	56027.1
640.534	55951.4
640.888	55888.35
641.241	55815.81
641.594	55873.43
641.947	55964.5
642.301	55837.27
642.654	55848.35
643.007	55850.61
643.36	55739.2
643.713	55637.28
644.066	55815.35
644.419	55652.65
644.771	55448.36
645.124	55208.59
645.477	55104.64
645.83	54917.75
646.182	54822.16
646.535	54625.78
646.888	54716.4
647.24	54595.5
647.593	54741.26
647.945	54755.5
648.298	54502.85
648.65	54435.73
649.002	54380.59
649.355	54521.15
649.707	54512.11
650.059	54559.57
650.411	54916.17
650.763	54929.5
651.115	55131.98
651.467	55011.31
651.819	55056.05
652.171	54949.61
652.523	54912.78
652.875	54866.45
653.227	54794.14
653.578	54899.67
653.93	54852.22
654.282	54693.8
654.633	54633.24
654.985	54709.62
655.337	54728.15
655.688	54675.72
656.039	54791.65
656.391	54545.78
656.742	54639.11
657.094	54649.96
657.445	54765.44
657.796	54640.24
658.147	54600.47
658.498	54562.73
658.849	54575.84
659.2	54523.41
659.551	54504.65
659.902	54600.25
660.253	54393.47
660.604	54552.34
660.955	54301.72
661.306	54527.25
661.656	54400.93
662.007	54410.65
662.358	54367.48
662.708	54446.58
663.059	54368.61
663.409	54136.3
663.76	54323.19
664.11	54256.3
664.461	54251.55
664.811	54386.01
665.161	54252.46
665.511	54273.02
665.862	54200.71
666.212	54368.84
666.562	54262.17
666.912	54272.57
667.262	54190.31
667.612	54195.96
667.962	54348.95
668.312	54152.35
668.662	54333.59
669.011	54203.19
669.361	54078
669.711	54168.84
670.06	54142.86
670.41	54025.12
670.76	54018.79
671.109	54140.6
671.459	53949.19
671.808	54007.72
672.157	54028.28
672.507	53884.56
672.856	53874.39
673.205	53890.21
673.554	53918.46
673.904	53848.63
674.253	53980.83
674.602	53839.36
674.951	53470.56
675.3	53270.11
675.649	53783.32
675.998	53690.66
676.346	53722.53
676.695	53815.18
677.044	53583.77
677.393	53750.55
677.741	53793.03
678.09	53618.35
678.438	53585.81
678.787	53641.85
679.135	53611.12
679.484	53455.42
679.832	53594.62
680.181	53404.57
680.529	53441.18
680.877	53271.01
681.225	53237.34
681.573	53436.21
681.922	53268.75
682.27	53123.45
682.618	53220.39
682.966	53060.85
683.314	53170.9
683.661	52910.12
684.009	52831.93
684.357	52821.31
684.705	52770.24
685.053	52833.29
685.4	52764.59
685.748	52614.76
686.095	52556.91
686.443	52373.86
686.79	52399.4
687.138	52444.37
687.485	52437.59
687.832	52328.44
688.18	52316.01
688.527	52099.75
688.874	52160.76
689.221	51978.62
689.568	51867.44
689.915	51794.67
690.262	51838.28
690.609	51687.55
690.956	51522.59
691.303	51526.88
691.65	51353.32
691.997	51446.88
692.344	51255.25
692.69	51147.45
693.037	51201.92
693.383	50986.1
693.73	51031.07
694.077	50841.7
694.423	50855.26
694.769	50725.32
695.116	50554.93
695.462	50651.2
695.808	50544.08
696.155	50597.64
696.501	50414.37
696.847	50382.05
697.193	50063.19
697.539	50186.12
697.885	49931.89
698.231	49885.11
698.577	49858
698.923	49801.05
699.269	49580.26
699.614	49282.87
699.96	49361.74
700.306	49396.31
700.651	49174.63
700.997	49141.86
701.342	48985.48
701.688	48908.42
702.033	48820.06
702.379	48693.06
702.724	48606.28
703.069	48740.96
703.415	48290.58
703.76	48301.2
704.105	48271.15
704.45	48092.85
704.795	47734.44
705.14	47809.69
705.485	47757.71
705.83	47679.07
706.175	47768.11
706.52	47652.18
706.865	47434.33
707.209	47432.98
707.554	47350.04
707.899	47313.88
708.243	47106.66
708.588	47085.87
708.932	46715.03
709.277	46834.8
709.621	46868.25
709.966	46614.69
710.31	46765.87
710.654	46191.65
710.998	46385.32
711.342	46348.94
711.687	46251.54
712.031	46063.97
712.375	45929.96
712.719	45971.09
713.063	45783.3
713.407	46049.96
713.75	45764.09
714.094	45760.25
714.438	45593.02
714.782	45610.2
715.125	45368.4
715.469	45462.86
715.812	45215.41
716.156	45049.31
716.499	44985.36
716.843	44973.83
717.186	44849.09
717.53	44875.08
717.873	44797.57
718.216	44660.85
718.559	44718.02
718.902	44542.66
719.246	44639.83
719.589	44425.82
719.932	44299.73
720.275	44256.56
720.617	44218.82
720.96	44006.17
721.303	44042.1
721.646	44123.46
721.989	43839.17
722.331	44005.27
722.674	43771.83
723.016	43815.67
723.359	43701.1
723.701	43490.25
724.044	43381.56
724.386	43229.7
724.729	43396.25
725.071	43267.44
725.413	43215.91
725.755	43258.62
726.097	43089.59
726.439	42885.98
726.782	42836.49
727.124	43080.1
727.465	42645.31
727.807	42629.26
728.149	42584.52
728.491	42533.67
728.833	42620.9
729.175	42407.8
729.516	42383.62
729.858	42145.88
730.199	42318.31
730.541	42129.39
730.882	42121.7
731.224	42152.89
731.565	41783.86
731.906	41902.95
732.248	41986.57
732.589	41846.23
732.93	41569.18
733.271	41631.09
733.612	41769.85
733.953	41689.62
734.294	41424.32
734.635	41368.28
734.976	41450.31
735.317	41225.23
735.658	41212.57
735.999	41034.27
736.339	41066.59
736.68	41227.72
737.021	41001.73
737.361	40767.61
737.702	40955.63
738.042	40826.14
738.383	40775.98
738.723	40827.73
739.063	40588.86
739.404	40723.77
739.744	40540.73
740.084	40384.35
740.424	40445.59
740.764	40399.94
741.104	40505.47
741.444	40172.6
741.784	39920.41
742.124	40060.51
742.464	40015.32
742.804	39991.36
743.143	39763.57
743.483	39938.94
743.823	39813.52
744.162	39801.09
744.502	39717.7
744.841	39616.68
745.181	39734.87
745.52	39442.23
745.86	39571.94
746.199	39451.94
746.538	39393.64
746.877	39348.22
747.216	39271.61
747.556	39191.38
747.895	39272.74
748.234	39011.5
748.573	38925.4
748.911	38886.99
749.25	38816.03
749.589	38840.66
749.928	38826.87
750.267	38716.14
750.605	38593.66
750.944	38272.31
751.283	38374.68
751.621	38442.25
751.96	38089.04
752.298	38158.19
752.636	38209.72
752.975	37932.21
753.313	37820.35
753.651	37959.55
753.989	37596.4
754.327	37635.04
754.666	37491.77
755.004	37534.03
755.342	37582.61
755.679	37494.25
756.017	37258.78
756.355	37260.14
756.693	37116.41
757.031	37161.16
757.368	36856.3
757.706	36895.63
758.044	36670.32
758.381	36774.05
758.719	36569.53
759.056	36608.63
759.394	36370.67
759.731	36192.82
760.068	36080.96
760.405	35954.63
760.743	35857.24
761.08	35880.74
761.417	35754.86
761.754	35606.62
762.091	35619.73
762.428	35526.17
762.765	35433.97
763.102	35313.07
763.438	35228.78
763.775	34887.77
764.112	34982.46
764.449	34944.04
764.785	34742.24
765.122	34602.13
765.458	34394.45
765.795	34469.48
766.131	34285.3
766.467	34339.99
766.804	33915.59
767.14	33876.27
767.476	33864.52
767.812	33770.06
768.148	33771.87
768.485	33524.42
768.821	33339.11
769.157	33334.36
769.492	33236.29
769.828	33170.07
770.164	32937.76
770.5	32946.13
770.836	32819.8
771.171	32457.55
771.507	32555.18
771.842	32279.7
772.178	32308.18
772.513	32206.26
772.849	32309.53
773.184	32108.63
773.519	31973.27
773.855	31762.43
774.19	31601.08
774.525	31588.65
774.86	31547.07
775.195	31432.72
775.53	31159.28
775.865	31225.94
776.2	30938.95
776.535	30855.56
776.87	30805.62
777.205	30677.03
777.539	30538.05
777.874	30571.27
778.209	30256.7
778.543	30245.18
778.878	30147.78
779.212	30073.21
779.547	29920.67
779.881	29759.54
780.215	29708.47
780.55	29640.45
780.884	29520.68
781.218	29470.96
781.552	29453.11
781.886	29270.52
782.22	29118.43
782.554	29040.69
782.888	28743.98
783.222	28688.16
783.556	28442.74
783.889	28415.85
784.223	28292.91
784.557	28199.58
784.89	28198.68
785.224	28087.04
785.557	28031.68
785.891	27917.78
786.224	27781.29
786.558	27680.5
786.891	27493.84
787.224	27413.39
787.557	27380.85
787.891	27368.64
788.224	27227.86
788.557	27206.62
788.89	27057.01
789.223	27085.04
789.556	26928.88
789.888	26794.42
790.221	26653.64
790.554	26423.58
790.887	26504.03
791.219	26394.21
791.552	26348.78
791.884	26146.98
792.217	26063.59
792.549	25918.06
792.882	25876.03
793.214	25802.36
793.546	25810.95
793.879	25558.52
794.211	25377.28
794.543	25497.96
794.875	25363.27
795.207	25422.48
795.539	25212.09
795.871	25278.98
796.203	25012.77
796.535	24890.97
796.867	24840.12
797.198	24693.46
797.53	24744.76
797.862	24580.92
798.193	24601.03
798.525	24452.11
798.856	24609.62
799.188	24083.31
799.519	24172.12
799.85	24117.66
800.182	24061.84
800.513	24048.51
800.844	23851.9
801.175	23940.71
801.506	23944.78
801.837	23829.98
802.168	23785.01
802.499	23714.05
802.83	23481.52
803.161	23372.59
803.491	23362.65
803.822	23332.82
804.153	23168.08
804.483	22977.57
804.814	23049.44
805.145	22979.38
805.475	22987.07
805.805	22787.3
806.136	22782.32
806.466	22738.94
806.796	22751.59
807.126	22595.66
807.457	22508.89
807.787	22511.6
808.117	22327.87
808.447	22290.81
808.777	22355.22
809.107	22239.06
809.436	22218.27
809.766	22075.45
810.096	22087.43
810.426	22025.73
810.755	21896.47
811.085	21834.78
811.414	21770.83
811.744	21710.04
812.073	21708.23
812.403	21721.11
812.732	21392.76
813.061	21430.27
813.39	21456.94
813.719	21337.16
814.049	21454.68
814.378	21251.74
814.707	21271.18
815.036	21105.76
815.365	20974.91
815.693	20875.03
816.022	20935.37
816.351	20954.58
816.68	20739.89
817.008	20887.46
817.337	20626.9
817.665	20743.28
817.994	20702.15
818.322	20569.73
818.651	20501.93
818.979	20334.03
819.307	20590.52
819.636	20381.71
819.964	20235.27
820.292	20325.21
820.62	20265.78
820.948	20187.82
821.276	20254.71
821.604	20166.57
821.932	20309.85
822.259	20269.17
822.587	20156.86
822.915	20123.86
823.243	20126.8
823.57	20110.53
823.898	20259.23
824.225	20046.8
824.553	20148.04
824.88	20209.74
825.207	20230.75
825.535	20150.53
825.862	20147.59
826.189	20112.56
826.516	20170.19
826.843	20374.48
827.17	20200.25
827.497	20112.34
827.824	20208.38
828.151	20128.61
828.478	20076.63
828.805	20160.92
829.131	20062.17
829.458	20045.45
829.785	19959.8
830.111	20066.01
830.438	20159.79
830.764	20020.82
831.09	20057.42
831.417	19877.77
831.743	19986.24
832.069	19942.17
832.395	19864.66
832.722	19934.49
833.048	19951.21
833.374	19875.28
833.7	19841.84
834.026	19837.54
834.351	19885
834.677	19869.18
835.003	19850.88
835.329	19784.89
835.654	19731.78
835.98	19661.73
836.306	19788.28
836.631	19715.96
836.956	19820.82
837.282	19703.08
837.607	19587.15
837.932	19664.44
838.258	19532.47
838.583	19559.13
838.908	19387.61
839.233	19556.42
839.558	19363.43
839.883	19268.74
840.208	19344.45
840.533	19299.48
840.858	19365.24
841.182	19306.26
841.507	19177
841.832	19100.61
842.156	18977.23
842.481	19172.48
842.805	19007.28
843.13	18980.39
843.454	18934.29
843.778	18806.16
844.103	18777.23
844.427	18753.05
844.751	18830.11
845.075	18720.28
845.399	18695.2
845.723	18621.3
846.047	18559.16
846.371	18376.79
846.695	18384.47
847.019	18200.52
847.343	18205.04
847.666	18015.44
847.99	18022.68
848.313	17987.87
848.637	17854.32
848.96	17858.61
849.284	17775.22
849.607	17644.15
849.931	17599.64
850.254	17484.61
850.577	17358.96
850.9	17316.48
851.223	17284.62
851.546	17181.79
851.869	17105.41
852.192	17192.19
852.515	16940.9
852.838	17055.7
853.161	17008.01
853.483	16857.96
853.806	16803.95
854.129	16773.44
854.451	16616.39
854.774	16561.92
855.096	16583.17
855.419	16439.44
855.741	16453.45
856.063	16411.64
856.385	16292.1
856.708	16227.69
857.03	16237.64
857.352	16181.59
857.674	16110.18
857.996	15999.68
858.318	15970.3
858.64	16020.24
858.961	15955.16
859.283	15885.33
859.605	15805.11
859.926	15839.91
860.248	15783.19
860.57	15684.21
860.891	15691.21
861.212	15651.44
861.534	15552.68
861.855	15563.53
862.176	15592.23
862.498	15465.45
862.819	15557.88
863.14	15371.9
863.461	15449.86
863.782	15397.66
864.103	15349.07
864.424	15373.25
864.745	15338.23
865.065	15275.18
865.386	15248.06
865.707	15214.84
866.027	15365.57
866.348	15197.21
866.668	15250.09
866.989	15147.5
867.309	14958.58
867.63	15072.24
867.95	15029.99
868.27	14920.84
868.59	14916.54
868.91	14890.1
869.23	14946.37
869.55	14909.76
869.87	15014.85
870.19	14894.62
870.51	14946.15
870.83	14830.9
871.15	14684.46
871.469	14698.92
871.789	14698.92
872.109	14647.85
872.428	14574.4
872.748	14698.7
873.067	14616.44
873.386	14614.86
873.706	14632.71
874.025	14473.84
874.344	14459.15
874.663	14559.72
874.982	14470.45
875.301	14495.54
875.62	14425.48
875.939	14313.39
876.258	14275.43
876.577	14295.99
876.896	14295.09
877.214	14183.23
877.533	14254.64
877.852	14292.38
878.17	14258.93
878.489	14188.43
878.807	14224.13
879.125	14206.96
879.444	14183.68
879.762	14086.96
880.08	14198.6
880.398	14112.27
880.716	14067.3
881.034	13984.36
881.352	14046.74
881.67	13987.53
881.988	13926.96
882.306	13936.91
882.624	13874.76
882.941	13848.77
883.259	13712.96
883.577	13692.39
883.894	13610.59
884.212	13619.4
884.529	13624.6
884.846	13533.98
885.164	13529.23
885.481	13433.87
885.798	13529.01
886.115	13418.28
886.432	13353.42
886.75	13296.47
887.067	13398.62
887.383	13359.52
887.7	13322.69
888.017	13305.29
888.334	13308
888.651	13241.33
888.967	13274.55
889.284	13164.27
889.6	13141.45
889.917	13068
890.233	13048.34
890.55	12999.53
890.866	12973.09
891.182	12874.56
891.498	12893.55
891.815	12820.55
892.131	12740.55
892.447	12817.61
892.763	12717.73
893.079	12715.24
893.395	12635.47
893.71	12645.64
894.026	12616.72
894.342	12481.13
894.657	12457.4
894.973	12457.17
895.289	12420.79
895.604	12329.94
895.92	12328.14
896.235	12235.48
896.55	12220.57
896.865	12219.66
897.181	12187.8
897.496	12174.02
897.811	12105.77
898.126	12034.13
898.441	12012.44
898.756	12026.9
899.071	11893.57
899.386	11901.03
899.7	11740.36
900.015	11838.66
900.33	11681.37
900.644	11662.17
900.959	11722.05
901.273	11646.8
901.588	11635.95
901.902	11492.45
902.216	11467.37
902.531	11489.74
902.845	11409.52
903.159	11316.19
903.473	11250.2
903.787	11218.11
904.101	11187.15
904.415	11176.98
904.729	11049.53
905.042	11045.01
905.356	11017.66
905.67	11113.48
905.984	11097.89
906.297	11010.88
906.611	10927.5
906.924	10830.1
907.237	10876.42
907.551	10778.8
907.864	10719.14
908.177	10671.91
908.491	10721.85
908.804	10689.76
909.117	10518.92
909.43	10511.46
909.743	10433.27
910.056	10413.38
910.368	10371.13
910.681	10300.84
910.994	10279.6
911.307	10224.69
911.619	10190.79
911.932	10177.46
912.244	10110.12
912.557	10118.25
912.869	10080.06
913.181	9975.66
913.494	10021.98
913.806	9873.74
914.118	9916.22
914.43	9913.28
914.742	9857.92
915.054	9802.78
915.366	9685.49
915.678	9691.82
915.99	9594.87
916.302	9560.98
916.613	9494.54
916.925	9546.51
917.236	9474.2
917.548	9465.39
917.859	9451.83
918.171	9360.98
918.482	9284.37
918.794	9226.75
919.105	9230.59
919.416	9239.63
919.727	9170.48
920.038	9174.55
920.349	9017.04
920.66	8986.98
920.971	9070.14
921.282	8977.49
921.593	8950.15
921.903	8891.84
922.214	8809.58
922.525	8836.02
922.835	8803.26
923.146	8739.76
923.456	8746.08
923.767	8760.32
924.077	8625.63
924.387	8595.58
924.697	8517.84
925.008	8417.5
925.318	8514.23
925.628	8475.58
925.938	8430.61
926.248	8325.98
926.558	8275.14
926.867	8289.37
927.177	8304.06
927.487	8293.89
927.796	8131.64
928.106	8148.59
928.416	8149.49
928.725	8132.77
929.034	8017.06
929.344	8111.07
929.653	8020
929.962	7896.39
930.271	7905.2
930.581	7863.17
930.89	7835.37
931.199	7816.16
931.508	7771.19
931.817	7789.27
932.125	7680.12
932.434	7677.64
932.743	7616.4
933.051	7591.31
933.36	7516.29
933.669	7490.52
933.977	7470.64
934.286	7420.47
934.594	7453.24
934.902	7341.15
935.21	7354.03
935.519	7287.59
935.827	7235.84
936.135	7192.45
936.443	7192.23
936.751	7172.11
937.059	7148.84
937.367	7086.24
937.674	7084.88
937.982	7073.13
938.29	7019.12
938.597	7077.65
938.905	6986.36
939.213	6963.76
939.52	6871.33
939.827	6898.9
940.135	6829.98
940.442	6846.47
940.749	6757.66
941.056	6777.1
941.363	6681.05
941.67	6693.26
941.977	6681.73
942.284	6614.16
942.591	6564.22
942.898	6566.25
943.205	6608.06
943.511	6530.77
943.818	6509.31
944.125	6449.65
944.431	6445.81
944.738	6388.63
945.044	6383.21
945.35	6388.41
945.657	6336.43
945.963	6295.07
946.269	6274.74
946.575	6281.06
946.881	6228.41
947.187	6180.05
947.493	6131.92
947.799	6089.66
948.105	6091.92
948.41	6087.17
948.716	6078.81
949.022	5996.55
949.327	5941.19
949.633	5939.83
949.938	5978.7
950.244	5941.41
950.549	5852.37
950.854	5874.29
951.16	5803.11
951.465	5800.4
951.77	5788.65
952.075	5681.98
952.38	5701.19
952.685	5738.03
952.99	5663.23
953.294	5651.02
953.599	5614.41
953.904	5587.75
954.209	5554.98
954.513	5561.76
954.818	5502.1
955.122	5518.82
955.426	5477.69
955.731	5465.49
956.035	5437.47
956.339	5441.31
956.643	5382.1
956.948	5351.37
957.252	5319.73
957.556	5316.34
957.86	5298.72
958.163	5306.4
958.467	5211.26
958.771	5265.72
959.075	5232.96
959.378	5206.97
959.682	5200.41
959.985	5161.77
960.289	5100.08
960.592	5070.93
960.896	5055.33
961.199	5066.18
961.502	5052.62
961.805	4966.52
962.108	4945.28
962.411	4963.81
962.714	4892.4
963.017	4894.43
963.32	4889.91
963.623	4853.76
963.926	4882
964.228	4830.71
964.531	4812.63
964.833	4854.66
965.136	4785.06
965.438	4707.09
965.741	4724.95
966.043	4713.65
966.345	4659.41
966.648	4615.57
966.95	4665.29
967.252	4632.29
967.554	4624.16
967.856	4576.02
968.158	4559.53
968.46	4543.26
968.761	4543.71
969.063	4516.14
969.365	4519.08
969.666	4451.51
969.968	4373.32
970.269	4412.64
970.571	4409.02
970.872	4378.06
971.174	4346.88
971.475	4365.63
971.776	4322.47
972.077	4286.99
972.378	4229.37
972.679	4257.39
972.98	4244.96
973.281	4224.85
973.582	4148.92
973.883	4167.9
974.183	4213.1
974.484	4145.98
974.785	4141.23
975.085	4114.11
975.386	4103.04
975.686	4072.08
975.986	4027.56
976.287	4053.55
976.587	3964.97
976.887	3992.31
977.187	3975.81
977.487	3952.99
977.787	3930.84
978.087	3935.59
978.387	3921.13
978.687	3870.73
978.987	3836.38
979.286	3844.74
979.586	3784.18
979.885	3821.69
980.185	3783.28
980.484	3790.73
980.784	3777.4
981.083	3746.44
981.382	3777.85
981.682	3730.4
981.981	3758.42
982.28	3669.38
982.579	3664.64
982.878	3661.02
983.177	3655.37
983.475	3611.53
983.774	3602.49
984.073	3585.09
984.372	3569.95
984.67	3525.66
984.969	3524.53
985.267	3527.92
985.566	3510.06
985.864	3480.01
986.162	3487.92
986.461	3447.69
986.759	3457.41
987.057	3388.03
987.355	3365.21
987.653	3393.91
987.951	3385.77
988.249	3382.83
988.547	3331.99
988.844	3355.26
989.142	3285.89
989.44	3252.89
989.737	3288.37
990.035	3260.13
990.332	3270.97
990.63	3251.09
990.927	3263.97
991.224	3211.54
991.521	3197.08
991.819	3185.78
992.116	3148.04
992.413	3125.44
992.71	3130.41
993.006	3090.87
993.303	3095.38
993.6	3079.57
993.897	3077.53
994.193	3044.54
994.49	3043.86
994.787	2995.5
995.083	2999.57
995.379	2976.29
995.676	2943.3
995.972	2955.73
996.268	2928.16
996.565	2872.11
996.861	2866.69
997.157	2930.64
997.453	2882.73
997.749	2867.82
998.044	2823.53
998.34	2826.01
998.636	2819.91
998.932	2786.47
999.227	2790.53
999.523	2751.21
999.818	2779.69
1000.114	2720.93
1000.409	2730.42
1000.704	2719.58
1001	2674.15
1001.295	2671.67
1001.59	2667.6
1001.885	2634.61
1002.18	2653.59
1002.475	2599.13
1002.77	2611.1
1003.065	2608.39
1003.359	2599.13
1003.654	2569.52
1003.949	2536.53
1004.243	2532.46
1004.538	2464.89
1004.832	2496.76
1005.127	2477.1
1005.421	2476.64
1005.715	2488.17
1006.009	2478.9
1006.304	2430.09
1006.598	2396.65
1006.892	2373.6
1007.186	2391.22
1007.48	2346.7
1007.773	2389.41
1008.067	2384.44
1008.361	2353.48
1008.655	2332.92
1008.948	2324.56
1009.242	2269.64
1009.535	2270.1
1009.829	2264.67
1010.122	2252.92
1010.415	2217.67
1010.708	2218.35
1011.001	2203.88
1011.295	2250.21
1011.588	2200.27
1011.881	2195.97
1012.173	2149.87
1012.466	2157.1
1012.759	2147.61
1013.052	2137.9
1013.344	2096.99
1013.637	2111
1013.93	2100.83
1014.222	2052.7
1014.514	2067.16
1014.807	2045.47
1015.099	2035.53
1015.391	1985.13
1015.683	2011.8
1015.976	2018.35
1016.268	1984.68
1016.56	1966.83
1016.851	1946.94
1017.143	1975.64
1017.435	1935.42
1017.727	1906.26
1018.018	1927.05
1018.31	1932.7
1018.602	1886.83
1018.893	1849.09
1019.185	1865.59
1019.476	1849.09
1019.767	1805.02
1020.058	1796.44
1020.35	1797.34
1020.641	1796.89
1020.932	1756.66
1021.223	1767.74
1021.514	1764.35
1021.804	1745.59
1022.095	1740.62
1022.386	1735.42
1022.677	1715.53
1022.967	1700.39
1023.258	1674.41
1023.548	1682.54
1023.839	1657.91
1024.129	1653.16
1024.419	1642.54
1024.709	1624.69
1025	1621.07
1025.29	1610
1025.58	1585.59
1025.87	1601.41
1026.16	1579.27
1026.449	1550.57
1026.739	1547.18
1027.029	1547.85
1027.319	1517.57
1027.608	1543.56
1027.898	1514.86
1028.187	1520.96
1028.477	1497.23
1028.766	1492.71
1029.055	1434.19
1029.344	1457.01
1029.634	1466.5
1029.923	1430.34
1030.212	1407.29
1030.501	1420.85
1030.79	1415.2
1031.078	1413.4
1031.367	1389.67
1031.656	1381.08
1031.945	1366.84
1032.233	1357.8
1032.522	1380.63
1032.81	1330.23
1033.099	1312.83
1033.387	1327.07
1033.675	1329.56
1033.963	1296.56
1034.251	1295.21
1034.54	1266.96
1034.828	1272.83
1035.116	1265.38
1035.403	1225.15
1035.691	1236.9
1035.979	1255.89
1036.267	1224.02
1036.554	1193.51
1036.842	1208.43
1037.129	1210.01
1037.417	1199.16
1037.704	1196.68
1037.992	1184.25
1038.279	1208.43
1038.566	1141.76
1038.853	1141.76
1039.14	1141.76
