Data from plate_ceramic_FLMS001491_060.txt Node
Date: Tue Feb 07 11:17:00 GMT 2017
User: dcchb
Spectrometer: FLMS00149
Trigger mode: 0
Integration Time (sec): 2.000000E-2
Scans to average: 10
Electric dark correction enabled: true
Nonlinearity correction enabled: false
Boxcar width: 0
XAxis mode: Wavelengths
Number of Pixels in Spectrum: 2048
>>>>>Begin Spectral Data<<<<<
341.393	-21.07
341.776	-21.07
342.16	-21.07
342.543	-70.11
342.927	-59.72
343.31	-53.61
343.693	-82.77
344.077	-49.32
344.46	-67.17
344.843	-57.68
345.226	-54.74
345.61	-31.02
345.993	-6.84
346.376	-2.77
346.759	13.95
347.142	32.71
347.525	46.04
347.908	52.82
348.291	77
348.674	76.1
349.057	107.29
349.44	123.33
349.823	128.98
350.206	167.85
350.588	182.99
350.971	241.75
351.354	249.2
351.737	250.78
352.119	237
352.502	283.55
352.884	279.94
353.267	290.56
353.65	315.19
354.032	340.05
354.414	324
354.797	307.96
355.179	333.95
355.562	341.63
355.944	366.71
356.326	348.18
356.709	363.1
357.091	373.72
357.473	348.41
357.855	352.02
358.238	372.14
358.62	365.81
359.002	349.09
359.384	371.46
359.766	345.47
360.148	369.88
360.53	371.46
360.912	355.87
361.294	358.35
361.676	352.48
362.057	368.52
362.439	361.74
362.821	365.36
363.203	387.96
363.584	364.23
363.966	352.7
364.348	372.59
364.729	351.12
365.111	366.94
365.493	360.16
365.874	347.96
366.256	356.09
366.637	355.19
367.019	351.57
367.4	364.68
367.781	331.23
368.163	324.68
368.544	358.13
368.925	349.54
369.306	363.1
369.688	339.82
370.069	371.69
370.45	357.67
370.831	346.6
371.212	362.42
371.593	357.22
371.974	368.75
372.355	360.39
372.736	366.71
373.117	380.27
373.498	401.74
373.879	378.69
374.26	364.91
374.641	384.79
375.021	375.3
375.402	371.23
375.783	363.55
376.163	399.71
376.544	380.95
376.925	391.8
377.305	390.89
377.686	378.01
378.066	406.26
378.447	392.93
378.827	413.72
379.208	387.05
379.588	416.66
379.968	448.52
380.349	404.23
380.729	410.78
381.109	416.43
381.489	432.93
381.87	414.85
382.25	438.8
382.63	425.02
383.01	438.8
383.39	447.84
383.77	445.81
384.15	443.1
384.53	442.64
384.91	437.45
385.29	446.03
385.67	458.69
386.049	465.92
386.429	454.39
386.809	476.77
387.189	467.5
387.568	498.01
387.948	478.57
388.328	498.24
388.707	485.58
389.087	468.41
389.466	497.78
389.846	493.94
390.225	505.92
390.605	502.53
390.984	507.5
391.363	520.38
391.743	528.52
392.122	515.41
392.501	540.04
392.881	531
393.26	539.14
393.639	568.97
394.018	552.7
394.397	567.39
394.776	572.13
395.155	536.65
395.534	578.46
395.913	567.61
396.292	562.87
396.671	597.22
397.05	601.96
397.429	614.16
397.808	633.37
398.186	610.1
398.565	611.68
398.944	619.59
399.323	614.39
399.701	621.17
400.08	648.06
400.458	658.46
400.837	654.84
401.215	654.84
401.594	657.1
401.972	673.15
402.351	642.86
402.729	679.25
403.107	654.16
403.486	718.12
403.864	684.22
404.242	711.11
404.62	699.36
404.999	708.63
405.377	730.09
405.755	740.26
406.133	720.6
406.511	754.5
406.889	762.41
407.267	759.7
407.645	770.09
408.023	807.83
408.401	785.69
408.779	812.58
409.156	810.32
409.534	824.55
409.912	834.95
410.29	858.68
410.667	855.97
411.045	896.87
411.422	872.01
411.8	901.61
412.178	903.2
412.555	895.06
412.933	935.06
413.31	947.49
413.687	943.87
414.065	964.89
414.442	976.64
414.819	991.78
415.197	994.49
415.574	989.3
415.951	1009.63
416.328	1034.49
416.705	1030.42
417.082	1033.36
417.46	1033.59
417.837	1066.36
418.214	1078.79
418.591	1085.34
418.967	1098.67
419.344	1099.35
419.721	1125.79
420.098	1114.72
420.475	1121.04
420.852	1130.99
421.228	1150.87
421.605	1171.21
421.982	1170.31
422.358	1211.44
422.735	1204.88
423.111	1207.82
423.488	1234.71
423.864	1245.33
424.241	1246.01
424.617	1283.53
424.994	1273.81
425.37	1300.25
425.746	1323.52
426.123	1330.98
426.499	1339.12
426.875	1350.42
427.251	1406.46
427.627	1381.15
428.003	1411.43
428.379	1443.07
428.756	1430.64
429.132	1481.03
429.507	1463.63
429.883	1488.04
430.259	1510.64
430.635	1534.59
431.011	1542.95
431.387	1587.92
431.763	1593.12
432.138	1622.5
432.514	1614.82
432.89	1638.54
433.265	1696.4
433.641	1727.58
434.016	1718.77
434.392	1759.45
434.767	1786.34
435.143	1771.65
435.518	1794.02
435.894	1845.54
436.269	1864.98
436.644	1907.01
437.02	1894.13
437.395	1900.68
437.77	1940.68
438.145	1987.01
438.52	1959.67
438.895	1996.05
439.271	1983.62
439.646	2051.19
440.021	2031.53
440.395	2072.88
440.77	2040.12
441.145	2080.79
441.52	2103.39
441.895	2113.33
442.27	2122.37
442.645	2138.19
443.019	2184.97
443.394	2204.86
443.769	2197.4
444.143	2193.11
444.518	2251.64
444.892	2229.72
445.267	2271.07
445.641	2253.22
446.016	2309.49
446.39	2326.21
446.764	2343.84
447.139	2309.94
447.513	2368.69
447.887	2367.34
448.262	2364.63
448.636	2406.66
449.01	2441.91
449.384	2467.9
449.758	2473.55
450.132	2513.1
450.506	2544.28
450.88	2518.52
451.254	2523.72
451.628	2582.47
452.002	2636.94
452.376	2626.99
452.75	2623.6
453.123	2691.4
453.497	2709.93
453.871	2771.4
454.244	2799.87
454.618	2822.24
454.992	2856.82
455.365	2843.94
455.739	2941.56
456.112	2959.64
456.486	2995.8
456.859	3002.12
457.232	3035.57
457.606	3095.91
457.979	3137.26
458.352	3236.47
458.725	3255.68
459.099	3232.85
459.472	3320.99
459.845	3339.97
460.218	3365.96
460.591	3397.37
460.964	3426.97
461.337	3523.92
461.71	3591.71
462.083	3590.58
462.456	3589.23
462.829	3661.32
463.201	3716.68
463.574	3704.7
463.947	3793.52
464.32	3838.49
464.692	3880.75
465.065	3919.16
465.438	3975.21
465.81	4052.27
466.183	4094.07
466.555	4220.4
466.928	4229.89
467.3	4262.88
467.672	4256.33
468.045	4377.68
468.417	4383.11
468.789	4413.16
469.161	4492.48
469.534	4542.65
469.906	4662.65
470.278	4692.93
470.65	4734.28
471.022	4828.07
471.394	4902.19
471.766	4980.6
472.138	5030.77
472.51	5190.77
472.882	5170.43
473.253	5271.9
473.625	5270.77
473.997	5489.97
474.369	5518.67
474.74	5572.68
475.112	5696.29
475.484	5713.24
475.855	5918.43
476.227	5978.32
476.598	6060.58
476.97	6211.08
477.341	6263.06
477.713	6350.29
478.084	6423.96
478.455	6573.33
478.827	6707.34
479.198	6803.61
479.569	6844.74
479.94	7098.74
480.311	7123.82
480.682	7305.97
481.053	7443.59
481.424	7507.99
481.795	7639.29
482.166	7763.58
482.537	7863.92
482.908	8040.64
483.279	8096.91
483.65	8334.64
484.021	8472.72
484.391	8539.15
484.762	8618.02
485.133	8742.31
485.503	8833.84
485.874	9049.42
486.244	9072.47
486.615	9287.38
486.985	9403.76
487.356	9565.57
487.726	9663.87
488.097	9871.1
488.467	9923.75
488.837	10100.47
489.207	10233.57
489.578	10425.21
489.948	10462.95
490.318	10632.66
490.688	10657.74
491.058	10852.77
491.428	11011.18
491.798	11176.6
492.168	11327.78
492.538	11411.17
492.908	11491.84
493.278	11691.39
493.648	11746.75
494.017	11874.43
494.387	12029.46
494.757	12108.1
495.126	12285.04
495.496	12276.91
495.866	12390.35
496.235	12535.43
496.605	12661.76
496.974	12719.38
497.344	12840.51
497.713	12993.95
498.082	13017.68
498.452	13160.5
498.821	13308.07
499.19	13317.56
499.559	13474.84
499.928	13511.23
500.298	13646.82
500.667	13825.79
501.036	13737.89
501.405	13975.62
501.774	13943.53
502.143	14126.58
502.512	14196.41
502.88	14340.81
503.249	14404.54
503.618	14529.28
503.987	14617.41
504.356	14776.28
504.724	14818.99
505.093	14833.68
505.462	14944.86
505.83	15150.05
506.199	15192.54
506.567	15382.82
506.936	15367.45
507.304	15590.95
507.672	15665.97
508.041	15664.16
508.409	15821
508.777	15972.86
509.145	16193.42
509.514	16191.61
509.882	16261.66
510.25	16358.16
510.618	16480.87
510.986	16542.11
511.354	16787.98
511.722	16903
512.09	17058.7
512.458	17002.43
512.826	17145.48
513.193	17304.8
513.561	17485.36
513.929	17707.95
514.297	17775.07
514.664	17957.21
515.032	17969.87
515.4	18183.42
515.767	18247.6
516.135	18393.13
516.502	18420.02
516.869	18691.2
517.237	18689.85
517.604	18644.2
517.972	18938.88
518.339	19123.96
518.706	19192.43
519.073	19288.48
519.44	19456.38
519.808	19624.06
520.175	19669.71
520.542	20032.41
520.909	20061.34
521.276	20032.41
521.643	20347.43
522.009	20451.38
522.376	20686.86
522.743	20787.87
523.11	21014.98
523.477	21196.67
523.843	21314.64
524.21	21593.5
524.577	21658.13
524.943	21824.45
525.31	21950.55
525.676	22117.55
526.043	22377.89
526.409	22300.83
526.776	22722.28
527.142	22827.82
527.508	22871.21
527.874	23153.46
528.241	23185.77
528.607	23432.1
528.973	23606.55
529.339	23520.68
529.705	23897.85
530.071	24031.18
530.437	24223.71
530.803	24450.83
531.169	24462.35
531.535	24421.67
531.901	24615.79
532.267	24717.71
532.632	24795
532.998	25016.46
533.364	25312.05
533.73	25315.89
534.095	25484.02
534.461	25686.73
534.826	25822.32
535.192	25887.17
535.557	25966.94
535.923	26148.63
536.288	26223.66
536.653	26381.85
537.019	26267.73
537.384	26465.91
537.749	26613.03
538.114	26730.09
538.479	26717.43
538.845	26918.56
539.21	26879.01
539.575	27101.83
539.94	27088.72
540.305	27362.61
540.67	27246.91
541.034	27359.22
541.399	27647.35
541.764	27772.77
542.129	27766.9
542.494	27934.8
542.858	27971.19
543.223	28079.88
543.587	28297.73
543.952	28273.78
544.316	28442.59
544.681	28341.12
545.045	28613.88
545.41	28622.24
545.774	28744.5
546.138	28835.57
546.503	28928.9
546.867	28909.24
547.231	29241.66
547.595	29229.91
547.959	29401.2
548.324	29490.92
548.688	29571.82
549.052	29685.94
549.416	29790.12
549.779	29972.04
550.143	30025.14
550.507	30169.77
550.871	30322.54
551.235	30159.6
551.599	30405.7
551.962	30592.13
552.326	30641.85
552.689	30937.21
553.053	30790.55
553.417	30867.38
553.78	31216.75
554.143	31230.76
554.507	31381.72
554.87	31478.44
555.234	31739.22
555.597	31720.47
555.96	31936.28
556.323	31939.44
556.686	32098.99
557.05	32387.11
557.413	32412.42
557.776	32533.78
558.139	32762.02
558.502	32895.12
558.865	33029.58
559.228	33146.19
559.59	33217.38
559.953	33304.38
560.316	33674.31
560.679	33707.31
561.041	33973.97
561.404	34053.51
561.767	34318.14
562.129	34227.07
562.492	34582.76
562.854	34683.1
563.217	34650.56
563.579	35018.23
563.941	35183.88
564.304	35248.06
564.666	35508.61
565.028	35570.53
565.39	35661.83
565.753	35878.1
566.115	36067.24
566.477	36246.9
566.839	36152.44
567.201	36468.36
567.563	36511.3
567.925	36668.13
568.287	36955.36
568.648	36789.26
569.01	36988.8
569.372	37354.22
569.734	37306.99
570.095	37479.86
570.457	37693.64
570.819	37679.4
571.18	37760.98
571.542	38011.15
571.903	38096.79
572.265	38353.51
572.626	38334.53
572.987	38580.62
573.349	38488.42
573.71	38612.26
574.071	38748.53
574.432	38797.12
574.794	39127.73
575.155	39131.57
575.516	39034.62
575.877	39397.1
576.238	39365.69
576.599	39474.84
576.96	39600.71
577.32	39662.18
577.681	39674.38
578.042	39821.27
578.403	39893.36
578.763	39902.4
579.124	40096.29
579.485	40138.55
579.845	40127.7
580.206	40119.34
580.566	40181.03
580.927	40177.42
581.287	40382.61
581.648	40317.53
582.008	40370.86
582.368	40312.33
582.728	40508.26
583.089	40317.98
583.449	40403.85
583.809	40333.12
584.169	40687.91
584.529	40544.19
584.889	40780.34
585.249	40566.79
585.609	40430.52
585.969	40692.88
586.329	40561.59
586.688	40600.01
587.048	40654.69
587.408	40730.17
587.768	40742.83
588.127	40753.9
588.487	40635.49
588.846	40976.72
589.206	40774.01
589.565	40537.41
589.925	40826.67
590.284	40749.61
590.643	40851.98
591.003	41058.98
591.362	40956.61
591.721	40905.08
592.08	40821.47
592.44	41028.02
592.799	41075.02
593.158	40898.08
593.517	41044.74
593.876	40914.57
594.235	40978.75
594.593	41033.21
594.952	41167.22
595.311	41072.54
595.67	41092.87
596.029	41259.42
596.387	41263.49
596.746	41436.14
597.104	41169.48
597.463	41242.93
597.822	41406.09
598.18	41250.16
598.538	41299.42
598.897	41479.76
599.255	41345.98
599.613	41763.82
599.972	41559.08
600.33	41693.99
600.688	41481.11
601.046	41699.64
601.404	41910.93
601.762	41826.41
602.12	41860.99
602.478	41885.85
602.836	41915.45
603.194	41671.62
603.552	41772.18
603.91	41764.5
604.268	41875
604.625	41875.45
604.983	42037.48
605.341	41842.91
605.698	42123.58
606.056	42170.13
606.413	42154.54
606.771	42262.11
607.128	42317.25
607.485	42070.25
607.843	42272.73
608.2	42457.36
608.557	42550.24
608.914	42399.51
609.272	42559.5
609.629	42682.44
609.986	42778.71
610.343	42485.15
610.7	42796.78
611.057	42843.34
611.414	42666.84
611.771	42723.11
612.127	43031.81
612.484	42825.03
612.841	43048.08
613.198	42888.99
613.554	43021.41
613.911	43183.89
614.267	43044.69
614.624	43092.14
614.98	43182.08
615.337	43354.74
615.693	43383.21
616.05	43392.47
616.406	43580.49
616.762	43455.07
617.118	43485.58
617.475	43460.95
617.831	43595.86
618.187	43560.83
618.543	43560.15
618.899	43679.92
619.255	43626.59
619.611	43755.4
619.967	43787.04
620.323	43864.33
620.678	43735.06
621.034	43527.61
621.39	43709.98
621.746	43690.09
622.101	44083.3
622.457	43767.38
622.812	43821.39
623.168	44042.4
623.523	44026.58
623.879	44137.09
624.234	43884.44
624.589	43939.81
624.945	44050.54
625.3	43934.16
625.655	43819.81
626.01	43919.69
626.365	43963.99
626.72	43772.13
627.075	43924.21
627.43	43875.17
627.785	43678.12
628.14	43795.63
628.495	43854.84
628.85	43840.37
629.205	43652.58
629.559	43886.7
629.914	43544.56
630.269	43767.15
630.623	43538.23
630.978	43512.92
631.332	43703.65
631.687	43671.11
632.041	43490.78
632.396	43470.21
632.75	43369.2
633.104	43495.97
633.459	43225.93
633.813	43243.1
634.167	43312.48
634.521	43215.08
634.875	43245.59
635.229	43123.78
635.583	42900.28
635.937	42925.82
636.291	42917.46
636.645	42983.45
636.999	42782.1
637.352	42989.55
637.706	42691.25
638.06	42993.16
638.413	42786.84
638.767	42634.53
639.121	42846.73
639.474	42437.02
639.828	42409.9
640.181	42506.85
640.534	42563.57
640.888	42449.9
641.241	42152.51
641.594	42307.76
641.947	42351.6
642.301	42218.27
642.654	42215.33
643.007	42086.97
643.36	42180.98
643.713	42015.56
644.066	42344.59
644.419	42004.94
644.771	41695.34
645.124	41238.63
645.477	41214.23
645.83	41004.74
646.182	40696.73
646.535	40648.37
646.888	40786.44
647.24	40665.31
647.593	40847.01
647.945	40809.49
648.298	40636.84
648.65	40538.09
649.002	40454.7
649.355	40476.85
649.707	40381.71
650.059	40579.67
650.411	41019.88
650.763	40915.93
651.115	41258.07
651.467	41244.73
651.819	41110.5
652.171	41049.71
652.523	40998.64
652.875	41153.89
653.227	40903.73
653.578	41120.44
653.93	41087.45
654.282	40929.71
654.633	40741.25
654.985	40816.95
655.337	40882.94
655.688	40732.66
656.039	40847.91
656.391	40479.78
656.742	40564.53
657.094	40486.79
657.445	40772.88
657.796	40614.47
658.147	40512.78
658.498	40615.6
658.849	40461.93
659.2	40529.5
659.551	40519.56
659.902	40589.38
660.253	40474.81
660.604	40640.46
660.955	40239.56
661.306	40587.8
661.656	40327.7
662.007	40367.7
662.358	40312.78
662.708	40261.03
663.059	40188.27
663.409	40065.56
663.76	40105.1
664.11	40074.6
664.461	40127.93
664.811	40224.65
665.161	40213.58
665.511	40129.06
665.862	40197.3
666.212	40334.02
666.562	40218.1
666.912	40091.77
667.262	40123.63
667.612	40104.43
667.962	40187.59
668.312	39880.48
668.662	40164.99
669.011	40150.07
669.361	40091.77
669.711	40142.16
670.06	39864.66
670.41	39814.04
670.76	39746.02
671.109	39943.07
671.459	39760.03
671.808	39832.12
672.157	39892.45
672.507	39578.11
672.856	39669.41
673.205	39659.47
673.554	39795.51
673.904	39530.2
674.253	39666.02
674.602	39651.33
674.951	39066.03
675.3	38969.31
675.649	39570.65
675.998	39407.95
676.346	39530.43
676.695	39609.98
677.044	39261.28
677.393	39453.82
677.741	39450.21
678.09	39325.01
678.438	39199.82
678.787	39319.14
679.135	39294.73
679.484	39061.06
679.832	39203.21
680.181	38934.51
680.529	39086.15
680.877	38838.7
681.225	38809.54
681.573	39058.13
681.922	38791.24
682.27	38635.09
682.618	38717.8
682.966	38679.6
683.314	38609.55
683.661	38465.37
684.009	38426.96
684.357	38252.72
684.705	38240.75
685.053	38330.69
685.4	38217.7
685.748	38015.89
686.095	38083.24
686.443	37831.94
686.79	37712.17
687.138	37913.75
687.485	38003.46
687.832	37868.55
688.18	37780.19
688.527	37679.86
688.874	37507.66
689.221	37289.58
689.568	37184.73
689.915	37156.71
690.262	37141.79
690.609	37164.84
690.956	37104.96
691.303	36936.37
691.65	36804.63
691.997	36765.53
692.344	36621.58
692.69	36738.19
693.037	36734.34
693.383	36472.2
693.73	36588.81
694.077	36336.16
694.423	36303.85
694.769	36349.04
695.116	36172.55
695.462	36060.69
695.808	35805.56
696.155	35824.76
696.501	35538.44
696.847	35633.36
697.193	35463.42
697.539	35436.75
697.885	35286.02
698.231	35074.95
698.577	35222.07
698.923	35123.54
699.269	34876.99
699.614	34574.18
699.96	34616.89
700.306	34635.19
700.651	34524.01
700.997	34489.43
701.342	34515.65
701.688	34297.57
702.033	34293.28
702.379	34307.74
702.724	34015.55
703.069	34151.14
703.415	33689.91
703.76	33714.31
704.105	33656.46
704.45	33608.78
704.795	33323.81
705.14	33342.57
705.485	33285.85
705.83	33255.11
706.175	33132.41
706.52	33187.77
706.865	33063.71
707.209	33049.02
707.554	32820.1
707.899	32824.17
708.243	32736.03
708.588	32687.67
708.932	32497.17
709.277	32457.17
709.621	32559.31
709.966	32328.81
710.31	32420.11
710.654	32037.52
710.998	32225.31
711.342	32198.42
711.687	32079.1
712.031	31833.23
712.375	31623.74
712.719	31906
713.063	31722.95
713.407	31885.88
713.75	31628.26
714.094	31640.92
714.438	31526.35
714.782	31595.04
715.125	31376.29
715.469	31432.11
715.812	31268.27
716.156	31126.13
716.499	31073.93
716.843	31077.77
717.186	30894.72
717.53	31105.11
717.873	31045.23
718.216	30998.45
718.559	30792.13
718.902	30648.18
719.246	30716.65
719.589	30572.25
719.932	30460.61
720.275	30417
720.617	30382.65
720.96	30414.74
721.303	30366.6
721.646	30396.88
721.989	30223.33
722.331	30212.93
722.674	30146.5
723.016	30310.56
723.359	30153.5
723.701	30078.25
724.044	29896.11
724.386	29805.71
724.729	30022.88
725.071	29803.23
725.413	29770.23
725.755	29697.69
726.097	29619.96
726.439	29520.98
726.782	29455.44
727.124	29575.66
727.465	29401.88
727.807	29391.04
728.149	29295.44
728.491	29259.74
728.833	29323.92
729.175	29059.52
729.516	29045.06
729.858	29086.41
730.199	29034.43
730.541	29045.73
730.882	28964.15
731.224	29101.78
731.565	28806.19
731.906	28827.21
732.248	28805.51
732.589	28759.41
732.93	28562.36
733.271	28679.87
733.612	28589.47
733.953	28599.87
734.294	28432.87
734.635	28466.77
734.976	28512.19
735.317	28371.63
735.658	28409.37
735.999	28350.84
736.339	28239.65
736.68	28260.22
737.021	28097.51
737.361	28045.76
737.702	28191.29
738.042	28128.92
738.383	27974.8
738.723	28002.15
739.063	27916.27
739.404	28029.26
739.744	27888.93
740.084	27775.94
740.424	27850.74
740.764	27788.37
741.104	27764.86
741.444	27571.87
741.784	27526.9
742.124	27543.63
742.464	27517.64
742.804	27478.99
743.143	27356.29
743.483	27403.29
743.823	27349.51
744.162	27255.5
744.502	27300.02
744.841	27081.94
745.181	27337.98
745.52	27133.69
745.86	27175.95
746.199	27056.86
746.538	26924.89
746.877	27022.96
747.216	26910.42
747.556	26800.59
747.895	26733.03
748.234	26739.13
748.573	26618.9
748.911	26695.96
749.25	26617.55
749.589	26436.31
749.928	26591.11
750.267	26488.51
750.605	26495.52
750.944	26258.01
751.283	26284
751.621	26284.22
751.96	26114.06
752.298	26290.55
752.636	26140.27
752.975	25982.31
753.313	25933.95
753.651	25969.2
753.989	25944.35
754.327	25840.17
754.666	25720.17
755.004	25805.59
755.342	25695.09
755.679	25570.57
756.017	25600.85
756.355	25471.59
756.693	25310.24
757.031	25413.74
757.368	25114.09
757.706	25105.72
758.044	25190.92
758.381	25218.04
758.719	25056.01
759.056	25059.17
759.394	24957.93
759.731	24787.09
760.068	24822.79
760.405	24705.73
760.743	24698.73
761.08	24547.09
761.417	24496.25
761.754	24488.79
762.091	24433.43
762.428	24336.7
762.765	24159.08
763.102	24303.71
763.438	24059.2
763.775	23978.97
764.112	23965.64
764.449	23859.43
764.785	23856.27
765.122	23642.71
765.458	23491.53
765.795	23551.19
766.131	23504.18
766.467	23380.57
766.804	23296.51
767.14	23211.76
767.476	23209.5
767.812	23110.97
768.148	23201.14
768.485	22947.81
768.821	22903.75
769.157	22788.95
769.492	22699.46
769.828	22683.41
770.164	22551.21
770.5	22500.82
770.836	22461.95
771.171	22236.19
771.507	22320.49
771.842	22123.43
772.178	22141.73
772.513	22057.67
772.849	21868.52
773.184	21805.25
773.519	21866.04
773.855	21726.38
774.19	21620.17
774.525	21556.66
774.86	21542.43
775.195	21577.68
775.53	21398.25
775.865	21291.81
776.2	21114.87
776.535	21051.37
776.87	20958.04
777.205	20909.68
777.539	20831.71
777.874	20919.62
778.209	20530.7
778.543	20647.76
778.878	20487.31
779.212	20581.78
779.547	20447.99
779.881	20384.04
780.215	20253.65
780.55	20286.87
780.884	19962.13
781.218	20111.51
781.552	20064.95
781.886	19928.01
782.22	19884.39
782.554	19777.28
782.888	19688.92
783.222	19511.29
783.556	19505.65
783.889	19478.3
784.223	19268.59
784.557	19318.98
784.89	19365.08
785.224	19126.9
785.557	19191.3
785.891	18985.88
786.224	18936.39
786.558	18954.25
786.891	18807.36
787.224	18763.29
787.557	18705.67
787.891	18642.17
788.224	18650.3
788.557	18659.34
788.89	18531.66
789.223	18498.89
789.556	18335.73
789.888	18341.61
790.221	18257.32
790.554	18075.85
790.887	18022.29
791.219	18065.23
791.552	17959.02
791.884	17891.22
792.217	17805.13
792.549	17768.97
792.882	17591.8
793.214	17499.37
793.546	17580.5
793.879	17471.12
794.211	17467.73
794.543	17487.62
794.875	17387.73
795.207	17446.72
795.539	17282.88
795.871	17241.07
796.203	17060.29
796.535	17075.88
796.867	16965.15
797.198	16910.23
797.53	16853.74
797.862	16845.38
798.193	16815.77
798.525	16649.22
798.856	16775.55
799.188	16610.35
799.519	16472.28
799.85	16355.67
800.182	16452.39
800.513	16368.78
800.844	16272.28
801.175	16335.11
801.506	16367.2
801.837	16225.51
802.168	16187.99
802.499	16064.61
802.83	15914.33
803.161	15985.06
803.491	15999.3
803.822	15900.77
804.153	15879.3
804.483	15759.76
804.814	15724.28
805.145	15685.18
805.475	15663.94
805.805	15608.12
806.136	15606.76
806.466	15609.93
806.796	15562.47
807.126	15361.12
807.457	15395.24
807.787	15386.43
808.117	15373.1
808.447	15195.48
808.777	15203.61
809.107	15166.55
809.436	15065.31
809.766	15055.37
810.096	15071.64
810.426	15011.3
810.755	15009.72
811.085	14964.3
811.414	14902.38
811.744	14754.13
812.073	14778.76
812.403	14739.44
812.732	14652.44
813.061	14600.01
813.39	14649.05
813.719	14670.29
814.049	14646.11
814.378	14561.82
814.707	14552.1
815.036	14545.1
815.365	14354.37
815.693	14263.3
816.022	14307.36
816.351	14236.63
816.68	14145.79
817.008	14283.64
817.337	14096.07
817.665	14054.26
817.994	14077.09
818.322	14139.23
818.651	13979.01
818.979	13919.58
819.307	14016.3
819.636	13923.65
819.964	13862.4
820.292	13926.36
820.62	13810.88
820.948	13835.51
821.276	13811.78
821.604	13746.25
821.932	13855.4
822.259	13912.35
822.587	13835.74
822.915	13734.95
823.243	13765.23
823.57	13698.57
823.898	13813.14
824.225	13703.54
824.553	13765.68
824.88	13642.52
825.207	13668.96
825.535	13658.79
825.862	13758.68
826.189	13719.81
826.516	13799.58
826.843	13865.34
827.17	13746.47
827.497	13761.62
827.824	13741.5
828.151	13698.57
828.478	13687.27
828.805	13780.15
829.131	13620.6
829.458	13660.6
829.785	13639.58
830.111	13598.68
830.438	13745.57
830.764	13720.71
831.09	13673.93
831.417	13540.83
831.743	13604.56
832.069	13622.64
832.395	13496.09
832.722	13659.25
833.048	13565.01
833.374	13645.23
833.7	13527.72
834.026	13554.62
834.351	13544.67
834.677	13558.23
835.003	13494.5
835.329	13557.33
835.654	13508.29
835.98	13377.67
836.306	13451.79
836.631	13436.65
836.956	13416.77
837.282	13404.79
837.607	13328.63
837.932	13379.93
838.258	13351
838.583	13336.32
838.908	13146.94
839.233	13144.46
839.558	13089.54
839.883	13142.87
840.208	13101.07
840.533	13098.58
840.858	13124.8
841.182	13102.2
841.507	13125.02
841.832	13041.86
842.156	13005.03
842.481	12970.22
842.805	12971.35
843.13	12911.69
843.454	12904.91
843.778	12846.16
844.103	12778.82
844.427	12761.87
844.751	12799.83
845.075	12781.53
845.399	12748.31
845.723	12672.83
846.047	12686.16
846.371	12582.44
846.695	12435.55
847.019	12358.26
847.343	12320.75
847.666	12317.59
847.99	12268.32
848.313	12250.92
848.637	12111.26
848.96	12146.06
849.284	12165.73
849.607	12001.89
849.931	11966.86
850.254	11859.52
850.577	11847.32
850.9	11803.25
851.223	11744.49
851.546	11696.36
851.869	11580.2
852.192	11707.43
852.515	11635.12
852.838	11489.13
853.161	11469.25
853.483	11463.37
853.806	11449.36
854.129	11404.84
854.451	11443.94
854.774	11352.19
855.096	11295.24
855.419	11292.75
855.741	11250.27
856.063	11198.29
856.385	11129.59
856.708	11124.4
857.03	11093.44
857.352	11048.69
857.674	10955.81
857.996	10986.1
858.318	10833.56
858.64	10889.37
858.961	10775.71
859.283	10845.08
859.605	10768.02
859.926	10754.46
860.248	10669.72
860.57	10686.89
860.891	10629.04
861.212	10675.82
861.534	10659.78
861.855	10610.51
862.176	10613.9
862.498	10690.74
862.819	10659.55
863.14	10557.41
863.461	10492.1
863.782	10476.96
864.103	10510.18
864.424	10423.85
864.745	10470.85
865.065	10468.37
865.386	10394.92
865.707	10368.71
866.027	10416.84
866.348	10401.93
866.668	10373.46
866.989	10371.42
867.309	10253.01
867.63	10269.05
867.95	10253.69
868.27	10186.34
868.59	10182.5
868.91	10164.87
869.23	10140.02
869.55	10143.41
869.87	10187.25
870.19	10116.51
870.51	10148.83
870.83	10112.45
871.15	10042.17
871.469	9965.11
871.789	9961.72
872.109	10013.24
872.428	9886.01
872.748	9941.15
873.067	9963.75
873.386	9969.85
873.706	9921.04
874.025	9854.6
874.344	9905.67
874.663	9843.98
874.982	9808.95
875.301	9900.25
875.62	9873.13
875.939	9782.29
876.258	9781.83
876.577	9680.14
876.896	9817.99
877.214	9728.28
877.533	9722.4
877.852	9745.22
878.17	9678.33
878.489	9663.42
878.807	9629.52
879.125	9632.46
879.444	9665.9
879.762	9627.71
880.08	9605.57
880.398	9561.73
880.716	9563.08
881.034	9609.63
881.352	9561.05
881.67	9547.72
881.988	9571.9
882.306	9486.47
882.624	9495.74
882.941	9382.07
883.259	9348.17
883.577	9321.96
883.894	9400.15
884.212	9335.74
884.529	9345.23
884.846	9286.25
885.164	9278.8
885.481	9310.43
885.798	9319.7
886.115	9159.93
886.432	9171.23
886.75	9155.18
887.067	9107.5
887.383	9086.71
887.7	9189.08
888.017	9108.63
888.334	9081.29
888.651	9052.13
888.967	9007.62
889.284	8967.62
889.6	8973.94
889.917	8913.38
890.233	8917
890.55	8877
890.866	8847.85
891.182	8763.1
891.498	8831.8
891.815	8777.79
892.131	8780.96
892.447	8760.17
892.763	8710
893.079	8669.77
893.395	8649.89
893.71	8630.9
894.026	8630.9
894.342	8638.13
894.657	8487.18
894.973	8547.97
895.289	8470.46
895.604	8493.05
895.92	8373.51
896.235	8367.63
896.55	8357.92
896.865	8311.14
897.181	8359.27
897.496	8260.97
897.811	8279.73
898.126	8263.68
898.441	8210.12
898.756	8181.2
899.071	8139.84
899.386	8126.74
899.7	8078.6
900.015	8080.41
900.33	7982.33
900.644	7995.89
900.959	8032.95
901.273	7974.2
901.588	7928.1
901.902	7891.71
902.216	7810.59
902.531	7845.84
902.845	7849.45
903.159	7794.09
903.473	7702.57
903.787	7682.23
904.101	7631.38
904.415	7586.18
904.729	7602
905.042	7515.23
905.356	7576.69
905.67	7529.01
905.984	7513.19
906.297	7484.49
906.611	7504.15
906.924	7409.92
907.237	7404.95
907.551	7447.66
907.864	7364.04
908.177	7362.69
908.491	7286.76
908.804	7264.39
909.117	7129.02
909.43	7196.82
909.743	7190.26
910.056	7127.89
910.368	7095.58
910.681	7076.59
910.994	7015.58
911.307	6978.74
911.619	6980.1
911.932	6964.96
912.244	6958.63
912.557	6861.23
912.869	6878.41
913.181	6846.54
913.494	6846.09
913.806	6816.04
914.118	6776.49
914.43	6732.65
914.742	6707.56
915.054	6702.59
915.366	6654.46
915.678	6611.3
915.99	6631.86
916.302	6554.12
916.613	6563.16
916.925	6530.39
917.236	6515.25
917.548	6459.43
917.859	6512.31
918.171	6454.01
918.482	6382.6
918.794	6407.23
919.105	6368.59
919.416	6309.16
919.727	6298.53
920.038	6346.22
920.349	6228.03
920.66	6206.56
920.971	6239.55
921.282	6132.89
921.593	6087.24
921.903	6031.42
922.214	6077.3
922.525	6058.32
922.835	6007.02
923.146	5979.67
923.456	6027.36
923.767	5941.48
924.077	5949.39
924.387	5928.38
924.697	5865.33
925.008	5884.53
925.318	5853.12
925.628	5833.91
925.938	5737.42
926.248	5738.1
926.558	5706.91
926.867	5723.63
927.177	5731.32
927.487	5657.2
927.796	5618.1
928.106	5581.72
928.416	5562.96
928.725	5509.4
929.034	5520.93
929.344	5494.26
929.653	5459.46
929.962	5427.37
930.271	5452.46
930.581	5404.32
930.89	5362.74
931.199	5381.72
931.508	5347.6
931.817	5327.71
932.125	5329.52
932.434	5288.84
932.743	5217.89
933.051	5245.46
933.36	5194.61
933.669	5136.08
933.977	5129.07
934.286	5160.26
934.594	5146.93
934.902	5095.63
935.21	5080.49
935.519	5037.55
935.827	5034.84
936.135	5027.83
936.443	4935.41
936.751	4918.46
937.059	4928.63
937.367	4939.7
937.674	4918.46
937.982	4912.81
938.29	4876.65
938.597	4893.37
938.905	4821.06
939.213	4855.18
939.52	4758.46
939.827	4805.01
940.135	4735.64
940.442	4711.01
940.749	4734.73
941.056	4690.67
941.363	4632.36
941.67	4630.56
941.977	4577.45
942.284	4605.25
942.591	4564.34
942.898	4545.81
943.205	4565.02
943.511	4500.62
943.818	4468.07
944.125	4444.57
944.431	4504.01
944.738	4415.87
945.044	4413.39
945.35	4407.06
945.657	4361.64
945.963	4310.79
946.269	4349.21
946.575	4353.73
946.881	4294.52
947.187	4306.5
947.493	4252.04
947.799	4294.07
948.105	4212.49
948.41	4233.96
948.716	4179.27
949.022	4179.49
949.327	4168.42
949.633	4141.98
949.938	4093.17
950.244	4151.02
950.549	4115.32
950.854	4117.35
951.16	4111.02
951.465	4063.11
951.77	4018.59
952.075	4014.75
952.38	4005.49
952.685	3983.34
952.99	3960.29
953.294	3938.37
953.599	3906.06
953.904	3917.58
954.209	3883.46
954.513	3896.11
954.818	3843.23
955.122	3860.86
955.426	3817.92
955.731	3798.94
956.035	3790.35
956.339	3730.01
956.643	3788.09
956.948	3731.82
957.252	3750.13
957.556	3732.73
957.86	3698.38
958.163	3638.27
958.467	3643.24
958.771	3653.86
959.075	3607.98
959.378	3605.95
959.682	3582.67
959.985	3578.61
960.289	3538.16
960.592	3562.79
960.896	3542.9
961.199	3480.3
961.502	3504.48
961.805	3504.26
962.108	3437.82
962.411	3450.02
962.714	3419.29
963.017	3428.55
963.32	3429.23
963.623	3424.49
963.926	3388.33
964.228	3406.86
964.531	3344.71
964.833	3353.53
965.136	3363.24
965.438	3335.9
965.741	3315.79
966.043	3314.66
966.345	3253.19
966.648	3272.85
966.95	3251.61
967.252	3251.16
967.554	3237.6
967.856	3193.76
968.158	3177.04
968.46	3180.42
968.761	3139.97
969.063	3149.24
969.365	3142.69
969.666	3088.22
969.968	3112.86
970.269	3076.02
970.571	3095.23
970.872	3077.83
971.174	3056.13
971.475	3018.85
971.776	3010.49
972.077	2991.96
972.378	2995.12
972.679	2989.7
972.98	2969.58
973.281	2958.74
973.582	2933.2
973.883	2895.23
974.183	2908.12
974.484	2933.88
974.785	2915.8
975.085	2879.87
975.386	2885.52
975.686	2869.47
975.986	2822.02
976.287	2843.71
976.587	2841
976.887	2840.09
977.187	2807.55
977.487	2784.5
977.787	2818.63
978.087	2717.84
978.387	2786.54
978.687	2747.67
978.987	2697.27
979.286	2672.64
979.586	2688.23
979.885	2690.95
980.185	2658.63
980.484	2657.05
980.784	2693.43
981.083	2642.13
981.382	2597.84
981.682	2634.9
981.981	2636.94
982.28	2592.87
982.579	2601.68
982.878	2603.72
983.177	2545.19
983.475	2561.91
983.774	2547
984.073	2529.82
984.372	2550.84
984.67	2493.89
984.969	2516.04
985.267	2460.67
985.566	2476.71
985.864	2467
986.162	2454.57
986.461	2427.68
986.759	2424.96
987.057	2409.15
987.355	2384.06
987.653	2395.81
987.951	2369.82
988.249	2385.42
988.547	2387.23
988.844	2387.9
989.142	2337.51
989.44	2346.1
989.737	2328.47
990.035	2302.93
990.332	2302.71
990.63	2294.35
990.927	2301.35
991.224	2285.08
991.521	2263.84
991.819	2267.45
992.116	2244.63
992.413	2217.29
992.71	2210.96
993.006	2207.8
993.303	2200.34
993.6	2217.29
993.897	2188.81
994.193	2168.02
994.49	2197.17
994.787	2152.88
995.083	2136.61
995.379	2125.31
995.676	2146.55
995.972	2083.73
996.268	2100.68
996.565	2109.27
996.861	2059.78
997.157	2075.82
997.453	2067.23
997.749	2024.52
998.044	2015.71
998.34	1986.11
998.636	2011.19
998.932	2027.23
999.227	1990.17
999.523	1975.48
999.818	1980.91
1000.114	1938.65
1000.409	1964.86
1000.704	1952.89
1001	1939.78
1001.295	1920.8
1001.59	1906.33
1001.885	1925.54
1002.18	1899.78
1002.475	1881.7
1002.77	1868.82
1003.065	1864.3
1003.359	1879.44
1003.654	1836.05
1003.949	1847.35
1004.243	1879.89
1004.538	1819.78
1004.832	1822.27
1005.127	1801.03
1005.421	1782.5
1005.715	1777.3
1006.009	1773.23
1006.304	1753.12
1006.598	1743.4
1006.892	1749.95
1007.186	1745.66
1007.48	1720.58
1007.773	1690.75
1008.067	1687.36
1008.361	1685.32
1008.655	1710.18
1008.948	1719.67
1009.242	1681.26
1009.535	1662.27
1009.829	1665.21
1010.122	1636.06
1010.415	1629.28
1010.708	1611.88
1011.001	1613.23
1011.295	1589.51
1011.588	1593.12
1011.881	1566.91
1012.173	1566
1012.466	1560.58
1012.759	1566.68
1013.052	1555.83
1013.344	1519.9
1013.637	1530.75
1013.93	1538.89
1014.222	1510.19
1014.514	1531.43
1014.807	1491.66
1015.099	1474.48
1015.391	1505.44
1015.683	1497.08
1015.976	1463.18
1016.268	1483.29
1016.56	1435.16
1016.851	1452.79
1017.143	1432
1017.435	1432.22
1017.727	1409.85
1018.018	1398.78
1018.31	1388.38
1018.602	1372.79
1018.893	1388.16
1019.185	1356.29
1019.476	1349.51
1019.767	1370.98
1020.058	1336.86
1020.35	1321.49
1020.641	1313.36
1020.932	1331.89
1021.223	1316.07
1021.514	1308.61
1021.804	1246.92
1022.095	1273.36
1022.386	1283.75
1022.677	1275.62
1022.967	1268.84
1023.258	1256.63
1023.548	1248.27
1023.839	1239.23
1024.129	1223.19
1024.419	1229.74
1024.709	1211.89
1025	1211.44
1025.29	1189.06
1025.58	1192
1025.87	1173.7
1026.16	1178.9
1026.449	1175.73
1026.739	1135.05
1027.029	1164.21
1027.319	1129.63
1027.608	1127.37
1027.898	1138.44
1028.187	1126.92
1028.477	1107.26
1028.766	1077.66
1029.055	1105.9
1029.344	1096.64
1029.634	1086.24
1029.923	1098.22
1030.212	1065.23
1030.501	1074.94
1030.79	1042.85
1031.078	1066.13
1031.367	1022.06
1031.656	1043.76
1031.945	1039.69
1032.233	995.17
1032.522	1018.22
1032.81	997.66
1033.099	996.08
1033.387	994.27
1033.675	992.69
1033.963	992.23
1034.251	987.26
1034.54	966.02
1034.828	974.38
1035.116	981.16
1035.403	943.65
1035.691	974.83
1035.979	945.23
1036.267	960.6
1036.554	939.13
1036.842	926.7
1037.129	930.54
1037.417	903.2
1037.704	909.98
1037.992	905.46
1038.279	887.15
1038.566	905.23
1038.853	905.23
1039.14	905.23
