Data from plate_porcelain_FLMS001491_066.txt Node
Date: Tue Feb 07 11:19:41 GMT 2017
User: dcchb
Spectrometer: FLMS00149
Trigger mode: 0
Integration Time (sec): 2.000000E-2
Scans to average: 10
Electric dark correction enabled: true
Nonlinearity correction enabled: false
Boxcar width: 0
XAxis mode: Wavelengths
Number of Pixels in Spectrum: 2048
>>>>>Begin Spectral Data<<<<<
341.393	-31.17
341.776	-31.17
342.16	-31.17
342.543	-67.78
342.927	-64.39
343.31	-69.59
343.693	-58.74
344.077	-70.49
344.46	-68.46
344.843	-42.92
345.226	-49.48
345.61	-23.49
345.993	-25.07
346.376	-17.84
346.759	-6.54
347.142	30.75
347.525	47.02
347.908	56.06
348.291	68.94
348.674	99.45
349.057	130.41
349.44	107.13
349.823	139.67
350.206	162.04
350.588	226.45
350.971	250.18
351.354	268.48
351.737	284.98
352.119	292.66
352.502	287.01
352.884	317.29
353.267	301.7
353.65	344.41
354.032	320.91
354.414	343.06
354.797	356.84
355.179	368.82
355.562	343.06
355.944	368.37
356.326	380.12
356.709	385.09
357.091	371.76
357.473	382.38
357.855	395.03
358.238	388.48
358.62	366.78
359.002	383.96
359.384	402.26
359.766	411.75
360.148	385.99
360.53	378.08
360.912	383.05
361.294	373.79
361.676	408.82
362.057	387.12
362.439	409.72
362.821	405.88
363.203	405.43
363.584	402.49
363.966	397.07
364.348	386.9
364.729	378.99
365.111	402.49
365.493	419.89
365.874	397.52
366.256	395.71
366.637	384.41
367.019	395.03
367.4	392.77
367.781	393.22
368.163	395.48
368.544	400.91
368.925	413.11
369.306	403.17
369.688	390.29
370.069	402.94
370.45	397.52
370.831	402.72
371.212	416.27
371.593	438.87
371.974	400.23
372.355	412.66
372.736	422.83
373.117	422.38
373.498	430.96
373.879	431.87
374.26	411.53
374.641	413.34
375.021	422.6
375.402	451.08
375.783	466.44
376.163	465.54
376.544	455.82
376.925	477.52
377.305	442.71
377.686	460.79
378.066	448.36
378.447	462.83
378.827	485.43
379.208	494.01
379.588	474.13
379.968	469.61
380.349	480
380.729	502.37
381.109	491.3
381.489	486.1
381.87	511.19
382.25	513.22
382.63	509.15
383.01	503.28
383.39	493.56
383.77	510.28
384.15	540.56
384.53	545.76
384.91	550.96
385.29	550.96
385.67	536.95
386.049	564.75
386.429	566.78
386.809	579.89
387.189	573.56
387.568	562.94
387.948	607.23
388.328	599.09
388.707	612.2
389.087	606.1
389.466	622.14
389.846	626.44
390.225	647.68
390.605	630.96
390.984	650.17
391.363	650.84
391.743	655.82
392.122	644.97
392.501	657.62
392.881	672.09
393.26	677.74
393.639	689.94
394.018	709.15
394.397	716.83
394.776	703.95
395.155	717.06
395.534	702.37
395.913	747.57
396.292	742.14
396.671	746.66
397.05	760.9
397.429	752.99
397.808	744.18
398.186	760.22
398.565	777.17
398.944	798.64
399.323	812.65
399.701	835.47
400.08	823.27
400.458	814
400.837	812.42
401.215	866.21
401.594	818.98
401.972	852.42
402.351	862.59
402.729	867.79
403.107	921.35
403.486	905.75
403.864	924.51
404.242	927.45
404.62	931.97
404.999	937.62
405.377	945.53
405.755	955.24
406.133	988.46
406.511	1009.25
406.889	1010.16
407.267	1037.27
407.645	1024.85
408.023	1043.38
408.401	1057.61
408.779	1059.65
409.156	1096.71
409.534	1100.78
409.912	1089.03
410.29	1135.8
410.667	1156.82
411.045	1156.37
411.422	1181.9
411.8	1193.66
412.178	1214.45
412.555	1232.98
412.933	1251.28
413.31	1264.84
413.687	1286.08
414.065	1280.43
414.442	1317.04
414.819	1299.19
415.197	1311.62
415.574	1337.61
415.951	1383.48
416.328	1381.22
416.705	1371.05
417.082	1416.25
417.46	1426.19
417.837	1473.87
418.214	1436.59
418.591	1480.2
418.967	1495.34
419.344	1495.34
419.721	1529.69
420.098	1538.5
420.475	1540.31
420.852	1546.41
421.228	1574.21
421.605	1600.42
421.982	1627.99
422.358	1652.4
422.735	1658.28
423.111	1679.29
423.488	1694.66
423.864	1730.59
424.241	1725.17
424.617	1755.67
424.994	1772.85
425.37	1777.14
425.746	1779.85
426.123	1859.85
426.499	1808.55
426.875	1868.89
427.251	1886.52
427.627	1932.84
428.003	1941.21
428.379	1985.5
428.756	2005.39
429.132	2023.69
429.507	2046.29
429.883	2093.74
430.259	2154.99
430.635	2165.15
431.011	2176.45
431.387	2221.42
431.763	2300.07
432.138	2271.37
432.514	2317.69
432.89	2301.2
433.265	2364.7
433.641	2368.54
434.016	2434.75
434.392	2479.5
434.767	2524.69
435.143	2528.99
435.518	2553.39
435.894	2574.64
436.269	2637.91
436.644	2672.26
437.02	2669.77
437.395	2661.64
437.77	2748.42
438.145	2761.52
438.52	2829.77
438.895	2846.72
439.271	2807.85
439.646	2928.07
440.021	2973.04
440.395	2951.57
440.77	2930.78
441.145	2962.65
441.52	3008.75
441.895	3005.13
442.27	3057.11
442.645	3032.48
443.019	3110.89
443.394	3117.67
443.769	3174.62
444.143	3098.69
444.518	3215.97
444.892	3205.13
445.267	3260.95
445.641	3280.38
446.016	3255.52
446.39	3309.08
446.764	3372.81
447.139	3360.38
447.513	3392.02
447.887	3409.19
448.262	3425.46
448.636	3486.7
449.01	3526.48
449.384	3563.99
449.758	3593.14
450.132	3634.72
450.506	3586.13
450.88	3651.44
451.254	3710.43
451.628	3741.16
452.002	3762.18
452.376	3797.2
452.75	3862.96
453.123	3902.74
453.497	3955.84
453.871	3985.45
454.244	4097.99
454.618	4062.73
454.992	4131.88
455.365	4138.89
455.739	4298.66
456.112	4307.7
456.486	4353.57
456.859	4441.48
457.232	4479.9
457.606	4386.34
457.979	4544.08
458.352	4643.51
458.725	4705.2
459.099	4734.13
459.472	4845.99
459.845	4906.78
460.218	4939.77
460.591	4971.41
460.964	5029.03
461.337	5097.51
461.71	5271.51
462.083	5289.59
462.456	5279.65
462.829	5293.89
463.201	5399.42
463.574	5456.14
463.947	5527.78
464.32	5630.83
464.692	5674.67
465.065	5752.41
465.438	5875.34
465.81	5901.78
466.183	5972.06
466.555	6141.1
466.928	6189.23
467.3	6182
467.672	6279.85
468.045	6481.43
468.417	6451.14
468.789	6483.46
469.161	6508.32
469.534	6685.71
469.906	6823.56
470.278	6922.77
470.65	6977.23
471.022	7176.32
471.394	7268.3
471.766	7330.44
472.138	7399.59
472.51	7553.94
472.882	7731.34
473.253	7794.84
473.625	7891.56
473.997	8076.19
474.369	8179.46
474.74	8255.84
475.112	8372
475.484	8551.2
475.855	8640.46
476.227	8822.38
476.598	9024.86
476.97	9052.43
477.341	9286.55
477.713	9520.44
478.084	9512.08
478.455	9789.81
478.827	9844.5
479.198	10205.85
479.569	10227.99
479.94	10473.86
480.311	10616.46
480.682	10799.96
481.053	11113.62
481.424	11285.59
481.795	11341.86
482.166	11491.46
482.537	11660.95
482.908	11974.16
483.279	12040.38
483.65	12227.04
484.021	12568.05
484.391	12646.91
484.762	12737.08
485.133	12917.19
485.503	13143.85
485.874	13382.71
486.244	13582.71
486.615	13796.71
486.985	13920.78
487.356	14219.08
487.726	14360.77
488.097	14656.8
488.467	14666.3
488.837	15026.51
489.207	15208.2
489.578	15474.86
489.948	15530.68
490.318	15865.13
490.688	15859.03
491.058	16132.25
491.428	16349.41
491.798	16555.96
492.168	16910.53
492.538	16961.6
492.908	17194.59
493.278	17400.69
493.648	17415.6
494.017	17723.84
494.387	17866.66
494.757	18044.29
495.126	18184.85
495.496	18242.02
495.866	18496.48
496.235	18676.13
496.605	18896.24
496.974	18914.09
497.344	19134.65
497.713	19298.26
498.082	19433.63
498.452	19710.68
498.821	19787.29
499.19	19780.51
499.559	20055.53
499.928	20117.68
500.298	20348.63
500.667	20573.03
501.036	20545.69
501.405	20849.64
501.774	20709.07
502.143	21025.22
502.512	21186.58
502.88	21286.01
503.249	21356.51
503.618	21576.4
503.987	21771.19
504.356	21809.38
504.724	22003.5
505.093	22017.29
505.462	22240.79
505.83	22419.76
506.199	22570.27
506.567	22862.69
506.936	22880.09
507.304	23236.92
507.672	23344.26
508.041	23409.34
508.409	23567.08
508.777	23729.79
509.145	23997.8
509.514	24019.27
509.882	24226.5
510.25	24295.19
510.618	24509.2
510.986	24661.06
511.354	24850.66
511.722	25102.18
512.09	25301.95
512.458	25263.76
512.826	25509.63
513.193	25689.28
513.561	25844.31
513.929	26198.42
514.297	26304.41
514.664	26534.68
515.032	26607.22
515.4	26873.66
515.767	27063.26
516.135	27315.68
516.502	27096.7
516.869	27687.65
517.237	27705.73
517.604	27694.65
517.972	28023.01
518.339	28287.41
518.706	28353.39
519.073	28541.64
519.44	28710.9
519.808	28964.9
520.175	29156.99
520.542	29550.65
520.909	29715.39
521.276	29643.3
521.643	30078.77
522.009	30237.64
522.376	30533.67
522.743	30644.18
523.11	31107.44
523.477	31290.49
523.843	31459.98
524.21	31858.61
524.577	31956.69
524.943	32162.78
525.31	32370.46
525.676	32662.43
526.043	32786.27
526.409	33044.79
526.776	33374.96
527.142	33589.19
527.508	33762.97
527.874	33980.82
528.241	34239.57
528.607	34408.83
528.973	34792.32
529.339	34782.6
529.705	35136.72
530.071	35381.68
530.437	35652.64
530.803	35741.67
531.169	36047.88
531.535	35886.98
531.901	36218.95
532.267	36303.92
532.632	36604.93
532.998	36759.95
533.364	37175.08
533.73	37166.95
534.095	37583.66
534.461	37594.73
534.826	37813.71
535.192	37842.18
535.557	38161.04
535.923	38295.5
536.288	38440.81
536.653	38505.44
537.019	38534.14
537.384	38706.79
537.749	38927.35
538.114	38891.42
538.479	39047.8
538.845	39392.88
539.21	39412.99
539.575	39586.32
539.94	39854.56
540.305	40005.29
540.67	40074.44
541.034	40123.93
541.399	40350.59
541.764	40446.86
542.129	40563.02
542.494	40679.62
542.858	40810.92
543.223	40958.26
543.587	41200.06
543.952	41149.44
544.316	41419.49
544.681	41342.43
545.045	41678.69
545.41	41774.73
545.774	41856.09
546.138	41853.38
546.503	42146.7
546.867	42278.45
547.231	42521.16
547.595	42567.93
547.959	42712.56
548.324	42806.12
548.688	42898.55
549.052	43065.77
549.416	43269.61
549.779	43294.92
550.143	43393.68
550.507	43801.57
550.871	43907.56
551.235	43778.75
551.599	44234.33
551.962	44244.05
552.326	44277.27
552.689	44650.82
553.053	44428.9
553.417	44659.86
553.78	45236.79
554.143	45092.61
554.507	45376.67
554.87	45426.16
555.234	45837
555.597	45722.88
555.96	45857.79
556.323	46103.66
556.686	46098.24
557.05	46404.67
557.413	46443.99
557.776	46626.81
558.139	46946.58
558.502	46963.07
558.865	47112
559.228	47377.98
559.59	47428.37
559.953	47524.19
560.316	48019.77
560.679	48054.8
561.041	48183.83
561.404	48354.45
561.767	48562.81
562.129	48467.89
562.492	48934.55
562.854	49030.82
563.217	49031.27
563.579	49153.3
563.941	49446.17
564.304	49663.57
564.666	49797.57
565.028	50000.73
565.39	49998.93
565.753	50322.76
566.115	50294.96
566.477	50467.39
566.839	50554.17
567.201	50720.04
567.563	50801.84
567.925	51058.33
568.287	51072.34
568.648	51214.26
569.01	51417.42
569.372	51631.2
569.734	51469.17
570.095	51726.11
570.457	51877.07
570.819	51975.14
571.18	51973.79
571.542	52224.86
571.903	52237.96
572.265	52490.61
572.626	52403.61
572.987	52439.99
573.349	52621.23
573.71	52775.35
574.071	52777.61
574.432	52947.77
574.794	53132.4
575.155	53118.62
575.516	53061.9
575.877	53148.45
576.238	53234.77
576.599	53294.88
576.96	53294.43
577.32	53393.86
577.681	53441.55
578.042	53484.94
578.403	53615.1
578.763	53594.54
579.124	53709.11
579.485	53853.51
579.845	53859.39
580.206	53823.68
580.566	53797.47
580.927	53962.66
581.287	54012.38
581.648	53891.48
582.008	54050.34
582.368	53979.16
582.728	54057.12
583.089	54065.03
583.449	54024.36
583.809	54068.2
584.169	54101.87
584.529	54021.64
584.889	54297.12
585.249	54127.18
585.609	53995.88
585.969	54282.88
586.329	54075.43
586.688	54193.84
587.048	54272.71
587.408	54167.18
587.768	54127.63
588.127	54104.81
588.487	54105.03
588.846	54309.55
589.206	54204.24
589.565	54143
589.925	54407.85
590.284	54236.78
590.643	54272.94
591.003	54297.34
591.362	54433.16
591.721	54273.84
592.08	54338.47
592.44	54461.63
592.799	54447.4
593.158	54387.06
593.517	54408.3
593.876	54423.44
594.235	54416.21
594.593	54521.29
594.952	54446.94
595.311	54316.1
595.67	54407.17
596.029	54533.27
596.387	54533.27
596.746	54653.94
597.104	54469.32
597.463	54558.81
597.822	54698.69
598.18	54561.07
598.538	54568.97
598.897	54739.37
599.255	54485.81
599.613	54920.83
599.972	54707.05
600.33	54846.26
600.688	54677.22
601.046	54826.14
601.404	54955.63
601.762	54876.09
602.12	55059.81
602.478	54979.13
602.836	55027.95
603.194	54882.64
603.552	54884.45
603.91	54796.09
604.268	54975.29
604.625	54961.51
604.983	55141.62
605.341	54993.37
605.698	55139.58
606.056	55134.61
606.413	55137.1
606.771	55394.94
607.128	55271.78
607.485	55151.11
607.843	55148.39
608.2	55299.35
608.557	55414.38
608.914	55317.88
609.272	55480.82
609.629	55458.67
609.986	55565.78
610.343	55509.29
610.7	55622.28
611.057	55581.6
611.414	55651.43
611.771	55606.46
612.127	55675.61
612.484	55796.06
612.841	55752.67
613.198	55725.33
613.554	55745.67
613.911	55877.87
614.267	55894.36
614.624	55789.06
614.98	55875.61
615.337	56041.25
615.693	55922.61
616.05	55919.67
616.406	56078.09
616.762	56057.07
617.118	55999.45
617.475	55973.91
617.831	56127.8
618.187	56083.74
618.543	56132.55
618.899	56236.05
619.255	56198.76
619.611	56178.2
619.967	56330.96
620.323	56306.1
620.678	56210.06
621.034	56117.63
621.39	56140.46
621.746	56251.87
622.101	56500.45
622.457	56213
622.812	56259.55
623.168	56295.26
623.523	56349.72
623.879	56374.13
624.234	56233.56
624.589	56343.84
624.945	56316.27
625.3	56347.91
625.655	56349.27
626.01	56351.98
626.365	56369.38
626.72	56351.07
627.075	56270.17
627.43	56279.89
627.785	56220.68
628.14	56303.62
628.495	56294.13
628.85	56237.86
629.205	56142.72
629.559	56188.37
629.914	56151.53
630.269	56171.64
630.623	56058.88
630.978	55974.81
631.332	56186.56
631.687	56196.05
632.041	56037.86
632.396	56077.41
632.75	55982.5
633.104	56080.12
633.459	55893.01
633.813	55911.09
634.167	55785.67
634.521	55907.92
634.875	55908.37
635.229	55838.77
635.583	55654.14
635.937	55682.39
636.291	55702.05
636.645	55736.63
636.999	55578.89
637.352	55665.67
637.706	55574.37
638.06	55593.35
638.413	55514.03
638.767	55468.16
639.121	55514.26
639.474	55353.13
639.828	55335.96
640.181	55373.47
640.534	55366.69
640.888	55224.78
641.241	55123.31
641.594	55202.4
641.947	55321.05
642.301	55105.68
642.654	55174.83
643.007	55257.77
643.36	55091.45
643.713	55033.37
644.066	55161.05
644.419	54918.34
644.771	54785.24
645.124	54512.93
645.477	54406.49
645.83	54238.36
646.182	54074.52
646.535	53998.37
646.888	54039.5
647.24	53848.77
647.593	54102.09
647.945	53998.59
648.298	53761.09
648.65	53782.78
649.002	53579.62
649.355	53762.22
649.707	53734.87
650.059	53851.03
650.411	54227.51
650.763	54213.96
651.115	54491.24
651.467	54386.61
651.819	54295.76
652.171	54238.36
652.523	54171.92
652.875	54209.89
653.227	54013.96
653.578	54190
653.93	54082.43
654.282	54001.53
654.633	53855.1
654.985	54027.52
655.337	53943.45
655.688	53950.69
656.039	54099.16
656.391	53773.06
656.742	53891.25
657.094	53861.65
657.445	54031.36
657.796	53860.74
658.147	53789.79
658.498	53782.33
658.849	53831.82
659.2	53782.33
659.551	53725.38
659.902	53860.29
660.253	53815.32
660.604	53877.24
660.955	53719.73
661.306	53707.75
661.656	53620.07
662.007	53642.45
662.358	53587.08
662.708	53637.93
663.059	53614.42
663.409	53360.42
663.76	53503.24
664.11	53553.18
664.461	53583.24
664.811	53532.17
665.161	53641.99
665.511	53494.65
665.862	53521.09
666.212	53705.49
666.562	53595.67
666.912	53456.24
667.262	53453.3
667.612	53583.01
667.962	53470.47
668.312	53444.71
668.662	53566.74
669.011	53427.99
669.361	53339.85
669.711	53378.72
670.06	53335.33
670.41	53248.78
670.76	53258.95
671.109	53345.5
671.459	53238.16
671.808	53154.77
672.157	53371.49
672.507	53023.48
672.856	53176.47
673.205	53175.34
673.554	53170.59
673.904	53155.68
674.253	53223.93
674.602	53107.32
674.951	52711.17
675.3	52492.42
675.649	53049.01
675.998	53101.22
676.346	52944.38
676.695	53075.45
677.044	52907.78
677.393	52922.69
677.741	52978.28
678.09	52838.4
678.438	52754.11
678.787	52892.18
679.135	52841.11
679.484	52690.61
679.832	52772.86
680.181	52560.21
680.529	52680.89
680.877	52498.75
681.225	52565.41
681.573	52695.35
681.922	52428.47
682.27	52420.56
682.618	52414.91
682.966	52257.17
683.314	52304.85
683.661	52177.4
684.009	52078.42
684.357	52023.96
684.705	51931.53
685.053	52031.87
685.4	51952.77
685.748	51776.73
686.095	51782.83
686.443	51568.83
686.79	51528.38
687.138	51503.74
687.485	51553.69
687.832	51445.44
688.18	51529.05
688.527	51382.17
688.874	51403.86
689.221	51238.21
689.568	51056.75
689.915	50965.45
690.262	51014.72
690.609	50903.76
690.956	50812.92
691.303	50716.87
691.65	50619.25
691.997	50534.28
692.344	50301.29
692.69	50391.68
693.037	50351.23
693.383	50164.57
693.73	50250.67
694.077	49942.66
694.423	49949.89
694.769	49789.89
695.116	49856.33
695.462	49752.83
695.808	49764.81
696.155	49767.29
696.501	49444.36
696.847	49505.61
697.193	49165.95
697.539	49318.27
697.885	48993.98
698.231	49022
698.577	48890.48
698.923	48840.09
699.269	48691.62
699.614	48382.02
699.96	48443.49
700.306	48422.7
700.651	48334.34
700.997	48175.92
701.342	48144.06
701.688	47945.19
702.033	47894.12
702.379	47704.52
702.724	47715.14
703.069	47718.31
703.415	47279.67
703.76	47344.53
704.105	47374.14
704.45	47110.64
704.795	46951.55
705.14	46808.05
705.485	46862.74
705.83	46714.27
706.175	46817.31
706.52	46450.77
706.865	46442.86
707.209	46451.9
707.554	46338.23
707.899	46335.29
708.243	46142.08
708.588	46145.92
708.932	45882.65
709.277	45792.93
709.621	45824.8
709.966	45546.39
710.31	45583.22
710.654	45307.52
710.998	45339.16
711.342	45440.4
711.687	45242.21
712.031	45124.48
712.375	44975.1
712.719	45040.19
713.063	44956.12
713.407	44948.66
713.75	44783.92
714.094	44694.88
714.438	44487.43
714.782	44600.42
715.125	44369.24
715.469	44401.33
715.812	44218.96
716.156	43926.54
716.499	43894.45
716.843	44122.7
717.186	43616.49
717.53	43882.48
717.873	43863.95
718.216	43804.06
718.559	43673.44
718.902	43396.61
719.246	43474.58
719.589	43430.96
719.932	43315.94
720.275	43212.66
720.617	43145.55
720.96	43050.63
721.303	43077.98
721.646	42931.99
721.989	42786.69
722.331	42818.55
722.674	42674.6
723.016	42655.62
723.359	42636.41
723.701	42656.52
724.044	42371.33
724.386	42207.49
724.729	42433.47
725.071	42209.53
725.413	42200.03
725.755	42091.79
726.097	41907.61
726.439	41838.24
726.782	41752.36
727.124	41855.18
727.465	41730.89
727.807	41700.16
728.149	41642.76
728.491	41495.65
728.833	41546.72
729.175	41442.09
729.516	41230.79
729.858	41222.21
730.199	41301.08
730.541	41114.19
730.882	41106.5
731.224	41108.31
731.565	40928.43
731.906	40904.48
732.248	41061.08
732.589	40765.72
732.93	40626.74
733.271	40635.56
733.612	40661.77
733.953	40632.17
734.294	40524.37
734.635	40267.2
734.976	40457.71
735.317	40145.85
735.658	40203.93
735.999	40199.18
736.339	40124.61
736.68	40125.29
737.021	39878.97
737.361	39895.24
737.702	40096.36
738.042	39799.42
738.383	39721.68
738.723	39777.95
739.063	39645.3
739.404	39521.91
739.744	39528.92
740.084	39410.73
740.424	39302.94
740.764	39329.6
741.104	39514.68
741.444	39158.53
741.784	39022.94
742.124	38994.47
742.464	39075.37
742.804	38983.4
743.143	38941.59
743.483	38956.5
743.823	38722.84
744.162	38706.12
744.502	38751.54
744.841	38540.92
745.181	38699.79
745.52	38413.24
745.86	38599.9
746.199	38349.29
746.538	38435.84
746.877	38329.18
747.216	38235.17
747.556	38084.66
747.895	38058.67
748.234	37894.84
748.573	37860.49
748.911	37731.45
749.25	37858.45
749.589	37666.59
749.928	37715.86
750.267	37701.62
750.605	37504.79
750.944	37302.76
751.283	37326.04
751.621	37413.04
751.96	37186.38
752.298	37201.75
752.636	37037.01
752.975	36882.21
753.313	36752.04
753.651	36923.79
753.989	36811.02
754.327	36656.9
754.666	36441.99
755.004	36598.15
755.342	36667.52
755.679	36487.42
756.017	36348.21
756.355	36403.8
756.693	36163.13
757.031	36175.56
757.368	35903.25
757.706	35856.47
758.044	35668
758.381	35819.86
758.719	35545.07
759.056	35479.99
759.394	35504.17
759.731	35159.99
760.068	35148.69
760.405	35085.42
760.743	34924.07
761.08	34950.06
761.417	34815.82
761.754	34736.73
762.091	34743.28
762.428	34489.28
762.765	34400.01
763.102	34538.32
763.438	34251.54
763.775	34042.96
764.112	34081.83
764.449	34099.23
764.785	33858.56
765.122	33585.12
765.458	33440.72
765.795	33419.7
766.131	33543.76
766.467	33302.42
766.804	33082.53
767.14	32885.25
767.476	32848.64
767.812	32648.65
768.148	32871.69
768.485	32554.64
768.821	32471.02
769.157	32351.71
769.492	32320.07
769.828	32302.44
770.164	32049.11
770.5	32113.97
770.836	31847.54
771.171	31697.94
771.507	31569.58
771.842	31438.96
772.178	31523.93
772.513	31438.51
772.849	31377.04
773.184	31169.59
773.519	31146.31
773.855	30995.58
774.19	30848.69
774.525	30614.58
774.86	30690.05
775.195	30530.96
775.53	30450.06
775.865	30278.09
776.2	30080.35
776.535	30003.29
776.87	29946.57
777.205	29848.04
777.539	29668.39
777.874	29731.44
778.209	29457.77
778.543	29484.66
778.878	29211.45
779.212	29203.54
779.547	29094.16
779.881	29147.04
780.215	28800.84
780.55	28962.64
780.884	28692.59
781.218	28592.48
781.552	28638.58
781.886	28482.88
782.22	28304.58
782.554	28141.87
782.888	27969.22
783.222	27886.29
783.556	27775.33
783.889	27834.31
784.223	27569.91
784.557	27576.01
784.89	27528.1
785.224	27289.92
785.557	27306.41
785.891	27192.52
786.224	27048.79
786.558	27013.99
786.891	26865.07
787.224	26672.31
787.557	26633.66
787.891	26645.42
788.224	26489.26
788.557	26378.3
788.89	26355.71
789.223	26367.91
789.556	26063.28
789.888	26094.47
790.221	25898.09
790.554	25785.55
790.887	25850.41
791.219	25590.3
791.552	25641.15
791.884	25456.29
792.217	25387.37
792.549	25268.5
792.882	25259.46
793.214	25047.49
793.546	25138.34
793.879	24908.06
794.211	24807.95
794.543	24738.57
794.875	24794.39
795.207	24631.46
795.539	24630.1
795.871	24613.83
796.203	24368.41
796.535	24181.53
796.867	24200.73
797.198	24028.99
797.53	24096.56
797.862	23942.44
798.193	23989.67
798.525	23800.29
798.856	23827.64
799.188	23401.21
799.519	23457.25
799.85	23313.3
800.182	23479.62
800.513	23431.49
800.844	23306.75
801.175	23388.33
801.506	23225.84
801.837	23123.47
802.168	22989.69
802.499	22979.75
802.83	22874.21
803.161	22797.61
803.491	22827.21
803.822	22763.26
804.153	22660.89
804.483	22400.56
804.814	22313.33
805.145	22292.31
805.475	22274
805.805	22193.78
806.136	22173.22
806.466	22217.06
806.796	22144.29
807.126	21934.13
807.457	21895.94
807.787	22031.75
808.117	21753.57
808.447	21792.21
808.777	21779.1
809.107	21562.84
809.436	21565.77
809.766	21567.36
810.096	21502.73
810.426	21366.91
810.755	21345.44
811.085	21264.54
811.414	21137.99
811.744	21072.68
812.073	21052.12
812.403	20940.03
812.732	20928.96
813.061	20958.56
813.39	20825.23
813.719	20788.85
814.049	20859.13
814.378	20702.97
814.707	20554.05
815.036	20572.81
815.365	20482.64
815.693	20235.87
816.022	20309.76
816.351	20318.8
816.68	20156.09
817.008	20366.94
817.337	20169.65
817.665	20068.86
817.994	20022.31
818.322	20058.47
818.651	19902.32
818.979	19903.22
819.307	19908.42
819.636	19905.25
819.964	19742.09
820.292	19795.88
820.62	19701.42
820.948	19631.81
821.276	19667.52
821.604	19657.35
821.932	19619.39
822.259	19701.64
822.587	19572.38
822.915	19574.41
823.243	19601.08
823.57	19610.35
823.898	19617.58
824.225	19566.05
824.553	19537.35
824.88	19640.85
825.207	19708.42
825.535	19544.13
825.862	19602.21
826.189	19609.89
826.516	19632.27
826.843	19652.38
827.17	19695.77
827.497	19752.49
827.824	19677.91
828.151	19610.12
828.478	19606.5
828.805	19671.36
829.131	19504.59
829.458	19493.29
829.785	19438.83
830.111	19422.33
830.438	19595.43
830.764	19534.19
831.09	19445.38
831.417	19383.91
831.743	19513.63
832.069	19432.27
832.395	19349.79
832.722	19443.34
833.048	19333.74
833.374	19304.59
833.7	19268.43
834.026	19302.78
834.351	19403.57
834.677	19313.63
835.003	19325.16
835.329	19334.2
835.654	19280.64
835.98	19159.28
836.306	19099.62
836.631	19151.15
836.956	19157.48
837.282	19117.03
837.607	19004.49
837.932	18945.73
838.258	18973.75
838.583	18895.56
838.908	18948.22
839.233	18905.05
839.558	18823.93
839.883	18809.92
840.208	18764.49
840.533	18674.55
840.858	18670.03
841.182	18770.59
841.507	18700.77
841.832	18629.81
842.156	18612.41
842.481	18615.12
842.805	18424.16
843.13	18415.58
843.454	18359.08
843.778	18331.74
844.103	18267.78
844.427	18221.46
844.751	18227.33
845.075	18189.82
845.399	18146.66
845.723	18019.2
846.047	18052.87
846.371	17840.67
846.695	17858.53
847.019	17668.48
847.343	17709.15
847.666	17499.67
847.99	17435.49
848.313	17448.14
848.637	17354.81
848.96	17320.01
849.284	17297.86
849.607	17221.71
849.931	17188.04
850.254	16997.08
850.577	16945.56
850.9	16870.53
851.223	16765.45
851.546	16734.49
851.869	16631.67
852.192	16709.63
852.515	16562.74
852.838	16367.49
853.161	16445.46
853.483	16333.82
853.806	16293.37
854.129	16353.93
854.451	16235.75
854.774	16158.91
855.096	16116.65
855.419	16118.01
855.741	16083.66
856.063	15890.22
856.385	15904.23
856.708	15860.84
857.03	15805.93
857.352	15825.59
857.674	15640.96
857.996	15666.49
858.318	15571.58
858.64	15541.53
858.961	15518.25
859.283	15409.78
859.605	15316
859.926	15443.68
860.248	15358.71
860.57	15228.09
860.891	15267.64
861.212	15182.89
861.534	15227.86
861.855	15123.68
862.176	15205.72
862.498	15037.81
862.819	15090.24
863.14	14909.68
863.461	14972.95
863.782	14954.42
864.103	14932.05
864.424	14915.55
864.745	14890.92
865.065	14842.56
865.386	14739.74
865.707	14721.66
866.027	14848.21
866.348	14781.32
866.668	14767.76
866.989	14688.67
867.309	14544.94
867.63	14635.56
867.95	14551.5
868.27	14511.5
868.59	14565.96
868.91	14511.27
869.23	14577.71
869.55	14415.45
869.87	14484.38
870.19	14499.75
870.51	14505.85
870.83	14431.73
871.15	14314.21
871.469	14276.93
871.789	14293.42
872.109	14232.63
872.428	14171.62
872.748	14282.58
873.067	14227.44
873.386	14171.62
873.706	14132.3
874.025	14159.42
874.344	14148.57
874.663	14111.73
874.982	14054.79
875.301	13996.26
875.62	13998.06
875.939	13841.23
876.258	13925.52
876.577	13914.45
876.896	13892.53
877.214	13786.32
877.533	13915.35
877.852	13903.38
878.17	13814.34
878.489	13838.75
878.807	13803.27
879.125	13736.6
879.444	13692.54
879.762	13660.9
880.08	13770.05
880.398	13669.49
880.716	13646.66
881.034	13681.01
881.352	13642.82
881.67	13599.66
881.988	13599.2
882.306	13573.22
882.624	13427.91
882.941	13401.24
883.259	13345.2
883.577	13283.96
883.894	13321.25
884.212	13208.93
884.529	13237.41
884.846	13220.23
885.164	13235.15
885.481	13125.09
885.798	13119.22
886.115	13039.9
886.432	13011.2
886.75	13009.62
887.067	13026.34
887.383	12996.51
887.7	12971.88
888.017	12915.15
888.334	12929.62
888.651	12770.07
888.967	12870.86
889.284	12820.69
889.6	12751.09
889.917	12653.01
890.233	12698.89
890.55	12640.13
890.866	12620.02
891.182	12514.49
891.498	12487.6
891.815	12388.84
892.131	12406.24
892.447	12437.2
892.763	12338.22
893.079	12354.27
893.395	12233.14
893.71	12222.52
894.026	12217.32
894.342	12147.04
894.657	12086.93
894.973	12107.49
895.289	12049.19
895.604	12023.2
895.92	11879.25
896.235	11871.11
896.55	11866.59
896.865	11811
897.181	11768.74
897.496	11878.57
897.811	11787.05
898.126	11706.6
898.441	11649.88
898.756	11691.91
899.071	11527.39
899.386	11553.16
899.7	11473.38
900.015	11428.64
900.33	11385.48
900.644	11402.43
900.959	11363.56
901.273	11316.33
901.588	11246.05
901.902	11234.75
902.216	11191.13
902.531	11138.48
902.845	11037.69
903.159	11050.35
903.473	10938.48
903.787	10919.73
904.101	10810.13
904.415	10822.78
904.729	10767.41
905.042	10689
905.356	10687.87
905.67	10620.75
905.984	10744.59
906.297	10724.93
906.611	10525.84
906.924	10550.25
907.237	10547.76
907.551	10461.89
907.864	10423.02
908.177	10451.49
908.491	10339.4
908.804	10313.64
909.117	10261.67
909.43	10175.79
909.743	10171.72
910.056	10143.93
910.368	10120.43
910.681	10042.01
910.994	10009.69
911.307	9995.91
911.619	9848.12
911.932	9926.31
912.244	9853.77
912.557	9909.81
912.869	9755.46
913.181	9724.28
913.494	9726.09
913.806	9738.74
914.118	9606.32
914.43	9521.57
914.742	9537.84
915.054	9562.02
915.366	9527.67
915.678	9382.14
915.99	9355.93
916.302	9382.14
916.613	9258.3
916.925	9329.03
917.236	9183.05
917.548	9163.84
917.859	9223.05
918.171	9127.01
918.482	9075.71
918.794	9033.45
919.105	9070.06
919.416	8919.1
919.727	8915.71
920.038	8801.59
920.349	8761.37
920.66	8799.1
920.971	8769.28
921.282	8698.54
921.593	8611.31
921.903	8593.01
922.214	8607.25
922.525	8538.55
922.835	8503.97
923.146	8487.7
923.456	8452.9
923.767	8429.17
924.077	8410.64
924.387	8374.71
924.697	8297.2
925.008	8241.38
925.318	8192.57
925.628	8257.88
925.938	8187.14
926.248	8082.06
926.558	8123.19
926.867	8026.7
927.177	8043.42
927.487	7953.03
927.796	7874.16
928.106	7976.98
928.416	7809.98
928.725	7879.81
929.034	7842.75
929.344	7745.57
929.653	7791.67
929.962	7714.61
930.271	7671.68
930.581	7614.73
930.89	7526.6
931.199	7526.82
931.508	7515.07
931.817	7502.64
932.125	7439.14
932.434	7435.52
932.743	7352.36
933.051	7389.65
933.36	7308.07
933.669	7300.39
933.977	7248.64
934.286	7233.27
934.594	7262.2
934.902	7087.51
935.21	7087.74
935.519	7129.32
935.827	7077.12
936.135	7106.27
936.443	6970.9
936.751	7008.19
937.059	6992.82
937.367	6933.62
937.674	6903.56
937.982	6909.21
938.29	6874.41
938.597	6854.3
938.905	6797.35
939.213	6779.27
939.52	6779.04
939.827	6760.97
940.135	6706.96
940.442	6675.32
940.749	6600.29
941.056	6604.59
941.363	6530.92
941.67	6488.88
941.977	6508.09
942.284	6450.24
942.591	6462.44
942.898	6407.76
943.205	6429.68
943.511	6339.73
943.818	6336.8
944.125	6307.19
944.431	6194.65
944.738	6290.24
945.044	6160.98
945.35	6144.26
945.657	6128.67
945.963	6099.29
946.269	6143.58
946.575	6061.78
946.881	6051.61
947.187	6007.09
947.493	6008.9
947.799	5929.8
948.105	5908.11
948.41	5849.8
948.716	5873.76
949.022	5815.91
949.327	5852.52
949.633	5788.56
949.938	5778.85
950.244	5754.89
950.549	5704.95
950.854	5665.63
951.16	5719.41
951.465	5662.92
951.77	5593.09
952.075	5622.92
952.38	5566.87
952.685	5550.15
952.99	5485.52
953.294	5459.98
953.599	5480.1
953.904	5407.56
954.209	5423.37
954.513	5379.31
954.818	5422.92
955.122	5342.47
955.426	5310.83
955.731	5275.13
956.035	5285.52
956.339	5225.64
956.643	5234.45
956.948	5221.35
957.252	5184.74
957.556	5211.63
957.86	5121.24
958.163	5128.24
958.467	5104.51
958.771	5081.91
959.075	5033.1
959.378	5019.32
959.682	5009.83
959.985	4994.69
960.289	4956.95
960.592	4930.96
960.896	4911.75
961.199	4918.53
961.502	4881.92
961.805	4794.69
962.108	4811.19
962.411	4780.23
962.714	4777.97
963.017	4794.01
963.32	4778.42
963.623	4729.61
963.926	4703.62
964.228	4738.87
964.531	4673.79
964.833	4655.48
965.136	4638.76
965.438	4597.18
965.741	4641.25
966.043	4549.95
966.345	4513.79
966.648	4523.51
966.95	4490.52
967.252	4459.11
967.554	4451.87
967.856	4417.3
968.158	4393.57
968.46	4392.44
968.761	4380.01
969.063	4344.53
969.365	4343.63
969.666	4329.62
969.968	4256.4
970.269	4255.5
970.571	4284.87
970.872	4256.17
971.174	4168.94
971.475	4187.93
971.776	4181.6
972.077	4219.11
972.378	4163.97
972.679	4113.8
972.98	4076.74
973.281	4082.17
973.582	4099.34
973.883	4065.67
974.183	4071.77
974.484	4037.2
974.785	4000.13
975.085	3975.5
975.386	3985.9
975.686	3975.95
975.986	3919.23
976.287	3922.62
976.587	3910.65
976.887	3871.78
977.187	3865.45
977.487	3821.38
977.787	3767.6
978.087	3825.45
978.387	3791.33
978.687	3818.9
978.987	3752.46
979.286	3700.93
979.586	3735.74
979.885	3699.58
980.185	3659.8
980.484	3693.93
980.784	3648.51
981.083	3625.23
981.382	3637.21
981.682	3615.06
981.981	3621.16
982.28	3590.43
982.579	3575.97
982.878	3563.99
983.177	3518.11
983.475	3511.56
983.774	3537.1
984.073	3490.09
984.372	3444.9
984.67	3423.65
984.969	3448.96
985.267	3420.94
985.566	3375.74
985.864	3345.69
986.162	3363.32
986.461	3330.77
986.759	3362.41
987.057	3345.01
987.355	3276.99
987.653	3343.2
987.951	3282.64
988.249	3252.58
988.547	3236.77
988.844	3274.05
989.142	3258.23
989.44	3189.99
989.737	3161.29
990.035	3175.98
990.332	3165.58
990.63	3163.55
990.927	3113.15
991.224	3131.46
991.521	3103.44
991.819	3094.85
992.116	3082.64
992.413	3038.13
992.71	3030.89
993.006	2978.01
993.303	2980.5
993.6	2988.86
993.897	2952.48
994.193	2962.2
994.49	2927.62
994.787	2918.13
995.083	2894.85
995.379	2924.46
995.676	2888.98
995.972	2861.86
996.268	2836.1
996.565	2842.2
996.861	2828.64
997.157	2777.57
997.453	2794.74
997.749	2778.7
998.044	2770.79
998.34	2729.89
998.636	2736.44
998.932	2722.2
999.227	2725.37
999.523	2705.03
999.818	2671.58
1000.114	2644.24
1000.409	2634.07
1000.704	2636.78
1001	2633.62
1001.295	2592.26
1001.59	2588.19
1001.885	2572.38
1002.18	2539.61
1002.475	2558.36
1002.77	2511.59
1003.065	2498.03
1003.359	2523.79
1003.654	2499.38
1003.949	2455.32
1004.243	2450.12
1004.538	2395.21
1004.832	2419.39
1005.127	2414.41
1005.421	2409.44
1005.715	2401.53
1006.009	2393.62
1006.304	2391.14
1006.598	2346.17
1006.892	2349.56
1007.186	2364.02
1007.48	2306.39
1007.773	2328.09
1008.067	2282.89
1008.361	2243.57
1008.655	2232.72
1008.948	2240.63
1009.242	2227.75
1009.535	2205.38
1009.829	2234.98
1010.122	2187.75
1010.415	2165.83
1010.708	2171.48
1011.001	2185.72
1011.295	2150.47
1011.588	2129.45
1011.881	2126.96
1012.173	2120.18
1012.466	2098.72
1012.759	2095.33
1013.052	2076.8
1013.344	2046.97
1013.637	2063.01
1013.93	2026.85
1014.222	2024.37
1014.514	1995.44
1014.807	2001.09
1015.099	1974.88
1015.391	1994.09
1015.683	1941.43
1015.976	1934.88
1016.268	1935.33
1016.56	1935.78
1016.851	1932.62
1017.143	1909.12
1017.435	1893.75
1017.727	1874.99
1018.018	1849.68
1018.31	1842.45
1018.602	1823.47
1018.893	1803.58
1019.185	1790.48
1019.476	1782.34
1019.767	1781.21
1020.058	1784.37
1020.35	1744.6
1020.641	1723.58
1020.932	1744.6
1021.223	1689.69
1021.514	1722.91
1021.804	1709.12
1022.095	1715.9
1022.386	1663.7
1022.677	1664.83
1022.967	1659.18
1023.258	1639.52
1023.548	1622.34
1023.839	1631.84
1024.129	1619.86
1024.419	1587.77
1024.709	1568.79
1025	1569.92
1025.29	1601.55
1025.58	1589.8
1025.87	1521.56
1026.16	1543.48
1026.449	1508.68
1026.739	1513.65
1027.029	1500.09
1027.319	1508.9
1027.608	1492.86
1027.898	1466.19
1028.187	1444.5
1028.477	1491.27
1028.766	1456.92
1029.055	1422.58
1029.344	1390.26
1029.634	1410.15
1029.923	1393.2
1030.212	1374.89
1030.501	1409.24
1030.79	1361.79
1031.078	1356.81
1031.367	1343.71
1031.656	1361.33
1031.945	1320.66
1032.233	1325.4
1032.522	1346.87
1032.81	1326.53
1033.099	1278.62
1033.387	1276.59
1033.675	1268.68
1033.963	1280.21
1034.251	1289.7
1034.54	1248.79
1034.828	1247.89
1035.116	1244.73
1035.403	1237.04
1035.691	1235.24
1035.979	1213.09
1036.267	1202.92
1036.554	1166.31
1036.842	1179.87
1037.129	1195.01
1037.417	1181.23
1037.704	1146.42
1037.992	1179.42
1038.279	1121.11
1038.566	1153.88
1038.853	1153.88
1039.14	1153.88
