Data from plate_ceramic_FLMS001491_097.txt Node
Date: Tue Feb 07 11:17:35 GMT 2017
User: dcchb
Spectrometer: FLMS00149
Trigger mode: 0
Integration Time (sec): 2.000000E-2
Scans to average: 10
Electric dark correction enabled: true
Nonlinearity correction enabled: false
Boxcar width: 0
XAxis mode: Wavelengths
Number of Pixels in Spectrum: 2048
>>>>>Begin Spectral Data<<<<<
341.393	-7.85
341.776	-7.85
342.16	-7.85
342.543	-63.9
342.927	-65.7
343.31	-67.96
343.693	-68.42
344.077	-76.55
344.46	-68.64
344.843	-44.24
345.226	-44.24
345.61	-28.64
345.993	-1.98
346.376	-10.56
346.759	14.75
347.142	14.29
347.525	61.07
347.908	52.48
348.291	71.47
348.674	97
349.057	100.17
349.44	101.97
349.823	152.37
350.206	150.11
350.588	206.83
350.971	219.26
351.354	242.76
351.737	237.11
352.119	274.85
352.502	263.55
352.884	281.41
353.267	297.68
353.65	296.32
354.032	319.82
354.414	309.43
354.797	344.23
355.179	339.93
355.562	335.41
355.944	341.06
356.326	345.58
356.709	344.68
357.091	353.27
357.473	351.01
357.855	328.86
358.238	351.46
358.62	360.05
359.002	366.6
359.384	357.11
359.766	347.17
360.148	362.08
360.53	353.04
360.912	348.97
361.294	345.36
361.676	337.45
362.057	364.57
362.439	373.83
362.821	331.35
363.203	353.04
363.584	365.02
363.966	347.84
364.348	333.61
364.729	371.8
365.111	359.14
365.493	348.07
365.874	344.45
366.256	356.66
366.637	355.75
367.019	346.71
367.4	335.64
367.781	371.35
368.163	379.93
368.544	363.44
368.925	345.36
369.306	368.41
369.688	357.56
370.069	330.22
370.45	351.01
370.831	375.19
371.212	369.54
371.593	355.98
371.974	356.88
372.355	368.63
372.736	388.29
373.117	373.38
373.498	380.61
373.879	377
374.26	369.99
374.641	345.58
375.021	370.67
375.402	384.23
375.783	388.97
376.163	406.15
376.544	393.04
376.925	402.08
377.305	400.72
377.686	412.02
378.066	386.94
378.447	410.67
378.827	413.38
379.208	405.92
379.588	409.99
379.968	450.21
380.349	407.05
380.729	409.54
381.109	434.17
381.489	420.16
381.87	422.87
382.25	434.85
382.63	440.95
383.01	439.14
383.39	436.66
383.77	460.84
384.15	429.88
384.53	446.82
384.91	443.21
385.29	447.05
385.67	480.5
386.049	468.29
386.429	472.13
386.809	463.32
387.189	469.2
387.568	480.95
387.948	496.99
388.328	471.68
388.707	471.23
389.087	494.51
389.466	505.58
389.846	515.3
390.225	506.03
390.605	487.95
390.984	515.75
391.363	514.85
391.743	532.47
392.122	551.45
392.501	520.95
392.881	553.04
393.26	568.63
393.639	591.68
394.018	579.7
394.397	574.28
394.776	564.34
395.155	578.12
395.534	568.18
395.913	609.08
396.292	583.32
396.671	603.2
397.05	614.5
397.429	588.29
397.808	603.88
398.186	600.94
398.565	627.16
398.944	615.63
399.323	646.37
399.701	631.68
400.08	617.22
400.458	663.54
400.837	662.86
401.215	675.97
401.594	663.54
401.972	680.04
402.351	699.25
402.729	686.37
403.107	692.24
403.486	700.38
403.864	726.59
404.242	727.72
404.62	714.84
404.999	722.52
405.377	739.02
405.755	737.21
406.133	739.25
406.511	749.87
406.889	770.21
407.267	793.26
407.645	784.89
408.023	801.39
408.401	801.17
408.779	810.43
409.156	823.09
409.534	816.31
409.912	854.27
410.29	858.34
410.667	859.47
411.045	867.6
411.422	890.88
411.8	893.37
412.178	909.86
412.555	905.57
412.933	946.92
413.31	946.02
413.687	967.26
414.065	977.43
414.442	1004.78
414.819	1000.26
415.197	988.96
415.574	1048.39
415.951	1000.03
416.328	1053.59
416.705	1046.13
417.082	1041.61
417.46	1043.19
417.837	1074.15
418.214	1083.42
418.591	1090.2
418.967	1108.05
419.344	1120.25
419.721	1115.51
420.098	1155.28
420.475	1156.41
420.852	1175.39
421.228	1197.99
421.605	1173.81
421.982	1218.78
422.358	1220.14
422.735	1203.19
423.111	1229.85
423.488	1249.06
423.864	1256.75
424.241	1286.12
424.617	1301.72
424.994	1318.44
425.37	1320.25
425.746	1335.16
426.123	1338.78
426.499	1339.91
426.875	1374.94
427.251	1424.2
427.627	1423.97
428.003	1416.97
428.379	1471.43
428.756	1473.01
429.132	1480.92
429.507	1506.23
429.883	1527.93
430.259	1549.85
430.635	1567.47
431.011	1570.64
431.387	1623.74
431.763	1650.18
432.138	1677.07
432.514	1681.59
432.89	1692.89
433.265	1719.56
433.641	1733.12
434.016	1744.64
434.392	1783.06
434.767	1816.73
435.143	1811.53
435.518	1824.64
435.894	1874.36
436.269	1891.08
436.644	1890.4
437.02	1936.95
437.395	1950.51
437.77	1974.69
438.145	1973.11
438.52	2034.58
438.895	2022.38
439.271	2019.21
439.646	2064.86
440.021	2094.46
440.395	2104.63
440.77	2087.69
441.145	2145.31
441.52	2154.58
441.895	2172.65
442.27	2197.74
442.645	2179.21
443.019	2236.83
443.394	2221.47
443.769	2245.42
444.143	2268.7
444.518	2294.69
444.892	2274.12
445.267	2298.08
445.641	2324.74
446.016	2355.47
446.39	2336.27
446.764	2342.59
447.139	2391.18
447.513	2430.28
447.887	2444.29
448.262	2446.77
448.636	2421.69
449.01	2491.97
449.384	2526.32
449.758	2547.11
450.132	2537.39
450.506	2585.3
450.88	2603.6
451.254	2604.73
451.628	2614.9
452.002	2654.22
452.376	2668.23
452.75	2712.75
453.123	2746.88
453.497	2777.84
453.871	2806.54
454.244	2844.28
454.618	2931.28
454.992	2937.15
455.365	2906.19
455.739	2975.35
456.112	3034.1
456.486	3060.77
456.859	3095.57
457.232	3124.27
457.606	3156.13
457.979	3169.01
458.352	3272.51
458.725	3286.07
459.099	3295.34
459.472	3411.94
459.845	3417.14
460.218	3416.92
460.591	3486.74
460.964	3509.34
461.337	3574.65
461.71	3602.9
462.083	3688.77
462.456	3724.48
462.829	3726.74
463.201	3807.87
463.574	3795.66
463.947	3871.82
464.32	3929.67
464.692	3962.44
465.065	4012.15
465.438	4063.45
465.81	4155.88
466.183	4185.48
466.555	4283.33
466.928	4270.9
467.3	4274.52
467.672	4376.21
468.045	4449.66
468.417	4556.32
468.789	4536.66
469.161	4574.4
469.534	4656.21
469.906	4727.62
470.278	4774.17
470.65	4909.53
471.022	4952.69
471.394	5049.19
471.766	5087.61
472.138	5161.95
472.51	5282.4
472.882	5365.34
473.253	5370.99
473.625	5461.16
473.997	5591.77
474.369	5612.34
474.74	5654.82
475.112	5771.43
475.484	5860.69
475.855	6017.75
476.227	6030.41
476.598	6227.46
476.97	6274.69
477.341	6427.01
477.713	6516.04
478.084	6590.84
478.455	6714
478.827	6764.85
479.198	6941.34
479.569	6972.75
479.94	7208
480.311	7243.26
480.682	7486.41
481.053	7613.64
481.424	7736.12
481.795	7780.42
482.166	7901.32
482.537	8026.96
482.908	8137.02
483.279	8280.29
483.65	8433.06
484.021	8608.19
484.391	8727.06
484.762	8813.16
485.133	8914.4
485.503	9004.79
485.874	9171.57
486.244	9305.8
486.615	9490.43
486.985	9573.82
487.356	9800.7
487.726	9820.14
488.097	10090.86
488.467	10083.41
488.837	10329.05
489.207	10458.31
489.578	10623.73
489.948	10698.31
490.318	10874.12
490.688	10891.75
491.058	10979.65
491.428	11234.34
491.798	11347.78
492.168	11608.56
492.538	11581.45
492.908	11741.67
493.278	11835.45
493.648	11876.13
494.017	12152.96
494.387	12143.47
494.757	12259.85
495.126	12543.91
495.496	12507.75
495.866	12648.09
496.235	12815.99
496.605	12867.74
496.974	13011.24
497.344	13143.21
497.713	13204
498.082	13250.78
498.452	13432.92
498.821	13494.39
499.19	13549.3
499.559	13700.94
499.928	13796.76
500.298	13933.93
500.667	14099.12
501.036	14030.65
501.405	14196.75
501.774	14197.2
502.143	14407.81
502.512	14506.12
502.88	14652.78
503.249	14758.09
503.618	14795.15
503.987	14782.04
504.356	14995.82
504.724	15037.18
505.093	15086.44
505.462	15210.05
505.83	15358.3
506.199	15460.89
506.567	15685.52
506.936	15601.68
507.304	15909.92
507.672	15945.85
508.041	15984.72
508.409	16127.09
508.777	16290.25
509.145	16408.44
509.514	16368.21
509.882	16619.28
510.25	16717.13
510.618	16832.38
510.986	16937.01
511.354	17011.13
511.722	17229.66
512.09	17391.69
512.458	17366.38
512.826	17565.92
513.193	17644.56
513.561	17698.57
513.929	17885.91
514.297	17992.13
514.664	18231.89
515.032	18297.2
515.4	18486.12
515.767	18581.26
516.135	18705.78
516.502	18671.88
516.869	18981.25
517.237	18976.96
517.604	19057.86
517.972	19398.42
518.339	19382.15
518.706	19508.24
519.073	19607.68
519.44	19736.26
519.808	20046.54
520.175	20034.33
520.542	20393.19
520.909	20481.78
521.276	20451.72
521.643	20693.3
522.009	20696.91
522.376	20904.37
522.743	21140.74
523.11	21418.7
523.477	21611.24
523.843	21673.61
524.21	21893.72
524.577	22078.57
524.943	22121.96
525.31	22281.96
525.676	22522.85
526.043	22710.87
526.409	22748.61
526.776	23063.63
527.142	23112.22
527.508	23321.25
527.874	23608.02
528.241	23653.22
528.607	23761.92
528.973	23980.44
529.339	23985.19
529.705	24130.04
530.071	24475.8
530.437	24578.17
530.803	24741.1
531.169	24910.59
531.535	24876.24
531.901	25085.95
532.267	25216.12
532.632	25273.06
532.998	25331.37
533.364	25560.06
533.73	25701.98
534.095	25979.49
534.461	25960.28
534.826	26155.98
535.192	26299.93
535.557	26435.52
535.923	26486.82
536.288	26605.91
536.653	26722.97
537.019	26717.09
537.384	26883.64
537.749	27007.93
538.114	27165.44
538.479	27074.6
538.845	27248.15
539.21	27320.92
539.575	27450.41
539.94	27613.34
540.305	27779.21
540.67	27650.85
541.034	27857.86
541.399	28082.93
541.764	28054.01
542.129	28237.96
542.494	28366.09
542.858	28432.98
543.223	28347.79
543.587	28651.28
543.952	28551.17
544.316	28774.89
544.681	28736.93
545.045	28959.97
545.41	29159.29
545.774	29207.2
546.138	29198.38
546.503	29370.81
546.867	29368.55
547.231	29689.67
547.595	29730.12
547.959	29946.39
548.324	29908.87
548.688	29949.78
549.052	30040.85
549.416	30220.28
549.779	30441.29
550.143	30265.93
550.507	30567.61
550.871	30678.8
551.235	30780.72
551.599	31059.58
551.962	30978.9
552.326	31115.17
552.689	31324.66
553.053	31285.34
553.417	31352.68
553.78	31735.04
554.143	31704.31
554.507	31831.08
554.87	31887.58
555.234	32229.27
555.597	32077.41
555.96	32368.24
556.323	32590.39
556.686	32493.67
557.05	32927.55
557.413	32965.97
557.776	33040.77
558.139	33371.83
558.502	33338.16
558.865	33563.69
559.228	33669.68
559.59	33749.45
559.953	33830.58
560.316	34110.8
560.679	34231.7
561.041	34389.21
561.404	34705.36
561.767	34842.53
562.129	34838.46
562.492	35066.93
562.854	35151.45
563.217	35255.4
563.579	35539.46
563.941	35702.85
564.304	35890.64
564.666	36079.56
565.028	36170.63
565.39	36164.53
565.753	36408.36
566.115	36627.34
566.477	36671.41
566.839	36716.38
567.201	36906.66
567.563	36999.76
567.925	37427.09
568.287	37314.78
568.648	37435.91
569.01	37639.74
569.372	37890.81
569.734	37729.91
570.095	38158.6
570.457	38220.52
570.819	38296.68
571.18	38295.32
571.542	38644.24
571.903	38557.69
572.265	38777.12
572.626	38881.75
572.987	39032.7
573.349	39107.73
573.71	39242.64
574.071	39289.64
574.432	39503.88
574.794	39711.33
575.155	39686.24
575.516	39698.22
575.877	39987.48
576.238	40014.82
576.599	40220.47
576.96	40163.29
577.32	40156.97
577.681	40231.99
578.042	40450.52
578.403	40459.33
578.763	40528.71
579.124	40596.28
579.485	40871.98
579.845	40857.06
580.206	40749.27
580.566	40820.9
580.927	40906.1
581.287	41014.8
581.648	40893.22
582.008	41123.27
582.368	41000.33
582.728	40977.51
583.089	40971.86
583.449	40958.53
583.809	41216.15
584.169	41169.14
584.529	41196.04
584.889	41422.7
585.249	41139.54
585.609	41110.61
585.969	41421.11
586.329	41126.66
586.688	41286.43
587.048	41200.1
587.408	41312.87
587.768	41290.95
588.127	41348.8
588.487	41254.11
588.846	41540.43
589.206	41306.77
589.565	41259.08
589.925	41522.35
590.284	41323.26
590.643	41510.15
591.003	41514.45
591.362	41637.15
591.721	41594.9
592.08	41523.71
592.44	41796.25
592.799	41743.14
593.158	41662.92
593.517	41710.6
593.876	41695.91
594.235	41639.87
594.593	41721.9
594.952	41910.37
595.311	41717.38
595.67	41680.32
596.029	42014.32
596.387	41946.07
596.746	41910.82
597.104	41902.68
597.463	41855.23
597.822	42062.23
598.18	41859.97
598.538	41921.44
598.897	42132.06
599.255	41904.72
599.613	42378.83
599.972	42170.47
600.33	42310.81
600.688	42017.93
601.046	42249.79
601.404	42409.11
601.762	42434.42
602.12	42496.57
602.478	42530.92
602.836	42518.49
603.194	42314.65
603.552	42445.04
603.91	42220.87
604.268	42553.51
604.625	42564.81
604.983	42764.58
605.341	42595.55
605.698	42798.48
606.056	42817.69
606.413	42683.91
606.771	42945.59
607.128	42930
607.485	42766.84
607.843	42834.18
608.2	42986.72
608.557	43090.22
608.914	43007.97
609.272	43183.33
609.629	43228.07
609.986	43385.13
610.343	43239.82
610.7	43590.32
611.057	43445.02
611.414	43412.25
611.771	43482.98
612.127	43625.35
612.484	43510.32
612.841	43666.7
613.198	43540.61
613.554	43729.53
613.911	44001.84
614.267	43814.72
614.624	43854.5
614.98	43996.41
615.337	44185.34
615.693	44053.36
616.05	43953.48
616.406	44052.91
616.762	44080.03
617.118	44022.4
617.475	43955.96
617.831	44097.2
618.187	44139.91
618.543	44194.37
618.899	44378.32
619.255	44388.72
619.611	44421.26
619.967	44373.13
620.323	44579.68
620.678	44236.86
621.034	44404.99
621.39	44340.13
621.746	44384.2
622.101	44764.76
622.457	44454.25
622.812	44524.54
623.168	44680.01
623.523	44564.31
623.879	44605.89
624.234	44521.37
624.589	44518.21
624.945	44501.26
625.3	44513.91
625.655	44586.45
626.01	44581.03
626.365	44602.95
626.72	44591.43
627.075	44630.52
627.43	44476.63
627.785	44393.24
628.14	44596.17
628.495	44613.12
628.85	44621.48
629.205	44232.11
629.559	44473.92
629.914	44397.53
630.269	44430.3
630.623	44364.31
630.978	44190.76
631.332	44343.52
631.687	44324.31
632.041	44200.48
632.396	44277.76
632.75	44007.71
633.104	44100.37
633.459	43878.68
633.813	43932.23
634.167	43911.22
634.521	43838
634.875	43976.08
635.229	43851.33
635.583	43623.09
635.937	43659.47
636.291	43615.18
636.645	43551.45
636.999	43571.57
637.352	43714.16
637.706	43370.44
638.06	43401.63
638.413	43460.38
638.767	43275.53
639.121	43334.06
639.474	43031.02
639.828	43143.55
640.181	43118.7
640.534	43306.26
640.888	43066.72
641.241	42830.57
641.594	42838.7
641.947	43119.6
642.301	42968.87
642.654	42989.21
643.007	42859.72
643.36	42886.84
643.713	42692.49
644.066	42936.1
644.419	42514.42
644.771	42300.64
645.124	41950.59
645.477	41871.27
645.83	41709.24
646.182	41498.4
646.535	41242.81
646.888	41406.65
647.24	41279.88
647.593	41567.33
647.945	41489.36
648.298	41219.31
648.65	41145.64
649.002	40926.21
649.355	41177.05
649.707	41085.08
650.059	41181.8
650.411	41717.83
650.763	41708.34
651.115	42075.11
651.467	41889.35
651.819	41677.6
652.171	41769.35
652.523	41672.63
652.875	41646.65
653.227	41529.36
653.578	41720.77
653.93	41674.21
654.282	41425.18
654.633	41384.05
654.985	41510.15
655.337	41485.97
655.688	41527.1
656.039	41670.83
656.391	41229.71
656.742	41199.43
657.094	41306.77
657.445	41326.43
657.796	41366.43
658.147	41125.53
658.498	41076.04
658.849	41227.22
659.2	41176.15
659.551	41071.52
659.902	41129.14
660.253	41143.16
660.604	41088.47
660.955	40817.51
661.306	41124.62
661.656	40933.67
662.007	40876.04
662.358	41030.84
662.708	40902.03
663.059	41004.85
663.409	40630.63
663.76	40828.59
664.11	40785.42
664.461	40911.52
664.811	40876.04
665.161	40721.7
665.511	40737.29
665.862	40790.4
666.212	40997.85
666.562	40823.39
666.912	40899.77
667.262	40832.88
667.612	40770.96
667.962	40881.24
668.312	40749.04
668.662	40859.32
669.011	40649.38
669.361	40697.07
669.711	40663.17
670.06	40627.01
670.41	40475.83
670.76	40443.74
671.109	40462.04
671.459	40462.95
671.808	40354.48
672.157	40617.52
672.507	40273.35
672.856	40209.62
673.205	40456.17
673.554	40495.94
673.904	40232.67
674.253	40251.88
674.602	40269.28
674.951	39906.8
675.3	39553.82
675.649	40180.24
675.998	39977.54
676.346	40007.37
676.695	40162.62
677.044	39932.57
677.393	40100.25
677.741	40071.55
678.09	39990.64
678.438	39912
678.787	39937.09
679.135	39897.09
679.484	39750.2
679.832	39919.46
680.181	39676.98
680.529	39643.53
680.877	39631.1
681.225	39467.27
681.573	39661.39
681.922	39468.4
682.27	39387.27
682.618	39335.52
682.966	39229.08
683.314	39439.02
683.661	39167.16
684.009	38855.31
684.357	38937.79
684.705	38866.15
685.053	38951.12
685.4	38974.17
685.748	38870.22
686.095	38712.94
686.443	38490.12
686.79	38490.34
687.138	38618.7
687.485	38553.17
687.832	38408.09
688.18	38448.76
688.527	38198.37
688.874	38164.02
689.221	38070.24
689.568	37881.09
689.915	38059.17
690.262	37802
690.609	37839.74
690.956	37723.58
691.303	37597.03
691.65	37417.83
691.997	37484.27
692.344	37115.01
692.69	37267.78
693.037	37318.62
693.383	37047.67
693.73	37211.28
694.077	36851.97
694.423	36932.64
694.769	36934
695.116	36862.59
695.462	36849.71
695.808	36663.05
696.155	36692.88
696.501	36248.14
696.847	36350.97
697.193	36006.79
697.539	36096.73
697.885	35964.99
698.231	35842.96
698.577	35908.94
698.923	35852.9
699.269	35497.2
699.614	35259.47
699.96	35292.91
700.306	35272.35
700.651	35221.96
700.997	35081.62
701.342	35190.54
701.688	34961.62
702.033	34749.65
702.379	34891.57
702.724	34572.03
703.069	34779.93
703.415	34329.78
703.76	34376.33
704.105	34535.65
704.45	34276.9
704.795	34058.82
705.14	33913.74
705.485	33938.15
705.83	33770.24
706.175	33853.86
706.52	33777.25
706.865	33725.27
707.209	33643.47
707.554	33483.47
707.899	33615.22
708.243	33391.27
708.588	33232.4
708.932	33064.95
709.277	33050.49
709.621	33043.93
709.966	32897.95
710.31	32982.69
710.654	32622.02
710.998	32763.49
711.342	32707.45
711.687	32643.04
712.031	32507.22
712.375	32572.53
712.719	32521.24
713.063	32438.3
713.407	32479.88
713.75	32275.59
714.094	32092.77
714.438	32251.19
714.782	32211.41
715.125	32083.73
715.469	32123.28
715.812	31952.66
716.156	31895.04
716.499	31708.38
716.843	31606.46
717.186	31432
717.53	31697.53
717.873	31664.76
718.216	31545.22
718.559	31431.77
718.902	31277.88
719.246	31378.89
719.589	31177.99
719.932	31119.01
720.275	31180.48
720.617	31001.5
720.96	30999.02
721.303	30950.43
721.646	30898
721.989	30847.61
722.331	30905.46
722.674	30778.91
723.016	30691.68
723.359	30596.09
723.701	30647.16
724.044	30383.44
724.386	30332.37
724.729	30483.55
725.071	30407.39
725.413	30296.66
725.755	30222.76
726.097	30140.73
726.439	29813.96
726.782	29982.09
727.124	30008.98
727.465	30022.54
727.807	29846.05
728.149	29800.63
728.491	29765.38
728.833	29812.15
729.175	29644.47
729.516	29745.26
729.858	29635.66
730.199	29693.96
730.541	29571.71
730.882	29407.42
731.224	29640.63
731.565	29295.56
731.906	29378.95
732.248	29423.46
732.589	29170.81
732.93	29202
733.271	29216.46
733.612	29110.25
733.953	29150.02
734.294	29047.2
734.635	28932.86
734.976	29161.1
735.317	28857.6
735.658	28861.67
735.999	28740.09
736.339	28842.24
736.68	28825.29
737.021	28679.3
737.361	28573.09
737.702	28807.21
738.042	28765.4
738.383	28564.28
738.723	28616.71
739.063	28456.71
739.404	28473.43
739.744	28347.11
740.084	28331.51
740.424	28351.18
740.764	28376.26
741.104	28278.63
741.444	28152.54
741.784	28118.87
742.124	28114.8
742.464	28170.84
742.804	27952.54
743.143	28011.3
743.483	28009.94
743.823	27941.92
744.162	27898.31
744.502	27779.89
744.841	27666
745.181	27708.71
745.52	27642.49
745.86	27673.68
746.199	27561.14
746.538	27497.64
746.877	27489.5
747.216	27497.86
747.556	27394.14
747.895	27432.78
748.234	27323.41
748.573	27152.34
748.911	27249.28
749.25	27185.56
749.589	26949.18
749.928	27107.82
750.267	27088.61
750.605	27009.97
750.944	26945.79
751.283	26732.69
751.621	26885.68
751.96	26579.7
752.298	26660.82
752.636	26709.64
752.975	26451.34
753.313	26310.33
753.651	26584.89
753.989	26352.58
754.327	26329.53
754.666	26155.75
755.004	26261.96
755.342	26173.61
755.679	26198.69
756.017	26023.78
756.355	26021.07
756.693	25940.62
757.031	25862.65
757.368	25756.22
757.706	25639.38
758.044	25642.09
758.381	25586.5
758.719	25627.18
759.056	25527.97
759.394	25513.96
759.731	25352.16
760.068	25307.64
760.405	25105.84
760.743	25084.37
761.08	25046.63
761.417	24944.71
761.754	24915.79
762.091	24940.64
762.428	24800.08
762.765	24680.09
763.102	24707.2
763.438	24549.02
763.775	24431.28
764.112	24490.71
764.449	24402.8
764.785	24217.27
765.122	24137.5
765.458	23959.2
765.795	23970.73
766.131	23930.73
766.467	23825.19
766.804	23731.64
767.14	23540
767.476	23526.44
767.812	23569.61
768.148	23575.26
768.485	23403.96
768.821	23350.63
769.157	23210.29
769.492	23254.81
769.828	23129.84
770.164	22926.69
770.5	22932.11
770.836	22889.62
771.171	22727.37
771.507	22713.13
771.842	22635.62
772.178	22627.94
772.513	22480.14
772.849	22323.76
773.184	22330.09
773.519	22186.82
773.855	22156.54
774.19	22168.97
774.525	21954.51
774.86	21969.2
775.195	21915.19
775.53	21803.33
775.865	21673.61
776.2	21388.19
776.535	21404.47
776.87	21382.55
777.205	21427.06
777.539	21254.86
777.874	21333.73
778.209	21098.03
778.543	20970.35
778.878	20976
779.212	20915.21
779.547	20825.27
779.881	20813.75
780.215	20644.94
780.55	20667.54
780.884	20503.47
781.218	20569.91
781.552	20379.41
781.886	20332.18
782.22	20200.88
782.554	20158.4
782.888	19983.49
783.222	19954.33
783.556	19948.46
783.889	19878.18
784.223	19748.24
784.557	19701.23
784.89	19692.65
785.224	19530.84
785.557	19381.24
785.891	19349.83
786.224	19331.3
786.558	19445.19
786.891	19113.68
787.224	19084.3
787.557	19057.63
787.891	19056.28
788.224	18913.23
788.557	18894.47
788.89	18848.15
789.223	18809.05
789.556	18692.22
789.888	18682.05
790.221	18616.74
790.554	18359.57
790.887	18454.49
791.219	18409.97
791.552	18307.37
791.884	18188.5
792.217	18187.37
792.549	18065.12
792.882	17966.59
793.214	17868.29
793.546	17969.98
793.879	17771.11
794.211	17702.87
794.543	17698.8
794.875	17733.15
795.207	17629.88
795.539	17602.98
795.871	17464.46
796.203	17402.31
796.535	17287.51
796.867	17232.37
797.198	17239.6
797.53	17226.95
797.862	17134.07
798.193	17210.68
798.525	17047.07
798.856	17094.07
799.188	16899.73
799.519	16804.81
799.85	16780.63
800.182	16751.71
800.513	16687.08
800.844	16591.94
801.175	16669.67
801.506	16602.56
801.837	16499.51
802.168	16495.89
802.499	16443.69
802.83	16381.55
803.161	16242.57
803.491	16319.4
803.822	16288.44
804.153	16177.03
804.483	16028.11
804.814	15940.43
805.145	15970.94
805.475	15965.29
805.805	15909.24
806.136	15888.68
806.466	15849.13
806.796	15956.25
807.126	15758.06
807.457	15731.39
807.787	15675.8
808.117	15629.7
808.447	15553.32
808.777	15540.89
809.107	15447.11
809.436	15374.34
809.766	15334.12
810.096	15306.32
810.426	15334.12
810.755	15214.57
811.085	15128.7
811.414	15128.25
811.744	15045.76
812.073	15051.41
812.403	14996.27
812.732	14847.12
813.061	14933.9
813.39	14754.02
813.719	14853
814.049	14845.32
814.378	14768.93
814.707	14798.09
815.036	14712.21
815.365	14622.95
815.693	14614.36
816.022	14578.88
816.351	14510.86
816.68	14419.11
817.008	14422.5
817.337	14400.36
817.665	14345.89
817.994	14330.75
818.322	14353.13
818.651	14278.78
818.979	14179.8
819.307	14245.11
819.636	14179.12
819.964	14018.44
820.292	14057.99
820.62	14101.38
820.948	14071.55
821.276	14068.39
821.604	14033.59
821.932	14122.4
822.259	14167.59
822.587	14030.42
822.915	14027.94
823.243	14089.18
823.57	14029.52
823.898	14067.03
824.225	13952.68
824.553	13930.31
824.88	13905.68
825.207	13962.63
825.535	13946.13
825.862	13939.8
826.189	14039.91
826.516	14018.67
826.843	14073.13
827.17	14072
827.497	14004.66
827.824	14031.33
828.151	14006.69
828.478	14011.89
828.805	14077.43
829.131	13903.19
829.458	13957.43
829.785	13842.86
830.111	13848.28
830.438	13844.44
830.764	13913.36
831.09	13882.4
831.417	13889.41
831.743	13921.72
832.069	13884.44
832.395	13795.85
832.722	13904.78
833.048	13811.9
833.374	13827.94
833.7	13739.58
834.026	13809.41
834.351	13795.4
834.677	13781.84
835.003	13805.12
835.329	13853.03
835.654	13736.19
835.98	13642.18
836.306	13674.27
836.631	13634.27
836.956	13664.78
837.282	13629.75
837.607	13582.52
837.932	13561.73
838.258	13603.09
838.583	13562.86
838.908	13482.41
839.233	13445.8
839.558	13442.41
839.883	13381.17
840.208	13354.06
840.533	13348.41
840.858	13428.18
841.182	13423.21
841.507	13369.65
841.832	13253.72
842.156	13229.31
842.481	13232.48
842.805	13259.82
843.13	13188.18
843.454	13161.97
843.778	13123.1
844.103	13123.33
844.427	13010.56
844.751	13029.09
845.075	13069.54
845.399	13066.83
845.723	12921.98
846.047	12909.77
846.371	12796.1
846.695	12793.62
847.019	12647.86
847.343	12601.76
847.666	12584.58
847.99	12459.84
848.313	12467.98
848.637	12357.7
848.96	12393.85
849.284	12334.2
849.607	12290.58
849.931	12172.17
850.254	12119.96
850.577	12072.51
850.9	11963.36
851.223	11942.12
851.546	11936.47
851.869	11806.75
852.192	11931.95
852.515	11800.2
852.838	11700.54
853.161	11728.34
853.483	11692.86
853.806	11669.81
854.129	11666.87
854.451	11585.29
854.774	11568.34
855.096	11502.58
855.419	11545.52
855.741	11471.85
856.063	11436.14
856.385	11458.74
856.708	11294
857.03	11239.31
857.352	11310.04
857.674	11210.84
857.996	11147.79
858.318	11124.06
858.64	11043.83
858.961	11079.77
859.283	11040.44
859.605	11043.16
859.926	10928.58
860.248	10935.59
860.57	10925.64
860.891	11003.16
861.212	10872.54
861.534	10940.33
861.855	10833.44
862.176	10815.37
862.498	10837.74
862.819	10861.92
863.14	10800.22
863.461	10701.7
863.782	10734.01
864.103	10678.42
864.424	10614.01
864.745	10678.19
865.065	10595.26
865.386	10560
865.707	10555.49
866.027	10541.47
866.348	10497.41
866.668	10548.71
866.989	10500.35
867.309	10430.97
867.63	10411.08
867.95	10459.44
868.27	10360.24
868.59	10354.36
868.91	10390.52
869.23	10392.33
869.55	10318.88
869.87	10426
870.19	10355.26
870.51	10335.6
870.83	10342.38
871.15	10288.37
871.469	10163.86
871.789	10210.64
872.109	10195.49
872.428	10162.28
872.748	10235.04
873.067	10153.91
873.386	10116.17
873.706	10115.5
874.025	10049.96
874.344	10063.52
874.663	10146.46
874.982	10076.85
875.301	10039.34
875.62	10048.38
875.939	9977.42
876.258	9901.72
876.577	9940.36
876.896	9949.85
877.214	9899.01
877.533	9817.2
877.852	9898.1
878.17	9913.47
878.489	9834.37
878.807	9805.67
879.125	9911.43
879.444	9889.29
879.762	9794.6
880.08	9793.25
880.398	9752.57
880.716	9718.9
881.034	9739.46
881.352	9727.48
881.67	9680.48
881.988	9718.45
882.306	9623.98
882.624	9611.56
882.941	9561.39
883.259	9533.14
883.577	9542.4
883.894	9549.64
884.212	9570.43
884.529	9593.25
884.846	9490.65
885.164	9420.83
885.481	9397.78
885.798	9407.94
886.115	9363.2
886.432	9265.12
886.75	9285.01
887.067	9299.92
887.383	9306.25
887.7	9278.23
888.017	9323.65
888.334	9267.84
888.651	9196.65
888.967	9227.16
889.284	9133.38
889.6	9166.6
889.917	9121.85
890.233	9139.25
890.55	9021.29
890.866	9086.82
891.182	9028.29
891.498	8967.28
891.815	8896.32
892.131	8896.55
892.447	8830.33
892.763	8876.66
893.079	8811.35
893.395	8812.71
893.71	8809.32
894.026	8721.64
894.342	8700.84
894.657	8635.31
894.973	8617.01
895.289	8630.79
895.604	8598.93
895.92	8536.1
896.235	8511.7
896.55	8529.32
896.865	8509.21
897.181	8475.31
897.496	8515.76
897.811	8455.2
898.126	8375.66
898.441	8381.53
898.756	8360.74
899.071	8347.63
899.386	8329.33
899.7	8238.26
900.015	8193.06
900.33	8179.28
900.644	8210.01
900.959	8113.06
901.273	8126.62
901.588	8038.72
901.902	8019.05
902.216	7984.03
902.531	7993.29
902.845	8002.11
903.159	7878.95
903.473	7825.39
903.787	7795.78
904.101	7819.74
904.415	7678.05
904.729	7801.21
905.042	7708.55
905.356	7681.21
905.67	7653.64
905.984	7677.59
906.297	7637.6
906.611	7610.25
906.924	7570.48
907.237	7559.63
907.551	7513.76
907.864	7515.79
908.177	7490.71
908.491	7488.67
908.804	7405.96
909.117	7358.73
909.43	7280.09
909.743	7277.38
910.056	7282.8
910.368	7233.54
910.681	7183.82
910.994	7210.26
911.307	7166.87
911.619	7112.19
911.932	7099.08
912.244	7091.4
912.557	7062.7
912.869	6989.03
913.181	6958.29
913.494	6944.96
913.806	6901.12
914.118	6943.38
914.43	6886.43
914.742	6828.8
915.054	6809.14
915.366	6804.17
915.678	6794.91
915.99	6724.4
916.302	6704.29
916.613	6639.66
916.925	6612.31
917.236	6582.48
917.548	6623.61
917.859	6596.72
918.171	6544.74
918.482	6532.54
918.794	6479.43
919.105	6493.45
919.416	6370.74
919.727	6321.02
920.038	6360.34
920.349	6304.75
920.66	6336.39
920.971	6287.8
921.282	6316.95
921.593	6265.2
921.903	6239.44
922.214	6245.77
922.525	6213.23
922.835	6133.91
923.146	6096.62
923.456	6073.34
923.767	6037.41
924.077	6044.42
924.387	6007.81
924.697	5980.24
925.008	5932.33
925.318	5956.28
925.628	5899.79
925.938	5879
926.248	5831.77
926.558	5794.48
926.867	5794.48
927.177	5713.8
927.487	5752.22
927.796	5750.19
928.106	5666.35
928.416	5633.58
928.725	5634.26
929.034	5575.28
929.344	5659.12
929.653	5596.07
929.962	5453.92
930.271	5488.95
930.581	5489.4
930.89	5477.65
931.199	5460.25
931.508	5469.07
931.817	5415.06
932.125	5408.28
932.434	5407.82
932.743	5295.28
933.051	5244.44
933.36	5286.25
933.669	5218
933.977	5223.87
934.286	5182.52
934.594	5210.77
934.902	5171.45
935.21	5193.82
935.519	5174.84
935.827	5148.62
936.135	5142.75
936.443	5089.41
936.751	5049.19
937.059	4965.58
937.367	4979.36
937.674	4981.85
937.982	5001.28
938.29	4964.9
938.597	4936.2
938.905	4882.19
939.213	4894.62
939.52	4893.04
939.827	4906.37
940.135	4804.9
940.442	4810.78
940.749	4800.16
941.056	4739.14
941.363	4714.51
941.67	4716.77
941.977	4705.02
942.284	4710.22
942.591	4685.36
942.898	4641.74
943.205	4623.66
943.511	4639.48
943.818	4553.16
944.125	4545.7
944.431	4531.91
944.738	4521.07
945.044	4489.43
945.35	4464.12
945.657	4453.95
945.963	4427.28
946.269	4425.02
946.575	4423.22
946.881	4334.18
947.187	4372.82
947.493	4333.05
947.799	4346.83
948.105	4277.46
948.41	4274.07
948.716	4284.01
949.022	4253.28
949.327	4260.06
949.633	4209.21
949.938	4217.57
950.244	4223.9
950.549	4178.03
950.854	4147.52
951.16	4117.91
951.465	4139.61
951.77	4109.55
952.075	4099.84
952.38	4051.25
952.685	4062.55
952.99	4021.42
953.294	4027.07
953.599	3976
953.904	3954.08
954.209	3956.79
954.513	3950.24
954.818	3883.8
955.122	3885.83
955.426	3889.67
955.731	3892.16
956.035	3851.71
956.339	3816.68
956.643	3846.28
956.948	3788.43
957.252	3787.08
957.556	3703.46
957.86	3772.84
958.163	3722.44
958.467	3730.13
958.771	3717.47
959.075	3685.61
959.378	3645.16
959.682	3645.84
959.985	3641.32
960.289	3610.58
960.592	3606.74
960.896	3610.13
961.199	3585.95
961.502	3566.29
961.805	3527.2
962.108	3458.04
962.411	3486.74
962.714	3466.41
963.017	3497.14
963.32	3460.53
963.623	3453.07
963.926	3398.61
964.228	3451.27
964.531	3399.06
964.833	3392.96
965.136	3367.65
965.438	3364.71
965.741	3352.06
966.043	3328.33
966.345	3335.34
966.648	3303.92
966.95	3282.46
967.252	3296.02
967.554	3255.56
967.856	3251.72
968.158	3241.33
968.46	3184.83
968.761	3185.51
969.063	3205.85
969.365	3176.24
969.666	3217.37
969.968	3176.02
970.269	3123.36
970.571	3145.28
970.872	3152.29
971.174	3075
971.475	3114.78
971.776	3039.07
972.077	3044.95
972.378	3038.39
972.679	3028.68
972.98	3025.51
973.281	3018.06
973.582	2977.83
973.883	2992.97
974.183	2996.59
974.484	2961.79
974.785	2899.87
975.085	2939.41
975.386	2957.94
975.686	2924.05
975.986	2873.2
976.287	2890.15
976.587	2865.07
976.887	2849.7
977.187	2835.91
977.487	2852.64
977.787	2776.48
978.087	2797.5
978.387	2797.05
978.687	2773.99
978.987	2702.81
979.286	2739.42
979.586	2737.61
979.885	2668.91
980.185	2699.87
980.484	2720.44
980.784	2694.9
981.083	2686.31
981.382	2647.67
981.682	2639.31
981.981	2647.9
982.28	2634.34
982.579	2587.79
982.878	2574.45
983.177	2616.26
983.475	2625.07
983.774	2597.05
984.073	2563.38
984.372	2546.88
984.67	2604.28
984.969	2555.47
985.267	2537.62
985.566	2524.51
985.864	2528.13
986.162	2483.38
986.461	2493.55
986.759	2470.73
987.057	2417.62
987.355	2446.32
987.653	2476.83
987.951	2416.26
988.249	2414.46
988.547	2407.68
988.844	2420.56
989.142	2397.28
989.44	2362.71
989.737	2352.99
990.035	2331.07
990.332	2362.03
990.63	2318.64
990.927	2312.31
991.224	2275.7
991.521	2299.88
991.819	2286.32
992.116	2261.01
992.413	2232.09
992.71	2249.94
993.006	2247.46
993.303	2224.63
993.6	2242.48
993.897	2200
994.193	2203.61
994.49	2169.49
994.787	2196.38
995.083	2163.62
995.379	2173.33
995.676	2160.9
995.972	2142.6
996.268	2100.11
996.565	2152.54
996.861	2094.69
997.157	2092.66
997.453	2083.84
997.749	2086.78
998.044	2068.93
998.34	2054.47
998.636	2050.4
998.932	2031.64
999.227	1994.81
999.523	2036.16
999.818	1993
1000.114	1955.94
1000.409	1957.97
1000.704	1935.6
1001	1972.66
1001.295	1943.06
1001.59	1931.53
1001.885	1925.66
1002.18	1923.4
1002.475	1914.81
1002.77	1892.44
1003.065	1878.65
1003.359	1870.29
1003.654	1855.6
1003.949	1832.78
1004.243	1868.71
1004.538	1827.58
1004.832	1879.78
1005.127	1842.49
1005.421	1834.36
1005.715	1793.46
1006.009	1770.18
1006.304	1795.49
1006.598	1778.99
1006.892	1756.85
1007.186	1767.69
1007.48	1743.74
1007.773	1736.96
1008.067	1732.89
1008.361	1724.76
1008.655	1706
1008.948	1723.4
1009.242	1700.12
1009.535	1674.14
1009.829	1670.3
1010.122	1635.95
1010.415	1661.26
1010.708	1675.72
1011.001	1635.27
1011.295	1593.69
1011.588	1604.08
1011.881	1595.49
1012.173	1600.92
1012.466	1595.04
1012.759	1596.4
1013.052	1575.61
1013.344	1523.86
1013.637	1539.23
1013.93	1499.23
1014.222	1515.5
1014.514	1551.2
1014.807	1534.03
1015.099	1483.18
1015.391	1482.05
1015.683	1494.93
1015.976	1451.09
1016.268	1475.05
1016.56	1462.16
1016.851	1444.76
1017.143	1415.16
1017.435	1453.35
1017.727	1428.95
1018.018	1396.86
1018.31	1415.61
1018.602	1408.83
1018.893	1373.13
1019.185	1380.81
1019.476	1364.09
1019.767	1354.82
1020.058	1327.25
1020.35	1350.53
1020.641	1346.24
1020.932	1315.95
1021.223	1300.36
1021.514	1311.43
1021.804	1289.97
1022.095	1275.73
1022.386	1283.64
1022.677	1272.11
1022.967	1254.94
1023.258	1277.76
1023.548	1254.03
1023.839	1249.52
1024.129	1249.29
1024.419	1238.67
1024.709	1239.12
1025	1209.29
1025.29	1203.41
1025.58	1197.31
1025.87	1178.78
1026.16	1165.45
1026.449	1166.35
1026.739	1163.42
1027.029	1143.98
1027.319	1161.61
1027.608	1157.09
1027.898	1115.51
1028.187	1111.21
1028.477	1112.57
1028.766	1117.09
1029.055	1124.77
1029.344	1104.66
1029.634	1087.49
1029.923	1092.46
1030.212	1085.68
1030.501	1083.87
1030.79	1039.58
1031.078	1083.87
1031.367	1060.59
1031.656	1041.39
1031.945	1027.6
1032.233	1043.42
1032.522	1026.92
1032.81	1028.05
1033.099	1001.16
1033.387	1018.56
1033.675	987.83
1033.963	1011.56
1034.251	970.88
1034.54	967.49
1034.828	992.35
1035.116	973.36
1035.403	979.01
1035.691	959.35
1035.979	936.76
1036.267	935.85
1036.554	931.56
1036.842	927.94
1037.129	913.48
1037.417	932.46
1037.704	910.54
1037.992	920.26
1038.279	900.6
1038.566	912.12
1038.853	912.12
1039.14	912.12
