Data from plate_porcelain_FLMS001491_098.txt Node
Date: Tue Feb 07 11:20:14 GMT 2017
User: dcchb
Spectrometer: FLMS00149
Trigger mode: 0
Integration Time (sec): 2.000000E-2
Scans to average: 10
Electric dark correction enabled: true
Nonlinearity correction enabled: false
Boxcar width: 0
XAxis mode: Wavelengths
Number of Pixels in Spectrum: 2048
>>>>>Begin Spectral Data<<<<<
341.393	1
341.776	1
342.16	1
342.543	-67.02
342.927	-65.21
343.31	-78.09
343.693	-74.48
344.077	-60.01
344.46	-47.58
344.843	-56.85
345.226	-51.65
345.61	-16.4
345.993	-24.53
346.376	-14.82
346.759	-5.55
347.142	11.62
347.525	50.94
347.908	47.78
348.291	101.11
348.674	99.08
349.057	119.42
349.44	120.1
349.823	141.11
350.206	185.4
350.588	219.3
350.971	246.19
351.354	239.41
351.737	279.64
352.119	280.54
352.502	294.55
352.884	288.68
353.267	329.58
353.65	320.77
354.032	319.64
354.414	334.78
354.797	347.43
355.179	360.32
355.562	352.63
355.944	386.76
356.326	376.59
356.709	396.47
357.091	414.78
357.473	384.04
357.855	377.49
358.238	402.35
358.62	368.9
359.002	393.53
359.384	409.81
359.766	402.57
360.148	407.55
360.53	408.68
360.912	386.08
361.294	393.76
361.676	392.63
362.057	381.11
362.439	382.69
362.821	409.35
363.203	389.69
363.584	414.1
363.966	390.82
364.348	391.05
364.729	381.56
365.111	400.54
365.493	392.4
365.874	390.82
366.256	377.04
366.637	413.42
367.019	414.78
367.4	402.57
367.781	402.57
368.163	392.63
368.544	419.97
368.925	410.71
369.306	439.64
369.688	412.52
370.069	407.55
370.45	393.31
370.831	400.31
371.212	418.62
371.593	436.25
371.974	404.38
372.355	436.25
372.736	448.45
373.117	427.66
373.498	440.99
373.879	444.38
374.26	436.02
374.641	414.55
375.021	423.36
375.402	444.83
375.783	467.21
376.163	486.41
376.544	481.89
376.925	474.44
377.305	496.81
377.686	455.23
378.066	465.85
378.447	478.73
378.827	486.64
379.208	496.36
379.588	505.17
379.968	492.74
380.349	487.77
380.729	492.29
381.109	502.23
381.489	492.97
381.87	494.32
382.25	507.66
382.63	525.96
383.01	534.55
383.39	524.15
383.77	545.4
384.15	558.95
384.53	566.19
384.91	552.4
385.29	555.56
385.67	531.61
386.049	573.64
386.429	567.32
386.809	583.59
387.189	619.97
387.568	611.83
387.948	601.44
388.328	624.04
388.707	630.59
389.087	626.3
389.466	637.37
389.846	625.85
390.225	647.99
390.605	680.31
390.984	659.52
391.363	664.04
391.743	676.01
392.122	688.89
392.501	721.44
392.881	704.26
393.26	723.92
393.639	735.67
394.018	724.37
394.397	728.67
394.776	738.16
395.155	766.63
395.534	778.16
395.913	779.06
396.292	793.07
396.671	786.07
397.05	788.55
397.429	822.68
397.808	789.91
398.186	824.26
398.565	830.36
398.944	811.38
399.323	829.68
399.701	843.69
400.08	849.12
400.458	861.09
400.837	872.84
401.215	855.44
401.594	881.66
401.972	883.92
402.351	931.37
402.729	921.43
403.107	928.21
403.486	931.83
403.864	923.24
404.242	967.98
404.62	968.89
404.999	990.58
405.377	994.42
405.755	996
406.133	1028.55
406.511	1037.36
406.889	1033.74
407.267	1067.42
407.645	1052.73
408.023	1080.07
408.401	1083.23
408.779	1135.21
409.156	1135.21
409.534	1139.96
409.912	1174.08
410.29	1177.7
410.667	1193.29
411.045	1204.14
411.422	1235.32
411.8	1262.89
412.178	1259.27
412.555	1273.74
412.933	1304.02
413.31	1285.49
413.687	1370.23
414.065	1362.32
414.442	1387.18
414.819	1397.58
415.197	1405.03
415.574	1445.94
415.951	1460.85
416.328	1464.69
416.705	1462.66
417.082	1518.48
417.46	1489.33
417.837	1530.23
418.214	1545.37
418.591	1533.17
418.967	1574.75
419.344	1610.23
419.721	1617.01
420.098	1633.5
420.475	1652.03
420.852	1647.51
421.228	1696.78
421.605	1687.29
421.982	1693.84
422.358	1760.96
422.735	1747.4
423.111	1784.23
423.488	1794.18
423.864	1819.71
424.241	1823.78
424.617	1866.26
424.994	1901.97
425.37	1900.84
425.746	1903.55
426.123	1931.12
426.499	1943.32
426.875	1973.38
427.251	2026.49
427.627	2078.46
428.003	2085.24
428.379	2096.77
428.756	2114.62
429.132	2167.05
429.507	2207.05
429.883	2200.27
430.259	2272.36
430.635	2296.54
431.011	2306.48
431.387	2409.53
431.763	2398
432.138	2411.79
432.514	2428.74
432.89	2474.38
433.265	2531.56
433.641	2555.74
434.016	2572.01
434.392	2624.89
434.767	2672.12
435.143	2672.34
435.518	2720.93
435.894	2757.99
436.269	2770.87
436.644	2817.88
437.02	2866.01
437.395	2882.73
437.77	2911.66
438.145	2951.21
438.52	3005.67
438.895	3016.97
439.271	3063.97
439.646	3125.67
440.021	3108.94
440.395	3157.53
440.77	3150.98
441.145	3188.26
441.52	3208.6
441.895	3198.21
442.27	3294.93
442.645	3287.92
443.019	3300.13
443.394	3310.75
443.769	3368.82
444.143	3357.75
444.518	3422.83
444.892	3455.15
445.267	3434.58
445.641	3499.44
446.016	3503.96
446.39	3602.94
446.764	3596.39
447.139	3601.81
447.513	3641.36
447.887	3635.94
448.262	3654.47
448.636	3718.87
449.01	3731.98
449.384	3783.28
449.758	3812.88
450.132	3924.74
450.506	3899.66
450.88	3948.24
451.254	3942.82
451.628	4037.96
452.002	4047.9
452.376	4111.4
452.75	4142.81
453.123	4159.99
453.497	4266.65
453.871	4282.7
454.244	4372.87
454.618	4356.37
454.992	4497.83
455.365	4421.9
455.739	4571.28
456.112	4620.32
456.486	4676.36
456.859	4720.2
457.232	4835.9
457.606	4787.32
457.979	4882.68
458.352	4964.71
458.725	5059.63
459.099	5066.86
459.472	5164.71
459.845	5212.62
460.218	5292.39
460.591	5379.84
460.964	5343.69
461.337	5502.78
461.71	5612.38
462.083	5671.59
462.456	5675.43
462.829	5711.81
463.201	5875.2
463.574	5854.18
463.947	5992.48
464.32	5989.09
464.692	6136.89
465.065	6193.16
465.438	6305.02
465.81	6380.27
466.183	6441.74
466.555	6577.1
466.928	6637.44
467.3	6673.14
467.672	6739.13
468.045	6919.46
468.417	6961.72
468.789	7042.63
469.161	7119.01
469.534	7303.64
469.906	7414.37
470.278	7475.83
470.65	7606.68
471.022	7714.7
471.394	7844.64
471.766	7951.75
472.138	8030.62
472.51	8242.14
472.882	8327.79
473.253	8465.41
473.625	8519.65
473.997	8675.8
474.369	8813.88
474.74	8926.42
475.112	9088.22
475.484	9228.78
475.855	9346.07
476.227	9497.7
476.598	9873.06
476.97	9824.25
477.341	10062.89
477.713	10256.33
478.084	10256.33
478.455	10649.99
478.827	10734.05
479.198	10961.39
479.569	10970.66
479.94	11373.13
480.311	11422.62
480.682	11730.64
481.053	11949.62
481.424	12164.75
481.795	12189.16
482.166	12486.1
482.537	12626.21
482.908	12933.09
483.279	13088.34
483.65	13296.92
484.021	13600.87
484.391	13758.38
484.762	13871.6
485.133	14119.5
485.503	14207.86
485.874	14635.65
486.244	14575.08
486.615	15004.45
486.985	15215.07
487.356	15441.05
487.726	15589.97
488.097	15954.03
488.467	15991.32
488.837	16287.35
489.207	16463.62
489.578	16705.65
489.948	16866.77
490.318	17175.69
490.688	17242.13
491.058	17582.91
491.428	17702.46
491.798	17937.25
492.168	18362.78
492.538	18511.93
492.908	18600.06
493.278	18891.13
493.648	18953.95
494.017	19249.08
494.387	19326.14
494.757	19544.67
495.126	19858.11
495.496	19862.63
495.866	20026.01
496.235	20282.96
496.605	20425.55
496.974	20538.77
497.344	20834.13
497.713	20905.99
498.082	21134.46
498.452	21385.98
498.821	21364.96
499.19	21583.94
499.559	21710.94
499.928	22006.3
500.298	22057.15
500.667	22301.89
501.036	22254.65
501.405	22562.67
501.774	22644.02
502.143	22824.36
502.512	22982.32
502.88	23232.93
503.249	23117.91
503.618	23516.77
503.987	23522.19
504.356	23623.88
504.724	23833.82
505.093	24027.26
505.462	24114.95
505.83	24344.77
506.199	24512
506.567	24807.13
506.936	24745.44
507.304	25079.44
507.672	25244.18
508.041	25415.02
508.409	25550.16
508.777	25864.96
509.145	26019.98
509.514	25998.74
509.882	26326.19
510.25	26452.96
510.618	26545.62
510.986	26739.28
511.354	26939.28
511.722	27275.99
512.09	27577.68
512.458	27446.83
512.826	27707.17
513.193	27941.74
513.561	28066.93
513.929	28358.45
514.297	28574.04
514.664	28814.48
515.032	28919.79
515.4	29176.96
515.767	29289.72
516.135	29440.45
516.502	29326.11
516.869	29972.42
517.237	30053.32
517.604	30117.95
517.972	30472.29
518.339	30767.2
518.706	30863.47
519.073	31103.46
519.44	31225.49
519.808	31609.66
520.175	31710.45
520.542	32020.5
520.909	32222.08
521.276	32417.55
521.643	32703.42
522.009	32912.68
522.376	33166.68
522.743	33399.45
523.11	33717.63
523.477	33925.53
523.843	34180.22
524.21	34573.2
524.577	34800.99
524.943	35002.79
525.31	35194.2
525.676	35520.07
526.043	35846.39
526.409	35929.78
526.776	36238.02
527.142	36446.82
527.508	36806.36
527.874	36936.53
528.241	37151.66
528.607	37291.32
528.973	37729.28
529.339	37698.77
529.705	38196.16
530.071	38405.87
530.437	38521.8
530.803	38716.82
531.169	39025.51
531.535	38971.28
531.901	39246.3
532.267	39431.83
532.632	39565.61
532.998	39934.42
533.364	40291.47
533.73	40272.03
534.095	40456.66
534.461	40747.28
534.826	40920.38
535.192	41106.14
535.557	41419.8
535.923	41378.22
536.288	41575.73
536.653	41748.61
537.019	41738.66
537.384	41883.52
537.749	42183.4
538.114	42271.53
538.479	42369.61
538.845	42559.88
539.21	42545.87
539.575	42714.23
539.94	42843.04
540.305	43263.59
540.67	43111.73
541.034	43375.91
541.399	43575
541.764	43525.28
542.129	43854.54
542.494	43872.62
542.858	43930.02
543.223	44183.34
543.587	44464.92
543.952	44436.9
544.316	44611.81
544.681	44695.65
545.045	44906.71
545.41	45165.01
545.774	45239.59
546.138	45237.33
546.503	45468.06
546.867	45499.02
547.231	45661.27
547.595	45853.58
547.959	45907.37
548.324	46089.28
548.688	46099.9
549.052	46295.38
549.416	46515.03
549.779	46567.46
550.143	46675.03
550.507	47040.44
550.871	47135.36
551.235	47134.45
551.599	47413.77
551.962	47401.11
552.326	47588.9
552.689	47905.96
553.053	47620.77
553.417	48035.9
553.78	48378.71
554.143	48093.07
554.507	48363.35
554.87	48665.49
555.234	49032.48
555.597	48704.81
555.96	48877.68
556.323	49254.4
556.686	49262.08
557.05	49529.42
557.413	49587.04
557.776	49689.87
558.139	49969.41
558.502	50087.6
558.865	50114.26
559.228	50445.1
559.59	50416.4
559.953	50617.53
560.316	50898.42
560.679	50967.35
561.041	51068.59
561.404	51270.16
561.767	51425.19
562.129	51433.77
562.492	51728.23
562.854	51852.07
563.217	51871.96
563.579	51984.95
563.941	52267.88
564.304	52403.24
564.666	52574.08
565.028	52512.16
565.39	52730.92
565.753	52942.66
566.115	53038.48
566.477	53177.68
566.839	53252.03
567.201	53435.3
567.563	53485.47
567.925	53704.22
568.287	53663.77
568.648	53748.74
569.01	53866.25
569.372	54084.33
569.734	54105.34
570.095	54202.97
570.457	54344.21
570.819	54407.48
571.18	54449.06
571.542	54682.05
571.903	54715.95
572.265	54834.59
572.626	54855.38
572.987	54911.42
573.349	55021.03
573.71	55064.19
574.071	55201.59
574.432	55211.98
574.794	55397.29
575.155	55445.42
575.516	55316.16
575.877	55476.38
576.238	55609.26
576.599	55651.29
576.96	55672.99
577.32	55699.2
577.681	55821
578.042	55874.79
578.403	55892.41
578.763	55960.89
579.124	55961.79
579.485	56082.01
579.845	56099.19
580.206	56052.86
580.566	56133.54
580.927	56174.22
581.287	56232.52
581.648	56153.65
582.008	56284.27
582.368	56296.7
582.728	56297.38
583.089	56322.01
583.449	56266.87
583.809	56307.77
584.169	56355
584.529	56280.43
584.889	56540.53
585.249	56348.9
585.609	56288.56
585.969	56405.17
586.329	56423.7
586.688	56363.14
587.048	56351.84
587.408	56318.39
587.768	56300.99
588.127	56389.35
588.487	56283.82
588.846	56552.28
589.206	56366.3
589.565	56416.47
589.925	56477.03
590.284	56403.14
590.643	56495.79
591.003	56536.69
591.362	56618.27
591.721	56510.25
592.08	56549.57
592.44	56656.69
592.799	56632.73
593.158	56583.24
593.517	56573.07
593.876	56552.06
594.235	56535.79
594.593	56631.83
594.952	56703.24
595.311	56623.69
595.67	56729.68
596.029	56761.54
596.387	56761.32
596.746	56793.18
597.104	56721.77
597.463	56736.01
597.822	56825.05
598.18	56788.44
598.538	56765.84
598.897	56929.68
599.255	56686.97
599.613	57136.22
599.972	56787.08
600.33	56970.35
600.688	56855.1
601.046	56942.56
601.404	57090.58
601.762	56982.78
602.12	57095.55
602.478	57069.78
602.836	57166.28
603.194	56974.65
603.552	57075.89
603.91	56990.69
604.268	57165.83
604.625	57114.3
604.983	57317.46
605.341	57077.92
605.698	57293.73
606.056	57302.77
606.413	57321.53
606.771	57375.54
607.128	57338.93
607.485	57259.38
607.843	57287.86
608.2	57435.42
608.557	57571.47
608.914	57482.88
609.272	57564.69
609.629	57597.45
609.986	57662.99
610.343	57590
610.7	57774.85
611.057	57744.34
611.414	57712.71
611.771	57750.67
612.127	57823.66
612.484	57834.96
612.841	57876.09
613.198	57763.33
613.554	57880.61
613.911	57888.97
614.267	57951.57
614.624	57956.09
614.98	57987.27
615.337	58141.17
615.693	58040.15
616.05	58011.45
616.406	58163.77
616.762	58074.28
617.118	58071.34
617.475	58114.95
617.831	58163.77
618.187	58132.36
618.543	58232.01
618.899	58366.47
619.255	58292.58
619.611	58264.1
619.967	58361.28
620.323	58341.39
620.678	58269.53
621.034	58281.73
621.39	58240.83
621.746	58269.53
622.101	58577.77
622.457	58297.78
622.812	58369.41
623.168	58425.46
623.523	58365.12
623.879	58503.65
624.234	58366.47
624.589	58442.18
624.945	58432.69
625.3	58411.22
625.655	58402.18
626.01	58366.47
626.365	58454.16
626.72	58349.98
627.075	58394.72
627.43	58296.42
627.785	58268.62
628.14	58313.14
628.495	58341.62
628.85	58284.67
629.205	58205.35
629.559	58301.84
629.914	58286.02
630.269	58266.59
630.623	58242.18
630.978	58121.06
631.332	58208.74
631.687	58266.59
632.041	58202.64
632.396	58149.76
632.75	58098.01
633.104	58077.22
633.459	57926.03
633.813	57972.13
634.167	57992.25
634.521	57933.72
634.875	57963.09
635.229	57896.88
635.583	57830.44
635.937	57769.65
636.291	57785.25
636.645	57734.85
636.999	57684.23
637.352	57780.27
637.706	57587.74
638.06	57727.17
638.413	57649.2
638.767	57608.53
639.121	57613.95
639.474	57439.04
639.828	57506.61
640.181	57470.9
640.534	57494.63
640.888	57404.01
641.241	57256.9
641.594	57334.86
641.947	57373.96
642.301	57335.09
642.654	57291.7
643.007	57314.75
643.36	57234.07
643.713	57158.37
644.066	57279.95
644.419	57077.69
644.771	56938.71
645.124	56625.05
645.477	56656.91
645.83	56490.82
646.182	56331.27
646.535	56249.02
646.888	56305.29
647.24	56157.27
647.593	56356.81
647.945	56199.53
648.298	56088.57
648.65	56028
649.002	55925.63
649.355	56022.81
649.707	56039.53
650.059	56085.4
650.411	56412.85
650.763	56435.68
651.115	56645.16
651.467	56606.97
651.819	56486.3
652.171	56508.9
652.523	56443.81
652.875	56429.8
653.227	56286.08
653.578	56464.15
653.93	56370.14
654.282	56314.78
654.633	56155.68
654.985	56216.47
655.337	56271.39
655.688	56192.97
656.039	56313.19
656.391	56077.04
656.742	56192.97
657.094	56189.13
657.445	56243.37
657.796	56145.29
658.147	56067.78
658.498	56066.65
658.849	56145.29
659.2	56084.27
659.551	56041.56
659.902	56204.95
660.253	56035.69
660.604	56036.14
660.955	55939.87
661.306	55959.31
661.656	55980.1
662.007	55982.58
662.358	55921.57
662.708	55887.44
663.059	55850.38
663.409	55667.11
663.76	55886.99
664.11	55863.49
664.461	55836.82
664.811	55830.72
665.161	55779.42
665.511	55715.02
665.862	55885.86
666.212	55864.84
666.562	55895.58
666.912	55791.4
667.262	55787.78
667.612	55706.66
667.962	55772.87
668.312	55755.47
668.662	55803.15
669.011	55682.7
669.361	55635.7
669.711	55621.01
670.06	55667.56
670.41	55528.13
670.76	55550.5
671.109	55716.6
671.459	55653.78
671.808	55468.47
672.157	55691.06
672.507	55384.18
672.856	55452.2
673.205	55500.33
673.554	55580.56
673.904	55377.17
674.253	55531.07
674.602	55437.29
674.951	55044.3
675.3	54989.39
675.649	55395.7
675.998	55317.74
676.346	55298.76
676.695	55354.35
677.044	55203.62
677.393	55279.1
677.741	55314.58
678.09	55217.63
678.438	55132.66
678.787	55234.58
679.135	55266.44
679.484	55042.95
679.832	55141.93
680.181	54925.89
680.529	54999.78
680.877	54895.38
681.225	54928.15
681.573	55066.67
681.922	54927.02
682.27	54809.96
682.618	54830.07
682.966	54650.64
683.314	54777.87
683.661	54611.09
684.009	54493.81
684.357	54480.25
684.705	54410.19
685.053	54501.04
685.4	54366.58
685.748	54263.53
686.095	54140.6
686.443	54132.46
686.79	54080.03
687.138	54115.06
687.485	54079.58
687.832	54002.07
688.18	54028.28
688.527	53864.22
688.874	53836.88
689.221	53577.9
689.568	53581.06
689.915	53540.16
690.262	53589.88
690.609	53469.65
690.956	53335.65
691.303	53277.57
691.65	53172.94
691.997	53226.04
692.344	52946.28
692.69	53004.35
693.037	52990.12
693.383	52724.36
693.73	52923.23
694.077	52629.22
694.423	52603.91
694.769	52579.73
695.116	52441.21
695.462	52437.82
695.808	52340.87
696.155	52370.47
696.501	52231.27
696.847	52204.6
697.193	51911.28
697.539	51968.22
697.885	51890.94
698.231	51715.58
698.577	51739.98
698.923	51629.48
699.269	51391.52
699.614	51240.11
699.96	51241.24
700.306	51238.53
700.651	51116.49
700.997	51105.65
701.342	50947.23
701.688	50792.66
702.033	50684.64
702.379	50666.79
702.724	50458.43
703.069	50641.25
703.415	50401.71
703.76	50262.05
704.105	50304.31
704.45	50140.02
704.795	49963.08
705.14	49831.11
705.485	49879.01
705.83	49653.03
706.175	49770.99
706.52	49707.04
706.865	49488.52
707.209	49544.11
707.554	49431.12
707.899	49415.97
708.243	49170.56
708.588	49194.29
708.932	48864.12
709.277	48932.37
709.621	48942.31
709.966	48611.93
710.31	48728.54
710.654	48334.2
710.998	48404.02
711.342	48359.28
711.687	48347.08
712.031	48267.3
712.375	47955.22
712.719	48144.37
713.063	48074.54
713.407	47997.48
713.75	47827.09
714.094	47680.88
714.438	47622.8
714.782	47635.46
715.125	47414.22
715.469	47471.17
715.812	47249.7
716.156	47076.83
716.499	47150.05
716.843	47127.45
717.186	46818.98
717.53	47018.98
717.873	47093.1
718.216	47039.99
718.559	46887.45
718.902	46571.08
719.246	46764.29
719.589	46433
719.932	46378.09
720.275	46368.82
720.617	46318.2
720.96	46197.98
721.303	46237.53
721.646	46215.83
721.989	45869.63
722.331	46121.82
722.674	45922.51
723.016	45982.84
723.359	45809.29
723.701	45812.45
724.044	45614.49
724.386	45378.57
724.729	45507.38
725.071	45262.19
725.413	45433.03
725.755	45318.23
726.097	45224.67
726.439	45024.45
726.782	45032.59
727.124	45124.11
727.465	44939.48
727.807	44747.85
728.149	44688.64
728.491	44777.45
728.833	44846.6
729.175	44617
729.516	44654.07
729.858	44573.84
730.199	44425.15
730.541	44352.6
730.882	44314.64
731.224	44501.3
731.565	44036
731.906	44126.85
732.248	44108.77
732.589	43927.76
732.93	43807.99
733.271	43845.5
733.612	43912.62
733.953	43802.34
734.294	43523.47
734.635	43534.1
734.976	43578.61
735.317	43445.28
735.658	43439.18
735.999	43427.43
736.339	43197.38
736.68	43258.85
737.021	43127.1
737.361	43056.82
737.702	43156.25
738.042	43032.64
738.383	42904.51
738.723	42916.26
739.063	42666.32
739.404	42758.97
739.744	42627.9
740.084	42626.55
740.424	42630.62
740.764	42514.01
741.104	42661.35
741.444	42282.15
741.784	41963.52
742.124	42101.36
742.464	42094.81
742.804	41989.05
743.143	41848.94
743.483	42023.63
743.823	41595.16
744.162	41909.51
744.502	41714.48
744.841	41596.29
745.181	41724.2
745.52	41616.18
745.86	41514.94
746.199	41601.72
746.538	41399.46
746.877	41412.34
747.216	41418.67
747.556	41140.26
747.895	41167.38
748.234	41039.92
748.573	40799.48
748.911	40871.79
749.25	40877.67
749.589	40642.65
749.928	40716.09
750.267	40695.75
750.605	40573.72
750.944	40491.92
751.283	40285.37
751.621	40423.44
751.96	40157.24
752.298	40142.09
752.636	40188.42
752.975	39988.88
753.313	39779.84
753.651	40018.93
753.989	39632.28
754.327	39730.58
754.666	39518.61
755.004	39603.8
755.342	39592.73
755.679	39534.88
756.017	39123.59
756.355	39235.23
756.693	39083.37
757.031	38976.25
757.368	38873.43
757.706	38736.03
758.044	38714.34
758.381	38781.45
758.719	38574
759.056	38527.67
759.394	38290.84
759.731	38039.32
760.068	38072.77
760.405	37885.88
760.743	37856.96
761.08	37794.81
761.417	37580.13
761.754	37573.35
762.091	37468.04
762.428	37452.67
762.765	37226.69
763.102	37270.53
763.438	36967.94
763.775	36786.93
764.112	36932.91
764.449	36828.51
764.785	36555.3
765.122	36261.52
765.458	36294.06
765.795	36238.47
766.131	36186.49
766.467	36006.38
766.804	35808.2
767.14	35774.53
767.476	35659.95
767.812	35514.19
768.148	35480.97
768.485	35264.71
768.821	35169.57
769.157	35172.28
769.492	35025.17
769.828	34922.57
770.164	34671.73
770.5	34597.61
770.836	34671.96
771.171	34235.58
771.507	34221.57
771.842	34058.64
772.178	34063.16
772.513	34019.32
772.849	33984.52
773.184	33756.05
773.519	33778.65
773.855	33580.46
774.19	33431.99
774.525	33162.39
774.86	33267.7
775.195	33095.05
775.53	32990.19
775.865	32731.22
776.2	32611.44
776.535	32373.94
776.87	32509.98
777.205	32296.88
777.539	32156.32
777.874	32210.78
778.209	31841.75
778.543	31968.52
778.878	31681.98
779.212	31666.61
779.547	31494.19
779.881	31550.68
780.215	31320.41
780.55	31312.5
780.884	31119.05
781.218	31084.03
781.552	30959.74
781.886	30687.88
782.22	30532.63
782.554	30507.09
782.888	30301.22
783.222	30194.56
783.556	30022.36
783.889	30030.72
784.223	29787.56
784.557	29782.82
784.89	29863.04
785.224	29552.77
785.557	29361.13
785.891	29429.61
786.224	29328.14
786.558	29208.14
786.891	28881.83
787.224	28727.25
787.557	28773.13
787.891	28924.54
788.224	28647.03
788.557	28699.01
788.89	28582.62
789.223	28515.96
789.556	28330.65
789.888	28180.37
790.221	28180.37
790.554	27919.82
790.887	27888.41
791.219	27708.07
791.552	27590.56
791.884	27532.03
792.217	27558.7
792.549	27379.04
792.882	27411.81
793.214	27197.58
793.546	27137.01
793.879	26901.76
794.211	26709.45
794.543	26813.18
794.875	26712.84
795.207	26856.12
795.539	26708.32
795.871	26533.64
796.203	26412.29
796.535	26248
796.867	26263.36
797.198	26117.83
797.53	26095.01
797.862	25968.23
798.193	25998.51
798.525	25735.92
798.856	25737.95
799.188	25520.11
799.519	25438.75
799.85	25345.87
800.182	25389.71
800.513	25356.27
800.844	25157.18
801.175	25344.74
801.506	25168.7
801.837	25009.84
802.168	25020.46
802.499	24847.58
802.83	24828.82
803.161	24746.34
803.491	24678.77
803.822	24581.83
804.153	24460.92
804.483	24326.46
804.814	24245.11
805.145	24187.03
805.475	24253.02
805.805	24058.9
806.136	24101.39
806.466	24084.66
806.796	23902.52
807.126	23747.95
807.457	23621.4
807.787	23685.58
808.117	23745.69
808.447	23522.87
808.777	23466.15
809.107	23442.65
809.436	23415.3
809.766	23397.22
810.096	23258.02
810.426	23262.54
810.755	23132.82
811.085	23082.2
811.414	23025.71
811.744	22847.18
812.073	22770.57
812.403	22758.37
812.732	22735.55
813.061	22652.16
813.39	22589.56
813.719	22623.91
814.049	22654.42
814.378	22507.98
814.707	22339.85
815.036	22216.01
815.365	22020.76
815.693	22081.33
816.022	21994.32
816.351	21858.28
816.68	21835.46
817.008	21904.38
817.337	21719.98
817.665	21779.41
817.994	21809.24
818.322	21675.46
818.651	21617.61
818.979	21613.99
819.307	21642.69
819.636	21513.43
819.964	21305.75
820.292	21407.9
820.62	21517.5
820.948	21349.59
821.276	21398.41
821.604	21216.94
821.932	21414.9
822.259	21451.74
822.587	21251.52
822.915	21268.24
823.243	21366.09
823.57	21282.48
823.898	21246.09
824.225	21168.81
824.553	21173.33
824.88	21186.43
825.207	21256.26
825.535	21131.07
825.862	21215.36
826.189	21179.2
826.516	21263.49
826.843	21311.85
827.17	21167.9
827.497	21301.46
827.824	21167.9
828.151	21232.08
828.478	21188.69
828.805	21246.55
829.131	21145.53
829.458	21052.65
829.785	20967.01
830.111	21092.2
830.438	21097.17
830.764	21122.03
831.09	21105.53
831.417	20961.58
831.743	21056.95
832.069	21043.61
832.395	20995.03
832.722	21003.61
833.048	20924.29
833.374	20882.49
833.7	20927.91
834.026	20917.29
834.351	20909.38
834.677	20785.54
835.003	20924.97
835.329	20917.97
835.654	20786.67
835.98	20753.45
836.306	20798.87
836.631	20635.04
836.956	20819.21
837.282	20585.77
837.607	20681.36
837.932	20573.12
838.258	20588.71
838.583	20504.42
838.908	20531.08
839.233	20517.98
839.558	20389.62
839.883	20210.19
840.208	20236.85
840.533	20282.05
840.858	20302.62
841.182	20240.7
841.507	20203.18
841.832	20147.82
842.156	20151.89
842.481	20002.74
842.805	19969.52
843.13	19946.92
843.454	19878.22
843.778	19816.75
844.103	19711.9
844.427	19709.19
844.751	19737.21
845.075	19700.6
845.399	19680.71
845.723	19561.39
846.047	19529.08
846.371	19381.51
846.695	19365.01
847.019	19161.63
847.343	19135.87
847.666	18985.36
847.99	18945.82
848.313	18845.48
848.637	18775.42
848.96	18760.96
849.284	18760.96
849.607	18557.13
849.931	18460.86
850.254	18428.31
850.577	18386.28
850.9	18203.91
851.223	18245.04
851.546	18110.36
851.869	17944.03
852.192	18109
852.515	17941.77
852.838	17830.14
853.161	17880.98
853.483	17763.7
853.806	17735.45
854.129	17635.79
854.451	17602.57
854.774	17600.09
855.096	17440.32
855.419	17320.55
855.741	17387.44
856.063	17238.97
856.385	17302.24
856.708	17115.13
857.03	17074
857.352	17100.67
857.674	16957.39
857.996	16833.78
858.318	16702.71
858.64	16836.49
858.961	16725.08
859.283	16716.5
859.605	16600.34
859.926	16561.47
860.248	16465.43
860.57	16486.45
860.891	16510.17
861.212	16475.82
861.534	16375.04
861.855	16307.24
862.176	16463.62
862.498	16247.81
862.819	16385.43
863.14	16174.36
863.461	16174.36
863.782	16170.3
864.103	16162.84
864.424	16053.46
864.745	16077.87
865.065	15987.25
865.386	15980.47
865.707	16011.66
866.027	16009.4
866.348	15987.7
866.668	16004.88
866.989	15938.21
867.309	15859.79
867.63	15808.5
867.95	15742.74
868.27	15627.71
868.59	15725.11
868.91	15726.69
869.23	15677.43
869.55	15689.86
869.87	15699.12
870.19	15659.8
870.51	15622.96
870.83	15615.96
871.15	15479.69
871.469	15444.89
871.789	15489.18
872.109	15410.09
872.428	15344.55
872.748	15471.1
873.067	15361.95
873.386	15326.7
873.706	15220.94
874.025	15228.4
874.344	15224.56
874.663	15269.98
874.982	15196.76
875.301	15226.14
875.62	15158.8
875.939	15098.68
876.258	15118.8
876.577	15019.36
876.896	15031.12
877.214	14966.49
877.533	15033.38
877.852	14927.62
878.17	14968.07
878.489	14912.7
878.807	14907.05
879.125	14803.78
879.444	14832.7
879.762	14802.87
880.08	14768.3
880.398	14749.32
880.716	14785.47
881.034	14712.25
881.352	14703.89
881.67	14596.1
881.988	14635.19
882.306	14589.32
882.624	14579.6
882.941	14439.04
883.259	14455.99
883.577	14406.73
883.894	14378.25
884.212	14374.86
884.529	14335.54
884.846	14296.22
885.164	14195.66
885.481	14118.6
885.798	14131.03
886.115	14088.09
886.432	14098.71
886.75	14046.96
887.067	14097.58
887.383	14053.74
887.7	14022.1
888.017	13928.32
888.334	13910.47
888.651	13855.55
888.967	13830.02
889.284	13785.73
889.6	13720.64
889.917	13651.27
890.233	13778.72
890.55	13573.75
890.866	13658.27
891.182	13646.52
891.498	13464.38
891.815	13433.19
892.131	13330.14
892.447	13332.63
892.763	13320.65
893.079	13239.07
893.395	13268.9
893.71	13273.42
894.026	13139.64
894.342	13196.81
894.657	13116.14
894.973	13110.04
895.289	12963.37
895.604	12998.4
895.92	12913.88
896.235	12892.87
896.55	12911.17
896.865	12885.41
897.181	12862.81
897.496	12812.42
897.811	12663.95
898.126	12697.84
898.441	12591.41
898.756	12557.06
899.071	12458.98
899.386	12521.58
899.7	12426.44
900.015	12427.57
900.33	12278.65
900.644	12281.58
900.959	12327.91
901.273	12214.69
901.588	12204.52
901.902	12096.28
902.216	12053.79
902.531	12014.02
902.845	11955.49
903.159	11816.74
903.473	11881.37
903.787	11812.67
904.101	11711.2
904.415	11735.16
904.729	11657.19
905.042	11604.77
905.356	11593.01
905.67	11618.1
905.984	11572.45
906.297	11549.4
906.611	11437.99
906.924	11475.28
907.237	11365.9
907.551	11336.52
907.864	11291.33
908.177	11289.07
908.491	11140.37
908.804	11164.33
909.117	11074.16
909.43	10993.48
909.743	10915.29
910.056	10868.74
910.368	10822.19
910.681	10801.17
910.994	10812.24
911.307	10776.09
911.619	10694.96
911.932	10690.21
912.244	10629.2
912.557	10585.36
912.869	10564.57
913.181	10516.66
913.494	10461.07
913.806	10441.41
914.118	10450.45
914.43	10282.09
914.742	10238.02
915.054	10244.8
915.366	10210
915.678	10151.7
915.99	10103.11
916.302	10064.92
916.613	10011.14
916.925	10007.75
917.236	9907.18
917.548	9910.12
917.859	9927.52
918.171	9805.49
918.482	9781.99
918.794	9735.89
919.105	9665.83
919.416	9649.79
919.727	9559.62
920.038	9546.06
920.349	9532.96
920.66	9372.28
920.971	9470.36
921.282	9395.11
921.593	9351.72
921.903	9299.74
922.214	9249.8
922.525	9252.74
922.835	9240.31
923.146	9141.55
923.456	9175.9
923.767	9121.67
924.077	9062.46
924.387	9078.5
924.697	8935.23
925.008	8897.49
925.318	8902.24
925.628	8872.63
925.938	8766.87
926.248	8751.73
926.558	8736.59
926.867	8778.17
927.177	8650.94
927.487	8609.82
927.796	8546.99
928.106	8505.64
928.416	8500.89
928.725	8503.15
929.034	8374.79
929.344	8454.11
929.653	8408.24
929.962	8363.04
930.271	8285.08
930.581	8268.58
930.89	8257.06
931.199	8186.32
931.508	8167.79
931.817	8117.4
932.125	8123.73
932.434	8039.44
932.743	7978.19
933.051	7963.73
933.36	8012.09
933.669	7867.46
933.977	7813.68
934.286	7789.5
934.594	7818.42
934.902	7674.7
935.21	7667.69
935.519	7710.63
935.827	7672.44
936.135	7639.9
936.443	7495.5
936.751	7518.55
937.059	7490.98
937.367	7455.27
937.674	7399.45
937.982	7426.12
938.29	7345.89
938.597	7381.15
938.905	7319
939.213	7247.82
939.52	7199.91
939.827	7222.51
940.135	7131.89
940.442	7166.46
940.749	7162.85
941.056	7124.66
941.363	7050.08
941.67	7052.79
941.977	6989.97
942.284	6931.22
942.591	6917.88
942.898	6889.64
943.205	6884.44
943.511	6850.31
943.818	6767.6
944.125	6766.93
944.431	6684.44
944.738	6700.26
945.044	6678.79
945.35	6599.93
945.657	6584.33
945.963	6584.33
946.269	6565.35
946.575	6525.35
946.881	6532.13
947.187	6452.81
947.493	6445.58
947.799	6429.76
948.105	6403.77
948.41	6344.11
948.716	6295.98
949.022	6266.15
949.327	6239.26
949.633	6238.13
949.938	6227.96
950.244	6231.12
950.549	6166.26
950.854	6117
951.16	6125.14
951.465	6078.13
951.77	6043.78
952.075	6049.66
952.38	6034.97
952.685	5976.89
952.99	5929.21
953.294	5900.73
953.599	5847.85
953.904	5816.44
954.209	5781.87
954.513	5804.47
954.818	5767.4
955.122	5758.82
955.426	5716.11
955.731	5707.75
956.035	5698.48
956.339	5621.65
956.643	5623.68
956.948	5626.17
957.252	5548.43
957.556	5594.75
957.86	5533.29
958.163	5531.25
958.467	5467.07
958.771	5478.37
959.075	5474.08
959.378	5391.6
959.682	5428.88
959.985	5385.27
960.289	5307.3
960.592	5285.61
960.896	5331.03
961.199	5259.17
961.502	5211.94
961.805	5226.18
962.108	5152.73
962.411	5208.1
962.714	5137.36
963.017	5140.3
963.32	5108.21
963.623	5092.39
963.926	5081.55
964.228	5022.34
964.531	5046.97
964.833	5045.39
965.136	4971.04
965.438	5015.33
965.741	4961.1
966.043	4941.89
966.345	4906.41
966.648	4827.77
966.95	4876.13
967.252	4780.54
967.554	4816.24
967.856	4791.61
968.158	4749.8
968.46	4773.31
968.761	4717.49
969.063	4695.79
969.365	4670.03
969.666	4658.73
969.968	4624.16
970.269	4609.92
970.571	4583.93
970.872	4575.8
971.174	4503.71
971.475	4522.01
971.776	4496.93
972.077	4495.35
972.378	4498.74
972.679	4476.14
972.98	4409.47
973.281	4400.44
973.582	4331.96
973.883	4320.66
974.183	4336.48
974.484	4317.27
974.785	4290.61
975.085	4291.96
975.386	4235.92
975.686	4258.29
975.986	4218.52
976.287	4233.66
976.587	4173.32
976.887	4118.86
977.187	4159.31
977.487	4102.14
977.787	4075.02
978.087	4093.1
978.387	4103.27
978.687	4096.49
978.987	3971.75
979.286	4002.71
979.586	4009.94
979.885	3945.98
980.185	3955.7
980.484	3922.48
980.784	3917.51
981.083	3932.88
981.382	3912.09
981.682	3895.36
981.981	3868.47
982.28	3875.93
982.579	3825.31
982.878	3783.05
983.177	3775.82
983.475	3786.44
983.774	3747.57
984.073	3753.9
984.372	3721.13
984.67	3744.86
984.969	3679.32
985.267	3666.22
985.566	3677.06
985.864	3616.5
986.162	3648.14
986.461	3589.16
986.759	3594.58
987.057	3567.24
987.355	3562.04
987.653	3533.34
987.951	3508.26
988.249	3518.65
988.547	3533.34
988.844	3482.04
989.142	3468.48
989.44	3444.98
989.737	3397.75
990.035	3392.55
990.332	3375.15
990.63	3367.02
990.927	3366.11
991.224	3317.98
991.521	3327.02
991.819	3314.59
992.116	3296.28
992.413	3289.05
992.71	3251.99
993.006	3256.28
993.303	3236.85
993.6	3236.17
993.897	3213.12
994.193	3181.26
994.49	3150.52
994.787	3112.79
995.083	3133.12
995.379	3138.1
995.676	3083.41
995.972	3087.25
996.268	3035.27
996.565	3000.7
996.861	3027.59
997.157	2999.79
997.453	2949.85
997.749	2981.94
998.044	2942.17
998.34	2971.77
998.636	2909.85
998.932	2918.44
999.227	2911.43
999.523	2872.57
999.818	2891.55
1000.114	2819.01
1000.409	2834.6
1000.704	2828.95
1001	2800.25
1001.295	2793.25
1001.59	2745.11
1001.885	2763.19
1002.18	2731.33
1002.475	2740.14
1002.77	2738.33
1003.065	2699.69
1003.359	2734.94
1003.654	2655.17
1003.949	2660.14
1004.243	2666.24
1004.538	2603.65
1004.832	2606.81
1005.127	2620.82
1005.421	2568.84
1005.715	2558
1006.009	2553.03
1006.304	2554.83
1006.598	2511.9
1006.892	2527.04
1007.186	2502.86
1007.48	2509.19
1007.773	2492.01
1008.067	2426.93
1008.361	2422.63
1008.655	2412.24
1008.948	2405.91
1009.242	2407.72
1009.535	2376.53
1009.829	2354.61
1010.122	2341.28
1010.415	2369.98
1010.708	2335.4
1011.001	2277.1
1011.295	2298.8
1011.588	2274.62
1011.881	2268.06
1012.173	2247.72
1012.466	2229.19
1012.759	2225.58
1013.052	2226.48
1013.344	2202.75
1013.637	2185.35
1013.93	2192.13
1014.222	2160.27
1014.514	2157.78
1014.807	2135.86
1015.099	2106.94
1015.391	2108.74
1015.683	2074.62
1015.976	2086.82
1016.268	2045.92
1016.56	2035.75
1016.851	2043.66
1017.143	2040.5
1017.435	2018.58
1017.727	2030.55
1018.018	1993.49
1018.31	1959.82
1018.602	1943.1
1018.893	1945.13
1019.185	1936.32
1019.476	1917.34
1019.767	1874.17
1020.058	1883.89
1020.35	1868.52
1020.641	1846.38
1020.932	1862.2
1021.223	1838.92
1021.514	1827.85
1021.804	1829.43
1022.095	1821.29
1022.386	1776.1
1022.677	1791.69
1022.967	1753.27
1023.258	1749.43
1023.548	1728.87
1023.839	1720.28
1024.129	1722.54
1024.419	1718.47
1024.709	1699.94
1025	1676.66
1025.29	1687.29
1025.58	1672.37
1025.87	1641.19
1026.16	1661.07
1026.449	1623.56
1026.739	1627.63
1027.029	1626.95
1027.319	1592.83
1027.608	1580.85
1027.898	1583.33
1028.187	1529.78
1028.477	1594.18
1028.766	1540.17
1029.055	1510.79
1029.344	1518.48
1029.634	1524.13
1029.923	1489.33
1030.212	1476.67
1030.501	1471.47
1030.79	1464.47
1031.078	1465.37
1031.367	1400.97
1031.656	1419.27
1031.945	1461.3
1032.233	1420.85
1032.522	1379.05
1032.81	1402.55
1033.099	1368.65
1033.387	1383.34
1033.675	1348.31
1033.963	1347.63
1034.251	1349.44
1034.54	1324.58
1034.828	1314.64
1035.116	1298.82
1035.403	1317.58
1035.691	1319.61
1035.979	1292.04
1036.267	1271.25
1036.554	1269.44
1036.842	1269.9
1037.129	1229.9
1037.417	1249.33
1037.704	1237.58
1037.992	1200.52
1038.279	1233.96
1038.566	1204.14
1038.853	1204.14
1039.14	1204.14
