Data from plate_porcelain_FLMS001491_061.txt Node
Date: Tue Feb 07 11:19:40 GMT 2017
User: dcchb
Spectrometer: FLMS00149
Trigger mode: 0
Integration Time (sec): 2.000000E-2
Scans to average: 10
Electric dark correction enabled: true
Nonlinearity correction enabled: false
Boxcar width: 0
XAxis mode: Wavelengths
Number of Pixels in Spectrum: 2048
>>>>>Begin Spectral Data<<<<<
341.393	-17.54
341.776	-17.54
342.16	-17.54
342.543	-53.02
342.927	-66.35
343.31	-76.52
343.693	-71.33
344.077	-65.9
344.46	-75.62
344.843	-29.97
345.226	-25.68
345.61	-35.85
345.993	4.6
346.376	-10.54
346.759	-3.3
347.142	24.94
347.525	34.21
347.908	46.41
348.291	77.82
348.674	79.86
349.057	126.86
349.44	126.18
349.823	148.78
350.206	154.43
350.588	225.39
350.971	246.18
351.354	242.11
351.737	270.13
352.119	272.85
352.502	311.94
352.884	319.17
353.267	331.6
353.65	364.37
354.032	334.99
354.414	349.68
354.797	376.35
355.179	336.35
355.562	392.84
355.944	379.74
356.326	390.58
356.709	373.86
357.091	381.54
357.473	363.01
357.855	380.19
358.238	399.4
358.62	372.05
359.002	391.26
359.384	387.65
359.766	408.21
360.148	389.23
360.53	395.55
360.912	388.55
361.294	385.84
361.676	415.89
362.057	392.39
362.439	386.97
362.821	381.54
363.203	397.14
363.584	402.33
363.966	383.58
364.348	392.62
364.729	386.06
365.111	403.69
365.493	395.1
365.874	393.29
366.256	400.53
366.637	385.39
367.019	395.55
367.4	385.39
367.781	393.29
368.163	397.81
368.544	404.82
368.925	404.37
369.306	418.83
369.688	398.49
370.069	400.98
370.45	421.09
370.831	389.45
371.212	405.5
371.593	407.08
371.974	418.6
372.355	420.19
372.736	408.66
373.117	424.48
373.498	436.46
373.879	417.93
374.26	433.97
374.641	428.1
375.021	415.22
375.402	440.3
375.783	436.01
376.163	459.51
376.544	465.61
376.925	457.93
377.305	471.71
377.686	468.1
378.066	444.37
378.447	494.31
378.827	466.97
379.208	480.52
379.588	496.79
379.968	483.69
380.349	493.41
380.729	498.38
381.109	493.41
381.489	520.75
381.87	500.86
382.25	506.06
382.63	523.46
383.01	509.22
383.39	509.9
383.77	543.8
384.15	509.22
384.53	546.96
384.91	554.65
385.29	527.75
385.67	558.26
386.049	560.75
386.429	586.28
386.809	576.79
387.189	569.34
387.568	584.02
387.948	588.32
388.328	601.65
388.707	585.61
389.087	605.49
389.466	607.75
389.846	628.54
390.225	641.2
390.605	645.04
390.984	653.63
391.363	651.14
391.743	665.6
392.122	659.05
392.501	672.61
392.881	726.85
393.26	677.58
393.639	675.32
394.018	691.59
394.397	713.51
394.776	714.42
395.155	741.31
395.534	736.79
395.913	773.4
396.292	740.63
396.671	763.23
397.05	751.48
397.429	791.02
397.808	780.86
398.186	806.84
398.565	808.2
398.944	788.54
399.323	812.49
399.701	806.39
400.08	824.7
400.458	845.26
400.837	847.29
401.215	870.34
401.594	888.65
401.972	875.99
402.351	879.16
402.729	880.74
403.107	889.33
403.486	929.78
403.864	923.68
404.242	916.44
404.62	940.4
404.999	981.98
405.377	950.34
405.755	959.83
406.133	972.26
406.511	984.69
406.889	1006.16
407.267	1028.31
407.645	1029.89
408.023	1045.03
408.401	1075.31
408.779	1062.88
409.156	1086.84
409.534	1071.24
409.912	1136.33
410.29	1158.7
410.667	1158.25
411.045	1180.84
411.422	1168.64
411.8	1197.79
412.178	1240.28
412.555	1251.13
412.933	1248.64
413.31	1297.68
413.687	1285.47
414.065	1304.91
414.442	1305.59
414.819	1349.2
415.197	1320.5
415.574	1326.6
415.951	1374.06
416.328	1404.34
416.705	1406.6
417.082	1436.88
417.46	1430.78
417.837	1477.11
418.214	1461.97
418.591	1466.71
418.967	1484.11
419.344	1494.51
419.721	1520.04
420.098	1565.02
420.475	1560.95
420.852	1570.89
421.228	1615.18
421.605	1594.62
421.982	1615.41
422.358	1671.68
422.735	1652.24
423.111	1687.72
423.488	1698.35
423.864	1702.41
424.241	1759.59
424.617	1777.89
424.994	1807.04
425.37	1780.83
425.746	1817.66
426.123	1826.03
426.499	1837.1
426.875	1856.53
427.251	1906.7
427.627	1933.59
428.003	1967.49
428.379	1967.04
428.756	2049.75
429.132	2046.81
429.507	2067.38
429.883	2081.16
430.259	2142.63
430.635	2131.1
431.011	2176.52
431.387	2222.85
431.763	2239.12
432.138	2296.97
432.514	2324.09
432.89	2325.9
433.265	2385.78
433.641	2411.32
434.016	2443.86
434.392	2485.9
434.767	2507.82
435.143	2511.66
435.518	2550.3
435.894	2540.36
436.269	2618.55
436.644	2629.85
437.02	2677.53
437.395	2666
437.77	2736.28
438.145	2781.71
438.52	2797.3
438.895	2808.6
439.271	2833.91
439.646	2937.63
440.021	2946.45
440.395	2915.04
440.77	2941.93
441.145	2974.92
441.52	3070.06
441.895	3047.24
442.27	3073
442.645	3096.27
443.019	3078.2
443.394	3141.25
443.769	3176.72
444.143	3161.58
444.518	3210.17
444.892	3181.92
445.267	3247.23
445.641	3304.86
446.016	3308.25
446.39	3327.23
446.764	3367
447.139	3332.88
447.513	3381.92
447.887	3432.08
448.262	3428.7
448.636	3461.01
449.01	3495.36
449.384	3524.96
449.758	3582.82
450.132	3627.56
450.506	3645.19
450.88	3700.33
451.254	3665.75
451.628	3759.08
452.002	3784.84
452.376	3801.79
452.75	3799.53
453.123	3899.87
453.497	3936.03
453.871	3976.7
454.244	4113.65
454.618	4086.3
454.992	4218.96
455.365	4108.23
455.739	4261.67
456.112	4341.21
456.486	4346.19
456.859	4372.85
457.232	4478.16
457.606	4487.65
457.979	4538.95
458.352	4650.58
458.725	4696.91
459.099	4781.88
459.472	4856.68
459.845	4877.24
460.218	4926.06
460.591	4963.12
460.964	5031.59
461.337	5129.22
461.71	5242.88
462.083	5241.98
462.456	5308.87
462.829	5270.23
463.201	5447.63
463.574	5444.46
463.947	5541.63
464.32	5664.79
464.692	5758.35
465.065	5771.68
465.438	5806.03
465.81	5895.07
466.183	5988.4
466.555	6130.32
466.928	6163.54
467.3	6178.23
467.672	6300.94
468.045	6437.88
468.417	6438.79
468.789	6493.7
469.161	6620.25
469.534	6715.16
469.906	6884.42
470.278	6911.77
470.65	6980.92
471.022	7117.86
471.394	7264.53
471.766	7313.34
472.138	7414.81
472.51	7598.76
472.882	7700.9
473.253	7838.52
473.625	7900.67
473.997	8163.26
474.369	8178.63
474.74	8231.96
475.112	8448.68
475.484	8564.83
475.855	8723.25
476.227	8760.53
476.598	9065.84
476.97	9138.15
477.341	9286.39
477.713	9425.6
478.084	9525.48
478.455	9810.45
478.827	9866.94
479.198	10192.59
479.569	10177.22
479.94	10489.53
480.311	10595.06
480.682	10838.44
481.053	11117.31
481.424	11240.69
481.795	11362.95
482.166	11550.97
482.537	11668.7
482.908	11907.12
483.279	12056.94
483.65	12272.53
484.021	12524.95
484.391	12724.72
484.762	12807.21
485.133	12887.43
485.503	13132.62
485.874	13408.09
486.244	13639.05
486.615	13832.72
486.985	13978.7
487.356	14263.66
487.726	14417.56
488.097	14616.88
488.467	14682.86
488.837	15058.22
489.207	15209.18
489.578	15439.45
489.948	15637.87
490.318	15870.63
490.688	15873.57
491.058	16125.76
491.428	16370.5
491.798	16538.41
492.168	16940.2
492.538	17068.79
492.908	17171.16
493.278	17412.96
493.648	17449.8
494.017	17711.03
494.387	17854.53
494.757	18111.25
495.126	18144.92
495.496	18322.77
495.866	18444.8
496.235	18693.83
496.605	18861.74
496.974	19003.65
497.344	19172.69
497.713	19286.36
498.082	19378.33
498.452	19622.85
498.821	19741.26
499.19	19847.47
499.559	20152.32
499.928	20227.35
500.298	20333.11
500.667	20523.84
501.036	20518.42
501.405	20784.62
501.774	20805.41
502.143	21048.8
502.512	21151.62
502.88	21399.07
503.249	21353.2
503.618	21546.64
503.987	21716.58
504.356	21917.47
504.724	22027.75
505.093	22176
505.462	22241.08
505.83	22392.49
506.199	22724.91
506.567	22834.74
506.936	22905.47
507.304	23159.7
507.672	23362.41
508.041	23426.59
508.409	23574.38
508.777	23817.76
509.145	23937.99
509.514	24023.86
509.882	24178.43
510.25	24326.45
510.618	24444.64
510.986	24618.87
511.354	24809.6
511.722	25103.15
512.09	25237.16
512.458	25290.95
512.826	25683.25
513.193	25775
513.561	25841.67
513.929	26083.01
514.297	26344.48
514.664	26463.34
515.032	26628.99
515.4	26901.98
515.767	26979.94
516.135	27131.57
516.502	27113.27
516.869	27607.27
517.237	27718.9
517.604	27762.29
517.972	28095.17
518.339	28345.78
518.706	28421.03
519.073	28598.88
519.44	28675.49
519.808	29094.46
520.175	29181.69
520.542	29493.55
520.909	29677.27
521.276	29696.93
521.643	30106.19
522.009	30346.18
522.376	30537.59
522.743	30669.79
523.11	31065.93
523.477	31306.15
523.843	31577.56
524.21	31827.5
524.577	32102.52
524.943	32182.74
525.31	32349.74
525.676	32639.23
526.043	32935.49
526.409	33130.51
526.776	33477.85
527.142	33565.08
527.508	33924.39
527.874	34151.5
528.241	34312.63
528.607	34367.99
528.973	34770.02
529.339	34734.54
529.705	35104.47
530.071	35414.29
530.437	35528.64
530.803	35817.9
531.169	36165.69
531.535	36083.43
531.901	36124.56
532.267	36374.72
532.632	36598.9
532.998	36632.34
533.364	37054.7
533.73	37153.23
534.095	37475.03
534.461	37563.16
534.826	37692.88
535.192	37997.28
535.557	38250.15
535.923	38115.92
536.288	38445.18
536.653	38687.66
537.019	38523.14
537.384	38691.72
537.749	38871.61
538.114	39027.08
538.479	39144.37
538.845	39266.62
539.21	39439.27
539.575	39715.42
539.94	39860.51
540.305	40000.16
540.67	39948.19
541.034	40187.28
541.399	40406.48
541.764	40463.88
542.129	40542.52
542.494	40706.36
542.858	40983.87
543.223	40968.27
543.587	41147.48
543.952	41126.24
544.316	41353.12
544.681	41423.18
545.045	41730.51
545.41	41785.88
545.774	42000.34
546.138	42026.55
546.503	42226.09
546.867	42184.74
547.231	42551.73
547.595	42545.63
547.959	42579.3
548.324	42767.32
548.688	43012.29
549.052	43131.61
549.416	43209.34
549.779	43352.62
550.143	43375.67
550.507	43769.56
550.871	43866.73
551.235	43960.51
551.599	44322.08
551.962	44228.98
552.326	44370.67
552.689	44665.13
553.053	44601.85
553.417	44772.01
553.78	45233.25
554.143	45089.07
554.507	45299.68
554.87	45467.82
555.234	45907.58
555.597	45538.77
555.96	45759.79
556.323	46004.75
556.686	46079.1
557.05	46454.91
557.413	46437.73
557.776	46532.65
558.139	46974.67
558.502	47006.98
558.865	47116.36
559.228	47339.86
559.59	47507.76
559.953	47579.17
560.316	48005.38
560.679	48074.75
561.041	48245.6
561.404	48438.59
561.767	48665.92
562.129	48638.81
562.492	49006.03
562.854	48896.43
563.217	49027.04
563.579	49236.3
563.941	49446.47
564.304	49637.2
564.666	49740.02
565.028	49831.99
565.39	49970.3
565.753	50287.8
566.115	50361.25
566.477	50519.66
566.839	50612.31
567.201	50777.51
567.563	50900.89
567.925	51038.29
568.287	51137.5
568.648	51208.91
569.01	51388.34
569.372	51622.91
569.734	51491.16
570.095	51746.97
570.457	51860.64
570.819	51967.53
571.18	51943.58
571.542	52144.02
571.903	52282.55
572.265	52275.32
572.626	52459.95
572.987	52534.3
573.349	52635.54
573.71	52758.92
574.071	52768.87
574.432	52881.18
574.794	53181.06
575.155	53017.45
575.516	53036.66
575.877	53132.92
576.238	53169.08
576.599	53334.05
576.96	53428.96
577.32	53432.8
577.681	53476.42
578.042	53687.94
578.403	53733.36
578.763	53738.78
579.124	53779.01
579.485	53815.62
579.845	53870.76
580.206	53801.61
580.566	53885.22
580.927	53957.99
581.287	54055.61
581.648	53944.66
582.008	54065.1
582.368	54000.7
582.728	54034.82
583.089	54086.8
583.449	53984.2
583.809	54110.07
584.169	54153.01
584.529	54059.68
584.889	54227.36
585.249	54160.24
585.609	53943.07
585.969	54243.18
586.329	54044.77
586.688	54254.25
587.048	54096.52
587.408	54159.56
587.768	54140.58
588.127	54157.3
588.487	54125.22
588.846	54301.93
589.206	54169.51
589.565	54151.2
589.925	54291.09
590.284	54273.69
590.643	54365.89
591.003	54352.55
591.362	54408.37
591.721	54337.41
592.08	54308.04
592.44	54422.16
592.799	54463.96
593.158	54301.93
593.517	54413.12
593.876	54388.71
594.235	54360.92
594.593	54511.42
594.952	54495.15
595.311	54430.74
595.67	54538.09
596.029	54645.65
596.387	54644.07
596.746	54576.28
597.104	54527.46
597.463	54547.58
597.822	54717.29
598.18	54556.62
598.538	54552.32
598.897	54730.85
599.255	54494.02
599.613	54933.33
599.972	54782.15
600.33	54764.52
600.688	54684.75
601.046	54830.51
601.404	55038.19
601.762	54836.83
602.12	54937.17
602.478	55001.35
602.836	55061.46
603.194	54875.7
603.552	54864.63
603.91	54935.14
604.268	55077.96
604.625	54935.82
604.983	55081.35
605.341	54998.64
605.698	55216.71
606.056	55256.71
606.413	55108.92
606.771	55223.94
607.128	55254.9
607.485	55184.17
607.843	55227.33
608.2	55337.61
608.557	55490.6
608.914	55325.18
609.272	55493.99
609.629	55501.68
609.986	55563.37
610.343	55492.64
610.7	55625.29
611.057	55666.87
611.414	55633.2
611.771	55625.51
612.127	55719.52
612.484	55630.94
612.841	55815.34
613.198	55789.58
613.554	55725.4
613.911	55825.06
614.267	55863.47
614.624	55830.93
614.98	55915
615.337	56098.27
615.693	55918.39
616.05	55877.94
616.406	55990.02
616.762	56032.74
617.118	56050.59
617.475	56055.33
617.831	56122.9
618.187	56154.54
618.543	56129.91
618.899	56267.08
619.255	56184.37
619.611	56233.86
619.967	56255.1
620.323	56266.18
620.678	56183.01
621.034	56167.65
621.39	56179.85
621.746	56158.83
622.101	56473.85
622.457	56230.7
622.812	56277.93
623.168	56337.81
623.523	56262.79
623.879	56423.46
624.234	56264.59
624.589	56324.48
624.945	56320.86
625.3	56403.35
625.655	56241.09
626.01	56299.17
626.365	56316.8
626.72	56280.64
627.075	56326.29
627.43	56219.62
627.785	56197.25
628.14	56213.75
628.495	56185.95
628.85	56232.05
629.205	56073.64
629.559	56274.09
629.914	56161.09
630.269	56218.49
630.623	56100.98
630.978	56023.02
631.332	56100.3
631.687	56192.96
632.041	56039.74
632.396	56063.47
632.75	55983.7
633.104	56001.78
633.459	55909.35
633.813	55880.2
634.167	55818.05
634.521	55852.4
634.875	55950.25
635.229	55833.64
635.583	55753.87
635.937	55696.25
636.291	55709.13
636.645	55706.19
636.999	55606.76
637.352	55630.71
637.706	55544.39
638.06	55639.07
638.413	55510.94
638.767	55469.13
639.121	55530.6
639.474	55396.37
639.828	55302.59
640.181	55375.58
640.534	55438.18
640.888	55371.28
641.241	55177.84
641.594	55233.43
641.947	55245.41
642.301	55135.81
642.654	55196.83
643.007	55236.82
643.36	55124.51
643.713	55115.02
644.066	55180.33
644.419	54937.17
644.771	54727.69
645.124	54508.71
645.477	54443.4
645.83	54270.52
646.182	54051.09
646.535	53986.69
646.888	54047.03
647.24	53930.19
647.593	54082.05
647.945	54003.64
648.298	53785.11
648.65	53638.45
649.002	53560.94
649.355	53789.86
649.707	53725.9
650.059	53835.51
650.411	54243.63
650.763	54236.85
651.115	54477.75
651.467	54360.69
651.819	54387.81
652.171	54283.63
652.523	54141.49
652.875	54188.94
653.227	54004.77
653.578	54280.92
653.93	54165.21
654.282	53952.79
654.633	53955.95
654.985	53962.73
655.337	53995.95
655.688	54007.25
656.039	54075.5
656.391	53805
656.742	53913.92
657.094	53864.21
657.445	53984.43
657.796	53923.86
658.147	53865.34
658.498	53822.17
658.849	53896.07
659.2	53797.09
659.551	53759.12
659.902	53889.97
660.253	53812
660.604	53795.28
660.955	53689.52
661.306	53727.71
661.656	53684.32
662.007	53724.32
662.358	53707.15
662.708	53686.36
663.059	53586.7
663.409	53371.56
663.76	53595.29
664.11	53611.56
664.461	53555.06
664.811	53560.48
665.161	53570.65
665.511	53492.92
665.862	53562.74
666.212	53635.74
666.562	53592.12
666.912	53569.3
667.262	53430.77
667.612	53578.11
667.962	53556.19
668.312	53439.58
668.662	53492.69
669.011	53421.28
669.361	53394.61
669.711	53418.79
670.06	53302.41
670.41	53277.55
670.76	53180.38
671.109	53342.19
671.459	53353.94
671.808	53285.46
672.157	53289.53
672.507	53105.13
672.856	53188.97
673.205	53183.09
673.554	53241.62
673.904	53180.16
674.253	53253.15
674.602	53111.68
674.951	52752.82
675.3	52595.31
675.649	53025.13
675.998	52995.98
676.346	53007.96
676.695	53112.59
677.044	52821.07
677.393	53027.17
677.741	53024.23
678.09	52855.19
678.438	52819.71
678.787	52800.5
679.135	52836.21
679.484	52675.99
679.832	52790.79
680.181	52541.75
680.529	52668.3
680.877	52538.59
681.225	52460.17
681.573	52644.8
681.922	52488.2
682.27	52367.3
682.618	52338.82
682.966	52392.61
683.314	52327.52
683.661	52247.3
684.009	52067.42
684.357	52022.9
684.705	51961.66
685.053	52049.11
685.4	51979.51
685.748	51774.32
686.095	51784.03
686.443	51554.44
686.79	51453.65
687.138	51653.42
687.485	51637.37
687.832	51447.55
688.18	51549.01
688.527	51310.83
688.874	51294.33
689.221	51234.9
689.568	51021.79
689.915	51079.65
690.262	50975.92
690.609	50888.92
690.956	50724.63
691.303	50775.92
691.65	50553.56
691.997	50519.89
692.344	50442.15
692.69	50427.01
693.037	50420.91
693.383	50075.83
693.73	50256.62
694.077	50026.57
694.423	50039.22
694.769	49852.79
695.116	49802.84
695.462	49783.86
695.808	49724.43
696.155	49817.76
696.501	49420.71
696.847	49493.02
697.193	49171.9
697.539	49347.49
697.885	49090.32
698.231	48900.49
698.577	48905.69
698.923	48807.61
699.269	48632.48
699.614	48369.43
699.96	48390.45
700.306	48388.42
700.651	48233.84
700.997	48215.09
701.342	47862.78
701.688	47967.41
702.033	47848.77
702.379	47816.91
702.724	47729.9
703.069	47818.04
703.415	47370.14
703.76	47389.57
704.105	47297.6
704.45	47153.2
704.795	46944.39
705.14	46855.8
705.485	46917.72
705.83	46723.6
706.175	46649.03
706.52	46563.15
706.865	46418.75
707.209	46511.63
707.554	46311.64
707.899	46333.78
708.243	46119.1
708.588	46094.24
708.932	45876.39
709.277	45737.87
709.621	45910.06
709.966	45493.35
710.31	45598.21
710.654	45246.8
710.998	45435.05
711.342	45409.06
711.687	45172.46
712.031	45179.91
712.375	44832.35
712.719	45012.01
713.063	44898.34
713.407	45045.45
713.75	44608.86
714.094	44793.71
714.438	44527.05
714.782	44564.79
715.125	44451.12
715.469	44392.59
715.812	44076.89
716.156	43908.53
716.499	43947.86
716.843	43878.48
717.186	43718.48
717.53	43943.56
717.873	43840.29
718.216	43803
718.559	43557.81
718.902	43432.84
719.246	43653.4
719.589	43463.12
719.932	43241.89
720.275	43257.25
720.617	43150.14
720.96	43047.77
721.303	43028.56
721.646	43028.33
721.989	42730.71
722.331	42902.23
722.674	42789.47
723.016	42748.11
723.359	42678.06
723.701	42666.76
724.044	42286.43
724.386	42214.12
724.729	42308.35
725.071	42155.59
725.413	42184.06
725.755	42112.42
726.097	41940.9
726.439	41726.22
726.782	41739.55
727.124	41947.23
727.465	41599.22
727.807	41701.36
728.149	41621.82
728.491	41363.29
728.833	41545.66
729.175	41428.37
729.516	41282.84
729.858	41307.7
730.199	41259.34
730.541	41122.85
730.882	41146.57
731.224	41277.87
731.565	40890.99
731.906	40950.65
732.248	40908.39
732.589	40735.51
732.93	40548.85
733.271	40670.88
733.612	40671.56
733.953	40632.24
734.294	40458.68
734.635	40428.4
734.976	40441.96
735.317	40257.33
735.658	40189.76
735.999	40245.35
736.339	39993.38
736.68	40233.15
737.021	40042.42
737.361	39889.43
737.702	40182.53
738.042	39801.52
738.383	39745.71
738.723	39886.49
739.063	39683.56
739.404	39777.34
739.744	39570.34
740.084	39439.5
740.424	39578.71
740.764	39319.05
741.104	39460.97
741.444	39290.13
741.784	39021.21
742.124	39143.91
742.464	39019.17
742.804	38967.42
743.143	38907.99
743.483	38992.05
743.823	38705.51
744.162	38679.29
744.502	38749.8
744.841	38483.59
745.181	38729.46
745.52	38588
745.86	38479.52
746.199	38334.44
746.538	38298.29
746.877	38366.08
747.216	38311.17
747.556	38066.43
747.895	38018.75
748.234	38018.07
748.573	37827.56
748.911	37880.44
749.25	37716.16
749.589	37745.31
749.928	37677.06
750.267	37651.52
750.605	37479.33
750.944	37360.46
751.283	37343.96
751.621	37326.56
751.96	37033.24
752.298	37138.09
752.636	37096.06
752.975	36946.91
753.313	36830.3
753.651	36968.6
753.989	36765.67
754.327	36750.76
754.666	36471.22
755.004	36667.14
755.342	36596.41
755.679	36521.84
756.017	36306.7
756.355	36297.44
756.693	36169.53
757.031	36167.27
757.368	35882.53
757.706	35874.85
758.044	35887.28
758.381	35759.37
758.719	35560.96
759.056	35674.17
759.394	35482.54
759.731	35292.49
760.068	35295.43
760.405	35008.43
760.743	34827.64
761.08	35116.9
761.417	34751.26
761.754	34724.6
762.091	34711.26
762.428	34594.43
762.765	34459.07
763.102	34640.53
763.438	34226.3
763.775	34034.22
764.112	33963.71
764.449	33977.72
764.785	33816.6
765.122	33600.56
765.458	33591.74
765.795	33480.11
766.131	33439.88
766.467	33232.43
766.804	33065.66
767.14	33047.35
767.476	33012.1
767.812	32842.16
768.148	32943.63
768.485	32547.03
768.821	32478.33
769.157	32420.48
769.492	32355.17
769.828	32279.01
770.164	32088.51
770.5	32018.45
770.836	31920.83
771.171	31606.49
771.507	31698.91
771.842	31511.12
772.178	31501.4
772.513	31383.44
772.849	31310
773.184	31228.87
773.519	31187.29
773.855	30948.42
774.19	30793.4
774.525	30687.41
774.86	30617.81
775.195	30604.25
775.53	30507.98
775.865	30232.06
776.2	30050.37
776.535	29935.79
776.87	30136.02
777.205	29930.15
777.539	29595.46
777.874	29722.69
778.209	29486.54
778.543	29476.6
778.878	29169.94
779.212	29201.8
779.547	29002.03
779.881	29152.31
780.215	28905.99
780.55	28887.46
780.884	28741.02
781.218	28606.34
781.552	28615.6
781.886	28456.29
782.22	28349.85
782.554	28193.02
782.888	27834.83
783.222	27830.54
783.556	27848.17
783.889	27757.1
784.223	27590.09
784.557	27545.12
784.89	27567.27
785.224	27361.85
785.557	27184.68
785.891	27174.06
786.224	26947.62
786.558	27020.84
786.891	26812.49
787.224	26680.97
787.557	26635.99
787.891	26482.33
788.224	26573.4
788.557	26424.7
788.89	26396
789.223	26399.84
789.556	26132.05
789.888	26069.46
790.221	25977.25
790.554	25754.44
790.887	25768.45
791.219	25616.59
791.552	25581.33
791.884	25476.7
792.217	25419.53
792.549	25358.51
792.882	25302.7
793.214	25139.76
793.546	25063.61
793.879	24957.85
794.211	24704.07
794.543	24891.63
794.875	24697.06
795.207	24761.69
795.539	24622.26
795.871	24482.83
796.203	24387.24
796.535	24366
796.867	24304.76
797.198	24154.25
797.53	24118.32
797.862	23957.65
798.193	23940.7
798.525	23862.06
798.856	23863.86
799.188	23513.82
799.519	23519.47
799.85	23300.72
800.182	23492.8
800.513	23609.41
800.844	23220.49
801.175	23376.19
801.506	23285.8
801.837	23078.12
802.168	23072.47
802.499	22991.34
802.83	22789.99
803.161	22820.73
803.491	22685.36
803.822	22830.67
804.153	22520.17
804.483	22373.51
804.814	22403.56
805.145	22369.21
805.475	22268.2
805.805	22237.24
806.136	22216.68
806.466	22174.64
806.796	22124.25
807.126	22012.61
807.457	22016.46
807.787	21891.49
808.117	21672.96
808.447	21750.02
808.777	21694.43
809.107	21536.24
809.436	21635.22
809.766	21625.5
810.096	21513.87
810.426	21289.92
810.755	21415.57
811.085	21326.98
811.414	21235.68
811.744	21053.09
812.073	21039.98
812.403	20963.6
812.732	20950.49
813.061	20846.54
813.39	20831.85
813.719	20799.09
814.049	20847.9
814.378	20730.61
814.707	20674.34
815.036	20581.24
815.365	20520
815.693	20293.56
816.022	20415.37
816.351	20348.25
816.68	20209.72
817.008	20313.9
817.337	20161.59
817.665	20114.36
817.994	20106.45
818.322	20140.8
818.651	20032.1
818.979	19936.28
819.307	19975.6
819.636	19895.15
819.964	19723.86
820.292	19886.57
820.62	19750.75
820.948	19593.24
821.276	19750.07
821.604	19692.22
821.932	19842.73
822.259	19626.24
822.587	19713.01
822.915	19658.55
823.243	19732.9
823.57	19647.93
823.898	19607.93
824.225	19542.4
824.553	19557.99
824.88	19586.01
825.207	19610.87
825.535	19490.19
825.862	19652
826.189	19571.32
826.516	19622.85
826.843	19728.83
827.17	19692.22
827.497	19630.3
827.824	19619.68
828.151	19585.11
828.478	19534.94
828.805	19547.37
829.131	19648.38
829.458	19436.86
829.785	19379.46
830.111	19464.66
830.438	19598.67
830.764	19583.75
831.09	19429.63
831.417	19402.74
831.743	19455.39
832.069	19513.92
832.395	19405.9
832.722	19426.01
833.048	19357.32
833.374	19420.37
833.7	19211.56
834.026	19303.53
834.351	19355.73
834.677	19160.48
835.003	19309.63
835.329	19338.33
835.654	19175.63
835.98	19113.71
836.306	19155.29
836.631	19099.24
836.956	19143.76
837.282	19071.45
837.607	19017.89
837.932	18916.65
838.258	19040.26
838.583	18912.36
838.908	18870.55
839.233	18845.92
839.558	18811.34
839.883	18740.38
840.208	18829.19
840.533	18755.75
840.858	18692.25
841.182	18771.57
841.507	18669.42
841.832	18597.56
842.156	18591.91
842.481	18615.41
842.805	18547.62
843.13	18354.63
843.454	18292.03
843.778	18301.98
844.103	18318.93
844.427	18294.52
844.751	18266.27
845.075	18181.98
845.399	18163.22
845.723	18065.37
846.047	18019.95
846.371	17892.95
846.695	17936.56
847.019	17721.2
847.343	17639.85
847.666	17517.36
847.99	17447.54
848.313	17445.73
848.637	17331.15
848.96	17379.29
849.284	17307.88
849.607	17169.12
849.931	17114.89
850.254	16941.11
850.577	16912.41
850.9	16779.53
851.223	16802.35
851.546	16699.53
851.869	16629.7
852.192	16731.85
852.515	16583.38
852.838	16514.68
853.161	16483.04
853.483	16362.59
853.806	16363.95
854.129	16291.63
854.451	16260
854.774	16209.15
855.096	16015.71
855.419	16104.29
855.741	16072.43
856.063	15933.23
856.385	15876.28
856.708	15888.25
857.03	15887.58
857.352	15729.16
857.674	15709.5
857.996	15603.74
858.318	15512.9
858.64	15545.89
858.961	15520.81
859.283	15481.26
859.605	15361.49
859.926	15365.78
860.248	15237.88
860.57	15258.67
860.891	15360.36
861.212	15240.14
861.534	15104.32
861.855	15183.64
862.176	15153.36
862.498	15157.43
862.819	15099.12
863.14	15062.06
863.461	15023.64
863.782	14951.33
864.103	14947.49
864.424	14925.57
864.745	14952.23
865.065	14829.53
865.386	14754.27
865.707	14810.99
866.027	14804.44
866.348	14777.55
866.668	14834.5
866.989	14645.12
867.309	14590.66
867.63	14582.53
867.95	14620.72
868.27	14580.94
868.59	14554.05
868.91	14574.62
869.23	14546.14
869.55	14540.49
869.87	14583.66
870.19	14469.31
870.51	14476.99
870.83	14416.43
871.15	14328.97
871.469	14281.74
871.789	14299.37
872.109	14343.66
872.428	14197.68
872.748	14153.61
873.067	14237.22
873.386	14164.46
873.706	14235.19
874.025	14088.53
874.344	14084.46
874.663	14149.54
874.982	14061.18
875.301	13956.55
875.62	14034.97
875.939	13982.54
876.258	13942.77
876.577	13892.15
876.896	13879.49
877.214	13823
877.533	13890.12
877.852	13841.53
878.17	13869.32
878.489	13812.6
878.807	13754.75
879.125	13698.93
879.444	13738.03
879.762	13705.71
880.08	13694.41
880.398	13648.77
880.716	13619.84
881.034	13650.35
881.352	13624.13
881.67	13540.75
881.988	13557.02
882.306	13583.46
882.624	13429.56
882.941	13388.21
883.259	13350.02
883.577	13317.7
883.894	13287.87
884.212	13269.79
884.529	13250.13
884.846	13186.63
885.164	13122.68
885.481	13069.8
885.798	13182.11
886.115	13029.35
886.432	13131.94
886.75	13006.97
887.067	13006.75
887.383	12939.63
887.7	12984.6
888.017	12951.38
888.334	12917.49
888.651	12818.28
888.967	12787.32
889.284	12728.79
889.6	12772.63
889.917	12670.71
890.233	12714.55
890.55	12619.19
890.866	12638.4
891.182	12545.07
891.498	12504.39
891.815	12485.63
892.131	12460.55
892.447	12351.85
892.763	12378.52
893.079	12394.56
893.395	12310.95
893.71	12209.71
894.026	12190.05
894.342	12185.75
894.657	12061.91
894.973	12107.11
895.289	12052.2
895.604	12059.43
895.92	11928.36
896.235	11922.26
896.55	11835.25
896.865	11854.24
897.181	11798.87
897.496	11863.5
897.811	11781.7
898.126	11770.62
898.441	11656.73
898.756	11654.02
899.071	11590.74
899.386	11573.34
899.7	11510.74
900.015	11501.7
900.33	11404.3
900.644	11411.54
900.959	11310.75
901.273	11358.43
901.588	11284.31
901.902	11136.29
902.216	11161.15
902.531	11147.59
902.845	11024.65
903.159	11034.14
903.473	10949.85
903.787	10895.17
904.101	10899.69
904.415	10875.05
904.729	10766.58
905.042	10753.93
905.356	10746.24
905.67	10655.4
905.984	10724.77
906.297	10716.87
906.611	10603.65
906.924	10602.29
907.237	10488.4
907.551	10537.43
907.864	10449.75
908.177	10447.49
908.491	10353.94
908.804	10356.42
909.117	10236.88
909.43	10144.68
909.743	10193.72
910.056	10108.75
910.368	10121.63
910.681	10052.48
910.994	10077.79
911.307	9999.14
911.619	9878.02
911.932	9962.08
912.244	9825.36
912.557	9835.76
912.869	9806.61
913.181	9744.91
913.494	9728.87
913.806	9690.68
914.118	9600.06
914.43	9522.32
914.742	9587.4
915.054	9497.91
915.366	9428.99
915.678	9407.52
915.99	9413.62
916.302	9323.23
916.613	9277.58
916.925	9247.98
917.236	9235.55
917.548	9171.14
917.859	9229.45
918.171	9073.29
918.482	9072.39
918.794	9037.14
919.105	8984.48
919.416	8843.02
919.727	8806.18
920.038	8919.62
920.349	8801.44
920.66	8763.92
920.971	8758.05
921.282	8730.25
921.593	8628.33
921.903	8599.18
922.214	8600.31
922.525	8618.62
922.835	8537.49
923.146	8528.67
923.456	8486.87
923.767	8435.34
924.077	8464.95
924.387	8407.77
924.697	8326.65
925.008	8320.77
925.318	8201.23
925.628	8201.23
925.938	8185.41
926.248	8097.72
926.558	8055.92
926.867	8093.66
927.177	8071.28
927.487	7958.52
927.796	7926.88
928.106	7942.7
928.416	7862.48
928.725	7878.97
929.034	7772.76
929.344	7843.72
929.653	7737.06
929.962	7657.06
930.271	7660.67
930.581	7617.96
930.89	7588.13
931.199	7556.5
931.508	7464.52
931.817	7516.72
932.125	7471.53
932.434	7426.56
932.743	7383.17
933.051	7303.85
933.36	7309.95
933.669	7286.67
933.977	7240.35
934.286	7205.55
934.594	7180.46
934.902	7145.43
935.21	7140.46
935.519	7153.34
935.827	7078.77
936.135	7019.34
936.443	6968.49
936.751	6977.53
937.059	6920.13
937.367	6906.8
937.674	6907.25
937.982	6836.29
938.29	6875.16
938.597	6864.99
938.905	6761.49
939.213	6799.45
939.52	6744.09
939.827	6769.17
940.135	6681.04
940.442	6628.84
940.749	6613.47
941.056	6581.61
941.363	6579.8
941.67	6482.17
941.977	6523.3
942.284	6429.75
942.591	6435.4
942.898	6382.29
943.205	6395.85
943.511	6326.25
943.818	6273.59
944.125	6268.17
944.431	6253.71
944.738	6231.11
945.044	6192.46
945.35	6187.27
945.657	6169.19
945.963	6095.07
946.269	6102.3
946.575	6057.33
946.881	6046.03
947.187	6038.34
947.493	5993.83
947.799	6014.39
948.105	5978.01
948.41	5855.07
948.716	5892.81
949.022	5826.37
949.327	5881.29
949.633	5808.75
949.938	5765.36
950.244	5790.89
950.549	5740.27
950.854	5653.04
951.16	5659.82
951.465	5709.31
951.77	5639.94
952.075	5605.36
952.38	5540.73
952.685	5593.38
952.99	5535.31
953.294	5449.21
953.599	5475.87
953.904	5446.95
954.209	5407.63
954.513	5376.21
954.818	5387.29
955.122	5403.78
955.426	5327.85
955.731	5319.04
956.035	5234.75
956.339	5270
956.643	5242.43
956.948	5227.52
957.252	5182.1
957.556	5146.39
957.86	5146.16
958.163	5155.88
958.467	5128.99
958.771	5112.94
959.075	5017.35
959.378	5062.55
959.682	4978.03
959.985	4997.69
960.289	4988.43
960.592	4943.01
960.896	4939.62
961.199	4947.07
961.502	4895.32
961.805	4839.51
962.108	4816.23
962.411	4819.39
962.714	4757.02
963.017	4765.16
963.32	4754.08
963.623	4704.14
963.926	4721.54
964.228	4679.06
964.531	4672.05
964.833	4658.04
965.136	4623.92
965.438	4646.52
965.741	4609.46
966.043	4557.71
966.345	4561.09
966.648	4554.77
966.95	4562.22
967.252	4537.14
967.554	4501.44
967.856	4477.03
968.158	4443.13
968.46	4448.56
968.761	4388.9
969.063	4378.73
969.365	4321.55
969.666	4346.19
969.968	4304.38
970.269	4309.58
970.571	4264.15
970.872	4251.72
971.174	4194.32
971.475	4219.86
971.776	4148.22
972.077	4136.25
972.378	4119.52
972.679	4170.6
972.98	4114.78
973.281	4069.58
973.582	4079.53
973.883	4036.14
974.183	4087.21
974.484	4013.31
974.785	3979.19
975.085	4008.11
975.386	3994.1
975.686	3969.02
975.986	3958.4
976.287	3910.72
976.587	3905.29
976.887	3855.12
977.187	3845.63
977.487	3869.59
977.787	3879.76
978.087	3805.18
978.387	3769.48
978.687	3759.76
978.987	3763.6
979.286	3746.65
979.586	3754.79
979.885	3669.82
980.185	3664.85
980.484	3693.09
980.784	3693.55
981.083	3627.33
981.382	3618.97
981.682	3612.19
981.981	3616.94
982.28	3597.96
982.579	3543.49
982.878	3553.66
983.177	3526.32
983.475	3555.47
983.774	3492.42
984.073	3473.89
984.372	3499.43
984.67	3475.47
984.969	3466.89
985.267	3439.77
985.566	3382.59
985.864	3391.86
986.162	3371.75
986.461	3357.51
986.759	3345.08
987.057	3304.63
987.355	3314.12
987.653	3291.3
987.951	3271.41
988.249	3244.75
988.547	3226.67
988.844	3254.46
989.142	3201.81
989.44	3254.24
989.737	3169.49
990.035	3178.98
990.332	3128.36
990.63	3150.28
990.927	3137.63
991.224	3118.87
991.521	3125.65
991.819	3110.06
992.116	3104.86
992.413	3061.25
992.71	3051.53
993.006	2988.25
993.303	3019.44
993.6	2989.16
993.897	2961.81
994.193	2976.73
994.49	2949.39
994.787	2959.33
995.083	2911.65
995.379	2915.94
995.676	2925.21
995.972	2873.68
996.268	2854.7
996.565	2828.71
996.861	2818.32
997.157	2821.93
997.453	2777.19
997.749	2767.02
998.044	2774.02
998.34	2734.02
998.636	2761.59
998.932	2701.26
999.227	2721.14
999.523	2717.3
999.818	2706.68
1000.114	2636.85
1000.409	2632.56
1000.704	2642.05
1001	2610.64
1001.295	2624.42
1001.59	2612.9
1001.885	2596.17
1002.18	2561.15
1002.475	2573.12
1002.77	2565.67
1003.065	2541.26
1003.359	2534.03
1003.654	2510.53
1003.949	2493.58
1004.243	2447.25
1004.538	2459.23
1004.832	2444.09
1005.127	2380.14
1005.421	2414.48
1005.715	2410.64
1006.009	2390.53
1006.304	2368.38
1006.598	2367.25
1006.892	2383.52
1007.186	2327.71
1007.48	2292.45
1007.773	2297.88
1008.067	2287.71
1008.361	2297.43
1008.655	2272.12
1008.948	2305.56
1009.242	2233.47
1009.535	2231.89
1009.829	2207.71
1010.122	2201.61
1010.415	2162.06
1010.708	2200.25
1011.001	2141.72
1011.295	2147.6
1011.588	2153.47
1011.881	2160.93
1012.173	2111.67
1012.466	2080.03
1012.759	2100.82
1013.052	2080.48
1013.344	2038.22
1013.637	2073.25
1013.93	2038.68
1014.222	2035.96
1014.514	2020.6
1014.807	1995.96
1015.099	2001.39
1015.391	1993.03
1015.683	2005.68
1015.976	1956.64
1016.268	1911.67
1016.56	1920.71
1016.851	1919.81
1017.143	1902.63
1017.435	1876.42
1017.727	1875.29
1018.018	1868.28
1018.31	1852.92
1018.602	1843.88
1018.893	1829.87
1019.185	1814.73
1019.476	1769.08
1019.767	1773.37
1020.058	1775.86
1020.35	1739.93
1020.641	1755.97
1020.932	1743.54
1021.223	1708.74
1021.514	1728.17
1021.804	1701.28
1022.095	1694.73
1022.386	1668.74
1022.677	1678.68
1022.967	1662.87
1023.258	1651.79
1023.548	1645.24
1023.839	1607.73
1024.129	1645.01
1024.419	1650.21
1024.709	1594.62
1025	1590.78
1025.29	1582.42
1025.58	1552.81
1025.87	1535.64
1026.16	1543.55
1026.449	1526.37
1026.739	1530.67
1027.029	1519.37
1027.319	1523.43
1027.608	1456.77
1027.898	1471.01
1028.187	1469.2
1028.477	1452.7
1028.766	1465.13
1029.055	1422.87
1029.344	1419.48
1029.634	1421.29
1029.923	1440.05
1030.212	1398.92
1030.501	1374.06
1030.79	1371.8
1031.078	1392.14
1031.367	1360.95
1031.656	1338.35
1031.945	1334.51
1032.233	1337.9
1032.522	1341.97
1032.81	1327.73
1033.099	1310.33
1033.387	1295.64
1033.675	1273.95
1033.963	1267.62
1034.251	1288.19
1034.54	1259.71
1034.828	1269.2
1035.116	1248.87
1035.403	1254.97
1035.691	1211.58
1035.979	1233.5
1036.267	1179.26
1036.554	1214.29
1036.842	1223.33
1037.129	1160.73
1037.417	1197.34
1037.704	1193.27
1037.992	1156.21
1038.279	1154.63
1038.566	1151.24
1038.853	1151.24
1039.14	1151.24
