Data from plate_porcelain_FLMS001491_046.txt Node
Date: Tue Feb 07 11:19:23 GMT 2017
User: dcchb
Spectrometer: FLMS00149
Trigger mode: 0
Integration Time (sec): 2.000000E-2
Scans to average: 10
Electric dark correction enabled: true
Nonlinearity correction enabled: false
Boxcar width: 0
XAxis mode: Wavelengths
Number of Pixels in Spectrum: 2048
>>>>>Begin Spectral Data<<<<<
341.393	-26.5
341.776	-26.5
342.16	-26.5
342.543	-40.28
342.927	-66.04
343.31	-72.82
343.693	-68.08
344.077	-41.41
344.46	-74.63
344.843	-66.95
345.226	-36.21
345.61	-24.91
345.993	-10.68
346.376	2.2
346.759	29.55
347.142	33.39
347.525	36.55
347.908	61.86
348.291	58.02
348.674	80.62
349.057	93.5
349.44	110.45
349.823	138.02
350.206	162.2
350.588	228.64
350.971	229.09
351.354	270.9
351.737	279.48
352.119	281.52
352.502	311.8
352.884	310.67
353.267	318.13
353.65	319.94
354.032	336.43
354.414	354.74
354.797	346.38
355.179	365.13
355.562	380.05
355.944	366.26
356.326	399.03
356.709	382.31
357.091	391.35
357.473	395.19
357.855	406.49
358.238	390.22
358.62	390.67
359.002	375.07
359.384	396.32
359.766	419.82
360.148	386.37
360.53	377.11
360.912	398.58
361.294	387.05
361.676	397
362.057	387.96
362.439	398.8
362.821	396.54
363.203	392.25
363.584	409.42
363.966	377.11
364.348	382.98
364.729	374.4
365.111	377.56
365.493	373.72
365.874	381.85
366.256	380.95
366.637	390.89
367.019	402.87
367.4	386.83
367.781	417.11
368.163	407.16
368.544	418.24
368.925	399.48
369.306	428.63
369.688	392.7
370.069	407.39
370.45	428.86
370.831	420.95
371.212	417.79
371.593	407.62
371.974	418.92
372.355	402.42
372.736	431.12
373.117	423.89
373.498	415.07
373.879	429.31
374.26	425.24
374.641	418.01
375.021	423.21
375.402	460.5
375.783	452.14
376.163	459.37
376.544	491.23
376.925	448.29
377.305	460.27
377.686	425.24
378.066	475.86
378.447	451.46
378.827	478.12
379.208	475.41
379.588	481.96
379.968	485.13
380.349	487.16
380.729	490.55
381.109	505.01
381.489	512.7
381.87	480.16
382.25	522.64
382.63	516.31
383.01	517.44
383.39	539.14
383.77	520.38
384.15	534.17
384.53	509.08
384.91	536.65
385.29	535.07
385.67	536.65
386.049	549.76
386.429	572.36
386.809	583.88
387.189	564.22
387.568	594.05
387.948	611
388.328	610.55
388.707	609.87
389.087	611.23
389.466	624.79
389.846	623.66
390.225	617.55
390.605	634.28
390.984	664.56
391.363	640.38
391.743	657.1
392.122	666.82
392.501	677.67
392.881	674.28
393.26	704.78
393.639	699.81
394.018	704.78
394.397	719.25
394.776	742.97
395.155	728.96
395.534	731.9
395.913	735.52
396.292	734.61
396.671	756.08
397.05	785.23
397.429	762.41
397.808	761.96
398.186	788.62
398.565	810.54
398.944	793.82
399.323	802.63
399.701	817.1
400.08	808.96
400.458	815.06
400.837	845.12
401.215	859.81
401.594	857.1
401.972	873.82
402.351	888.06
402.729	891.45
403.107	905.68
403.486	911.56
403.864	895.51
404.242	933.7
404.62	938.68
404.999	953.14
405.377	951.1
405.755	992.01
406.133	989.97
406.511	971.22
406.889	1001.5
407.267	1058.9
407.645	1050.99
408.023	1057.99
408.401	1111.33
408.779	1079.69
409.156	1103.87
409.534	1108.16
409.912	1121.04
410.29	1128.5
410.667	1153.81
411.045	1188.84
411.422	1203.08
411.8	1226.35
412.178	1245.33
412.555	1243.98
412.933	1260.7
413.31	1277.2
413.687	1278.1
414.065	1307.25
414.442	1308.84
414.819	1334.15
415.197	1372.79
415.574	1378.89
415.951	1364.88
416.328	1414.82
416.705	1427.02
417.082	1450.75
417.46	1460.7
417.837	1474.03
418.214	1489.62
418.591	1496.4
418.967	1541.82
419.344	1535.04
419.721	1551.32
420.098	1547.93
420.475	1579.79
420.852	1575.04
421.228	1617.3
421.605	1615.27
421.982	1666.34
422.358	1666.11
422.735	1698.66
423.111	1676.96
423.488	1714.93
423.864	1726.68
424.241	1751.99
424.617	1793.57
424.994	1781.14
425.37	1825.66
425.746	1843.96
426.123	1887.58
426.499	1895.26
426.875	1918.76
427.251	1935.49
427.627	1981.36
428.003	2022.94
428.379	2006.67
428.756	2057.97
429.132	2069.04
429.507	2109.72
429.883	2135.48
430.259	2148.81
430.635	2173.67
431.011	2216.38
431.387	2281.92
431.763	2306.55
432.138	2324.63
432.514	2354.46
432.89	2362.14
433.265	2436.94
433.641	2461.12
434.016	2480.78
434.392	2519.2
434.767	2574.11
435.143	2556.26
435.518	2587.67
435.894	2585.19
436.269	2687.78
436.644	2696.37
437.02	2735.69
437.395	2756.71
437.77	2814.56
438.145	2828.8
438.52	2847.78
438.895	2886.65
439.271	2885.52
439.646	2946.76
440.021	2982.24
440.395	3033.99
440.77	2977.94
441.145	3052.74
441.52	3058.39
441.895	3093.87
442.27	3138.39
442.645	3149.01
443.019	3158.96
443.394	3182.01
443.769	3246.86
444.143	3226.07
444.518	3258.84
444.892	3252.29
445.267	3295.9
445.641	3367.54
446.016	3353.98
446.39	3396.24
446.764	3416.8
447.139	3411.83
447.513	3488.67
447.887	3485.73
448.262	3488.67
448.636	3529.34
449.01	3576.57
449.384	3637.59
449.758	3652.5
450.132	3726.4
450.506	3671.26
450.88	3735.44
451.254	3694.99
451.628	3832.16
452.002	3859.73
452.376	3902.67
452.75	3901.08
453.123	3958.94
453.497	4014.3
453.871	4041.87
454.244	4173.62
454.618	4184.92
454.992	4238.7
455.365	4256.78
455.739	4365.03
456.112	4409.32
456.486	4454.74
456.859	4511.69
457.232	4638.24
457.606	4538.58
457.979	4662.87
458.352	4723.89
458.725	4810.66
459.099	4887.5
459.472	4921.85
459.845	4966.82
460.218	5026.48
460.591	5113.93
460.964	5096.31
461.337	5233.7
461.71	5346.92
462.083	5432.57
462.456	5418.78
462.829	5420.82
463.201	5539.23
463.574	5576.97
463.947	5637.76
464.32	5800.92
464.692	5807.02
465.065	5868.26
465.438	5957.3
465.81	6061.71
466.183	6122.27
466.555	6232.1
466.928	6293.34
467.3	6344.41
467.672	6443.39
468.045	6606.32
468.417	6592.76
468.789	6668.92
469.161	6771.74
469.534	6854.45
469.906	6990.04
470.278	7110.04
470.65	7166.31
471.022	7233.2
471.394	7467.54
471.766	7483.36
472.138	7647.88
472.51	7777.59
472.882	7837.25
473.253	7989.11
473.625	8126.96
473.997	8294.41
474.369	8323.57
474.74	8482.21
475.112	8603.11
475.484	8749.09
475.855	8984.57
476.227	8972.36
476.598	9281.06
476.97	9318.34
477.341	9543.87
477.713	9715.17
478.084	9737.09
478.455	10047.59
478.827	10128.26
479.198	10360.12
479.569	10372.78
479.94	10743.62
480.311	10888.24
480.682	11124.4
481.053	11396.48
481.424	11508.57
481.795	11612.52
482.166	11897.48
482.537	11928.9
482.908	12215.44
483.279	12403.01
483.65	12591.25
484.021	12903.11
484.391	13005.93
484.762	13141.07
485.133	13265.58
485.503	13473.04
485.874	13754.16
486.244	13937.2
486.615	14194.37
486.985	14383.07
487.356	14573.57
487.726	14726.34
488.097	15065.76
488.467	15123.61
488.837	15381.91
489.207	15570.61
489.578	15868.45
489.948	16065.74
490.318	16178.95
490.688	16199.52
491.058	16510.47
491.428	16800.86
491.798	16952.72
492.168	17306.16
492.538	17361.97
492.908	17612.59
493.278	17922.41
493.648	17942.52
494.017	18157.66
494.387	18344.09
494.757	18529.4
495.126	18691.43
495.496	18760.35
495.866	18866.11
496.235	19071.53
496.605	19278.31
496.974	19419.09
497.344	19665.19
497.713	19714
498.082	19888.46
498.452	20150.6
498.821	20262.46
499.19	20290.71
499.559	20527.09
499.928	20625.39
500.298	20819.74
500.667	21079.16
501.036	21099.73
501.405	21259.05
501.774	21401.41
502.143	21633.5
502.512	21679.15
502.88	21903.1
503.249	21960.72
503.618	22143.32
503.987	22155.07
504.356	22466.02
504.724	22529.29
505.093	22736.07
505.462	22870.75
505.83	22933.8
506.199	23179.45
506.567	23394.36
506.936	23451.53
507.304	23687.68
507.672	23799.77
508.041	23988.69
508.409	24201.34
508.777	24356.37
509.145	24571.05
509.514	24599.3
509.882	24924.26
510.25	24871.38
510.618	25110.24
510.986	25284.48
511.354	25517.24
511.722	25699.83
512.09	26014.17
512.458	25866.16
512.826	26123.78
513.193	26396.09
513.561	26533.94
513.929	26827.03
514.297	26968.5
514.664	27149.51
515.032	27297.76
515.4	27591.53
515.767	27648.71
516.135	27958.08
516.502	27816.61
516.869	28319.65
517.237	28376.6
517.604	28278.07
517.972	28777.04
518.339	28986.3
518.706	29068.56
519.073	29291.15
519.44	29579.05
519.808	29853.17
520.175	29893.85
520.542	30368.18
520.909	30494.28
521.276	30423.32
521.643	30799.13
522.009	31110.76
522.376	31332.9
522.743	31466.46
523.11	31884.3
523.477	32086.78
523.843	32309.15
524.21	32731.51
524.577	32836.82
524.943	32914.78
525.31	33180.31
525.676	33452.4
526.043	33718.15
526.409	33814.42
526.776	34237.46
527.142	34367.4
527.508	34685.13
527.874	34907.27
528.241	35034.05
528.607	35217.32
528.973	35617.54
529.339	35569.63
529.705	35996.29
530.071	36314.24
530.437	36515.14
530.803	36731.18
531.169	36852.31
531.535	36819.99
531.901	37072.42
532.267	37293.88
532.632	37479.18
532.998	37621.33
533.364	37905.61
533.73	38001.88
534.095	38380.86
534.461	38464.24
534.826	38767.96
535.192	38730.68
535.557	39124.34
535.923	39097.9
536.288	39275.07
536.653	39571.78
537.019	39430.77
537.384	39599.58
537.749	39795.51
538.114	39909.4
538.479	40170.86
538.845	40211.09
539.21	40186.91
539.575	40465.32
539.94	40594.36
540.305	40828.47
540.67	40802.03
541.034	41159.99
541.399	41270.27
541.764	41327.67
542.129	41549.59
542.494	41588.23
542.858	41842.23
543.223	41903.25
543.587	42025.51
543.952	42051.04
544.316	42343.69
544.681	42388.21
545.045	42572.84
545.41	42697.8
545.774	42879.04
546.138	42857.8
546.503	43030
546.867	43067.29
547.231	43473.38
547.595	43586.14
547.959	43724.22
548.324	43873.59
548.688	43881.95
549.052	44033.14
549.416	44121.27
549.779	44253.02
550.143	44452.33
550.507	44631.54
550.871	44660.46
551.235	44672.67
551.599	45089.38
551.962	45182.26
552.326	45233.1
552.689	45543.15
553.053	45494.34
553.417	45591.97
553.78	46127.32
554.143	45986.98
554.507	46288.22
554.87	46300.2
555.234	46640.3
555.597	46588.55
555.96	46802.78
556.323	46997.58
556.686	46929.33
557.05	47350.11
557.413	47358.47
557.776	47623.78
558.139	47803.43
558.502	47896.31
558.865	48023.99
559.228	48245.45
559.59	48420.14
559.953	48466.47
560.316	48891.99
560.679	48795.27
561.041	49150.74
561.404	49355.26
561.767	49536.27
562.129	49344.41
562.492	49874.34
562.854	49926.77
563.217	49846.32
563.579	49999.08
563.941	50370.37
564.304	50482.68
564.666	50753.64
565.028	50708.89
565.39	50816.69
565.753	51110.46
566.115	51137.36
566.477	51252.16
566.839	51328.76
567.201	51597.46
567.563	51635.42
567.925	51868.64
568.287	51930.33
568.648	51973.04
569.01	52214.39
569.372	52293.03
569.734	52203.77
570.095	52554.04
570.457	52676.07
570.819	52680.37
571.18	52726.24
571.542	52941.6
571.903	52926.01
572.265	53034.71
572.626	53221.14
572.987	53281.93
573.349	53365.55
573.71	53449.84
574.071	53535.94
574.432	53547.46
574.794	53820.68
575.155	53798.08
575.516	53742.94
575.877	53885.98
576.238	53918.98
576.599	54086.43
576.96	54045.75
577.32	54113.32
577.681	54144.06
578.042	54283.26
578.403	54307.22
578.763	54362.36
579.124	54358.97
579.485	54488.45
579.845	54479.87
580.206	54525.06
580.566	54498.85
580.927	54615.91
581.287	54615.23
581.648	54542.01
582.008	54734.55
582.368	54644.38
582.728	54680.09
583.089	54728.22
583.449	54669.69
583.809	54769.12
584.169	54841.89
584.529	54789.24
584.889	54941.32
585.249	54706.08
585.609	54739.75
585.969	54845.96
586.329	54731.39
586.688	54814.55
587.048	54815.68
587.408	54781.55
587.768	54787.43
588.127	54697.26
588.487	54784.72
588.846	54855.22
589.206	54805.28
589.565	54878.95
589.925	54968.44
590.284	54932.74
590.643	54967.99
591.003	55038.72
591.362	55055.45
591.721	54968.67
592.08	55022.68
592.44	55165.05
592.799	55096.12
593.158	55094.54
593.517	55054.77
593.876	55026.97
594.235	55024.26
594.593	55092.73
594.952	55191.94
595.311	55143.13
595.67	55126.86
596.029	55184.26
596.387	55217.25
596.746	55313.52
597.104	55097.03
597.463	55165.5
597.822	55259.51
598.18	55142.67
598.538	55191.03
598.897	55359.84
599.255	55182.67
599.613	55569.1
599.972	55335.89
600.33	55398.71
600.688	55290.92
601.046	55453.17
601.404	55600.97
601.762	55460.41
602.12	55617.92
602.478	55639.38
602.836	55666.05
603.194	55497.47
603.552	55521.2
603.91	55510.57
604.268	55654.3
604.625	55625.37
604.983	55746.95
605.341	55602.1
605.698	55794.63
606.056	55803.45
606.413	55753.51
606.771	55844.12
607.128	55962.31
607.485	55804.58
607.843	55786.27
608.2	55988.75
608.557	56039.6
608.914	55922.99
609.272	56068.53
609.629	56114.4
609.986	56143.55
610.343	56059.71
610.7	56256.32
611.057	56238.92
611.414	56214.96
611.771	56251.35
612.127	56360.27
612.484	56336.54
612.841	56406.82
613.198	56259.26
613.554	56355.52
613.911	56522.07
614.267	56460.15
614.624	56404.34
614.98	56581.96
615.337	56638.68
615.693	56593.03
616.05	56555.29
616.406	56701.96
616.762	56637.55
617.118	56581.05
617.475	56644.78
617.831	56744.89
618.187	56665.12
618.543	56689.3
618.899	56827.15
619.255	56873.93
619.611	56766.13
619.967	56890.2
620.323	56855.62
620.678	56812.69
621.034	56773.14
621.39	56811.78
621.746	56778.79
622.101	57040.7
622.457	56846.13
622.812	56855.4
623.168	56907.15
623.523	56851.33
623.879	57001.16
624.234	56790.09
624.589	56928.16
624.945	56946.92
625.3	56974.72
625.655	56936.3
626.01	56938.79
626.365	56984.66
626.72	57026.92
627.075	56901.72
627.43	56897.66
627.785	56827.83
628.14	56883.87
628.495	56864.66
628.85	56811.33
629.205	56768.85
629.559	56904.89
629.914	56716.87
630.269	56777.89
630.623	56739.69
630.978	56647.04
631.332	56757.32
631.687	56835.96
632.041	56666.25
632.396	56776.08
632.75	56610.21
633.104	56645.23
633.459	56440.27
633.813	56479.59
634.167	56495.41
634.521	56407.5
634.875	56452.47
635.229	56460.38
635.583	56296.77
635.937	56412.02
636.291	56307.84
636.645	56364.11
636.999	56189.65
637.352	56230.1
637.706	56142.42
638.06	56253.61
638.413	56221.29
638.767	56043.22
639.121	56143.1
639.474	55929.55
639.828	56022.43
640.181	55983.1
640.534	55947.4
640.888	55886.84
641.241	55821.07
641.594	55818.81
641.947	55879.15
642.301	55843.45
642.654	55739.72
643.007	55824.92
643.36	55737.01
643.713	55681.19
644.066	55766.16
644.419	55577.92
644.771	55401.2
645.124	55163.01
645.477	55081.89
645.83	54892.06
646.182	54804.83
646.535	54758.73
646.888	54730.26
647.24	54529.13
647.593	54706.08
647.945	54648.68
648.298	54544.05
648.65	54407.78
649.002	54386.31
649.355	54439.19
649.707	54402.81
650.059	54503.37
650.411	54840.76
650.763	54897.26
651.115	55169.57
651.467	55030.36
651.819	55057.25
652.171	54923.47
652.523	54910.14
652.875	54824.26
653.227	54705.4
653.578	54941.78
653.93	54776.36
654.282	54711.5
654.633	54629.69
654.985	54674.89
655.337	54685.96
655.688	54681.44
656.039	54713.76
656.391	54571.39
656.742	54553.09
657.094	54595.34
657.445	54691.61
657.796	54595.8
658.147	54531.84
658.498	54477.38
658.849	54479.64
659.2	54499.75
659.551	54327.78
659.902	54582.01
660.253	54482.8
660.604	54490.71
660.955	54276.48
661.306	54421.79
661.656	54311.06
662.007	54365.52
662.358	54300.89
662.708	54324.84
663.059	54255.69
663.409	54160.78
663.76	54220.66
664.11	54219.53
664.461	54216.6
664.811	54280.78
665.161	54198.97
665.511	54166.2
665.862	54203.26
666.212	54271.74
666.562	54331.4
666.912	54168.69
667.262	54210.72
667.612	54139.08
667.962	54180.21
668.312	54180.21
668.662	54264.05
669.011	54071.97
669.361	54084.4
669.711	53991.07
670.06	54049.14
670.41	53935.7
670.76	53895.25
671.109	54103.61
671.459	53947.45
671.808	53880.79
672.157	54030.61
672.507	53820.68
672.856	53863.84
673.205	53842.14
673.554	53958.75
673.904	53803.95
674.253	53883.72
674.602	53825.87
674.951	53484.41
675.3	53202.61
675.649	53704.75
675.998	53689.83
676.346	53680.34
676.695	53712.43
677.044	53546.78
677.393	53598.76
677.741	53687.57
678.09	53530.51
678.438	53533.23
678.787	53518.08
679.135	53591.98
679.484	53413
679.832	53496.39
680.181	53417.75
680.529	53376.17
680.877	53339.33
681.225	53213.01
681.573	53443.51
681.922	53219.56
682.27	53043.75
682.618	53144.53
682.966	52994.48
683.314	53061.37
683.661	52961.71
684.009	52724.21
684.357	52685.34
684.705	52753.81
685.053	52701.38
685.4	52695.73
685.748	52557.88
686.095	52481.95
686.443	52374.39
686.79	52291.68
687.138	52421.39
687.485	52463.42
687.832	52316.76
688.18	52363.31
688.527	52159.48
688.874	52067.95
689.221	51991.12
689.568	51813.04
689.915	51825.93
690.262	51851.69
690.609	51649.88
690.956	51562.66
691.303	51513.17
691.65	51348.42
691.997	51432.49
692.344	51187.98
692.69	51246.96
693.037	51332.15
693.383	50834.77
693.73	51101.88
694.077	50778.95
694.423	50797.48
694.769	50652.4
695.116	50496.92
695.462	50570.82
695.808	50523.36
696.155	50432.97
696.501	50249.47
696.847	50225.06
697.193	49953.88
697.539	50186.19
697.885	49923.15
698.231	49873.21
698.577	49836.83
698.923	49698.3
699.269	49339.89
699.614	49291.98
699.96	49318.87
700.306	49278.65
700.651	49192.1
700.997	49052.67
701.342	48965.66
701.688	48792.56
702.033	48733.58
702.379	48701.49
702.724	48528.61
703.069	48665.33
703.415	48211.11
703.76	48271.22
704.105	48277.77
704.45	48082.07
704.795	47829.42
705.14	47653.61
705.485	47713.72
705.83	47569.77
706.175	47612.02
706.52	47505.14
706.865	47280.28
707.209	47320.28
707.554	47249.77
707.899	47341.52
708.243	47037.58
708.588	47012.72
708.932	46683.46
709.277	46703.57
709.621	46746.06
709.966	46424.03
710.31	46440.98
710.654	46226.75
710.998	46261.1
711.342	46210.71
711.687	46147.43
712.031	46036.7
712.375	45895.23
712.719	45928.45
713.063	45734.56
713.407	45841.45
713.75	45583.15
714.094	45678.29
714.438	45370.95
714.782	45486.66
715.125	45250.51
715.469	45282.82
715.812	45064.97
716.156	44892.77
716.499	44864.53
716.843	44877.63
717.186	44695.04
717.53	44701.82
717.873	44757.86
718.216	44712.67
718.559	44583.18
718.902	44359.46
719.246	44516.74
719.589	44297.99
719.932	44098.45
720.275	44171.44
720.617	44090.08
720.96	43987.26
721.303	43986.36
721.646	43929.18
721.989	43684.44
722.331	43859.13
722.674	43595.63
723.016	43829.98
723.359	43574.17
723.701	43607.38
724.044	43256.21
724.386	43113.84
724.729	43318.13
725.071	43089.21
725.413	43061.64
725.755	42942.32
726.097	42998.13
726.439	42651.48
726.782	42807.41
727.124	42905.26
727.465	42590.46
727.807	42580.29
728.149	42479.05
728.491	42555.89
728.833	42440.41
729.175	42362.45
729.516	42122
729.858	42172.85
730.199	42037.48
730.541	42039.74
730.882	42035.9
731.224	42122.9
731.565	41774.21
731.906	41810.37
732.248	41892.85
732.589	41547.78
732.93	41423.04
733.271	41610.15
733.612	41645.4
733.953	41558.62
734.294	41345.75
734.635	41209.26
734.976	41341
735.317	41168.13
735.658	41112.31
735.999	41232.76
736.339	40915.48
736.68	41032.31
737.021	40847.46
737.361	40720
737.702	40908.47
738.042	40679.78
738.383	40638.65
738.723	40808.14
739.063	40557.97
739.404	40678.42
739.744	40544.64
740.084	40223.74
740.424	40375.15
740.764	40261.94
741.104	40315.04
741.444	40138.78
741.784	39871.66
742.124	39988.72
742.464	39982.17
742.804	39901.49
743.143	39870.08
743.483	39991.66
743.823	39645.23
744.162	39612.24
744.502	39587.6
744.841	39395.07
745.181	39665.12
745.52	39430.55
745.86	39511
746.199	39408.4
746.538	39343.99
746.877	39283.2
747.216	39137.67
747.556	38987.39
747.895	38930.22
748.234	38751.92
748.573	38807.74
748.911	38676.67
749.25	38705.37
749.589	38542.88
749.928	38660.17
750.267	38574.97
750.605	38473.51
750.944	38309.67
751.283	38222.44
751.621	38345.15
751.96	38023.58
752.298	38008.44
752.636	37952.62
752.975	37822.68
753.313	37675.79
753.651	37805.73
753.989	37575.9
754.327	37534.55
754.666	37341.11
755.004	37461.78
755.342	37399.41
755.679	37426.3
756.017	37186.76
756.355	37135.92
756.693	36961.01
757.031	36984.96
757.368	36864.06
757.706	36742.03
758.044	36709.03
758.381	36618.64
758.719	36427.23
759.056	36443.05
759.394	36212.55
759.731	36084.42
760.068	36013.01
760.405	35949.28
760.743	35699.57
761.08	35799
761.417	35657.09
761.754	35641.04
762.091	35392.23
762.428	35502.74
762.765	35187.94
763.102	35308.85
763.438	35095.07
763.775	34845.81
764.112	34819.37
764.449	34789.99
764.785	34547.74
765.122	34424.8
765.458	34371.92
765.795	34243.34
766.131	34284.24
766.467	34059.61
766.804	33976.45
767.14	33681.32
767.476	33836.79
767.812	33622.56
768.148	33530.36
768.485	33486.52
768.821	33343.7
769.157	33242.46
769.492	33144.61
769.828	33025.06
770.164	32705.07
770.5	32728.12
770.836	32651.97
771.171	32565.64
771.507	32300.79
771.842	32153
772.178	32288.81
772.513	32205.88
772.849	32092.88
773.184	32018.08
773.519	31990.29
773.855	31621.03
774.19	31537.19
774.525	31530.64
774.86	31397.76
775.195	31332.68
775.53	31102.63
775.865	30993.7
776.2	30734.28
776.535	30645.69
776.87	30608.86
777.205	30499.25
777.539	30332.03
777.874	30464.68
778.209	30193.05
778.543	30039.38
778.878	29893.85
779.212	29947.4
779.547	29874.86
779.881	29723.68
780.215	29534.76
780.55	29667.19
780.884	29365.27
781.218	29250.02
781.552	29351.71
781.886	29089.12
782.22	29024.94
782.554	28876.92
782.888	28601.45
783.222	28568.01
783.556	28428.35
783.889	28449.14
784.223	28179.54
784.557	28125.98
784.89	28201.91
785.224	27938.87
785.557	27829.72
785.891	27827.46
786.224	27776.16
786.558	27642.15
786.891	27366.68
787.224	27347.02
787.557	27163.75
787.891	27206.91
788.224	27213.47
788.557	27152
788.89	26988.84
789.223	26945
789.556	26822.06
789.888	26640.15
790.221	26479.93
790.554	26339.82
790.887	26372.58
791.219	26178.01
791.552	26136.21
791.884	26110.22
792.217	26164
792.549	25956.78
792.882	25766.05
793.214	25695.54
793.546	25611.7
793.879	25470.23
794.211	25308.66
794.543	25387.75
794.875	25354.76
795.207	25320.86
795.539	25102.56
795.871	25129.45
796.203	24785.73
796.535	24745.28
796.867	24739.41
797.198	24638.39
797.53	24702.8
797.862	24498.51
798.193	24560.88
798.525	24324.95
798.856	24349.59
799.188	24139.42
799.519	23995.92
799.85	23922.7
800.182	23891.74
800.513	23893.55
800.844	23691.52
801.175	23833.89
801.506	23811.52
801.837	23683.39
802.168	23672.09
802.499	23519.1
802.83	23330.63
803.161	23391.87
803.491	23321.59
803.822	23275.72
804.153	23154.81
804.483	22966.8
804.814	22878.66
805.145	22859.23
805.475	22911.43
805.805	22754.83
806.136	22741.04
806.466	22908.72
806.796	22780.59
807.126	22510.09
807.457	22448.39
807.787	22390.32
808.117	22439.13
808.447	22315.06
808.777	22258.79
809.107	22245.91
809.436	22152.81
809.766	22075.07
810.096	22135.41
810.426	21940.38
810.755	21988.29
811.085	21926.15
811.414	21720.5
811.744	21615.87
812.073	21548.3
812.403	21565.7
812.732	21425.37
813.061	21518.7
813.39	21359.83
813.719	21295.88
814.049	21415.2
814.378	21275.99
814.707	21155.09
815.036	21015.44
815.365	21011.14
815.693	20819.96
816.022	20840.3
816.351	20809.34
816.68	20634.2
817.008	20805.72
817.337	20572.96
817.665	20612.51
817.994	20598.5
818.322	20499.07
818.651	20296.81
818.979	20362.12
819.307	20403.25
819.636	20332.52
819.964	20088
820.292	20248.45
820.62	20172.97
820.948	20154.44
821.276	20272.18
821.604	20057.27
821.932	20145.85
822.259	20214.1
822.587	20221.56
822.915	20066.76
823.243	20186.98
823.57	20036.48
823.898	20122.13
824.225	20001.23
824.553	20095.01
824.88	20137.49
825.207	20172.52
825.535	19902.7
825.862	20045.97
826.189	20106.76
826.516	20155.57
826.843	20201.67
827.17	20105.63
827.497	20203.25
827.824	20071.96
828.151	20046.65
828.478	20012.52
828.805	20097.72
829.131	20053.88
829.458	19966.88
829.785	19943.83
830.111	19995.58
830.438	20056.14
830.764	19994.45
831.09	19951.06
831.417	19905.63
831.743	19962.81
832.069	19871.29
832.395	19709.03
832.722	19945.18
833.048	19837.61
833.374	19811.85
833.7	19823.15
834.026	19856.14
834.351	19833.09
834.677	19761.23
835.003	19779.99
835.329	19803.72
835.654	19685.08
835.98	19577.06
836.306	19643.04
836.631	19500.67
836.956	19690.73
837.282	19695.47
837.607	19539.32
837.932	19507.45
838.258	19575.93
838.583	19520.56
838.908	19355.14
839.233	19248.25
839.558	19286.44
839.883	19280.57
840.208	19247.35
840.533	19229.72
840.858	19226.33
841.182	19240.34
841.507	19131.42
841.832	19107.46
842.156	18985.21
842.481	18936.62
842.805	18894.81
843.13	18868.83
843.454	18911.08
843.778	18730.52
844.103	18735.72
844.427	18661.37
844.751	18737.08
845.075	18578.44
845.399	18603.3
845.723	18489.85
846.047	18496.41
846.371	18306.58
846.695	18331.44
847.019	18181.39
847.343	18111.78
847.666	18057.77
847.99	17867.27
848.313	17927.16
848.637	17770.32
848.96	17738.46
849.284	17665.02
849.607	17589.31
849.931	17587.28
850.254	17458.92
850.577	17297.57
850.9	17223.45
851.223	17185.48
851.546	17155.65
851.869	17001.53
852.192	17086.27
852.515	16964.02
852.838	16734.64
853.161	16816.22
853.483	16812.61
853.806	16743.01
854.129	16698.04
854.451	16641.09
854.774	16502.56
855.096	16470.24
855.419	16489
855.741	16446.29
856.063	16278.16
856.385	16201.33
856.708	16231.38
857.03	16147.77
857.352	16134.43
857.674	16037.94
857.996	16005.17
858.318	15903.03
858.64	15917.04
858.961	15908
859.283	15783.03
859.605	15799.98
859.926	15720.21
860.248	15673.2
860.57	15672.98
860.891	15647.89
861.212	15548.46
861.534	15435.02
861.855	15459.65
862.176	15524.73
862.498	15575.13
862.819	15496.49
863.14	15410.84
863.461	15377.62
863.782	15342.36
864.103	15237.96
864.424	15268.02
864.745	15322.25
865.065	15150.73
865.386	15183.5
865.707	15138.08
866.027	15173.56
866.348	15126.78
866.668	15106.21
866.989	15112.31
867.309	14990.51
867.63	14965.2
867.95	15048.36
868.27	14887.91
868.59	14846.11
868.91	14910.74
869.23	14866.9
869.55	14859.44
869.87	14896.27
870.19	14821.47
870.51	14849.95
870.83	14717.07
871.15	14698.77
871.469	14640.01
871.789	14650.41
872.109	14604.53
872.428	14615.38
872.748	14708.71
873.067	14554.14
873.386	14536.96
873.706	14483.63
874.025	14409.96
874.344	14452.44
874.663	14532.22
874.982	14400.47
875.301	14411.99
875.62	14362.5
875.939	14324.09
876.258	14241.38
876.577	14194.37
876.896	14244.31
877.214	14134.71
877.533	14306.69
877.852	14183.53
878.17	14223.75
878.489	14223.75
878.807	14139.23
879.125	14051.1
879.444	14052
879.762	14044.09
880.08	13935.4
880.398	13965.23
880.716	13983.98
881.034	13909.41
881.352	13984.89
881.67	13966.13
881.988	13941.5
882.306	13849.52
882.624	13763.2
882.941	13753.93
883.259	13679.13
883.577	13660.38
883.894	13608.17
884.212	13652.24
884.529	13613.6
884.846	13539.93
885.164	13489.08
885.481	13431
885.798	13470.1
886.115	13421.74
886.432	13334.51
886.75	13228.07
887.067	13345.81
887.383	13261.29
887.7	13290.22
888.017	13294.96
888.334	13369.54
888.651	13242.99
888.967	13166.83
889.284	13078.02
889.6	13069.2
889.917	12944.91
890.233	13013.16
890.55	12947.85
890.866	12884.12
891.182	12861.53
891.498	12726.39
891.815	12779.04
892.131	12648.88
892.447	12624.47
892.763	12645.03
893.079	12633.06
893.395	12563.68
893.71	12513.96
894.026	12514.64
894.342	12554.42
894.657	12381.09
894.973	12339.96
895.289	12365.72
895.604	12387.41
895.92	12198.49
896.235	12203.24
896.55	12207.53
896.865	12171.15
897.181	12122.11
897.496	12204.37
897.811	12035.33
898.126	12042.56
898.441	12027.88
898.756	11955.79
899.071	11872.63
899.386	11917.82
899.7	11704.49
900.015	11756.7
900.33	11640.32
900.644	11598.96
900.959	11678.05
901.273	11575.23
901.588	11516.7
901.902	11510.15
902.216	11428.8
902.531	11348.12
902.845	11391.96
903.159	11315.8
903.473	11254.11
903.787	11188.8
904.101	11045.98
904.415	11150.16
904.729	10991.29
905.042	11034.91
905.356	10980.45
905.67	11035.36
905.984	11010.5
906.297	10951.52
906.611	10884.4
906.924	10799.21
907.237	10809.38
907.551	10734.12
907.864	10713.11
908.177	10700
908.491	10643.51
908.804	10588.14
909.117	10475.83
909.43	10479.44
909.743	10379.33
910.056	10337.98
910.368	10341.14
910.681	10321.48
910.994	10289.16
911.307	10200.13
911.619	10138.66
911.932	10130.3
912.244	10051.66
912.557	10083.29
912.869	9969.17
913.181	10005.78
913.494	9933.47
913.806	9897.54
914.118	9911.55
914.43	9762.85
914.742	9803.53
915.054	9761.72
915.366	9768.73
915.678	9714.49
915.99	9627.49
916.302	9559.69
916.613	9520.37
916.925	9506.36
917.236	9471.56
917.548	9371.67
917.859	9372.13
918.171	9321.05
918.482	9286.03
918.794	9209.19
919.105	9230.44
919.416	9107.95
919.727	9070.89
920.038	9027.5
920.349	8996.32
920.66	8975.07
920.971	8962.42
921.282	8943.89
921.593	8843.33
921.903	8828.19
922.214	8775.08
922.525	8763.33
922.835	8769.66
923.146	8724.23
923.456	8659.6
923.767	8610.11
924.077	8587.06
924.387	8561.75
924.697	8451.47
925.008	8465.03
925.318	8349.55
925.628	8390.68
925.938	8396.56
926.248	8313.17
926.558	8286.05
926.867	8185.72
927.177	8158.6
927.487	8198.37
927.796	8068.66
928.106	8116.57
928.416	8080.18
928.725	8054.2
929.034	7995.67
929.344	7958.38
929.653	7961.77
929.962	7922.45
930.271	7827.53
930.581	7843.58
930.89	7773.75
931.199	7768.33
931.508	7675.9
931.817	7719.74
932.125	7690.59
932.434	7630.03
932.743	7607.43
933.051	7566.3
933.36	7506.64
933.669	7441.56
933.977	7444.95
934.286	7463.02
934.594	7360.43
934.902	7224.39
935.21	7295.12
935.519	7277.72
935.827	7284.72
936.135	7252.18
936.443	7205.18
936.751	7119.53
937.059	7077.72
937.367	7093.54
937.674	7096.93
937.982	7035.92
938.29	6961.34
938.597	7004.51
938.905	6926.54
939.213	6923.6
939.52	6837.28
939.827	6948.69
940.135	6806.32
940.442	6840.67
940.749	6749.14
941.056	6835.02
941.363	6611.75
941.67	6650.39
941.977	6647.45
942.284	6629.6
942.591	6621.24
942.898	6507.57
943.205	6557.51
943.511	6505.99
943.818	6413.56
944.125	6368.36
944.431	6374.69
944.738	6347.35
945.044	6277.74
945.35	6272.32
945.657	6269.38
945.963	6300.34
946.269	6222.38
946.575	6237.29
946.881	6182.38
947.187	6190.97
947.493	6127.69
947.799	6058.09
948.105	6049.05
948.41	6033.68
948.716	6033.91
949.022	5984.42
949.327	5897.64
949.633	5906.68
949.938	5949.62
950.244	5890.64
950.549	5859.45
950.854	5786.91
951.16	5806.8
951.465	5761.15
951.77	5748.04
952.075	5658.1
952.38	5706.01
952.685	5728.38
952.99	5667.14
953.294	5587.37
953.599	5550.76
953.904	5526.13
954.209	5543.75
954.513	5565.22
954.818	5505.56
955.122	5457.65
955.426	5454.72
955.731	5390.76
956.035	5390.31
956.339	5414.04
956.643	5373.59
956.948	5329.97
957.252	5344.44
957.556	5348.73
957.86	5189.86
958.163	5218.79
958.467	5235.74
958.771	5247.04
959.075	5190.99
959.378	5125.23
959.682	5155.29
959.985	5152.35
960.289	5058.57
960.592	5072.13
960.896	5022.18
961.199	5019.25
961.502	4963.88
961.805	4947.16
962.108	4988.74
962.411	4937.89
962.714	4919.81
963.017	4885.01
963.32	4894.5
963.623	4877.56
963.926	4856.99
964.228	4792.36
964.531	4763.89
964.833	4812.7
965.136	4758.01
965.438	4720.27
965.741	4706.71
966.043	4696.32
966.345	4692.93
966.648	4652.93
966.95	4628.97
967.252	4654.51
967.554	4622.87
967.856	4588.98
968.158	4481.63
968.46	4542.87
968.761	4520.05
969.063	4453.61
969.365	4416.1
969.666	4384.01
969.968	4347.17
970.269	4342.88
970.571	4337.23
970.872	4362.09
971.174	4300.85
971.475	4320.51
971.776	4279.38
972.077	4328.42
972.378	4227.63
972.679	4235.31
972.98	4195.99
973.281	4203.45
973.582	4183.11
973.883	4199.38
974.183	4130.46
974.484	4127.74
974.785	4049.1
975.085	4113.06
975.386	4072.6
975.686	4038.03
975.986	4046.39
976.287	4044.36
976.587	3973.17
976.887	3983.34
977.187	3981.31
977.487	3913.29
977.787	3908.32
978.087	3908.32
978.387	3851.82
978.687	3869.45
978.987	3813.18
979.286	3838.94
979.586	3810.69
979.885	3800.97
980.185	3791.93
980.484	3747.64
980.784	3737.25
981.083	3711.94
981.382	3720.07
981.682	3673.07
981.981	3667.87
982.28	3655.44
982.579	3627.87
982.878	3656.8
983.177	3648.21
983.475	3591.26
983.774	3572.73
984.073	3524.82
984.372	3515.11
984.67	3560.98
984.969	3535.44
985.267	3512.85
985.566	3500.42
985.864	3448.44
986.162	3432.4
986.461	3465.84
986.759	3457.25
987.057	3422.23
987.355	3400.31
987.653	3364.15
987.951	3368.67
988.249	3347.43
988.547	3345.84
988.844	3308.56
989.142	3299.97
989.44	3264.94
989.737	3289.12
990.035	3274.21
990.332	3251.16
990.63	3208.67
990.927	3174.1
991.224	3165.28
991.521	3119.86
991.819	3132.29
992.116	3178.39
992.413	3138.84
992.71	3069.02
993.006	3083.25
993.303	3098.62
993.6	3078.28
993.897	3035.57
994.193	3062.24
994.49	3029.47
994.787	3026.98
995.083	2975.23
995.379	2967.32
995.676	2953.76
995.972	2899.98
996.268	2910.83
996.565	2889.13
996.861	2893.88
997.157	2870.6
997.453	2878.06
997.749	2876.03
998.044	2807.55
998.34	2794.45
998.636	2805.07
998.932	2823.6
999.227	2758.97
999.523	2772.3
999.818	2730.95
1000.114	2735.24
1000.409	2718.06
1000.704	2673.32
1001	2656.37
1001.295	2660.89
1001.59	2619.54
1001.885	2651.63
1002.18	2634.68
1002.475	2657.95
1002.77	2590.84
1003.065	2568.24
1003.359	2577.95
1003.654	2580.89
1003.949	2544.51
1004.243	2498.41
1004.538	2466.77
1004.832	2514.45
1005.127	2466.09
1005.421	2430.61
1005.715	2472.65
1006.009	2421.57
1006.304	2423.61
1006.598	2397.62
1006.892	2379.77
1007.186	2385.87
1007.48	2376.38
1007.773	2352.88
1008.067	2360.33
1008.361	2334.35
1008.655	2318.75
1008.948	2296.15
1009.242	2294.57
1009.535	2310.17
1009.829	2277.17
1010.122	2227.91
1010.415	2238.08
1010.708	2221.13
1011.001	2225.42
1011.295	2191.07
1011.588	2179.77
1011.881	2170.06
1012.173	2144.97
1012.466	2147.68
1012.759	2130.51
1013.052	2124.41
1013.344	2093.9
1013.637	2087.57
1013.93	2096.84
1014.222	2065.88
1014.514	2076.27
1014.807	2027.23
1015.099	2040.57
1015.391	2000.57
1015.683	1995.15
1015.976	2012.32
1016.268	1980.23
1016.56	1981.36
1016.851	1952.89
1017.143	1925.09
1017.435	1942.04
1017.727	1924.64
1018.018	1921.25
1018.31	1876.05
1018.602	1876.28
1018.893	1889.39
1019.185	1854.36
1019.476	1846.67
1019.767	1833.79
1020.058	1798.54
1020.35	1785.89
1020.641	1793.57
1020.932	1805.32
1021.223	1754.7
1021.514	1744.76
1021.804	1737.3
1022.095	1752.44
1022.386	1758.54
1022.677	1698.2
1022.967	1708.83
1023.258	1697.07
1023.548	1677.41
1023.839	1671.54
1024.129	1678.09
1024.419	1653.69
1024.709	1625.89
1025	1594.7
1025.29	1610.75
1025.58	1588.83
1025.87	1581.37
1026.16	1576.17
1026.449	1575.04
1026.739	1563.29
1027.029	1555.38
1027.319	1540.02
1027.608	1507.47
1027.898	1488.04
1028.187	1511.77
1028.477	1468.15
1028.766	1492.33
1029.055	1461.15
1029.344	1464.31
1029.634	1455.05
1029.923	1430.19
1030.212	1433.13
1030.501	1420.7
1030.79	1407.36
1031.078	1408.49
1031.367	1389.74
1031.656	1387.7
1031.945	1356.07
1032.233	1352.68
1032.522	1341.38
1032.81	1302.51
1033.099	1318.1
1033.387	1333.02
1033.675	1330.08
1033.963	1288.5
1034.251	1296.41
1034.54	1286.69
1034.828	1277.88
1035.116	1267.71
1035.403	1284.66
1035.691	1243.75
1035.979	1257.76
1036.267	1233.81
1036.554	1249.4
1036.842	1211.89
1037.129	1197.65
1037.417	1175.96
1037.704	1191.32
1037.992	1188.61
1038.279	1187.93
1038.566	1161.72
1038.853	1161.72
1039.14	1161.72
