Data from plate_ceramic_FLMS001491_063.txt Node
Date: Tue Feb 07 11:17:07 GMT 2017
User: dcchb
Spectrometer: FLMS00149
Trigger mode: 0
Integration Time (sec): 2.000000E-2
Scans to average: 10
Electric dark correction enabled: true
Nonlinearity correction enabled: false
Boxcar width: 0
XAxis mode: Wavelengths
Number of Pixels in Spectrum: 2048
>>>>>Begin Spectral Data<<<<<
341.393	-15.73
341.776	-15.73
342.16	-15.73
342.543	-51.44
342.927	-74.72
343.31	-62.96
343.693	-77.43
344.077	-68.84
344.46	-51.67
344.843	-64.32
345.226	-48.05
345.61	-36.52
345.993	-9.41
346.376	1.89
346.759	17.71
347.142	38.28
347.525	38.95
347.908	71.95
348.291	63.81
348.674	92.74
349.057	93.87
349.44	117.14
349.823	149.23
350.206	187.65
350.588	213.64
350.971	236.91
351.354	249.34
351.737	268.33
352.119	266.97
352.502	296.57
352.884	294.77
353.267	294.31
353.65	320.98
354.032	339.74
354.414	335.67
354.797	325.73
355.179	351.71
355.562	337.48
355.944	356.23
356.326	363.92
356.709	341.09
357.091	353.97
357.473	374.09
357.855	352.62
358.238	365.27
358.62	362.79
359.002	353.75
359.384	373.41
359.766	378.61
360.148	397.36
360.53	363.24
360.912	373.18
361.294	359.62
361.676	363.69
362.057	360.3
362.439	358.27
362.821	377.7
363.203	371.37
363.584	365.5
363.966	355.33
364.348	369.11
364.729	372.96
365.111	348.55
365.493	350.81
365.874	358.72
366.256	356.01
366.637	375.67
367.019	358.49
367.4	351.94
367.781	369.79
368.163	364.82
368.544	369.11
368.925	360.08
369.306	363.92
369.688	361.88
370.069	369.34
370.45	368.21
370.831	361.21
371.212	377.93
371.593	391.26
371.974	357.59
372.355	362.34
372.736	376.12
373.117	384.93
373.498	370.7
373.879	378.61
374.26	376.8
374.641	368.66
375.021	385.16
375.402	377.7
375.783	380.19
376.163	417.25
376.544	416.34
376.925	397.81
377.305	415.22
377.686	419.51
378.066	418.6
378.447	423.35
378.827	402.11
379.208	401.66
379.588	429.45
379.968	420.86
380.349	438.49
380.729	433.75
381.109	439.62
381.489	406.63
381.87	431.49
382.25	447.76
382.63	437.59
383.01	463.58
383.39	434.2
383.77	447.53
384.15	456.34
384.53	448.43
384.91	478.04
385.29	460.19
385.67	461.32
386.049	486.4
386.429	454.31
386.809	481.88
387.189	486.17
387.568	515.55
387.948	509.68
388.328	505.16
388.707	474.42
389.087	507.42
389.466	517.81
389.846	515.1
390.225	533.86
390.605	530.24
390.984	522.33
391.363	554.19
391.743	532.05
392.122	547.41
392.501	535.21
392.881	554.42
393.26	572.95
393.639	580.63
394.018	562.1
394.397	576.11
394.776	576.79
395.155	609.11
395.534	589.67
395.913	600.07
396.292	592.84
396.671	608.43
397.05	627.86
397.429	633.29
397.808	646.4
398.186	627.41
398.565	653.4
398.944	647.98
399.323	653.17
399.701	671.25
400.08	647.3
400.458	666.96
400.837	665.83
401.215	672.84
401.594	691.37
401.972	681.42
402.351	695.21
402.729	683.46
403.107	709.44
403.486	695.66
403.864	726.39
404.242	744.25
404.62	733.17
404.999	734.75
405.377	740.63
405.755	771.36
406.133	762.1
406.511	777.92
406.889	777.24
407.267	805.26
407.645	817.24
408.023	819.27
408.401	830.57
408.779	825.15
409.156	845.71
409.534	868.08
409.912	875.54
410.29	896.11
410.667	896.11
411.045	923.68
411.422	935.2
411.8	921.19
412.178	920.29
412.555	940.17
412.933	975.43
413.31	967.06
413.687	986.73
414.065	989.66
414.442	998.7
414.819	1030.34
415.197	1013.84
415.574	1059.27
415.951	1058.59
416.328	1067.63
416.705	1071.69
417.082	1079.6
417.46	1061.53
417.837	1094.29
418.214	1101.75
418.591	1134.74
418.967	1112.37
419.344	1153.73
419.721	1147.85
420.098	1164.12
420.475	1160.51
420.852	1194.18
421.228	1203.67
421.605	1207.96
421.982	1231.69
422.358	1249.09
422.735	1259.71
423.111	1255.87
423.488	1285.25
423.864	1313.95
424.241	1306.04
424.617	1315.3
424.994	1338.58
425.37	1353.5
425.746	1359.82
426.123	1369.99
426.499	1376.77
426.875	1417
427.251	1450.89
427.627	1485.24
428.003	1458.13
428.379	1509.42
428.756	1501.97
429.132	1514.85
429.507	1515.3
429.883	1590.55
430.259	1590.1
430.635	1600.72
431.011	1609.76
431.387	1649.53
431.763	1663.77
432.138	1687.72
432.514	1735.18
432.89	1717.78
433.265	1758
433.641	1789.42
434.016	1774.28
434.392	1837.1
434.767	1845.69
435.143	1856.99
435.518	1899.24
435.894	1903.31
436.269	1908.28
436.644	1928.85
437.02	1963.87
437.395	1998.45
437.77	1994.16
438.145	2016.3
438.52	2038.22
438.895	2079.13
439.271	2086.58
439.646	2106.92
440.021	2105.57
440.395	2141.72
440.77	2146.24
441.145	2166.13
441.52	2189.63
441.895	2253.13
442.27	2240.48
442.645	2216.52
443.019	2267.82
443.394	2302.85
443.769	2296.3
444.143	2288.61
444.518	2334.26
444.892	2334.26
445.267	2320.02
445.641	2352.79
446.016	2372.68
446.39	2401.38
446.764	2400.93
447.139	2414.03
447.513	2453.58
447.887	2463.75
448.262	2454.48
448.636	2509.4
449.01	2541.49
449.384	2552.79
449.758	2578.1
450.132	2587.36
450.506	2602.28
450.88	2601.37
451.254	2641.6
451.628	2680.24
452.002	2697.19
452.376	2691.54
452.75	2727.02
453.123	2791.88
453.497	2805.21
453.871	2859.67
454.244	2887.24
454.618	2913
454.992	2973.34
455.365	2961.14
455.739	3065.09
456.112	3078.87
456.486	3152.32
456.859	3150.06
457.232	3206.78
457.606	3202.03
457.979	3261.92
458.352	3286.1
458.725	3364.29
459.099	3397.74
459.472	3442.71
459.845	3483.61
460.218	3494.68
460.591	3541.01
460.964	3574.45
461.337	3642.7
461.71	3714.11
462.083	3766.99
462.456	3750.95
462.829	3738.07
463.201	3827.55
463.574	3873.2
463.947	3871.4
464.32	4038.62
464.692	4040.2
465.065	4075.91
465.438	4145.51
465.81	4173.53
466.183	4234.78
466.555	4326.98
466.928	4347.54
467.3	4340.08
467.672	4415.56
468.045	4566.29
468.417	4524.94
468.789	4602.68
469.161	4682.9
469.534	4726.51
469.906	4869.11
470.278	4903.01
470.65	4928.99
471.022	5019.16
471.394	5128.99
471.766	5144.58
472.138	5222.55
472.51	5329.66
472.882	5417.12
473.253	5473.61
473.625	5596.1
473.997	5703.44
474.369	5763.32
474.74	5748.41
475.112	5893.72
475.484	5927.16
475.855	6098.91
476.227	6159.02
476.598	6349.3
476.97	6397.2
477.341	6561.27
477.713	6594.26
478.084	6649.63
478.455	6873.12
478.827	6897.08
479.198	7099.56
479.569	7144.76
479.94	7375.71
480.311	7428.14
480.682	7633.33
481.053	7822.25
481.424	7894.34
481.795	7938.18
482.166	8024.51
482.537	8185.18
482.908	8343.82
483.279	8471.27
483.65	8677.6
484.021	8783.36
484.391	8864.94
484.762	9004.59
485.133	9047.08
485.503	9194.42
485.874	9369.78
486.244	9447.29
486.615	9736.33
486.985	9727.74
487.356	9967.96
487.726	9990.33
488.097	10206.37
488.467	10306.25
488.837	10483.42
489.207	10616.75
489.578	10817.2
489.948	10844.32
490.318	11012.9
490.688	11055.84
491.058	11275.49
491.428	11394.81
491.798	11503.29
492.168	11740.12
492.538	11772.43
492.908	12036.15
493.278	12169.93
493.648	12179.2
494.017	12371.28
494.387	12437.5
494.757	12542.13
495.126	12731.05
495.496	12764.49
495.866	12832.74
496.235	12990.93
496.605	13131.26
496.974	13177.59
497.344	13383.24
497.713	13348.66
498.082	13493.74
498.452	13678.6
498.821	13699.16
499.19	13818.03
499.559	13938.25
499.928	14047.62
500.298	14157
500.667	14300.5
501.036	14311.12
501.405	14453.49
501.774	14460.27
502.143	14629.08
502.512	14698.91
502.88	14778.45
503.249	14851.22
503.618	15030.88
503.987	15100.7
504.356	15267.48
504.724	15248.27
505.093	15380.92
505.462	15483.07
505.83	15651.65
506.199	15737.3
506.567	15957.41
506.936	15876.05
507.304	16194.24
507.672	16148.13
508.041	16311.52
508.409	16407.34
508.777	16602.36
509.145	16658.18
509.514	16770.27
509.882	16906.53
510.25	16922.35
510.618	17076.7
510.986	17200.08
511.354	17334.54
511.722	17556.46
512.09	17675.1
512.458	17621.77
512.826	17826.51
513.193	17940.86
513.561	18018.59
513.929	18181.53
514.297	18473.5
514.664	18548.52
515.032	18532.7
515.4	18781.96
515.767	18883.66
516.135	18962.07
516.502	18879.36
516.869	19308.05
517.237	19329.29
517.604	19373.59
517.972	19612.68
518.339	19804.54
518.706	19799.79
519.073	19932.89
519.44	20119.33
519.808	20437.29
520.175	20397.29
520.542	20745.53
520.909	20690.39
521.276	20800.44
521.643	21047.21
522.009	21190.71
522.376	21296.93
522.743	21383.7
523.11	21685.39
523.477	21961.77
523.843	22013.29
524.21	22175.77
524.577	22423.22
524.943	22657.12
525.31	22751.8
525.676	22942.53
526.043	23107.27
526.409	23208.29
526.776	23442.18
527.142	23590.65
527.508	23721.27
527.874	23915.61
528.241	24143.4
528.607	24151.09
528.973	24344.3
529.339	24487.12
529.705	24674.46
530.071	24857.74
530.437	24896.38
530.803	25100.67
531.169	25324.84
531.535	25259.53
531.901	25376.59
532.267	25477.83
532.632	25730.03
532.998	25832.4
533.364	25904.26
533.73	26143.58
534.095	26352.84
534.461	26457.24
534.826	26685.71
535.192	26709.66
535.557	26925.48
535.923	26838.93
536.288	27009.54
536.653	27185.36
537.019	27242.53
537.384	27355.07
537.749	27405.01
538.114	27535.18
538.479	27737.43
538.845	27692.92
539.21	27802.52
539.575	27924.1
539.94	28074.6
540.305	28244.09
540.67	28279.12
541.034	28393.69
541.399	28584.42
541.764	28602.72
542.129	28669.84
542.494	28766.56
542.858	28808.14
543.223	28993.9
543.587	29078.64
543.952	29066.89
544.316	29229.82
544.681	29310.5
545.045	29431.63
545.41	29661.45
545.774	29634.56
546.138	29680.43
546.503	29929.69
546.867	29964.95
547.231	30248.1
547.595	30177.82
547.959	30421.66
548.324	30420.53
548.688	30433.86
549.052	30634.76
549.416	30749.56
549.779	30843.57
550.143	31023.9
550.507	31233.61
550.871	31347.28
551.235	31226.83
551.599	31602.19
551.962	31566.94
552.326	31639.48
552.689	31850.09
553.053	31785.01
553.417	31924.22
553.78	32288.05
554.143	32193.81
554.507	32499.8
554.87	32594.93
555.234	32977.3
555.597	32761.71
555.96	33009.61
556.323	33110.4
556.686	33237.4
557.05	33370.73
557.413	33421.58
557.776	33588.58
558.139	33902.92
558.502	33914.67
558.865	34059.98
559.228	34371.61
559.59	34235.34
559.953	34547.42
560.316	34821.32
560.679	34958.94
561.041	35032.61
561.404	35223.57
561.767	35421.07
562.129	35308.31
562.492	35770.22
562.854	35777.22
563.217	35911.68
563.579	36071.68
563.941	36251.56
564.304	36418.79
564.666	36623.08
565.028	36716.86
565.39	36938.1
565.753	37226.22
566.115	37238.65
566.477	37399.78
566.839	37360.46
567.201	37611.75
567.563	37689.26
567.925	38003.38
568.287	37999.99
568.648	38112.53
569.01	38399.3
569.372	38649.46
569.734	38507.32
570.095	38741.21
570.457	38952.51
570.819	39121.77
571.18	39164.7
571.542	39382.1
571.903	39427.52
572.265	39641.98
572.626	39593.17
572.987	39723.11
573.349	39966.49
573.71	40036.77
574.071	40010.56
574.432	40119.03
574.794	40500.71
575.155	40547.49
575.516	40417.33
575.877	40627.49
576.238	40751.56
576.599	40863.87
576.96	40846.92
577.32	40885.79
577.681	41186.12
578.042	41170.3
578.403	41187.48
578.763	41294.14
579.124	41370.75
579.485	41441.93
579.845	41484.87
580.206	41613.45
580.566	41575.94
580.927	41622.95
581.287	41812.77
581.648	41628.59
582.008	41747.24
582.368	41714.92
582.728	41764.64
583.089	41735.48
583.449	41830.4
583.809	41968.47
584.169	41959.89
584.529	41797.4
584.889	42099.09
585.249	41853.45
585.609	41768.03
585.969	42185.42
586.329	41876.27
586.688	42081.24
587.048	42152.87
587.408	41966.44
587.768	42002.6
588.127	41975.03
588.487	42034.91
588.846	42274.45
589.206	42127.34
589.565	42107.23
589.925	42238.07
590.284	42197.17
590.643	42244.85
591.003	42448.23
591.362	42306.09
591.721	42340.67
592.08	42267.22
592.44	42458.63
592.799	42416.14
593.158	42351.74
593.517	42432.42
593.876	42378.18
594.235	42381.12
594.593	42443.26
594.952	42591.96
595.311	42395.13
595.67	42478.06
596.029	42688.91
596.387	42781.11
596.746	42746.31
597.104	42635.8
597.463	42586.99
597.822	42862.91
598.18	42617.04
598.538	42643.71
598.897	42935
599.255	42683.71
599.613	43190.81
599.972	42925.74
600.33	42954.66
600.688	42899.3
601.046	43021.78
601.404	43221.55
601.762	43100.87
602.12	43357.14
602.478	43290.7
602.836	43363.92
603.194	43140.19
603.552	43089.57
603.91	42964.15
604.268	43311.04
604.625	43302.22
604.983	43407.08
605.341	43175.67
605.698	43602.1
606.056	43516
606.413	43502.9
606.771	43643.91
607.128	43647.07
607.485	43549
607.843	43684.13
608.2	43915.54
608.557	43934.75
608.914	43757.8
609.272	43964.8
609.629	44173.84
609.986	44184.23
610.343	44040.96
610.7	44377.22
611.057	44134.97
611.414	44209.54
611.771	44276.21
612.127	44478.46
612.484	44316.43
612.841	44625.8
613.198	44306.49
613.554	44345.36
613.911	44596.88
614.267	44550.78
614.624	44505.36
614.98	44837.78
615.337	45001.39
615.693	44811.56
616.05	44897.44
616.406	44951.9
616.762	44865.8
617.118	44882.97
617.475	44975.63
617.831	44970.88
618.187	44902.63
618.543	45082.74
618.899	45280.25
619.255	45195.73
619.611	45192.79
619.967	45270.31
620.323	45314.37
620.678	45302.17
621.034	45143.08
621.39	45131.55
621.746	45091.78
622.101	45554.82
622.457	45127.94
622.812	45310.98
623.168	45380.13
623.523	45317.09
623.879	45608.38
624.234	45263.75
624.589	45390.98
624.945	45417.2
625.3	45347.82
625.655	45283.19
626.01	45393.92
626.365	45499.45
626.72	45489.74
627.075	45386.69
627.43	45379
627.785	45234.15
628.14	45339.23
628.495	45432.11
628.85	45459
629.205	45214.49
629.559	45389.85
629.914	45192.57
630.269	45185.79
630.623	45079.13
630.978	44952.35
631.332	45157.99
631.687	45146.02
632.041	45036.87
632.396	45090.2
632.75	44867.15
633.104	44938.11
633.459	44766.14
633.813	44745.8
634.167	44793.71
634.521	44837.32
634.875	44701.28
635.229	44726.82
635.583	44453.38
635.937	44386.71
636.291	44543.32
636.645	44440.27
636.999	44369.09
637.352	44393.27
637.706	44160.05
638.06	44298.81
638.413	44180.84
638.767	44129.77
639.121	44200.28
639.474	43876.45
639.828	43862.89
640.181	43971.81
640.534	44034.63
640.888	43840.51
641.241	43748.54
641.594	43890.23
641.947	43816.56
642.301	43782.21
642.654	43761.87
643.007	43671.7
643.36	43493.86
643.713	43524.36
644.066	43665.83
644.419	43364.37
644.771	43140.65
645.124	42682.35
645.477	42598.29
645.83	42354
646.182	42204.62
646.535	42174.34
646.888	42295.47
647.24	42076.04
647.593	42454.34
647.945	42238.75
648.298	42148.58
648.65	42011.86
649.002	41919.89
649.355	42128.47
649.707	41819.1
650.059	41999.21
650.411	42446.88
650.763	42510.83
651.115	42904.72
651.467	42626.99
651.819	42622.69
652.171	42713.76
652.523	42526.88
652.875	42454.56
653.227	42385.86
653.578	42570.49
653.93	42582.47
654.282	42381.8
654.633	42362.59
654.985	42396.94
655.337	42402.81
655.688	42434.9
656.039	42421.79
656.391	41986.78
656.742	42050.28
657.094	42145.19
657.445	42260.89
657.796	42139.77
658.147	42062.48
658.498	42024.06
658.849	42050.28
659.2	41920.56
659.551	41787.69
659.902	41991.07
660.253	41966.66
660.604	41911.3
660.955	41671.98
661.306	42071.07
661.656	41821.81
662.007	41874.24
662.358	41759.44
662.708	41756.95
663.059	41864.97
663.409	41608.93
663.76	41627.01
664.11	41637.63
664.461	41688.93
664.811	41724.19
665.161	41660.68
665.511	41527.13
665.862	41551.08
666.212	41758.53
666.562	41685.77
666.912	41582.27
667.262	41693
667.612	41598.54
667.962	41654.13
668.312	41517.86
668.662	41874.69
669.011	41431.76
669.361	41537.07
669.711	41469.05
670.06	41320.35
670.41	41159
670.76	41242.16
671.109	41373.46
671.459	41299.11
671.808	41229.28
672.157	41314.25
672.507	41004.2
672.856	40960.82
673.205	41166.91
673.554	41114.48
673.904	41091.21
674.253	41310.64
674.602	41104.54
674.951	40573.03
675.3	40471.34
675.649	41075.61
675.998	40900.93
676.346	40953.58
676.695	41045.33
677.044	40668.62
677.393	40825
677.741	40842.63
678.09	40781.61
678.438	40756.53
678.787	40739.13
679.135	40699.13
679.484	40624.78
679.832	40785
680.181	40497.33
680.529	40666.59
680.877	40420.72
681.225	40260.72
681.573	40622.52
681.922	40246.26
682.27	40110.22
682.618	40208.07
682.966	40112.02
683.314	40199.71
683.661	40099.14
684.009	39805.59
684.357	39829.55
684.705	39741.41
685.053	39677.91
685.4	39646.73
685.748	39544.81
686.095	39561.76
686.443	39402.89
686.79	39234.99
687.138	39246.28
687.485	39230.01
687.832	39225.49
688.18	39185.27
688.527	39010.58
688.874	39011.71
689.221	38700.31
689.568	38671.61
689.915	38549.13
690.262	38584.38
690.609	38585.28
690.956	38478.62
691.303	38362.92
691.65	38418.06
691.997	38241.79
692.344	38114.11
692.69	38115.92
693.037	38124.96
693.383	37797.51
693.73	38004.06
694.077	37644.97
694.423	37689.72
694.769	37548.02
695.116	37537.85
695.462	37413.34
695.808	37356.39
696.155	37186.23
696.501	37094.25
696.847	37073.46
697.193	36777.87
697.539	37031.2
697.885	36693.13
698.231	36720.02
698.577	36621.95
698.923	36523.87
699.269	36178.12
699.614	36041.62
699.96	36007.95
700.306	36114.16
700.651	36025.13
700.997	35877.79
701.342	35778.81
701.688	35789.88
702.033	35608.41
702.379	35633.95
702.724	35431.92
703.069	35523.44
703.415	35124.13
703.76	35013.4
704.105	35065.38
704.45	34991.26
704.795	34734.76
705.14	34676.46
705.485	34666.97
705.83	34576.35
706.175	34676.01
706.52	34473.98
706.865	34316.92
707.209	34342.23
707.554	34177.04
707.899	34285.96
708.243	34097.04
708.588	34165.51
708.932	33944.5
709.277	33905.86
709.621	33712.19
709.966	33604.85
710.31	33667.9
710.654	33390.85
710.998	33552.65
711.342	33534.57
711.687	33488.7
712.031	33278.76
712.375	33295.25
712.719	33149.72
713.063	33044.87
713.407	33212.54
713.75	32985.43
714.094	33023.85
714.438	32873.8
714.782	32883.97
715.125	32740.47
715.469	32733.91
715.812	32554.48
716.156	32350.19
716.499	32425.22
716.843	32565.1
717.186	32238.79
717.53	32382.74
717.873	32313.13
718.216	32234.27
718.559	32082.18
718.902	32082.86
719.246	32034.27
719.589	31883.54
719.932	31844.9
720.275	31779.14
720.617	31852.58
720.96	31600.16
721.303	31645.58
721.646	31665.01
721.989	31463.44
722.331	31494.17
722.674	31420.73
723.016	31376.21
723.359	31314.06
723.701	31418.69
724.044	30945.71
724.386	31037.23
724.729	31075.65
725.071	31018.03
725.413	30922.44
725.755	30925.37
726.097	30870.69
726.439	30723.57
726.782	30609.22
727.124	30804.47
727.465	30599.28
727.807	30541.88
728.149	30446.97
728.491	30491.26
728.833	30561.77
729.175	30224.83
729.516	30280.19
729.858	30293.53
730.199	30313.19
730.541	30044.94
730.882	30116.13
731.224	30298.27
731.565	29939.41
731.906	30086.75
732.248	29948.68
732.589	29851.05
732.93	29666.2
733.271	29802.01
733.612	29858.73
733.953	29839.75
734.294	29684.5
734.635	29709.81
734.976	29705.97
735.317	29605.18
735.658	29533.77
735.999	29481.34
736.339	29489.03
736.68	29544.84
737.021	29321.35
737.361	29292.65
737.702	29378.97
738.042	29337.39
738.383	29144.4
738.723	29186.21
739.063	29145.76
739.404	29188.02
739.744	29073.9
740.084	29077.06
740.424	28997.51
740.764	28980.34
741.104	29072.77
741.444	28778.99
741.784	28645.21
742.124	28814.92
742.464	28674.13
742.804	28609.28
743.143	28556.85
743.483	28639.78
743.823	28513.23
744.162	28457.42
744.502	28519.56
744.841	28285.22
745.181	28321.15
745.52	28291.54
745.86	28237.53
746.199	28165.45
746.538	28150.31
746.877	28107.59
747.216	27989.18
747.556	28001.61
747.895	27981.95
748.234	27794.16
748.573	27950.31
748.911	27841.84
749.25	27812.91
749.589	27612.69
749.928	27624.22
750.267	27696.31
750.605	27537.89
750.944	27531.11
751.283	27397.56
751.621	27485.01
751.96	27235.98
752.298	27214.96
752.636	27330.67
752.975	27148.98
753.313	27132.25
753.651	27037.79
753.989	26963.22
754.327	27005.25
754.666	26788.08
755.004	26873.05
755.342	26847.29
755.679	26795.09
756.017	26649.1
756.355	26548.09
756.693	26412.72
757.031	26618.14
757.368	26358.04
757.706	26309.45
758.044	26145.16
758.381	26345.61
758.719	26198.27
759.056	26194.2
759.394	26146.74
759.731	25873.3
760.068	25896.58
760.405	25737.04
760.743	25572.29
761.08	25788.33
761.417	25666.3
761.754	25451.62
762.091	25486.19
762.428	25363.26
762.765	25230.38
763.102	25254.34
763.438	25119.2
763.775	25053.44
764.112	25036.26
764.449	24966.89
764.785	24895.93
765.122	24735.03
765.458	24603.96
765.795	24727.34
766.131	24602.38
766.467	24420.46
766.804	24237.19
767.14	24357.41
767.476	24316.51
767.812	24083.75
768.148	24185.66
768.485	23971.21
768.821	23914.26
769.157	23763.53
769.492	23760.59
769.828	23680.14
770.164	23493.93
770.5	23449.41
770.836	23537.54
771.171	23319.02
771.507	23316.76
771.842	23138.46
772.178	23132.36
772.513	23007.16
772.849	22933.72
773.184	22797.68
773.519	22855.3
773.855	22756.1
774.19	22629.32
774.525	22521.07
774.86	22508.42
775.195	22303.91
775.53	22320.85
775.865	22309.55
776.2	22020.3
776.535	21982.33
776.87	21926.29
777.205	21856.23
777.539	21853.3
777.874	21863.69
778.209	21605.17
778.543	21531.27
778.878	21433.87
779.212	21386.19
779.547	21237.94
779.881	21394.78
780.215	21288.56
780.55	21248.57
780.884	20979.87
781.218	20993.88
781.552	20943.04
781.886	20793.89
782.22	20755.7
782.554	20653.55
782.888	20476.83
783.222	20577.17
783.556	20386.22
783.889	20350.28
784.223	20061.03
784.557	20143.74
784.89	20061.7
785.224	20081.14
785.557	19891.31
785.891	19968.15
786.224	19797.98
786.558	19686.57
786.891	19670.08
787.224	19622.39
787.557	19656.97
787.891	19583.52
788.224	19487.48
788.557	19374.04
788.89	19369.97
789.223	19262.18
789.556	19119.58
789.888	19116.64
790.221	19064.22
790.554	18945.58
790.887	18991
791.219	18829.42
791.552	18787.39
791.884	18702.19
792.217	18629.88
792.549	18586.04
792.882	18470.79
793.214	18363.9
793.546	18389.88
793.879	18248.19
794.211	18140.4
794.543	18247.06
794.875	18161.64
795.207	18152.6
795.539	18082.1
795.871	18049.33
796.203	17881.42
796.535	17819.05
796.867	17758.71
797.198	17738.6
797.53	17651.15
797.862	17541.32
798.193	17589.23
798.525	17457.93
798.856	17544.03
799.188	17295.9
799.519	17303.81
799.85	17184.94
800.182	17234.89
800.513	17158.73
800.844	16926.65
801.175	17082.8
801.506	17037.15
801.837	17008.45
802.168	16935.01
802.499	16808.23
802.83	16770.72
803.161	16710.83
803.491	16751.73
803.822	16612.08
804.153	16624.28
804.483	16518.97
804.814	16452.31
805.145	16338.19
805.475	16426.09
805.805	16361.91
806.136	16241.92
806.466	16240.11
806.796	16270.39
807.126	16083.05
807.457	16107.23
807.787	16062.94
808.117	15983.17
808.447	15838.99
808.777	15950.85
809.107	15711.31
809.436	15715.83
809.766	15759.44
810.096	15714.47
810.426	15735.72
810.755	15642.61
811.085	15497.53
811.414	15535.72
811.744	15345.67
812.073	15449.85
812.403	15427.93
812.732	15340.02
813.061	15301.38
813.39	15178.44
813.719	15239.23
814.049	15230.19
814.378	15181.83
814.707	15131.89
815.036	15074.04
815.365	15009.86
815.693	14918.34
816.022	14954.27
816.351	14840.6
816.68	14817.1
817.008	14846.93
817.337	14628.4
817.665	14601.73
817.994	14698.23
818.322	14742.75
818.651	14575.29
818.979	14630.21
819.307	14615.52
819.636	14464.11
819.964	14435.64
820.292	14530.1
820.62	14503.66
820.948	14374.4
821.276	14512.47
821.604	14394.51
821.932	14400.84
822.259	14452.36
822.587	14365.13
822.915	14374.62
823.243	14447.61
823.57	14330.33
823.898	14332.82
824.225	14314.51
824.553	14347.05
824.88	14341.18
825.207	14500.49
825.535	14263.21
825.862	14351.12
826.189	14255.76
826.516	14429.76
826.843	14457.56
827.17	14438.35
827.497	14406.49
827.824	14415.3
828.151	14415.75
828.478	14359.93
828.805	14437.9
829.131	14336.66
829.458	14266.83
829.785	14219.82
830.111	14290.33
830.438	14323.55
830.764	14318.35
831.09	14290.1
831.417	14243.55
831.743	14265.92
832.069	14243.1
832.395	14181.18
832.722	14294.17
833.048	14118.13
833.374	14208.3
833.7	14152.26
834.026	14117.45
834.351	14114.52
834.677	14165.81
835.003	14163.1
835.329	14080.17
835.654	14107.74
835.98	14050.79
836.306	14095.53
836.631	13972.6
836.956	14073.16
837.282	14032.03
837.607	13927.63
837.932	13898.48
838.258	13926.72
838.583	13919.72
838.908	13865.03
839.233	13808.08
839.558	13822.09
839.883	13712.49
840.208	13713.4
840.533	13677.92
840.858	13674.75
841.182	13650.57
841.507	13734.64
841.832	13608.31
842.156	13692.38
842.481	13592.5
842.805	13569.67
843.13	13532.16
843.454	13482.67
843.778	13462.33
844.103	13407.42
844.427	13394.76
844.751	13334.65
845.075	13326.97
845.399	13354.31
845.723	13180.08
846.047	13272.96
846.371	13089.23
846.695	13124.71
847.019	12955.9
847.343	12960.87
847.666	12811.5
847.99	12790.03
848.313	12782.12
848.637	12740.31
848.96	12706.19
849.284	12604.73
849.607	12590.26
849.931	12564.5
850.254	12450.6
850.577	12426.42
850.9	12313.21
851.223	12246.09
851.546	12277.05
851.869	12216.94
852.192	12264.17
852.515	12077.28
852.838	12021.01
853.161	12050.62
853.483	12005.42
853.806	11973.78
854.129	12028.02
854.451	11941.01
854.774	11875.03
855.096	11809.49
855.419	11825.54
855.741	11848.13
856.063	11722.04
856.385	11686.78
856.708	11670.74
857.03	11565.66
857.352	11658.99
857.674	11519.56
857.996	11467.81
858.318	11444.98
858.64	11441.82
858.961	11335.83
859.283	11349.84
859.605	11227.81
859.926	11330.18
860.248	11311.2
860.57	11229.62
860.891	11275.04
861.212	11126.12
861.534	11144.88
861.855	11055.39
862.176	11181.03
862.498	11166.12
862.819	11108.27
863.14	11092.45
863.461	11037.08
863.782	10980.81
864.103	10995.5
864.424	10889.06
864.745	10876.86
865.065	10921.61
865.386	10863.75
865.707	10862.17
866.027	10882.96
866.348	10805.9
866.668	10853.36
866.989	10832.57
867.309	10726.81
867.63	10750.54
867.95	10783.98
868.27	10656.3
868.59	10708.28
868.91	10662.86
869.23	10692.46
869.55	10610.43
869.87	10671.44
870.19	10604.1
870.51	10698.33
870.83	10581.95
871.15	10585.8
871.469	10522.07
871.789	10526.81
872.109	10572.24
872.428	10354.16
872.748	10516.64
873.067	10398.68
873.386	10459.02
873.706	10355.74
874.025	10339.02
874.344	10341.06
874.663	10348.97
874.982	10292.02
875.301	10349.64
875.62	10237.33
875.939	10213.6
876.258	10263.77
876.577	10196.65
876.896	10198.23
877.214	10145.13
877.533	10165.92
877.852	10173.38
878.17	10127.95
878.489	10134.06
878.807	10138.12
879.125	10171.12
879.444	10076.43
879.762	9959.37
880.08	10132.25
880.398	10036.43
880.716	10026.49
881.034	9984
881.352	10000.27
881.67	9982.2
881.988	9944.68
882.306	9912.14
882.624	9936.55
882.941	9840.05
883.259	9810
883.577	9846.15
883.894	9767.51
884.212	9786.27
884.529	9736.78
884.846	9711.92
885.164	9689.32
885.481	9702.2
885.798	9671.24
886.115	9642.54
886.432	9558.03
886.75	9559.38
887.067	9512.6
887.383	9515.54
887.7	9544.01
888.017	9478.71
888.334	9490.91
888.651	9443
888.967	9437.12
889.284	9378.37
889.6	9324.59
889.917	9272.38
890.233	9320.52
890.55	9334.98
890.866	9239.39
891.182	9248.88
891.498	9195.78
891.815	9120.3
892.131	9088.89
892.447	9120.07
892.763	9075.55
893.079	9069.9
893.395	9065.61
893.71	9048.21
894.026	8956.46
894.342	8929.12
894.657	8902.9
894.973	8890.7
895.289	8885.95
895.604	8883.69
895.92	8764.6
896.235	8746.07
896.55	8701.32
896.865	8712.85
897.181	8682.34
897.496	8617.71
897.811	8610.48
898.126	8561.89
898.441	8628.56
898.756	8566.41
899.071	8475.34
899.386	8498.62
899.7	8467.66
900.015	8461.78
900.33	8387.89
900.644	8353.09
900.959	8391.73
901.273	8285.06
901.588	8311.5
901.902	8270.38
902.216	8228.79
902.531	8208
902.845	8154.45
903.159	8133.88
903.473	8001
903.787	7995.58
904.101	8070.38
904.415	7986.77
904.729	8005.98
905.042	7881.23
905.356	7902.25
905.67	7892.53
905.984	7854.12
906.297	7842.82
906.611	7809.82
906.924	7782.48
907.237	7768.47
907.551	7744.74
907.864	7719.2
908.177	7662.93
908.491	7698.87
908.804	7558.53
909.117	7582.94
909.43	7503.16
909.743	7481.7
910.056	7513.11
910.368	7415.48
910.681	7430.62
910.994	7387.24
911.307	7287.35
911.619	7259.55
911.932	7336.16
912.244	7285.77
912.557	7213.45
912.869	7215.71
913.181	7192.89
913.494	7142.5
913.806	7058.66
914.118	7108.37
914.43	7086.9
914.742	7040.35
915.054	6951.54
915.366	6976.4
915.678	6946.57
915.99	6883.97
916.302	6864.09
916.613	6821.15
916.925	6868.83
917.236	6785.44
917.548	6736.18
917.859	6779.79
918.171	6731.43
918.482	6735.05
918.794	6653.02
919.105	6593.13
919.416	6577.54
919.727	6569.63
920.038	6523.08
920.349	6524.21
920.66	6473.81
920.971	6481.27
921.282	6455.51
921.593	6372.12
921.903	6372.35
922.214	6330.99
922.525	6331.9
922.835	6296.64
923.146	6285.8
923.456	6266.36
923.767	6198.57
924.077	6153.6
924.387	6147.72
924.697	6116.08
925.008	6099.59
925.318	6084.22
925.628	6020.94
925.938	6018.91
926.248	5997.89
926.558	5956.31
926.867	5937.56
927.177	5882.42
927.487	5910.89
927.796	5859.59
928.106	5848.52
928.416	5829.99
928.725	5748.18
929.034	5736.66
929.344	5813.27
929.653	5758.35
929.962	5702.08
930.271	5621.63
930.581	5702.99
930.89	5641.74
931.199	5530.56
931.508	5617.34
931.817	5576.66
932.125	5573.05
932.434	5500.28
932.743	5503.44
933.051	5446.72
933.36	5423.67
933.669	5378.02
933.977	5366.05
934.286	5323.11
934.594	5351.58
934.902	5265.03
935.21	5317.01
935.519	5273.39
935.827	5251.7
936.135	5206.28
936.443	5206.5
936.751	5184.81
937.059	5147.97
937.367	5159.05
937.674	5111.59
937.982	5088.09
938.29	5129.67
938.597	5022.78
938.905	4996.11
939.213	5030.01
939.52	5034.98
939.827	4974.19
940.135	4946.17
940.442	4924.93
940.749	4918.6
941.056	4873.85
941.363	4865.72
941.67	4820.07
941.977	4825.04
942.284	4789.11
942.591	4798.38
942.898	4756.57
943.205	4733.52
943.511	4715.44
943.818	4700.98
944.125	4628.66
944.431	4662.11
944.738	4616.69
945.044	4621.88
945.35	4575.11
945.657	4511.83
945.963	4533.52
946.269	4451.95
946.575	4567.87
946.881	4481.55
947.187	4512.73
947.493	4501.66
947.799	4478.16
948.105	4420.76
948.41	4354.77
948.716	4427.09
949.022	4358.16
949.327	4366.07
949.633	4320.65
949.938	4340.31
950.244	4283.59
950.549	4291.95
950.854	4252.18
951.16	4291.5
951.465	4224.38
951.77	4224.15
952.075	4198.62
952.38	4206.08
952.685	4115.46
952.99	4136.25
953.294	4110.26
953.599	4116.59
953.904	4077.04
954.209	4081.11
954.513	4058.06
954.818	4039.07
955.122	4016.25
955.426	4016.7
955.731	3972.18
956.035	3918.63
956.339	3914.78
956.643	3907.55
956.948	3924.73
957.252	3882.24
957.556	3852.64
957.86	3839.76
958.163	3868.23
958.467	3825.97
958.771	3841.57
959.075	3785.07
959.378	3762.02
959.682	3719.76
959.985	3743.26
960.289	3723.15
960.592	3686.77
960.896	3681.57
961.199	3651.29
961.502	3678.63
961.805	3651.29
962.108	3618.75
962.411	3632.53
962.714	3570.16
963.017	3542.36
963.32	3556.6
963.623	3539.65
963.926	3543.95
964.228	3493.1
964.531	3502.37
964.833	3503.72
965.136	3468.47
965.438	3466.66
965.741	3416.94
966.043	3418.07
966.345	3408.58
966.648	3418.07
966.95	3429.15
967.252	3394.8
967.554	3338.98
967.856	3332.43
968.158	3294.01
968.46	3295.82
968.761	3247.01
969.063	3315.25
969.365	3297.4
969.666	3252.88
969.968	3213.11
970.269	3212.88
970.571	3210.17
970.872	3201.58
971.174	3136.95
971.475	3159.78
971.776	3122.49
972.077	3143.5
972.378	3106.44
972.679	3118.42
972.98	3115.71
973.281	3040.23
973.582	3029.84
973.883	3090.85
974.183	3038.2
974.484	3057.18
974.785	3006.11
975.085	2997.29
975.386	3011.98
975.686	2986.67
975.986	2985.09
976.287	2914.36
976.587	2967.69
976.887	2941.48
977.187	2906.9
977.487	2916.84
977.787	2907.13
978.087	2873.91
978.387	2805.43
978.687	2847.24
978.987	2812.21
979.286	2835.72
979.586	2828.71
979.885	2838.65
980.185	2805.89
980.484	2797.3
980.784	2795.72
981.083	2785.32
981.382	2713.01
981.682	2738.77
981.981	2719.56
982.28	2686.57
982.579	2691.99
982.878	2684.31
983.177	2691.99
983.475	2694.93
983.774	2627.13
984.073	2628.94
984.372	2621.03
984.67	2602.05
984.969	2580.13
985.267	2586.01
985.566	2589.17
985.864	2573.58
986.162	2566.8
986.461	2557.08
986.759	2549.17
987.057	2521.37
987.355	2508.95
987.653	2485.22
987.951	2471.21
988.249	2472.34
988.547	2459.46
988.844	2456.74
989.142	2435.05
989.44	2436.18
989.737	2427.14
990.035	2408.38
990.332	2410.19
990.63	2389.85
990.927	2358.21
991.224	2350.53
991.521	2329.06
991.819	2340.59
992.116	2326.13
992.413	2339.68
992.71	2297.2
993.006	2311.89
993.303	2297.88
993.6	2241.16
993.897	2239.35
994.193	2269.63
994.49	2244.55
994.787	2228.73
995.083	2240.93
995.379	2215.17
995.676	2193.7
995.972	2195.06
996.268	2205.45
996.565	2150.99
996.861	2157.54
997.157	2161.16
997.453	2147.37
997.749	2139.69
998.044	2110.09
998.34	2118.45
998.636	2104.89
998.932	2093.36
999.227	2061.05
999.523	2073.02
999.818	2076.19
1000.114	2056.98
1000.409	2047.26
1000.704	2017.88
1001	1993.93
1001.295	1996.19
1001.59	1983.99
1001.885	1991.44
1002.18	1952.35
1002.475	1958.68
1002.77	1960.94
1003.065	1953.71
1003.359	1948.96
1003.654	1944.44
1003.949	1920.03
1004.243	1922.07
1004.538	1850.88
1004.832	1853.14
1005.127	1878
1005.421	1873.48
1005.715	1848.17
1006.009	1865.57
1006.304	1831.9
1006.598	1834.16
1006.892	1803.88
1007.186	1810.66
1007.48	1808.17
1007.773	1764.56
1008.067	1761.39
1008.361	1717.33
1008.655	1748.74
1008.948	1756.87
1009.242	1704.67
1009.535	1699.48
1009.829	1706.03
1010.122	1674.39
1010.415	1673.04
1010.708	1676.65
1011.001	1662.41
1011.295	1672.36
1011.588	1654.05
1011.881	1656.54
1012.173	1628.06
1012.466	1625.58
1012.759	1622.19
1013.052	1621.29
1013.344	1599.82
1013.637	1619.93
1013.93	1592.59
1014.222	1571.57
1014.514	1548.07
1014.807	1567.05
1015.099	1544.9
1015.391	1539.03
1015.683	1530.44
1015.976	1525.02
1016.268	1485.02
1016.56	1486.15
1016.851	1484.11
1017.143	1469.88
1017.435	1489.09
1017.727	1474.62
1018.018	1442.31
1018.31	1438.69
1018.602	1434.62
1018.893	1431.91
1019.185	1426.49
1019.476	1406.15
1019.767	1401.18
1020.058	1384.46
1020.35	1406.38
1020.641	1379.26
1020.932	1348.3
1021.223	1360.27
1021.514	1334.74
1021.804	1315.76
1022.095	1303.55
1022.386	1327.06
1022.677	1332.71
1022.967	1304.01
1023.258	1297.45
1023.548	1279.37
1023.839	1289.77
1024.129	1266.04
1024.419	1260.62
1024.709	1246.83
1025	1251.35
1025.29	1215.87
1025.58	1226.27
1025.87	1220.39
1026.16	1208.19
1026.449	1224.01
1026.739	1173.16
1027.029	1184.91
1027.319	1162.54
1027.608	1155.76
1027.898	1155.08
1028.187	1170.68
1028.477	1143.78
1028.766	1192.82
1029.055	1147.4
1029.344	1138.13
1029.634	1144.24
1029.923	1101.98
1030.212	1112.6
1030.501	1090
1030.79	1091.81
1031.078	1093.84
1031.367	1113.95
1031.656	1064.46
1031.945	1103.11
1032.233	1066.05
1032.522	1043.22
1032.81	1051.81
1033.099	1034.86
1033.387	1028.53
1033.675	1028.76
1033.963	1030.79
1034.251	1017.91
1034.54	987.18
1034.828	1008.65
1035.116	989.21
1035.403	994.63
1035.691	1000.51
1035.979	948.53
1036.267	965.26
1036.554	988.31
1036.842	944.24
1037.129	944.01
1037.417	914.19
1037.704	941.98
1037.992	925.48
1038.279	923.68
1038.566	939.72
1038.853	939.72
1039.14	939.72
