Data from plate_porcelain_FLMS001491_094.txt Node
Date: Tue Feb 07 11:20:13 GMT 2017
User: dcchb
Spectrometer: FLMS00149
Trigger mode: 0
Integration Time (sec): 2.000000E-2
Scans to average: 10
Electric dark correction enabled: true
Nonlinearity correction enabled: false
Boxcar width: 0
XAxis mode: Wavelengths
Number of Pixels in Spectrum: 2048
>>>>>Begin Spectral Data<<<<<
341.393	-26.86
341.776	-26.86
342.16	-26.86
342.543	-81.1
342.927	-57.15
343.31	-86.3
343.693	-74.09
344.077	-64.6
344.46	-61.44
344.843	-58.05
345.226	-42.91
345.61	-38.16
345.993	-24.38
346.376	0.93
346.759	-2.68
347.142	29.63
347.525	72.34
347.908	49.74
348.291	79.35
348.674	106.01
349.057	114.6
349.44	130.19
349.823	131.32
350.206	169.74
350.588	226.01
350.971	246.58
351.354	256.07
351.737	267.14
352.119	300.13
352.502	300.59
352.884	309.85
353.267	319.12
353.65	336.97
354.032	339.45
354.414	334.48
354.797	337.87
355.179	369.74
355.562	364.76
355.944	382.17
356.326	381.26
356.709	371.77
357.091	389.17
357.473	396.4
357.855	390.53
358.238	386.23
358.62	403.41
359.002	377.19
359.384	397.98
359.766	387.14
360.148	408.83
360.53	393.69
360.912	389.62
361.294	394.14
361.676	387.59
362.057	407.7
362.439	397.76
362.821	420.58
363.203	387.59
363.584	383.07
363.966	399.79
364.348	369.96
364.729	402.28
365.111	392.79
365.493	394.59
365.874	385.1
366.256	400.47
366.637	395.5
367.019	386.01
367.4	390.07
367.781	398.44
368.163	404.31
368.544	383.52
368.925	390.53
369.306	418.55
369.688	415.84
370.069	390.07
370.45	411.09
370.831	400.24
371.212	405.67
371.593	409.96
371.974	433.01
372.355	409.73
372.736	431.88
373.117	437.98
373.498	408.15
373.879	440.69
374.26	419.23
374.641	412.9
375.021	435.5
375.402	431.43
375.783	480.24
376.163	464.2
376.544	447.93
376.925	478.66
377.305	476.4
377.686	458.77
378.066	452.9
378.447	480.69
378.827	479.56
379.208	471.88
379.588	487.25
379.968	470.07
380.349	491.77
380.729	493.35
381.109	513.46
381.489	512.78
381.87	505.78
382.25	517.53
382.63	498.09
383.01	527.92
383.39	559.11
383.77	556.17
384.15	512.78
384.53	538.32
384.91	544.65
385.29	564.99
385.67	545.32
386.049	583.74
386.429	565.66
386.809	593.91
387.189	569.28
387.568	571.99
387.948	588.94
388.328	610.86
388.707	614.48
389.087	623.29
389.466	622.61
389.846	634.59
390.225	625.1
390.605	629.84
390.984	651.76
391.363	667.36
391.743	670.07
392.122	673.46
392.501	682.95
392.881	675.49
393.26	716.85
393.639	688.82
394.018	727.24
394.397	731.76
394.776	741.25
395.155	758.88
395.534	759.1
395.913	747.81
396.292	783.06
396.671	791.19
397.05	797.07
397.429	812.44
397.808	806.56
398.186	809.5
398.565	806.11
398.944	858.54
399.323	850.85
399.701	809.95
400.08	840.46
400.458	846.79
400.837	865.99
401.215	886.11
401.594	889.27
401.972	886.56
402.351	907.12
402.729	905.54
403.107	907.8
403.486	965.2
403.864	929.27
404.242	955.48
404.62	973.56
404.999	962.94
405.377	990.51
405.755	1004.52
406.133	1028.02
406.511	1037.29
406.889	1044.75
407.267	1064.18
407.645	1073.45
408.023	1094.69
408.401	1086.78
408.779	1111.64
409.156	1130.62
409.534	1136.04
409.912	1196.61
410.29	1200
410.667	1201.35
411.045	1216.95
411.422	1241.8
411.8	1232.09
412.178	1270.5
412.555	1308.47
412.933	1313.89
413.31	1320.67
413.687	1350.5
414.065	1374
414.442	1367
414.819	1370.84
415.197	1380.1
415.574	1428.92
415.951	1478.18
416.328	1461.68
416.705	1462.81
417.082	1474.79
417.46	1490.61
417.837	1514.79
418.214	1532.42
418.591	1551.17
418.967	1577.84
419.344	1587.11
419.721	1610.83
420.098	1643.15
420.475	1668.68
420.852	1656.03
421.228	1682.92
421.605	1676.14
421.982	1720.43
422.358	1718.63
422.735	1774.9
423.111	1772.86
423.488	1783.48
423.864	1799.53
424.241	1845.4
424.617	1853.09
424.994	1856.48
425.37	1877.04
425.746	1911.62
426.123	1911.16
426.499	1955.23
426.875	1950.94
427.251	2008.11
427.627	2050.82
428.003	2069.8
428.379	2100.31
428.756	2116.13
429.132	2139.41
429.507	2190.03
429.883	2230.48
430.259	2249.46
430.635	2289.46
431.011	2294.21
431.387	2339.18
431.763	2411.72
432.138	2406.74
432.514	2418.95
432.89	2466.18
433.265	2532.62
433.641	2538.49
434.016	2592.95
434.392	2625.72
434.767	2662.78
435.143	2667.3
435.518	2707.75
435.894	2752.95
436.269	2761.76
436.644	2823.23
437.02	2853.74
437.395	2822.78
437.77	2883.12
438.145	2961.98
438.52	2985.26
438.895	3027.97
439.271	2999.05
439.646	3058.93
440.021	3104.58
440.395	3144.58
440.77	3136.67
441.145	3179.15
441.52	3206.27
441.895	3231.58
442.27	3240.62
442.645	3253.5
443.019	3312.26
443.394	3328.3
443.769	3373.5
444.143	3326.49
444.518	3394.52
444.892	3440.84
445.267	3443.78
445.641	3512.48
446.016	3530.33
446.39	3558.35
446.764	3540.27
447.139	3578.69
447.513	3672.47
447.887	3634.06
448.262	3666.82
448.636	3671.57
449.01	3736.2
449.384	3769.65
449.758	3828.18
450.132	3870.89
450.506	3899.36
450.88	3905.46
451.254	3905.01
451.628	3987.04
452.002	4046.48
452.376	4097.55
452.75	4103.42
453.123	4169.64
453.497	4244.89
453.871	4232.46
454.244	4328.28
454.618	4403.53
454.992	4440.14
455.365	4453.47
455.739	4577.99
456.112	4630.41
456.486	4640.58
456.859	4693.92
457.232	4793.35
457.606	4822.05
457.979	4877.64
458.352	4981.37
458.725	4996.73
459.099	5057.75
459.472	5188.59
459.845	5238.53
460.218	5303.62
460.591	5329.38
460.964	5397.85
461.337	5499.54
461.71	5587
462.083	5639.2
462.456	5653.44
462.829	5719.88
463.201	5808.24
463.574	5880.78
463.947	5952.19
464.32	6089.13
464.692	6167.32
465.065	6161.67
465.438	6271.5
465.81	6375.45
466.183	6442.8
466.555	6614.32
466.928	6663.81
467.3	6641.66
467.672	6763.24
468.045	6972.27
468.417	6975.44
468.789	7040.3
469.161	7170.01
469.534	7251.81
469.906	7443.22
470.278	7405.26
470.65	7607.96
471.022	7732.03
471.394	7846.38
471.766	7912.81
472.138	8047.5
472.51	8258.34
472.882	8352.13
473.253	8396.19
473.625	8576.53
473.997	8756.86
474.369	8845.22
474.74	8881.6
475.112	9070.75
475.484	9213.12
475.855	9432.1
476.227	9518.87
476.598	9848.36
476.97	9890.62
477.341	10093.32
477.713	10188.69
478.084	10336.48
478.455	10597.72
478.827	10631.84
479.198	10919.74
479.569	10962.68
479.94	11325.38
480.311	11469.78
480.682	11754.3
481.053	11919.49
481.424	12208.07
481.795	12312.7
482.166	12462.07
482.537	12633.82
482.908	12883.08
483.279	13120.14
483.65	13297.98
484.021	13608.48
484.391	13783.62
484.762	13866.33
485.133	14037.63
485.503	14205.98
485.874	14541.34
486.244	14584.05
486.615	14940.88
486.985	15144.94
487.356	15448.21
487.726	15608.66
488.097	15872.61
488.467	15919.84
488.837	16348.52
489.207	16485.02
489.578	16733.15
489.948	16884.56
490.318	17186.47
490.688	17245.9
491.058	17544.2
491.428	17707.81
491.798	17968.37
492.168	18286.33
492.538	18400.22
492.908	18673.44
493.278	18845.18
493.648	18941.45
494.017	19206.75
494.387	19263.02
494.757	19504.83
495.126	19727.87
495.496	19805.38
495.866	19972.84
496.235	20290.34
496.605	20455.08
496.974	20543.89
497.344	20798.35
497.713	20861.4
498.082	21127.83
498.452	21330.77
498.821	21480.59
499.19	21570.99
499.559	21740.02
499.928	21973.69
500.298	21997.42
500.667	22305.66
501.036	22252.78
501.405	22426.56
501.774	22616.83
502.143	22825.42
502.512	22899.31
502.88	23224.28
503.249	23203.71
503.618	23402.12
503.987	23477.83
504.356	23811.83
504.724	23937.93
505.093	23967.76
505.462	23978.83
505.83	24297.47
506.199	24580.4
506.567	24874.63
506.936	24801.41
507.304	25071.91
507.672	25157.33
508.041	25447.72
508.409	25590.32
508.777	25879.57
509.145	26099.23
509.514	26075.27
509.882	26306.23
510.25	26357.08
510.618	26574.92
510.986	26738.53
511.354	26958.19
511.722	27044.74
512.09	27513.2
512.458	27506.65
512.826	27679.75
513.193	27726.53
513.561	27936.02
513.929	28223.01
514.297	28502.33
514.664	28816.67
515.032	28876.33
515.4	29188.87
515.767	29316.32
516.135	29509.99
516.502	29319.71
516.869	29921.73
517.237	30049.41
517.604	29996.3
517.972	30295.5
518.339	30606.68
518.706	30778.43
519.073	30928.93
519.44	31180.9
519.808	31565.3
520.175	31522.14
520.542	32027.21
520.909	32201.89
521.276	32302.68
521.643	32658.83
522.009	32933.63
522.376	33086.62
522.743	33330.23
523.11	33673.72
523.477	33894.96
523.843	34148.28
524.21	34540.36
524.577	34735.84
524.943	34985.78
525.31	35155.71
525.676	35375.14
526.043	35656.72
526.409	35812.19
526.776	36282.46
527.142	36370.15
527.508	36652.62
527.874	37004.93
528.241	37173.74
528.607	37287.18
528.973	37778.92
529.339	37608.76
529.705	37979.14
530.071	38283.54
530.437	38618.22
530.803	38782.74
531.169	38896.63
531.535	38913.81
531.901	39042.39
532.267	39301.14
532.632	39693.9
532.998	39832.43
533.364	40113.32
533.73	40218.18
534.095	40457.27
534.461	40508.79
534.826	40982.91
535.192	41079.63
535.557	41365.27
535.923	41282.11
536.288	41449.56
536.653	41687.75
537.019	41591.7
537.384	41941.98
537.749	42056.55
538.114	42140.39
538.479	42168.86
538.845	42422.19
539.21	42452.25
539.575	42620.15
539.94	42887.94
540.305	43184.66
540.67	43067.6
541.034	43352.79
541.399	43577.87
541.764	43699.9
542.129	43790.06
542.494	43798.42
542.858	44108.47
543.223	44146.44
543.587	44315.02
543.952	44414.45
544.316	44717.04
544.681	44543.04
545.045	44850.15
545.41	45110.71
545.774	45066.19
546.138	45317.93
546.503	45357.71
546.867	45383.92
547.231	45745.94
547.595	45878.14
547.959	45972.15
548.324	45990.23
548.688	46111.58
549.052	46270
549.416	46415.3
549.779	46569.43
550.143	46654.17
550.507	46928.74
550.871	46940.04
551.235	47152.23
551.599	47434.49
551.962	47402.4
552.326	47524.65
552.689	47767.36
553.053	47646.46
553.417	47866.11
553.78	48331.41
554.143	48111.53
554.507	48379.77
554.87	48525.08
555.234	49069.25
555.597	48651.86
555.96	48862.92
556.323	49148.11
556.686	49134.56
557.05	49428.11
557.413	49604.6
557.776	49647.31
558.139	49946.96
558.502	49977.7
558.865	50151.7
559.228	50306.73
559.59	50448.65
559.953	50451.81
560.316	50857.22
560.679	50832.59
561.041	51097.22
561.404	51314.84
561.767	51425.79
562.129	51412.24
562.492	51755.05
562.854	51741.04
563.217	51863.3
563.579	51973.58
563.941	52202.5
564.304	52314.13
564.666	52465.77
565.028	52540.57
565.39	52712.99
565.753	52882.71
566.115	52984.62
566.477	53100.1
566.839	53208.35
567.201	53370.6
567.563	53479.53
567.925	53576.25
568.287	53597.94
568.648	53778.5
569.01	53822.12
569.372	54096.68
569.734	54014.88
570.095	54155.67
570.457	54354.08
570.819	54351.14
571.18	54421.42
571.542	54601.53
571.903	54609.89
572.265	54778.7
572.626	54709.78
572.987	54956.1
573.349	54928.75
573.71	55093.27
574.071	55119.03
574.432	55248.75
574.794	55393.83
575.155	55427.05
575.516	55351.34
575.877	55494.84
576.238	55544.56
576.599	55633.82
576.96	55690.09
577.32	55630.2
577.681	55751.1
578.042	55835.62
578.403	55853.47
578.763	55937.77
579.124	55926.47
579.485	55987.71
579.845	56071.32
580.206	56077.65
580.566	56055.05
580.927	56139.8
581.287	56232.9
581.648	56170.3
582.008	56302.28
582.368	56216.63
582.728	56247.36
583.089	56256.63
583.449	56227.02
583.809	56253.92
584.169	56370.3
584.529	56242.84
584.889	56404.19
585.249	56255.72
585.609	56262.5
585.969	56427.25
586.329	56401.94
586.688	56393.8
587.048	56347.25
587.408	56308.38
587.768	56342.05
588.127	56353.35
588.487	56333.24
588.846	56464.98
589.206	56314.93
589.565	56375.27
589.925	56506.57
590.284	56444.42
590.643	56479.45
591.003	56497.75
591.362	56532.1
591.721	56487.58
592.08	56579.33
592.44	56611.2
592.799	56618.65
593.158	56595.6
593.517	56529.62
593.876	56552.89
594.235	56587.47
594.593	56588.82
594.952	56691.64
595.311	56570.07
595.67	56614.58
596.029	56764.64
596.387	56805.99
596.746	56777.07
597.104	56699.33
597.463	56677.18
597.822	56810.51
598.18	56598.31
598.538	56737.07
598.897	56885.31
599.255	56709.72
599.613	57026.1
599.972	56797.63
600.33	56963.28
600.688	56801.47
601.046	57027
601.404	57093.67
601.762	56994.69
602.12	57126.89
602.478	57104.74
602.836	57187
603.194	57033.56
603.552	56933.9
603.91	56985.65
604.268	57097.96
604.625	57071.97
604.983	57181.35
605.341	57025.2
605.698	57242.14
606.056	57277.62
606.413	57162.82
606.771	57337.73
607.128	57433.55
607.485	57260.9
607.843	57257.96
608.2	57445.98
608.557	57498.86
608.914	57429.48
609.272	57442.13
609.629	57544.73
609.986	57605.07
610.343	57505.41
610.7	57765.29
611.057	57690.26
611.414	57696.82
611.771	57727.32
612.127	57795.12
612.484	57749.02
612.841	57874.44
613.198	57752.41
613.554	57830.82
613.911	57856.36
614.267	57906.3
614.624	57848.45
614.98	57920.09
615.337	58052.97
615.693	58006.64
616.05	57982.23
616.406	58125.51
616.762	58019.29
617.118	58019.75
617.475	58049.58
617.831	58155.79
618.187	58064.72
618.543	58125.28
618.899	58250.25
619.255	58299.06
619.611	58184.49
619.967	58342.67
620.323	58309.46
620.678	58318.95
621.034	58235.33
621.39	58203.47
621.746	58212.06
622.101	58488.89
622.457	58301.09
622.812	58309.68
623.168	58341.09
623.523	58398.72
623.879	58424.71
624.234	58278.72
624.589	58321.88
624.945	58338.16
625.3	58342.22
625.655	58382.45
626.01	58364.14
626.365	58373.63
626.72	58361.21
627.075	58310.36
627.43	58312.85
627.785	58233.98
628.14	58226.97
628.495	58248.44
628.85	58246.63
629.205	58147.65
629.559	58314.43
629.914	58142
630.269	58217.93
630.623	58112.62
630.978	58063.81
631.332	58240.08
631.687	58198.72
632.041	58078.28
632.396	58157.37
632.75	58013.42
633.104	58095.68
633.459	57914.21
633.813	57958.28
634.167	57969.58
634.521	57937.71
634.875	57919.18
635.229	57876.02
635.583	57791.96
635.937	57750.83
636.291	57791.05
636.645	57753.31
636.999	57672.18
637.352	57709.92
637.706	57603.03
638.06	57672.18
638.413	57595.8
638.767	57577.95
639.121	57583.37
639.474	57410.95
639.828	57414.34
640.181	57472.19
640.534	57511.06
640.888	57361.68
641.241	57259.77
641.594	57293.21
641.947	57327.56
642.301	57323.49
642.654	57306.09
643.007	57262.93
643.36	57195.81
643.713	57134.8
644.066	57324.85
644.419	57020
644.771	56873.34
645.124	56653.91
645.477	56638.09
645.83	56439.45
646.182	56256.63
646.535	56261.6
646.888	56245.33
647.24	56185.44
647.593	56268.15
647.945	56177.31
648.298	56094.82
648.65	55985.9
649.002	55878.56
649.355	55992.91
649.707	55982.74
650.059	56082.4
650.411	56414.82
650.763	56420.47
651.115	56708.14
651.467	56514.47
651.819	56501.37
652.171	56488.71
652.523	56411.2
652.875	56367.81
653.227	56302.95
653.578	56382.95
653.93	56348.6
654.282	56197.19
654.633	56234.93
654.985	56244.88
655.337	56250.3
655.688	56210.08
656.039	56240.81
656.391	55987.71
656.742	56114.94
657.094	56181.15
657.445	56163.75
657.796	56186.35
658.147	56124.2
658.498	56074.03
658.849	56146.8
659.2	55995.84
659.551	56026.35
659.902	56060.02
660.253	56038.33
660.604	56069.06
660.955	55896.19
661.306	55994.49
661.656	55938.9
662.007	55934.6
662.358	55881.04
662.708	55870.65
663.059	55832.23
663.409	55745.68
663.76	55826.13
664.11	55772.35
664.461	55848.05
664.811	55830.65
665.161	55799.24
665.511	55705.46
665.862	55761.5
666.212	55857.54
666.562	55863.42
666.912	55727.6
667.262	55743.2
667.612	55727.15
667.962	55736.64
668.312	55655.97
668.662	55787.49
669.011	55734.83
669.361	55649.41
669.711	55634.95
670.06	55613.71
670.41	55560.38
670.76	55551.56
671.109	55621.62
671.459	55547.95
671.808	55568.74
672.157	55674.04
672.507	55401.74
672.856	55317.44
673.205	55496.87
673.554	55531
673.904	55408.51
674.253	55529.87
674.602	55400.83
674.951	55098.92
675.3	54855.08
675.649	55349.76
675.998	55325.35
676.346	55232.93
676.695	55402.64
677.044	55131.69
677.393	55186.37
677.741	55264.34
678.09	55220.5
678.438	55181.4
678.787	55257.78
679.135	55248.75
679.484	55080.39
679.832	55135.53
680.181	54820.28
680.529	55008.07
680.877	54837.68
681.225	54962.88
681.573	55028.19
681.922	54832.26
682.27	54717.91
682.618	54707.52
682.966	54651.92
683.314	54626.16
683.661	54577.8
684.009	54467.07
684.357	54370.35
684.705	54389.11
685.053	54470.23
685.4	54347.3
685.748	54237.7
686.095	54208.55
686.443	54034.31
686.79	53963.81
687.138	54007.65
687.485	54049.68
687.832	53974.43
688.18	53937.82
688.527	53772.4
688.874	53706.64
689.221	53738.73
689.568	53605.62
689.915	53531.95
690.262	53541.67
690.609	53377.38
690.956	53274.79
691.303	53320.89
691.65	53112.53
691.997	53156.82
692.344	52930.61
692.69	53008.13
693.037	53054.68
693.383	52653.33
693.73	52779.88
694.077	52617.85
694.423	52606.33
694.769	52432.55
695.116	52442.72
695.462	52382.83
695.808	52427.58
696.155	52324.53
696.501	52046.12
696.847	52102.61
697.193	51915.27
697.539	51946.23
697.885	51774.26
698.231	51684.32
698.577	51682.51
698.923	51578.79
699.269	51428.96
699.614	51236.87
699.96	51166.59
700.306	51212.92
700.651	51075.97
700.997	50993.04
701.342	50946.26
701.688	50789.2
702.033	50606.38
702.379	50538.36
702.724	50620.62
703.069	50597.12
703.415	50244.36
703.76	50280.74
704.105	50265.15
704.45	50093.85
704.795	49914.2
705.14	49802.33
705.485	49751.04
705.83	49630.14
706.175	49717.14
706.52	49610.93
706.865	49447.09
707.209	49453.87
707.554	49378.39
707.899	49366.19
708.243	49100.43
708.588	49211.16
708.932	48842.81
709.277	48838.52
709.621	48909.48
709.966	48630.61
710.31	48644.4
710.654	48325.54
710.998	48405.54
711.342	48433.78
711.687	48221.13
712.031	48055.04
712.375	48030.18
712.719	48060.91
713.063	47928.71
713.407	47958.99
713.75	47701.82
714.094	47723.75
714.438	47604.43
714.782	47595.16
715.125	47335.73
715.469	47491.89
715.812	47206.24
716.156	46970.77
716.499	47059.36
716.843	47074.95
717.186	46765.8
717.53	47074.04
717.873	47035.63
718.216	46914.27
718.559	46920.15
718.902	46793.6
719.246	46731.23
719.589	46491.01
719.932	46289.21
720.275	46308.87
720.617	46261.41
720.96	46085.14
721.303	46076.1
721.646	46081.53
721.989	45929.22
722.331	46072.26
722.674	45800.41
723.016	45946.16
723.359	45821.2
723.701	45838.82
724.044	45517.7
724.386	45278.84
724.729	45550.92
725.071	45408.1
725.413	45302.11
725.755	45278.39
726.097	45104.83
726.439	44881.56
726.782	44913.42
727.124	45154.1
727.465	44823.48
727.807	44757.27
728.149	44625.07
728.491	44718.85
728.833	44774.67
729.175	44533.32
729.516	44577.16
729.858	44362.25
730.199	44503.04
730.541	44407
730.882	44321.12
731.224	44324.51
731.565	43995.93
731.906	44084.52
732.248	44021.24
732.589	43841.14
732.93	43754.36
733.271	43776.73
733.612	43775.37
733.953	43663.96
734.294	43550.97
734.635	43498.32
734.976	43658.99
735.317	43200.25
735.658	43238.21
735.999	43337.65
736.339	43149.18
736.68	43291.32
737.021	43043.87
737.361	42915.51
737.702	43095.62
738.042	43075.05
738.383	42707.83
738.723	42852.01
739.063	42636.65
739.404	42765.46
739.744	42663.09
740.084	42327.95
740.424	42450.44
740.764	42381.51
741.104	42465.35
741.444	42300.61
741.784	42139.03
742.124	42199.82
742.464	41979.72
742.804	41907.85
743.143	41939.72
743.483	41900.17
743.823	41700.85
744.162	41685.71
744.502	41921.86
744.841	41482.1
745.181	41621.76
745.52	41605.04
745.86	41602.1
746.199	41361.43
746.538	41293.18
746.877	41444.36
747.216	41188.32
747.556	41077.59
747.895	41213.18
748.234	40808.22
748.573	40936.58
748.911	40904.72
749.25	40789.01
749.589	40698.17
749.928	40660.43
750.267	40692.74
750.605	40479.87
750.944	40397.38
751.283	40287.1
751.621	40348.12
751.96	40067
752.298	40003.72
752.636	40152.19
752.975	39754.24
753.313	39632.43
753.651	39917.85
753.989	39550.85
754.327	39571.19
754.666	39285.1
755.004	39400.8
755.342	39410.97
755.679	39350.18
756.017	39117.42
756.355	39173.24
756.693	38964.88
757.031	39022.73
757.368	38838.78
757.706	38637.43
758.044	38579.13
758.381	38646.02
758.719	38483.99
759.056	38536.87
759.394	38312.92
759.731	38057.11
760.068	38001.74
760.405	37949.09
760.743	37752.26
761.08	37817.79
761.417	37534.63
761.754	37495.99
762.091	37520.17
762.428	37265.72
762.765	37189.11
763.102	37259.39
763.438	36909.57
763.775	36885.61
764.112	36864.6
764.449	36744.82
764.785	36408.79
765.122	36300.54
765.458	36192.97
765.795	36135.12
766.131	36039.76
766.467	35898.29
766.804	35854.68
767.14	35693.1
767.476	35577.17
767.812	35410.4
768.148	35430.96
768.485	35216.05
768.821	35141.93
769.157	35065.55
769.492	35094.25
769.828	34905.1
770.164	34549.85
770.5	34529.06
770.836	34528.61
771.171	34225.12
771.507	34205.23
771.842	33905.58
772.178	34074.84
772.513	33998
772.849	33898.57
773.184	33685.02
773.519	33650.44
773.855	33469.66
774.19	33173.39
774.525	33155.09
774.86	33184.69
775.195	33102.21
775.53	32821.99
775.865	32786.74
776.2	32559.4
776.535	32360.76
776.87	32372.96
777.205	32233.53
777.539	32195.11
777.874	32142.46
778.209	31980.43
778.543	31752.87
778.878	31671.06
779.212	31567.11
779.547	31263.39
779.881	31522.82
780.215	31254.35
780.55	31332.99
780.884	31122.15
781.218	31084.63
781.552	30964.86
781.886	30718.54
782.22	30617.08
782.554	30495.5
782.888	30210.99
783.222	30056.64
783.556	30074.04
783.889	30004.66
784.223	29833.82
784.557	29590.44
784.89	29818.45
785.224	29532.59
785.557	29484.68
785.891	29316.77
786.224	29248.3
786.558	29107.96
786.891	28863.68
787.224	28865.48
787.557	28830.68
787.891	28827.97
788.224	28728.31
788.557	28756.33
788.89	28601.76
789.223	28451.03
789.556	28239.29
789.888	28176.46
790.221	28074.09
790.554	27883.36
790.887	27914.77
791.219	27727.66
791.552	27691.73
791.884	27459.42
792.217	27598.17
792.549	27327.67
792.882	27201.35
793.214	27113.67
793.546	27128.13
793.879	26948.47
794.211	26834.12
794.543	26855.14
794.875	26704.41
795.207	26753.9
795.539	26590.97
795.871	26617.18
796.203	26327.02
796.535	26262.84
796.867	26156.85
797.198	26057.87
797.53	26110.75
797.862	25931.55
798.193	25925.9
798.525	25727.26
798.856	25595.97
799.188	25399.13
799.519	25388.74
799.85	25274.39
800.182	25384.9
800.513	25316.2
800.844	25127.05
801.175	25221.06
801.506	25079.59
801.837	25047.28
802.168	24826.27
802.499	24813.39
802.83	24740.17
803.161	24663.56
803.491	24693.16
803.822	24600.29
804.153	24397.13
804.483	24235.78
804.814	24114.2
805.145	24128.66
805.475	24063.35
805.805	24143.12
806.136	24104.25
806.466	24027.42
806.796	23941.77
807.126	23715.56
807.457	23675.34
807.787	23701.1
808.117	23526.42
808.447	23508.56
808.777	23543.82
809.107	23426.3
809.436	23341.79
809.766	23300.88
810.096	23164.16
810.426	23149.02
810.755	23125.97
811.085	23020.44
811.414	22958.52
811.744	22870.16
812.073	22879.43
812.403	22832.2
812.732	22610.96
813.061	22686.66
813.39	22524.86
813.719	22463.62
814.049	22623.16
814.378	22375.26
814.707	22260.46
815.036	22149.5
815.365	22102.5
815.693	22020.47
816.022	21948.6
816.351	21923.52
816.68	21756.07
817.008	21917.19
817.337	21634.49
817.665	21658.22
817.994	21711.77
818.322	21676.52
818.651	21581.83
818.979	21459.58
819.307	21441.95
819.636	21426.81
819.964	21207.61
820.292	21483.76
820.62	21363.76
820.948	21266.59
821.276	21351.78
821.604	21232.24
821.932	21345.46
822.259	21348.39
822.587	21270.88
822.915	21239.92
823.243	21264.1
823.57	21240.83
823.898	21214.61
824.225	21202.63
824.553	21080.15
824.88	21136.65
825.207	21189.98
825.535	21159.92
825.862	21246.25
826.189	21112.92
826.516	21229.98
826.843	21169.42
827.17	21335.06
827.497	21297.55
827.824	21235.18
828.151	21316.98
828.478	21141.39
828.805	21272.92
829.131	21062.07
829.458	21102.75
829.785	21036.31
830.111	21064.79
830.438	21052.13
830.764	21062.53
831.09	21112.47
831.417	20914.05
831.743	21047.16
832.069	21027.27
832.395	20875.19
832.722	20974.39
833.048	21011.91
833.374	20956.31
833.7	20838.12
834.026	20825.92
834.351	20964
834.677	20922.42
835.003	20923.77
835.329	20897.33
835.654	20771.01
835.98	20666.15
836.306	20832.7
836.631	20636.77
836.956	20752.48
837.282	20742.76
837.607	20576.89
837.932	20641.52
838.258	20581.18
838.583	20534.63
838.908	20456.21
839.233	20413.95
839.558	20351.36
839.883	20285.82
840.208	20325.6
840.533	20257.12
840.858	20239.95
841.182	20295.09
841.507	20166.05
841.832	20050.57
842.156	20121.99
842.481	20088.54
842.805	19854.2
843.13	19863.69
843.454	19862.33
843.778	19755.22
844.103	19782.78
844.427	19740.75
844.751	19728.78
845.075	19679.96
845.399	19618.04
845.723	19485.17
846.047	19518.39
846.371	19428.9
846.695	19270.03
847.019	19215.57
847.343	19061.67
847.666	18886.31
847.99	18861
848.313	18862.81
848.637	18701.91
848.96	18730.61
849.284	18695.36
849.607	18529.26
849.931	18484.06
850.254	18441.58
850.577	18333.11
850.9	18155.26
851.223	18193.67
851.546	18168.36
851.869	17913.68
852.192	18108.93
852.515	17823.74
852.838	17777.41
853.161	17774.02
853.483	17765.44
853.806	17623.75
854.129	17638.21
854.451	17517.31
854.774	17428.04
855.096	17438.21
855.419	17334.04
855.741	17263.53
856.063	17228.5
856.385	17192.34
856.708	17050.2
857.03	17003.42
857.352	17045.91
857.674	16937.66
857.996	16768.85
858.318	16704.67
858.64	16840.26
858.961	16726.82
859.283	16592.13
859.605	16634.62
859.926	16589.42
860.248	16539.48
860.57	16512.81
860.891	16502.87
861.212	16394.63
861.534	16399.37
861.855	16332.03
862.176	16414.51
862.498	16404.12
862.819	16275.53
863.14	16216.33
863.461	16125.71
863.782	16126.84
864.103	16010.23
864.424	16073.05
864.745	16139.94
865.065	16018.82
865.386	16019.27
865.707	16063.79
866.027	16068.53
866.348	15999.38
866.668	15971.81
866.989	15975.43
867.309	15806.17
867.63	15814.3
867.95	15724.36
868.27	15707.19
868.59	15671.71
868.91	15671.25
869.23	15626.96
869.55	15581.09
869.87	15703.8
870.19	15676
870.51	15625.15
870.83	15610.69
871.15	15433.52
871.469	15414.76
871.789	15438.94
872.109	15375.67
872.428	15338.16
872.748	15378.61
873.067	15367.53
873.386	15325.95
873.706	15387.65
874.025	15227.88
874.344	15194.66
874.663	15237.14
874.982	15141.78
875.301	15137.48
875.62	15064.94
875.939	15058.16
876.258	15062.68
876.577	15087.99
876.896	14994.66
877.214	14951.5
877.533	14912.63
877.852	14936.36
878.17	14897.72
878.489	14965.51
878.807	14899.3
879.125	14833.31
879.444	14829.92
879.762	14749.92
880.08	14734.78
880.398	14753.76
880.716	14693.65
881.034	14628.12
881.352	14756.25
881.67	14530.04
881.988	14665.86
882.306	14541.57
882.624	14549.02
882.941	14450.04
883.259	14453.89
883.577	14394.9
883.894	14406.43
884.212	14328.92
884.529	14271.97
884.846	14273.78
885.164	14081.69
885.481	14180.22
885.798	14224.06
886.115	14105.87
886.432	14011.19
886.75	13983.39
887.067	14025.2
887.383	13989.26
887.7	14002.82
888.017	13855.71
888.334	13955.37
888.651	13885.09
888.967	13831.98
889.284	13839.89
889.6	13797.41
889.917	13736.16
890.233	13706.11
890.55	13603.51
890.866	13573.46
891.182	13573.46
891.498	13400.58
891.815	13342.95
892.131	13389.28
892.447	13396.96
892.763	13285.33
893.079	13314.93
893.395	13241.94
893.71	13203.75
894.026	13175.73
894.342	13132.34
894.657	13087.37
894.973	13064.77
895.289	13043.08
895.604	13046.92
895.92	12858.45
896.235	12810.54
896.55	12895.28
896.865	12834.27
897.181	12732.57
897.496	12827.04
897.811	12644.89
898.126	12702.52
898.441	12668.4
898.756	12551.79
899.071	12511.34
899.386	12507.04
899.7	12461.17
900.015	12333.72
900.33	12214.62
900.644	12199.48
900.959	12295.07
901.273	12218.01
901.588	12141.18
901.902	12067.06
902.216	12102.31
902.531	12012.82
902.845	11945.02
903.159	11878.13
903.473	11874.52
903.787	11808.08
904.101	11713.17
904.415	11686.27
904.729	11665.94
905.042	11563.11
905.356	11608.54
905.67	11638.82
905.984	11558.37
906.297	11544.36
906.611	11379.16
906.924	11404.25
907.237	11334.65
907.551	11320.18
907.864	11245.38
908.177	11253.07
908.491	11202.67
908.804	11141.43
909.117	10996.58
909.43	10968.55
909.743	10959.06
910.056	10886.75
910.368	10831.61
910.681	10829.35
910.994	10750.71
911.307	10722.91
911.619	10669.58
911.932	10663.48
912.244	10574.44
912.557	10582.57
912.869	10527.66
913.181	10422.58
913.494	10477.04
913.806	10347.55
914.118	10360.21
914.43	10314.79
914.742	10272.75
915.054	10298.97
915.366	10174
915.678	10134.23
915.99	10135.35
916.302	10055.13
916.613	9991.63
916.925	9933.1
917.236	9941.69
917.548	9850.84
917.859	9948.02
918.171	9810.39
918.482	9790.96
918.794	9735.59
919.105	9665.31
919.416	9677.51
919.727	9598.42
920.038	9582.38
920.349	9470.97
920.66	9482.72
920.971	9366.34
921.282	9452.66
921.593	9335.38
921.903	9270.74
922.214	9231.88
922.525	9229.16
922.835	9200.01
923.146	9215.38
923.456	9108.04
923.767	9113.46
924.077	9095.61
924.387	8997.76
924.697	8945.1
925.008	8927.25
925.318	8872.56
925.628	8882.73
925.938	8818.55
926.248	8681.61
926.558	8645.22
926.867	8665.11
927.177	8645
927.487	8630.08
927.796	8455.63
928.106	8501.05
928.416	8495.4
928.725	8518.67
929.034	8332.92
929.344	8428.51
929.653	8351.9
929.962	8279.58
930.271	8312.35
930.581	8210.43
930.89	8256.31
931.199	8150.1
931.508	8162.98
931.817	8128.18
932.125	8025.81
932.434	8031.68
932.743	8001.17
933.051	7953.27
933.36	7926.6
933.669	7841.18
933.977	7763.67
934.286	7787.39
934.594	7735.87
934.902	7670.34
935.21	7671.46
935.519	7656.32
935.827	7661.97
936.135	7577.46
936.443	7480.28
936.751	7520.51
937.059	7517.8
937.367	7445.48
937.674	7444.8
937.982	7447.29
938.29	7369.1
938.597	7335.43
938.905	7284.58
939.213	7308.31
939.52	7193.29
939.827	7217.92
940.135	7127.52
940.442	7134.98
940.749	7078.71
941.056	7086.62
941.363	7037.36
941.67	6990.13
941.977	6953.97
942.284	6927.53
942.591	6906.51
942.898	6897.25
943.205	6852.28
943.511	6790.13
943.818	6746.74
944.125	6724.15
944.431	6694.99
944.738	6667.2
945.044	6695.67
945.35	6570.93
945.657	6570.48
945.963	6575.22
946.269	6514.21
946.575	6493.42
946.881	6476.92
947.187	6477.82
947.493	6445.73
947.799	6422.46
948.105	6319.64
948.41	6324.61
948.716	6301.33
949.022	6282.57
949.327	6327.77
949.633	6171.62
949.938	6205.06
950.244	6203.25
950.549	6137.49
950.854	6149.02
951.16	6111.05
951.465	6095.46
951.77	6039.87
952.075	5995.8
952.38	6011.4
952.685	5973.66
952.99	5896.82
953.294	5935.24
953.599	5886.43
953.904	5807.33
954.209	5786.99
954.513	5761.23
954.818	5762.36
955.122	5796.71
955.426	5714
955.731	5701.35
956.035	5629.94
956.339	5613.67
956.643	5615.25
956.948	5587.68
957.252	5580.45
957.556	5536.38
957.86	5557.17
958.163	5509.71
958.467	5514.46
958.771	5447.79
959.075	5459.55
959.378	5360.79
959.682	5424.29
959.985	5397.4
960.289	5316.72
960.592	5287.8
960.896	5271.98
961.199	5307.69
961.502	5272.66
961.805	5181.36
962.108	5104.07
962.411	5158.08
962.714	5121.48
963.017	5116.96
963.32	5129.38
963.623	5109.95
963.926	5098.65
964.228	5095.04
964.531	5032.21
964.833	4996.96
965.136	4962.16
965.438	4988.15
965.741	4928.03
966.043	4962.38
966.345	4877.87
966.648	4891.2
966.95	4863.18
967.252	4787.92
967.554	4785.44
967.856	4753.58
968.158	4727.14
968.46	4703.63
968.761	4690.07
969.063	4687.36
969.365	4675.16
969.666	4665.22
969.968	4599.23
970.269	4558.55
970.571	4573.02
970.872	4578.21
971.174	4554.26
971.475	4505.45
971.776	4483.3
972.077	4446.01
972.378	4455.5
972.679	4456.86
972.98	4444.43
973.281	4383.64
973.582	4405.79
973.883	4384.77
974.183	4308.39
974.484	4325.34
974.785	4281.5
975.085	4278.56
975.386	4281.95
975.686	4222.52
975.986	4212.12
976.287	4169.64
976.587	4149.75
976.887	4166.47
977.187	4171.44
977.487	4114.72
977.787	4088.06
978.087	4110.2
978.387	4095.51
978.687	4057.77
978.987	4025.69
979.286	4007.61
979.586	3980.94
979.885	3992.47
980.185	3938.68
980.484	3911.11
980.784	3880.6
981.083	3905.69
981.382	3920.38
981.682	3893.49
981.981	3884.45
982.28	3788.86
982.579	3775.07
982.878	3794.28
983.177	3758.35
983.475	3755.18
983.774	3758.35
984.073	3733.72
984.372	3680.84
984.67	3704.34
984.969	3656.88
985.267	3658.01
985.566	3641.29
985.864	3648.29
986.162	3631.35
986.461	3581.4
986.759	3574.17
987.057	3545.25
987.355	3538.47
987.653	3522.42
987.951	3487.39
988.249	3495.08
988.547	3459.6
988.844	3479.94
989.142	3430.67
989.44	3399.26
989.737	3389.32
990.035	3396.32
990.332	3417.34
990.63	3373.05
990.927	3364.01
991.224	3336.44
991.521	3349.32
991.819	3304.35
992.116	3297.12
992.413	3279.72
992.71	3305.48
993.006	3241.07
993.303	3248.53
993.6	3220.73
993.897	3198.81
994.193	3171.02
994.49	3164.92
994.787	3106.61
995.083	3106.61
995.379	3083.34
995.676	3050.34
995.972	3075.65
996.268	3020.97
996.565	3038.37
996.861	3011.7
997.157	3028.42
997.453	2994.75
997.749	2974.19
998.044	2958.14
998.34	2955.2
998.636	2891.48
998.932	2933.51
999.227	2829.78
999.523	2875.66
999.818	2869.33
1000.114	2839.73
1000.409	2802.67
1000.704	2790.46
1001	2797.69
1001.295	2748.66
1001.59	2744.81
1001.885	2760.18
1002.18	2765.61
1002.475	2697.36
1002.77	2703.01
1003.065	2712.73
1003.359	2722.67
1003.654	2628.21
1003.949	2657.13
1004.243	2646.51
1004.538	2626.85
1004.832	2640.41
1005.127	2606.74
1005.421	2590.24
1005.715	2588.43
1006.009	2542.56
1006.304	2509.57
1006.598	2518.15
1006.892	2518.38
1007.186	2462.34
1007.48	2459.85
1007.773	2484.48
1008.067	2469.34
1008.361	2392.51
1008.655	2403.13
1008.948	2422.79
1009.242	2407.65
1009.535	2359.51
1009.829	2386.18
1010.122	2383.24
1010.415	2342.34
1010.708	2305.96
1011.001	2295.34
1011.295	2280.42
1011.588	2286.3
1011.881	2230.7
1012.173	2274.54
1012.466	2236.58
1012.759	2221.44
1013.052	2220.08
1013.344	2183.02
1013.637	2186.64
1013.93	2147.09
1014.222	2161.55
1014.514	2165.4
1014.807	2133.53
1015.099	2084.27
1015.391	2098.73
1015.683	2126.98
1015.976	2067.77
1016.268	2073.87
1016.56	2046.3
1016.851	2023.7
1017.143	1985.51
1017.435	2046.53
1017.727	1966.3
1018.018	1952.07
1018.31	1985.29
1018.602	1958.17
1018.893	1933.31
1019.185	1924.5
1019.476	1893.76
1019.767	1896.93
1020.058	1893.54
1020.35	1853.54
1020.641	1877.49
1020.932	1839.3
1021.223	1824.84
1021.514	1815.35
1021.804	1797.95
1022.095	1768.57
1022.386	1783.48
1022.677	1782.81
1022.967	1736.03
1023.258	1729.25
1023.548	1728.34
1023.839	1718.85
1024.129	1707.33
1024.419	1693.32
1024.709	1678.18
1025	1688.8
1025.29	1654.67
1025.58	1664.62
1025.87	1608.57
1026.16	1666.88
1026.449	1595.01
1026.739	1616.03
1027.029	1604.73
1027.319	1580.78
1027.608	1587.33
1027.898	1561.57
1028.187	1558.86
1028.477	1556.15
1028.766	1538.07
1029.055	1503.72
1029.344	1531.51
1029.634	1492.64
1029.923	1458.97
1030.212	1473.66
1030.501	1469.82
1030.79	1480.67
1031.078	1459.2
1031.367	1471.85
1031.656	1446.77
1031.945	1414.45
1032.233	1419.2
1032.522	1387.79
1032.81	1390.05
1033.099	1398.86
1033.387	1375.36
1033.675	1366.32
1033.963	1348.24
1034.251	1336.94
1034.54	1323.84
1034.828	1308.24
1035.116	1313.21
1035.403	1300.11
1035.691	1283.16
1035.979	1258.3
1036.267	1267.11
1036.554	1281.58
1036.842	1236.61
1037.129	1250.84
1037.417	1218.75
1037.704	1223.95
1037.992	1193.9
1038.279	1202.03
1038.566	1196.83
1038.853	1196.83
1039.14	1196.83
