Data from plate_ceramic_FLMS001491_042.txt Node
Date: Tue Feb 07 11:16:49 GMT 2017
User: dcchb
Spectrometer: FLMS00149
Trigger mode: 0
Integration Time (sec): 2.000000E-2
Scans to average: 10
Electric dark correction enabled: true
Nonlinearity correction enabled: false
Boxcar width: 0
XAxis mode: Wavelengths
Number of Pixels in Spectrum: 2048
>>>>>Begin Spectral Data<<<<<
341.393	-23.19
341.776	-23.19
342.16	-23.19
342.543	-38.78
342.927	-74.94
343.31	-80.59
343.693	-62.74
344.077	-58.67
344.46	-73.81
344.843	-53.02
345.226	-55.96
345.61	-18.67
345.993	4.6
346.376	-6.02
346.759	-3.76
347.142	27.65
347.525	47.09
347.908	66.75
348.291	82.34
348.674	91.61
349.057	93.19
349.44	126.41
349.823	143.13
350.206	167.99
350.588	199.4
350.971	221.32
351.354	235.78
351.737	231.49
352.119	269.46
352.502	248.67
352.884	280.76
353.267	272.85
353.65	300.64
354.032	302.45
354.414	341.54
354.797	324.82
355.179	325.95
355.562	330.02
355.944	357.82
356.326	328.66
356.709	344.48
357.091	335.22
357.473	352.84
357.855	366.4
358.238	367.08
358.62	369.57
359.002	356.91
359.384	346.74
359.766	372.05
360.148	357.59
360.53	359.17
360.912	345.16
361.294	343.58
361.676	362.34
362.057	343.13
362.439	358.49
362.821	346.74
363.203	334.31
363.584	330.92
363.966	330.7
364.348	346.74
364.729	360.75
365.111	324.14
365.493	328.21
365.874	354.2
366.256	346.06
366.637	329.79
367.019	321.88
367.4	346.74
367.781	349
368.163	358.72
368.544	337.48
368.925	341.54
369.306	359.17
369.688	335.44
370.069	352.62
370.45	341.54
370.831	344.93
371.212	361.88
371.593	351.94
371.974	341.32
372.355	342.9
372.736	365.05
373.117	344.93
373.498	365.05
373.879	376.12
374.26	339.74
374.641	360.98
375.021	347.42
375.402	354.2
375.783	374.09
376.163	384.48
376.544	385.39
376.925	397.14
377.305	370.02
377.686	391.49
378.066	394.88
378.447	391.71
378.827	399.17
379.208	368.44
379.588	393.97
379.968	374.31
380.349	382
380.729	386.97
381.109	369.34
381.489	405.95
381.87	400.07
382.25	424.71
382.63	411.15
383.01	416.34
383.39	414.31
383.77	421.77
384.15	416.8
384.53	429
384.91	433.52
385.29	435.33
385.67	433.52
386.049	441.43
386.429	432.62
386.809	438.94
387.189	443.91
387.568	438.72
387.948	425.84
388.328	471.94
388.707	445.27
389.087	473.07
389.466	454.31
389.846	473.74
390.225	482.78
390.605	466.74
390.984	474.42
391.363	474.2
391.743	485.04
392.122	499.73
392.501	510.81
392.881	501.09
393.26	511.71
393.639	510.81
394.018	490.02
394.397	530.47
394.776	511.26
395.155	518.49
395.534	519.17
395.913	548.09
396.292	546.51
396.671	549.22
397.05	546.29
397.429	564.36
397.808	552.84
398.186	568.66
398.565	551.26
398.944	577.02
399.323	557.58
399.701	579.05
400.08	586.06
400.458	584.48
400.837	579.05
401.215	624.02
401.594	605.94
401.972	607.07
402.351	619.5
402.729	606.4
403.107	632.84
403.486	630.58
403.864	651.82
404.242	649.79
404.62	635.55
404.999	658.82
405.377	655.43
405.755	669.22
406.133	691.14
406.511	699.5
406.889	704.7
407.267	699.05
407.645	692.27
408.023	716.22
408.401	720.52
408.779	751.03
409.156	749.9
409.534	738.6
409.912	742.89
410.29	782.89
410.667	822.21
411.045	780.18
411.422	820.4
411.8	807.97
412.178	800.29
412.555	830.57
412.933	819.95
413.31	829.67
413.687	873.96
414.065	866.73
414.442	892.94
414.819	879.84
415.197	894.75
415.574	901.08
415.951	915.31
416.328	917.35
416.705	943.11
417.082	947.86
417.46	935.88
417.837	988.08
418.214	953.73
418.591	968.65
418.967	946.95
419.344	987.86
419.721	999.38
420.098	1007.74
420.475	1025.82
420.852	1016.33
421.228	1025.82
421.605	1037.8
421.982	1082.99
422.358	1076.89
422.735	1040.96
423.111	1088.87
423.488	1091.13
423.864	1096.55
424.241	1094.07
424.617	1135.87
424.994	1161.18
425.37	1136.33
425.746	1170.68
426.123	1174.52
426.499	1218.13
426.875	1213.84
427.251	1205.48
427.627	1245.02
428.003	1269.66
428.379	1264.01
428.756	1242.54
429.132	1301.97
429.507	1309.88
429.883	1307.85
430.259	1336.32
430.635	1333.38
431.011	1369.09
431.387	1391.23
431.763	1424.91
432.138	1451.8
432.514	1470.1
432.89	1462.65
433.265	1470.78
433.641	1521.17
434.016	1538.58
434.392	1529.31
434.767	1570.21
435.143	1572.25
435.518	1600.72
435.894	1602.08
436.269	1617.9
436.644	1645.92
437.02	1628.74
437.395	1654.5
437.77	1682.53
438.145	1699.25
438.52	1724.79
438.895	1754.16
439.271	1724.56
439.646	1821.73
440.021	1774.73
440.395	1815.63
440.77	1808.17
441.145	1815.4
441.52	1832.35
441.895	1857.21
442.27	1856.76
442.645	1856.08
443.019	1919.36
443.394	1927.04
443.769	1881.17
444.143	1943.76
444.518	1920.49
444.892	1949.86
445.267	1972.01
445.641	1962.52
446.016	1981.05
446.39	2027.15
446.764	2008.85
447.139	2016.53
447.513	2037.55
447.887	2054.49
448.262	2067.15
448.636	2086.13
449.01	2115.28
449.384	2104.44
449.758	2131.55
450.132	2167.94
450.506	2188.73
450.88	2181.04
451.254	2209.52
451.628	2228.05
452.002	2255.17
452.376	2282.96
452.75	2288.61
453.123	2311.44
453.497	2333.81
453.871	2363.86
454.244	2460.13
454.618	2415.39
454.992	2467.59
455.365	2494.26
455.739	2533.35
456.112	2532.45
456.486	2595.27
456.859	2607.7
457.232	2646.57
457.606	2637.98
457.979	2682.73
458.352	2736.06
458.725	2739.22
459.099	2772.67
459.472	2853.8
459.845	2892.21
460.218	2886.79
460.591	2941.7
460.964	2944.19
461.337	3021.25
461.71	3042.94
462.083	3112.55
462.456	3102.83
462.829	3141.92
463.201	3179.89
463.574	3207.46
463.947	3238.42
464.32	3304.18
464.692	3312.77
465.065	3388.7
465.438	3403.16
465.81	3465.53
466.183	3508.24
466.555	3586.88
466.928	3584.62
467.3	3614.45
467.672	3638.63
468.045	3746.2
468.417	3773.32
468.789	3842.92
469.161	3901
469.534	3921.11
469.906	3997.72
470.278	4044.95
470.65	4053.99
471.022	4107.1
471.394	4227.32
471.766	4261.89
472.138	4274.1
472.51	4379.18
472.882	4489.91
473.253	4549.8
473.625	4614.2
473.997	4666.63
474.369	4751.82
474.74	4795.21
475.112	4874.31
475.484	4936.45
475.855	5040.18
476.227	5108.43
476.598	5190.68
476.97	5266.39
477.341	5347.06
477.713	5470.22
478.084	5464.57
478.455	5600.16
478.827	5677.68
479.198	5867.05
479.569	5826.6
479.94	5980.94
480.311	6068.4
480.682	6179.36
481.053	6311.11
481.424	6427.49
481.795	6478.56
482.166	6608.27
482.537	6658.44
482.908	6865.21
483.279	6902.73
483.65	7054.14
484.021	7165.55
484.391	7287.58
484.762	7263.85
485.133	7405.31
485.503	7507.68
485.874	7691.41
486.244	7784.96
486.615	7923.94
486.985	8069.48
487.356	8137.5
487.726	8243.03
488.097	8369.58
488.467	8440.77
488.837	8570.03
489.207	8704.26
489.578	8904.48
489.948	8886.63
490.318	9078.49
490.688	9107.19
491.058	9271.48
491.428	9304.92
491.798	9455.88
492.168	9683.67
492.538	9653.84
492.908	9833.95
493.278	9901.97
493.648	9915.3
494.017	10093.38
494.387	10170.21
494.757	10203.66
495.126	10326.37
495.496	10441.84
495.866	10478.45
496.235	10668.73
496.605	10757.32
496.974	10833.92
497.344	10963.19
497.713	11020.81
498.082	11044.09
498.452	11228.72
498.821	11316.17
499.19	11259.22
499.559	11400.01
499.928	11565.2
500.298	11482.27
500.667	11679.78
501.036	11678.65
501.405	11821.69
501.774	11876.16
502.143	12003.84
502.512	12069.6
502.88	12210.39
503.249	12173.1
503.618	12289.93
503.987	12355.47
504.356	12418.52
504.724	12517.27
505.093	12559.98
505.462	12636.36
505.83	12759.07
506.199	12866.19
506.567	13008.78
506.936	13046.75
507.304	13178.04
507.672	13306.85
508.041	13306.4
508.409	13457.58
508.777	13554.08
509.145	13708.65
509.514	13696.45
509.882	13729.22
510.25	13826.84
510.618	13911.81
510.986	14078.13
511.354	14205.13
511.722	14261.18
512.09	14415.98
512.458	14415.98
512.826	14557.89
513.193	14695.07
513.561	14776.19
513.929	14951.56
514.297	14989.3
514.664	15137.31
515.032	15197.2
515.4	15354.71
515.767	15439
516.135	15494.59
516.502	15432.22
516.869	15795.83
517.237	15816.62
517.604	15895.94
517.972	16000.34
518.339	16126.89
518.706	16154.46
519.073	16349.03
519.44	16372.99
519.808	16654.11
520.175	16607.33
520.542	16895.69
520.909	16907.44
521.276	16994.67
521.643	17163.02
522.009	17321.21
522.376	17393.07
522.743	17524.6
523.11	17763.91
523.477	17889.11
523.843	18051.81
524.21	18258.14
524.577	18426.49
524.943	18513.72
525.31	18601.4
525.676	18725.92
526.043	18855.86
526.409	18979.7
526.776	19197.32
527.142	19343.08
527.508	19370.65
527.874	19627.37
528.241	19578.55
528.607	19666.69
528.973	20078.88
529.339	19896.06
529.705	20122.27
530.071	20325.2
530.437	20346.89
530.803	20514.35
531.169	20704.85
531.535	20654.68
531.901	20719.31
532.267	20858.97
532.632	21029.14
532.998	21114.56
533.364	21228.23
533.73	21361.11
534.095	21579.63
534.461	21611.27
534.826	21830.02
535.192	21787.08
535.557	21965.16
535.923	21940.52
536.288	22150.91
536.653	22224.13
537.019	22142.78
537.384	22293.51
537.749	22306.84
538.114	22498.48
538.479	22551.13
538.845	22655.08
539.21	22617.34
539.575	22760.62
539.94	22872.93
540.305	23019.59
540.67	23083.09
541.034	23145.01
541.399	23262.75
541.764	23379.58
542.129	23478.34
542.494	23520.14
542.858	23617.77
543.223	23617.99
543.587	23825.9
543.952	23752.45
544.316	23829.51
544.681	23887.37
545.045	24028.15
545.41	24184.08
545.774	24277.86
546.138	24341.59
546.503	24332.1
546.867	24382.95
547.231	24582.49
547.595	24631.08
547.959	24781.35
548.324	24855.02
548.688	24864.74
549.052	25000.11
549.416	25065.19
549.779	25124.85
550.143	25268.8
550.507	25398.06
550.871	25454.33
551.235	25523.03
551.599	25722.57
551.962	25774.77
552.326	25803.7
552.689	26130.92
553.053	25942
553.417	26111.71
553.78	26500.18
554.143	26354.87
554.507	26569.1
554.87	26552.83
555.234	26799.83
555.597	26775.2
555.96	26800.51
556.323	27006.83
556.686	26949.43
557.05	27136.09
557.413	27280.72
557.776	27345.58
558.139	27493.37
558.502	27671
558.865	27663.54
559.228	27896.53
559.59	28089.74
559.953	28105.11
560.316	28370.86
560.679	28432.11
561.041	28626.22
561.404	28610.18
561.767	28943.05
562.129	28794.58
562.492	29131.52
562.854	29054.46
563.217	29241.58
563.579	29341.69
563.941	29677.04
564.304	29728.57
564.666	29879.75
565.028	29948
565.39	30102.34
565.753	30288.33
566.115	30241.78
566.477	30395.9
566.839	30510.24
567.201	30709.79
567.563	30760.63
567.925	30966.95
568.287	31048.53
568.648	31188.64
569.01	31294.18
569.372	31465.7
569.734	31480.61
570.095	31724.67
570.457	31839.93
570.819	31800.15
571.18	31928.74
571.542	32158.34
571.903	32219.12
572.265	32284.21
572.626	32393.58
572.987	32433.81
573.349	32498.67
573.71	32584.54
574.071	32691.2
574.432	32832.44
574.794	33065.43
575.155	33193.56
575.516	33044.64
575.877	33198.99
576.238	33177.74
576.599	33309.49
576.96	33285.54
577.32	33507.45
577.681	33606.88
578.042	33657.73
578.403	33668.35
578.763	33615.02
579.124	33961.45
579.485	33844.39
579.845	34119.41
580.206	33946.08
580.566	34040.09
580.927	33934.11
581.287	34014.78
581.648	33979.53
582.008	34180.2
582.368	34011.62
582.728	34214.78
583.089	34099.3
583.449	34115.57
583.809	34187.43
584.169	34223.37
584.529	34200.32
584.889	34535.45
585.249	34217.72
585.609	34268.11
585.969	34502.45
586.329	34352.63
586.688	34360.31
587.048	34368.45
587.408	34338.39
587.768	34535.67
588.127	34374.32
588.487	34361.22
588.846	34583.13
589.206	34307.43
589.565	34386.53
589.925	34680.08
590.284	34476.47
590.643	34471.72
591.003	34524.37
591.362	34756.23
591.721	34555.79
592.08	34643.47
592.44	34701.77
592.799	34731.83
593.158	34590.14
593.517	34633.3
593.876	34716.01
594.235	34657.48
594.593	34777.93
594.952	34771.83
595.311	34647.99
595.67	34771.15
596.029	34846.17
596.387	35017.7
596.746	35028.32
597.104	34903.57
597.463	34834.42
597.822	35023.57
598.18	34935.21
598.538	34777.25
598.897	35212.94
599.255	35017.47
599.613	35431.02
599.972	35181.31
600.33	35288.87
600.688	35106.73
601.046	35195.09
601.404	35388.76
601.762	35197.35
602.12	35410.68
602.478	35328.42
602.836	35472.37
603.194	35331.59
603.552	35190.12
603.91	35301.53
604.268	35368.19
604.625	35479.38
604.983	35462.66
605.341	35426.72
605.698	35554.18
606.056	35644.35
606.413	35713.27
606.771	35784.45
607.128	35792.14
607.485	35691.12
607.843	35684.12
608.2	35842.98
608.557	35994.39
608.914	35807.28
609.272	35977.44
609.629	36081.62
609.986	36162.3
610.343	35979.03
610.7	36379.47
611.057	36440.71
611.414	36194.39
611.771	36265.35
612.127	36375.63
612.484	36383.76
612.841	36495.17
613.198	36284.1
613.554	36451.78
613.911	36524.77
614.267	36500.82
614.624	36448.62
614.98	36554.15
615.337	36722.28
615.693	36645
616.05	36604.09
616.406	36832.11
616.762	36777.2
617.118	36672.79
617.475	36878.21
617.831	36953.46
618.187	36971.99
618.543	37008.38
618.899	37152.55
619.255	37085.89
619.611	36920.92
619.967	37129.5
620.323	37167.02
620.678	36979.23
621.034	37061.48
621.39	37042.95
621.746	36979.23
622.101	37365.66
622.457	37031.43
622.812	37053.12
623.168	37223.51
623.523	37262.16
623.879	37245.43
624.234	36928.38
624.589	37188.03
624.945	37182.84
625.3	37332.89
625.655	37168.37
626.01	37191.42
626.365	37327.46
626.72	37240.01
627.075	37164.31
627.43	36993.69
627.785	37052.67
628.14	37073.69
628.495	37142.16
628.85	36967.93
629.205	37070.97
629.559	37133.57
629.914	36819
630.269	36917.31
630.623	36797.99
630.978	36797.08
631.332	37020.35
631.687	36996.4
632.041	36828.04
632.396	36907.59
632.75	36677.31
633.104	36702.85
633.459	36510.09
633.813	36545.56
634.167	36504.89
634.521	36397.09
634.875	36558.67
635.229	36515.06
635.583	36331.56
635.937	36338.79
636.291	36420.6
636.645	36236.19
636.999	36188.06
637.352	36358
637.706	36012.02
638.06	36226.02
638.413	36075.75
638.767	36112.36
639.121	36103.54
639.474	35880.27
639.828	35932.02
640.181	35901.74
640.534	35907.39
640.888	35788.97
641.241	35660.84
641.594	35664.46
641.947	35818.8
642.301	35688.64
642.654	35616.78
643.007	35753.04
643.36	35566.61
643.713	35512.6
644.066	35530.45
644.419	35253.4
644.771	35115.32
645.124	34704.03
645.477	34714.2
645.83	34492.29
646.182	34308.56
646.535	34225.17
646.888	34372.97
647.24	34193.31
647.593	34237.38
647.945	34387.2
648.298	34127.55
648.65	33898.63
649.002	33931.85
649.355	34033.31
649.707	34085.52
650.059	34045.97
650.411	34528.67
650.763	34398.05
651.115	34820.86
651.467	34702.68
651.819	34619.97
652.171	34674.43
652.523	34495.9
652.875	34586.52
653.227	34426.75
653.578	34673.3
653.93	34452.51
654.282	34443.02
654.633	34170.03
654.985	34383.81
655.337	34492.74
655.688	34337.04
656.039	34317.6
656.391	34171.62
656.742	34132.75
657.094	34229.02
657.445	34260.65
657.796	34200.09
658.147	34100.43
658.498	34015.24
658.849	34133.2
659.2	34193.99
659.551	33890.72
659.902	34064.73
660.253	33980.89
660.604	34053.88
660.955	33809.37
661.306	34106.08
661.656	33938.85
662.007	33918.29
662.358	33923.03
662.708	33838.29
663.059	33806.2
663.409	33640.1
663.76	33946.99
664.11	33777.5
664.461	33872.64
664.811	33888.01
665.161	33756.49
665.511	33627.22
665.862	33716.03
666.212	33779.54
666.562	33814.34
666.912	33666.54
667.262	33469.71
667.612	33570.95
667.962	33535.7
668.312	33603.27
668.662	33709.48
669.011	33640.78
669.361	33505.87
669.711	33544.06
670.06	33485.76
670.41	33429.94
670.76	33378.19
671.109	33470.84
671.459	33420
671.808	33379.77
672.157	33407.79
672.507	33247.35
672.856	33235.14
673.205	33141.36
673.554	33310.17
673.904	33102.49
674.253	33370.51
674.602	33169.61
674.951	32681.49
675.3	32603.75
675.649	33111.76
675.998	33019.1
676.346	33104.07
676.695	33367.12
677.044	33031.76
677.393	33149.95
677.741	33060.46
678.09	32874.7
678.438	32900.46
678.787	32948.37
679.135	32953.34
679.484	32681.94
679.832	32810.75
680.181	32690.75
680.529	32749.05
680.877	32634.48
681.225	32562.84
681.573	32737.53
681.922	32457.99
682.27	32448.05
682.618	32434.26
682.966	32397.65
683.314	32439.01
683.661	32302.06
684.009	32204.89
684.357	32175.51
684.705	31944.56
685.053	31978.68
685.4	32036.08
685.748	31913.6
686.095	31853.71
686.443	31749.31
686.79	31652.59
687.138	31761.28
687.485	31690.78
687.832	31475.87
688.18	31638.35
688.527	31507.5
688.874	31428.41
689.221	31349.54
689.568	31297.11
689.915	31229.09
690.262	31173.95
690.609	31026.39
690.956	30937.58
691.303	31095.54
691.65	30822.1
691.997	30849.44
692.344	30765.83
692.69	30641.76
693.037	30725.38
693.383	30502.11
693.73	30682.89
694.077	30348.44
694.423	30465.5
694.769	30372.39
695.116	30269.8
695.462	30226.18
695.808	30039.97
696.155	29987.32
696.501	29814.89
696.847	29844.27
697.193	29402.02
697.539	29545.97
697.885	29427.33
698.231	29311.4
698.577	29348.92
698.923	29344.62
699.269	29029.38
699.614	28949.83
699.96	28982.6
700.306	28975.59
700.651	28823.96
700.997	28732.21
701.342	28732.89
701.688	28556.62
702.033	28530.86
702.379	28637.98
702.724	28405.67
703.069	28550.52
703.415	28169.06
703.76	28219.91
704.105	28157.99
704.45	28125.9
704.795	27870.99
705.14	27848.39
705.485	27739.24
705.83	27783.54
706.175	27808.17
706.52	27645.01
706.865	27524.33
707.209	27536.08
707.554	27404.56
707.899	27453.83
708.243	27334.73
708.588	27420.38
708.932	27167.73
709.277	26983.56
709.621	27119.6
709.966	26990.56
710.31	27015.42
710.654	26810.91
710.998	26934.74
711.342	26771.81
711.687	26780.17
712.031	26690.23
712.375	26585.15
712.719	26579.27
713.063	26496.34
713.407	26467.86
713.75	26374.08
714.094	26409.56
714.438	26261.32
714.782	26280.98
715.125	26168.44
715.469	26229.9
715.812	26089.57
716.156	25956.01
716.499	25954.66
716.843	26023.36
717.186	25759.63
717.53	26013.86
717.873	25893.42
718.216	25776.13
718.559	25649.81
718.902	25535.68
719.246	25586.76
719.589	25506.31
719.932	25337.72
720.275	25364.16
720.617	25341.34
720.96	25271.96
721.303	25351.28
721.646	25328.68
721.989	25141.57
722.331	25104.51
722.674	25064.51
723.016	25030.16
723.359	24971.86
723.701	25033.55
724.044	24854.57
724.386	24841.69
724.729	24848.92
725.071	24729.83
725.413	24808.7
725.755	24687.57
726.097	24672.66
726.439	24531.64
726.782	24485.77
727.124	24702.03
727.465	24518.76
727.807	24490.51
728.149	24440.12
728.491	24446.22
728.833	24328.71
729.175	24349.28
729.516	24167.81
729.858	24198.32
730.199	24297.98
730.541	24259.11
730.882	24023.63
731.224	24107.7
731.565	23931.88
731.906	23962.39
732.248	23960.36
732.589	23767.6
732.93	23664.1
733.271	23822.74
733.612	23879.46
733.953	23859.34
734.294	23705
734.635	23582.74
734.976	23742.06
735.317	23600.59
735.658	23557.21
735.999	23577.54
736.339	23556.98
736.68	23539.8
737.021	23427.72
737.361	23299.59
737.702	23352.47
738.042	23279.92
738.383	23254.84
738.723	23333.71
739.063	23105.01
739.404	23176.65
739.744	23220.27
740.084	23058.69
740.424	22990.67
740.764	22884.68
741.104	23100.72
741.444	22916.54
741.784	22870.22
742.124	22976.43
742.464	22900.05
742.804	22783.67
743.143	22665.48
743.483	22813.95
743.823	22625.7
744.162	22696.21
744.502	22712.48
744.841	22532.6
745.181	22578.25
745.52	22455.09
745.86	22581.64
746.199	22401.08
746.538	22397.69
746.877	22397.24
747.216	22386.84
747.556	22246.05
747.895	22267.3
748.234	22217.13
748.573	22143.23
748.911	22070.46
749.25	22131.48
749.589	22091.71
749.928	22029.56
750.267	22045.38
750.605	21958.38
750.944	21860.53
751.283	21728.55
751.621	21846.74
751.96	21797.7
752.298	21651.04
752.636	21759.96
752.975	21513.42
753.313	21460.09
753.651	21646.07
753.989	21477.49
754.327	21423.25
754.666	21286.08
755.004	21329.47
755.342	21395
755.679	21198.85
756.017	21126.53
756.355	21211.96
756.693	21078.17
757.031	21062.13
757.368	21000.89
757.706	20933.09
758.044	20846.54
758.381	20926.09
758.719	20827.11
759.056	20822.59
759.394	20676.15
759.731	20549.83
760.068	20485.87
760.405	20507.57
760.743	20389.38
761.08	20381.47
761.417	20247.91
761.754	20207.69
762.091	20263.28
762.428	20138.09
762.765	19903.97
763.102	20064.64
763.438	19901.93
763.775	19835.04
764.112	19821.03
764.449	19833.01
764.785	19643.41
765.122	19661.94
765.458	19609.96
765.795	19527.93
766.131	19541.94
766.467	19454.04
766.804	19315.74
767.14	19178.56
767.476	19185.12
767.812	19096.98
768.148	19104.22
768.485	19014.73
768.821	18874.39
769.157	18883.66
769.492	18735.64
769.828	18800.49
770.164	18674.85
770.5	18568.41
770.836	18591.46
771.171	18467.17
771.507	18403.67
771.842	18282.77
772.178	18297.91
772.513	18262.2
772.849	18226.72
773.184	18108.76
773.519	18135.43
773.855	17964.81
774.19	17884.59
774.525	17865.83
774.86	17787.64
775.195	17789
775.53	17627.87
775.865	17556.23
776.2	17514.43
776.535	17375.45
776.87	17359.4
777.205	17358.05
777.539	17138.62
777.874	17200.08
778.209	17064.27
778.543	17016.36
778.878	16949.92
779.212	16993.54
779.547	16804.84
779.881	16769.81
780.215	16740.89
780.55	16671.96
780.884	16693.66
781.218	16573.43
781.552	16447.56
781.886	16394.91
782.22	16382.48
782.554	16286.89
782.888	16066.78
783.222	16103.16
783.556	16041.02
783.889	16030.62
784.223	15841.25
784.557	15854.58
784.89	15954.47
785.224	15813.68
785.557	15753.34
785.891	15728.26
786.224	15656.4
786.558	15654.59
786.891	15403.97
787.224	15335.5
787.557	15433.35
787.891	15286.01
788.224	15281.26
788.557	15205.33
788.89	15234.71
789.223	15140.48
789.556	15099.57
789.888	14989.75
790.221	14979.58
790.554	14855.29
790.887	14839.47
791.219	14892.8
791.552	14706.82
791.884	14717.66
792.217	14670.66
792.549	14640.15
792.882	14476.09
793.214	14359.26
793.546	14453.49
793.879	14302.76
794.211	14318.58
794.543	14275.42
794.875	14178.02
795.207	14315.64
795.539	14225.25
795.871	14178.92
796.203	14047.4
796.535	14003.11
796.867	13965.82
797.198	13984.35
797.53	13828.87
797.862	13830
798.193	13841.75
798.525	13723.57
798.856	13807.86
799.188	13609.44
799.519	13586.39
799.85	13486.06
800.182	13522.67
800.513	13521.09
800.844	13374.65
801.175	13439.96
801.506	13390.47
801.837	13313.18
802.168	13264.82
802.499	13232.96
802.83	13126.07
803.161	13112.51
803.491	13156.57
803.822	13033.64
804.153	12962.23
804.483	12889.92
804.814	12843.81
805.145	12813.08
805.475	12787.32
805.805	12825.51
806.136	12717.04
806.466	12801.1
806.796	12731.73
807.126	12594.1
807.457	12596.36
807.787	12623.26
808.117	12541
808.447	12454.45
808.777	12539.87
809.107	12498.29
809.436	12422.13
809.766	12369.7
810.096	12330.61
810.426	12333.32
810.755	12355.01
811.085	12269.37
811.414	12198.86
811.744	12144.4
812.073	12136.26
812.403	12023.27
812.732	12023.72
813.061	11972.88
813.39	12019.88
813.719	12000
814.049	11983.27
814.378	11902.6
814.707	11806.33
815.036	11823.5
815.365	11761.81
815.693	11634.13
816.022	11788.93
816.351	11661.02
816.68	11602.27
817.008	11643.85
817.337	11565.88
817.665	11501.03
817.994	11539.89
818.322	11523.17
818.651	11418.32
818.979	11425.32
819.307	11482.04
819.636	11448.15
819.964	11383.74
820.292	11381.71
820.62	11383.51
820.948	11328.83
821.276	11303.74
821.604	11318.43
821.932	11310.75
822.259	11301.71
822.587	11331.99
822.915	11226.91
823.243	11310.3
823.57	11219.68
823.898	11230.3
824.225	11199.34
824.553	11206.8
824.88	11205.21
825.207	11286.12
825.535	11174.25
825.862	11184.88
826.189	11220.35
826.516	11257.19
826.843	11222.84
827.17	11141.03
827.497	11263.52
827.824	11243.18
828.151	11264.65
828.478	11153.46
828.805	11197.53
829.131	11189.85
829.458	11138.1
829.785	11121.6
830.111	11223.52
830.438	11193.01
830.764	11194.59
831.09	11141.71
831.417	11041.38
831.743	11139.9
832.069	11188.72
832.395	11040.7
832.722	11121.15
833.048	11063.75
833.374	11109.62
833.7	11088.38
834.026	11065.56
834.351	11074.82
834.677	11019.91
835.003	11072.34
835.329	11021.04
835.654	10980.81
835.98	10966.58
836.306	10979.46
836.631	10912.79
836.956	10983.3
837.282	10879.12
837.607	10912.11
837.932	10914.37
838.258	10825.11
838.583	10825.79
838.908	10740.59
839.233	10812
839.558	10842.96
839.883	10680.71
840.208	10687.49
840.533	10741.27
840.858	10695.62
841.182	10765.9
841.507	10628.05
841.832	10598
842.156	10638
842.481	10583.76
842.805	10567.72
843.13	10463.99
843.454	10533.59
843.778	10459.7
844.103	10458.11
844.427	10401.62
844.751	10427.16
845.075	10356.65
845.399	10338.57
845.723	10289.08
846.047	10333.15
846.371	10195.52
846.695	10153.04
847.019	10136.09
847.343	10091.8
847.666	10108.29
847.99	9999.82
848.313	9896.55
848.637	9984.68
848.96	9951.01
849.284	9885.47
849.607	9819.04
849.931	9768.87
850.254	9705.14
850.577	9639.15
850.9	9533.85
851.223	9567.74
851.546	9580.85
851.869	9481.42
852.192	9560.74
852.515	9476.67
852.838	9385.83
853.161	9397.35
853.483	9356
853.806	9349.9
854.129	9333.17
854.451	9257.02
854.774	9217.92
855.096	9144.48
855.419	9171.82
855.741	9142.22
856.063	9126.17
856.385	9075.33
856.708	9106.51
857.03	9045.27
857.352	9013.63
857.674	9021.77
857.996	8985.16
858.318	8901.55
858.64	8864.94
858.961	8846.86
859.283	8832.17
859.605	8754.88
859.926	8836.24
860.248	8764.37
860.57	8713.98
860.891	8746.3
861.212	8641.21
861.534	8647.54
861.855	8657.94
862.176	8674.88
862.498	8672.17
862.819	8649.57
863.14	8570.48
863.461	8617.49
863.782	8583.81
864.103	8565.28
864.424	8562.8
864.745	8554.66
865.065	8436.02
865.386	8401.22
865.707	8424.72
866.027	8419.75
866.348	8402.8
866.668	8462.46
866.989	8408.68
867.309	8384.05
867.63	8358.51
867.95	8295.91
868.27	8223.82
868.59	8290.49
868.91	8254.11
869.23	8283.48
869.55	8242.35
869.87	8239.64
870.19	8262.92
870.51	8268.79
870.83	8236.48
871.15	8210.72
871.469	8161.68
871.789	8223.82
872.109	8120.1
872.428	8159.64
872.748	8125.29
873.067	8112.41
873.386	8168.68
873.706	8053.43
874.025	8074.22
874.344	8029.03
874.663	7986.32
874.982	8005.52
875.301	8030.83
875.62	8022.7
875.939	7962.59
876.258	7951.97
876.577	7925.98
876.896	7984.51
877.214	7882.59
877.533	7864.51
877.852	7930.72
878.17	7878.52
878.489	7880.1
878.807	7842.14
879.125	7855.92
879.444	7873.55
879.762	7834.91
880.08	7800.11
880.398	7776.15
880.716	7741.8
881.034	7756.49
881.352	7781.58
881.67	7747
881.988	7684.85
882.306	7681.24
882.624	7630.39
882.941	7667.23
883.259	7572.09
883.577	7570.06
883.894	7528.25
884.212	7592.43
884.529	7514.46
884.846	7500.45
885.164	7528.47
885.481	7486.22
885.798	7479.21
886.115	7444.86
886.432	7394.92
886.75	7352.66
887.067	7392.21
887.383	7336.16
887.7	7363.51
888.017	7308.14
888.334	7369.38
888.651	7286.45
888.967	7285.54
889.284	7203.06
889.6	7250.06
889.917	7189.5
890.233	7144.08
890.55	7189.73
890.866	7121.03
891.182	7189.05
891.498	7067.92
891.815	7067.24
892.131	7093.91
892.447	7083.51
892.763	7094.14
893.079	6981.6
893.395	6978.88
893.71	7050.75
894.026	6999
894.342	6922.84
894.657	6859.57
894.973	6911.99
895.289	6925.33
895.604	6884.65
895.92	6829.28
896.235	6735.27
896.55	6750.87
896.865	6706.58
897.181	6702.06
897.496	6693.47
897.811	6623.87
898.126	6714.71
898.441	6631.55
898.756	6643.98
899.071	6626.58
899.386	6593.13
899.7	6563.3
900.015	6495.06
900.33	6434.04
900.644	6457.32
900.959	6510.87
901.273	6385.45
901.588	6393.59
901.902	6366.7
902.216	6377.09
902.531	6342.29
902.845	6295.51
903.159	6281.73
903.473	6205.57
903.787	6198.57
904.101	6182.75
904.415	6190.2
904.729	6169.41
905.042	6118.34
905.356	6064.11
905.67	6085.12
905.984	6091.68
906.297	6077.21
906.611	6031.34
906.924	6054.61
907.237	6045.12
907.551	5982.98
907.864	5952.02
908.177	5932.81
908.491	5891.91
908.804	5890.1
909.117	5842.42
909.43	5802.19
909.743	5819.37
910.056	5778.01
910.368	5762.42
910.681	5746.6
910.994	5727.84
911.307	5711.57
911.619	5607.85
911.932	5624.57
912.244	5604.01
912.557	5625.47
912.869	5615.76
913.181	5514.97
913.494	5589.99
913.806	5465.25
914.118	5483.78
914.43	5490.56
914.742	5426.38
915.054	5392.71
915.366	5350.23
915.678	5352.71
915.99	5301.19
916.302	5279.72
916.613	5300.96
916.925	5277.01
917.236	5251.92
917.548	5245.6
917.859	5234.75
918.171	5181.64
918.482	5182.32
918.794	5150.01
919.105	5110.46
919.416	5083.79
919.727	5068.65
920.038	5092.83
920.349	5029.33
920.66	5019.61
920.971	5022.33
921.282	4926.96
921.593	4937.81
921.903	4954.76
922.214	4918.6
922.525	4907.98
922.835	4924.48
923.146	4832.5
923.456	4856.23
923.767	4793.41
924.077	4797.02
924.387	4800.64
924.697	4811.94
925.008	4700.75
925.318	4679.74
925.628	4732.39
925.938	4696.23
926.248	4621.43
926.558	4602.9
926.867	4624.6
927.177	4595.44
927.487	4563.81
927.796	4565.39
928.106	4556.58
928.416	4515.22
928.725	4523.58
929.034	4481.55
929.344	4471.83
929.653	4422.12
929.962	4456.69
930.271	4396.58
930.581	4450.59
930.89	4368.11
931.199	4315.45
931.508	4297.82
931.817	4333.98
932.125	4336.47
932.434	4316.36
932.743	4229.13
933.051	4252.18
933.36	4187.77
933.669	4209.01
933.977	4163.82
934.286	4145.74
934.594	4156.36
934.902	4115.23
935.21	4097.83
935.519	4114.1
935.827	4082.69
936.135	4057.83
936.443	4053.99
936.751	4012.18
937.059	4006.99
937.367	3995.46
937.674	3982.35
937.982	3962.24
938.29	3924.05
938.597	3920.66
938.905	3921.56
939.213	3864.39
939.52	3901.45
939.827	3872.75
940.135	3859.64
940.442	3832.53
940.749	3832.53
941.056	3810.15
941.363	3778.74
941.67	3783.26
941.977	3723.38
942.284	3689.71
942.591	3736.94
942.898	3716.37
943.205	3697.61
943.511	3670.95
943.818	3654.9
944.125	3652.64
944.431	3599.54
944.738	3605.87
945.044	3574.23
945.35	3569.93
945.657	3592.76
945.963	3512.31
946.269	3484.96
946.575	3557.51
946.881	3490.84
947.187	3497.17
947.493	3483.83
947.799	3453.78
948.105	3447.68
948.41	3416.49
948.716	3462.14
949.022	3395.25
949.327	3406.77
949.633	3369.71
949.938	3345.76
950.244	3350.96
950.549	3312.54
950.854	3301.92
951.16	3332.88
951.465	3254.01
951.77	3259.43
952.075	3202.03
952.38	3231.19
952.685	3262.37
952.99	3192.32
953.294	3209.49
953.599	3224.18
953.904	3167.01
954.209	3122.26
954.513	3129.95
954.818	3146.44
955.122	3102.38
955.426	3104.41
955.731	3096.05
956.035	3118.87
956.339	3051.08
956.643	3049.27
956.948	3009.05
957.252	2989.61
957.556	3017.41
957.86	2975.37
958.163	2982.83
958.467	2965.88
958.771	2974.7
959.075	2934.47
959.378	2894.7
959.682	2939.44
959.985	2891.31
960.289	2908.26
960.592	2908.03
960.896	2855.15
961.199	2873.46
961.502	2869.39
961.805	2868.71
962.108	2799.33
962.411	2815.15
962.714	2773.57
963.017	2734.93
963.32	2777.64
963.623	2755.72
963.926	2752.55
964.228	2742.39
964.531	2725.21
964.833	2723.18
965.136	2649.96
965.438	2683.18
965.741	2703.74
966.043	2675.49
966.345	2688.38
966.648	2625.33
966.95	2673.01
967.252	2620.35
967.554	2656.29
967.856	2583.97
968.158	2568.38
968.46	2546.46
968.761	2591.66
969.063	2549.17
969.365	2571.09
969.666	2557.98
969.968	2539.23
970.269	2522.73
970.571	2506.69
970.872	2518.44
971.174	2491.54
971.475	2458.33
971.776	2460.81
972.077	2461.49
972.378	2456.97
972.679	2442.28
972.98	2446.35
973.281	2428.72
973.582	2433.24
973.883	2388.5
974.183	2359.57
974.484	2352.57
974.785	2362.96
975.085	2367.48
975.386	2355.28
975.686	2346.01
975.986	2341.94
976.287	2309.85
976.587	2304.2
976.887	2322.74
977.187	2285.45
977.487	2284.32
977.787	2245.45
978.087	2251.78
978.387	2222.17
978.687	2247.94
978.987	2259.46
979.286	2220.14
979.586	2222.63
979.885	2183.76
980.185	2224.66
980.484	2165
980.784	2156.41
981.083	2167.49
981.382	2161.61
981.682	2148.95
981.981	2141.05
982.28	2097.43
982.579	2120.93
982.878	2100.59
983.177	2074.83
983.475	2111.89
983.774	2069.63
984.073	2080.93
984.372	2048.39
984.67	2009.75
984.969	2028.28
985.267	2048.17
985.566	2014.04
985.864	1998.45
986.162	2032.12
986.461	1994.38
986.759	1987.38
987.057	1975.4
987.355	1975.4
987.653	1955.06
987.951	1983.99
988.249	1943.76
988.547	1926.14
988.844	1951.67
989.142	1948.96
989.44	1906.7
989.737	1888.85
990.035	1894.72
990.332	1903.99
990.63	1857.44
990.927	1859.24
991.224	1874.61
991.521	1829.42
991.819	1862.41
992.116	1826.25
992.413	1857.66
992.71	1808.62
993.006	1838.91
993.303	1800.49
993.6	1779.7
993.897	1807.04
994.193	1800.04
994.49	1763.2
994.787	1779.47
995.083	1760.49
995.379	1727.27
995.676	1733.6
995.972	1747.38
996.268	1713.94
996.565	1706.25
996.861	1694.96
997.157	1728.17
997.453	1694.73
997.749	1679.59
998.044	1655.63
998.34	1658.8
998.636	1647.95
998.932	1656.76
999.227	1619.03
999.523	1639.36
999.818	1641.4
1000.114	1636.65
1000.409	1611.12
1000.704	1618.12
1001	1593.49
1001.295	1543.1
1001.59	1588.07
1001.885	1584.45
1002.18	1570.89
1002.475	1557.11
1002.77	1548.74
1003.065	1508.97
1003.359	1548.97
1003.654	1496.77
1003.949	1471.91
1004.243	1504.23
1004.538	1489.54
1004.832	1494.96
1005.127	1492.47
1005.421	1491.34
1005.715	1470.78
1006.009	1474.85
1006.304	1454.06
1006.598	1432.36
1006.892	1428.97
1007.186	1439.82
1007.48	1436.21
1007.773	1408.18
1008.067	1414.96
1008.361	1407.96
1008.655	1383.78
1008.948	1379.26
1009.242	1386.71
1009.535	1346.49
1009.829	1392.14
1010.122	1387.17
1010.415	1346.94
1010.708	1343.33
1011.001	1324.34
1011.295	1321.63
1011.588	1304.46
1011.881	1289.09
1012.173	1335.42
1012.466	1322.54
1012.759	1293.38
1013.052	1289.54
1013.344	1274.4
1013.637	1294.29
1013.93	1264.91
1014.222	1262.42
1014.514	1267.85
1014.807	1262.65
1015.099	1242.54
1015.391	1232.59
1015.683	1248.87
1015.976	1230.56
1016.268	1225.59
1016.56	1196.44
1016.851	1214.52
1017.143	1180.62
1017.435	1193.27
1017.727	1174.29
1018.018	1180.17
1018.31	1186.04
1018.602	1149.21
1018.893	1162.54
1019.185	1155.53
1019.476	1128.87
1019.767	1118.02
1020.058	1121.41
1020.35	1115.76
1020.641	1119.38
1020.932	1100.85
1021.223	1073.5
1021.514	1083.9
1021.804	1083.45
1022.095	1103.11
1022.386	1080.51
1022.677	1065.59
1022.967	1073.95
1023.258	1044.35
1023.548	1059.72
1023.839	1023.79
1024.129	1010.68
1024.419	1021.98
1024.709	1021.07
1025	986.05
1025.29	989.89
1025.58	1010
1025.87	1000.74
1026.16	982.43
1026.449	976.56
1026.739	973.62
1027.029	985.82
1027.319	981.08
1027.608	972.04
1027.898	953.51
1028.187	933.62
1028.477	936.78
1028.766	928.2
1029.055	940.4
1029.344	943.56
1029.634	956.44
1029.923	921.64
1030.212	909.44
1030.501	919.61
1030.79	890.68
1031.078	904.02
1031.367	872.15
1031.656	907.18
1031.945	894.3
1032.233	897.46
1032.522	870.8
1032.81	864.69
1033.099	869.67
1033.387	847.29
1033.675	842.1
1033.963	846.84
1034.251	836.45
1034.54	808.65
1034.828	814.07
1035.116	825.83
1035.403	810.91
1035.691	824.92
1035.979	823.34
1036.267	787.63
1036.554	809.78
1036.842	802.1
1037.129	794.41
1037.417	791.02
1037.704	781.53
1037.992	776.34
1038.279	778.6
1038.566	754.42
1038.853	754.42
1039.14	754.42
