Data from plate_porcelain_FLMS001491_075.txt Node
Date: Tue Feb 07 11:19:52 GMT 2017
User: dcchb
Spectrometer: FLMS00149
Trigger mode: 0
Integration Time (sec): 2.000000E-2
Scans to average: 10
Electric dark correction enabled: true
Nonlinearity correction enabled: false
Boxcar width: 0
XAxis mode: Wavelengths
Number of Pixels in Spectrum: 2048
>>>>>Begin Spectral Data<<<<<
341.393	8.4
341.776	8.4
342.16	8.4
342.543	-58.04
342.927	-56
343.31	-67.07
343.693	-75.21
344.077	-89.45
344.46	-61.42
344.843	-40.86
345.226	-52.16
345.61	-19.84
345.993	-21.65
346.376	-8.09
346.759	10.21
347.142	16.99
347.525	42.3
347.908	71
348.291	84.11
348.674	96.31
349.057	114.84
349.44	121.62
349.823	142.19
350.206	174.05
350.588	238.23
350.971	243.65
351.354	273.03
351.737	284.1
352.119	285.68
352.502	331.79
352.884	330.2
353.267	330.88
353.65	357.32
354.032	353.48
354.414	359.13
354.797	363.2
355.179	386.7
355.562	377.66
355.944	372.24
356.326	398.9
356.709	398
357.091	409.3
357.473	389.18
357.855	395.96
358.238	405.68
358.62	403.65
359.002	388.28
359.384	374.04
359.766	395.06
360.148	400.26
360.53	412.69
360.912	411.33
361.294	395.96
361.676	413.59
362.057	402.52
362.439	382.18
362.821	425.57
363.203	422.63
363.584	413.82
363.966	421.73
364.348	418.11
364.729	404.1
365.111	424.44
365.493	392.35
365.874	423.31
366.256	403.42
366.637	405
367.019	427.6
367.4	388.73
367.781	424.44
368.163	414.49
368.544	439.13
368.925	418.79
369.306	407.26
369.688	435.96
370.069	442.52
370.45	437.32
370.831	419.69
371.212	420.6
371.593	429.18
371.974	425.34
372.355	427.83
372.736	439.35
373.117	455.85
373.498	424.89
373.879	442.97
374.26	439.58
374.641	431.9
375.021	435.29
375.402	473.48
375.783	470.76
376.163	487.71
376.544	485
376.925	485.23
377.305	485.23
377.686	490.42
378.066	489.52
378.447	508.73
378.827	534.04
379.208	500.82
379.588	522.29
379.968	497.66
380.349	499.69
380.729	519.35
381.109	532.23
381.489	538.56
381.87	542.18
382.25	540.59
382.63	581.27
383.01	533.14
383.39	566.81
383.77	561.38
384.15	580.82
384.53	590.76
384.91	601.83
385.29	591.67
385.67	590.08
386.049	613.36
386.429	601.83
386.809	604.32
387.189	612.68
387.568	635.96
387.948	638.67
388.328	652
388.707	658.78
389.087	653.81
389.466	669.18
389.846	668.95
390.225	699.46
390.605	668.73
390.984	694.04
391.363	689.29
391.743	704.66
392.122	726.8
392.501	732.45
392.881	770.19
393.26	756.41
393.639	759.8
394.018	787.59
394.397	764.99
394.776	785.33
395.155	782.62
395.534	805.22
395.913	800.25
396.292	807.25
396.671	853.35
397.05	853.58
397.429	863.97
397.808	876.86
398.186	864.43
398.565	869.62
398.944	867.82
399.323	874.82
399.701	892.45
400.08	913.24
400.458	912.33
400.837	942.62
401.215	939.23
401.594	934.93
401.972	937.19
402.351	972.9
402.729	991.65
403.107	1007.25
403.486	1019.22
403.864	973.12
404.242	1057.64
404.62	1063.29
404.999	1076.4
405.377	1079.34
405.755	1089.05
406.133	1091.99
406.511	1117.75
406.889	1110.3
407.267	1151.65
407.645	1138.09
408.023	1155.49
408.401	1181.25
408.779	1195.94
409.156	1216.73
409.534	1249.05
409.912	1259.67
410.29	1276.39
410.667	1300.12
411.045	1316.84
411.422	1339.22
411.8	1353
412.178	1368.59
412.555	1407.69
412.933	1404.53
413.31	1422.6
413.687	1470.29
414.065	1487.46
414.442	1496.73
414.819	1517.29
415.197	1523.17
415.574	1539.89
415.951	1566.55
416.328	1608.14
416.705	1556.84
417.082	1593.67
417.46	1621.02
417.837	1659.21
418.214	1672.31
418.591	1663.28
418.967	1706.21
419.344	1693.33
419.721	1741.01
420.098	1751.41
420.475	1770.62
420.852	1780.56
421.228	1841.8
421.605	1818.07
421.982	1884.51
422.358	1890.84
422.735	1908.69
423.111	1931.29
423.488	1940.33
423.864	1980.33
424.241	2009.48
424.617	2028.01
424.994	2007.9
425.37	2025.75
425.746	2038.18
426.123	2049.93
426.499	2091.74
426.875	2143.94
427.251	2156.82
427.627	2217.16
428.003	2274.78
428.379	2295.58
428.756	2293.32
429.132	2360.43
429.507	2385.06
429.883	2385.52
430.259	2431.16
430.635	2456.25
431.011	2502.35
431.387	2597.71
431.763	2622.57
432.138	2665.51
432.514	2717.26
432.89	2670.71
433.265	2745.28
433.641	2787.77
434.016	2792.51
434.392	2863.7
434.767	2919.74
435.143	2893.53
435.518	2939.4
435.894	2943.92
436.269	3025.73
436.644	3067.98
437.02	3081.32
437.395	3099.4
437.77	3162.9
438.145	3196.79
438.52	3281.54
438.895	3291.48
439.271	3309.56
439.646	3364.25
440.021	3378.94
440.395	3427.75
440.77	3391.37
441.145	3432.49
441.52	3506.16
441.895	3511.36
442.27	3555.43
442.645	3552.49
443.019	3597.69
443.394	3616.44
443.769	3662.54
444.143	3623.22
444.518	3759.72
444.892	3692.37
445.267	3740.96
445.641	3804.24
446.016	3799.72
446.39	3838.36
446.764	3873.39
447.139	3850.56
447.513	3915.65
447.887	3953.84
448.262	4020.95
448.636	3998.81
449.01	4048.3
449.384	4100.05
449.758	4119.93
450.132	4176.88
450.506	4211.46
450.88	4212.14
451.254	4231.8
451.628	4375.52
452.002	4401.51
452.376	4404.67
452.75	4482.64
453.123	4493.03
453.497	4612.12
453.871	4639.69
454.244	4705.68
454.618	4764.89
454.992	4799.01
455.365	4866.58
455.739	4946.8
456.112	5042.62
456.486	5054.82
456.859	5086.46
457.232	5185.89
457.606	5227.02
457.979	5311.54
458.352	5377.75
458.725	5464.53
459.099	5523.51
459.472	5612.78
459.845	5687.12
460.218	5716.5
460.591	5790.85
460.964	5805.54
461.337	6002.37
461.71	6008.47
462.083	6139.77
462.456	6172.76
462.829	6220.44
463.201	6353.55
463.574	6363.26
463.947	6462.92
464.32	6611.85
464.692	6660.43
465.065	6687.32
465.438	6823.82
465.81	6953.98
466.183	7002.8
466.555	7153.53
466.928	7222.23
467.3	7232.85
467.672	7362.56
468.045	7525.04
468.417	7603.46
468.789	7645.04
469.161	7753.06
469.534	7865.82
469.906	8021.3
470.278	8088.19
470.65	8132.71
471.022	8398.92
471.394	8520.04
471.766	8643.66
472.138	8742.64
472.51	8892.69
472.882	9082.97
473.253	9159.35
473.625	9271.21
473.997	9455.84
474.369	9568.6
474.74	9687.25
475.112	9891.99
475.484	9999.33
475.855	10276.16
476.227	10317.96
476.598	10555.25
476.97	10614
477.341	10895.35
477.713	11124.95
478.084	11131.28
478.455	11424.6
478.827	11582.79
479.198	11964.7
479.569	11908.66
479.94	12250.79
480.311	12414.86
480.682	12745.24
481.053	13086.7
481.424	13166.7
481.795	13426.36
482.166	13581.15
482.537	13704.77
482.908	14076.73
483.279	14208.93
483.65	14457.97
484.021	14762.14
484.391	14895.24
484.762	15093.43
485.133	15253.65
485.503	15426.76
485.874	15808.21
486.244	15833.98
486.615	16224.25
486.985	16452.04
487.356	16795.53
487.726	16978.58
488.097	17292.24
488.467	17342.86
488.837	17779.01
489.207	17865.56
489.578	18181.49
489.948	18391.42
490.318	18748.02
490.688	18722.94
491.058	18933.33
491.428	19313.88
491.798	19451.96
492.168	19811.27
492.538	19923.81
492.908	20250.81
493.278	20439.96
493.648	20556.34
494.017	20850.79
494.387	20911.13
494.757	21200.61
495.126	21455.07
495.496	21608.74
495.866	21589.08
496.235	21948.84
496.605	22161.27
496.974	22347.93
497.344	22498.66
497.713	22608.04
498.082	22987.01
498.452	23100.68
498.821	23194.91
499.19	23267.68
499.559	23537.95
499.928	23726.88
500.298	23889.81
500.667	24250.48
501.036	24127.54
501.405	24396.24
501.774	24453.41
502.143	24691.6
502.512	24749
502.88	25186.05
503.249	25147.86
503.618	25362.31
503.987	25420.16
504.356	25608.63
504.724	25827.84
505.093	25956.42
505.462	26067.83
505.83	26357.09
506.199	26479.35
506.567	26912.33
506.936	26934.25
507.304	27131.53
507.672	27187.8
508.041	27398.64
508.409	27735.13
508.777	27925.86
509.145	28068.23
509.514	28110.26
509.882	28407.43
510.25	28434.1
510.618	28829.79
510.986	28875.22
511.354	29161.99
511.722	29455.99
512.09	29799.94
512.458	29643.78
512.826	29963.55
513.193	30160.83
513.561	30189.08
513.929	30568.28
514.297	30872.9
514.664	31078.77
515.032	31208.26
515.4	31542.72
515.767	31650.06
516.135	31924.85
516.502	31801.01
516.869	32316.48
517.237	32391.28
517.604	32467.89
517.972	32930.48
518.339	33046.63
518.706	33262.44
519.073	33379.05
519.44	33638.71
519.808	34020.16
520.175	34121.63
520.542	34624.67
520.909	34782.86
521.276	34813.82
521.643	35259.45
522.009	35468.04
522.376	35617.86
522.743	35962.26
523.11	36276.6
523.477	36769.7
523.843	36837.94
524.21	37172.62
524.577	37498.94
524.943	37553.18
525.31	37839.95
525.676	38159.72
526.043	38389.32
526.409	38695.97
526.776	39036.76
527.142	39351.55
527.508	39657.3
527.874	39752.9
528.241	40071.31
528.607	40143.39
528.973	40537.96
529.339	40552.42
529.705	40921.68
530.071	41280.31
530.437	41424.94
530.803	41773.86
531.169	41973.63
531.535	41921.43
531.901	42062.89
532.267	42376.56
532.632	42545.59
532.998	42870.1
533.364	43038.68
533.73	43238.68
534.095	43657.2
534.461	43822.62
534.826	43914.59
535.192	44054.93
535.557	44416.5
535.923	44371.08
536.288	44476.39
536.653	44696.95
537.019	44639.32
537.384	45002.02
537.749	45146.43
538.114	45083.38
538.479	45255.58
538.845	45606.75
539.21	45496.7
539.575	45805.62
539.94	45982.79
540.305	46183.91
540.67	46063.46
541.034	46310.69
541.399	46609.44
541.764	46610.12
542.129	46738.02
542.494	46861.86
542.858	47223.43
543.223	47108.41
543.587	47405.35
543.952	47422.52
544.316	47601.73
544.681	47585.01
545.045	47754.04
545.41	48074.26
545.774	48154.03
546.138	48132.34
546.503	48335.04
546.867	48360.58
547.231	48657.97
547.595	48796.95
547.959	48953.33
548.324	48941.35
548.688	49084.18
549.052	49208.92
549.416	49272.19
549.779	49468.8
550.143	49516.25
550.507	49775.68
550.871	49898.84
551.235	49980.42
551.599	50257.93
551.962	50263.35
552.326	50396.23
552.689	50574.76
553.053	50500.64
553.417	50606.4
553.78	51033.73
554.143	50862.43
554.507	51142.2
554.87	51284.57
555.234	51617.22
555.597	51419.71
555.96	51618.35
556.323	51832.8
556.686	51859.24
557.05	52035.96
557.413	52077.77
557.776	52242.28
558.139	52508.94
558.502	52555.95
558.865	52686.79
559.228	52865.09
559.59	52886.79
559.953	52971.08
560.316	53373.1
560.679	53290.39
561.041	53473.44
561.404	53684.96
561.767	53865.07
562.129	53770.61
562.492	54098.73
562.854	54158.17
563.217	54231.38
563.579	54364.26
563.941	54531.72
564.304	54699.62
564.666	54767.64
565.028	54892.16
565.39	55006.51
565.753	55153.62
566.115	55134.64
566.477	55303
566.839	55370.11
567.201	55466.61
567.563	55591.35
567.925	55864.79
568.287	55834.05
568.648	55808.74
569.01	56002.86
569.372	56272.46
569.734	56107.27
570.095	56336.87
570.457	56389.29
570.819	56528.95
571.18	56519.91
571.542	56739.57
571.903	56699.34
572.265	56834.25
572.626	56905.44
572.987	56941.14
573.349	57085.1
573.71	57144.75
574.071	57177.07
574.432	57308.82
574.794	57399.21
575.155	57405.76
575.516	57341.36
575.877	57495.25
576.238	57600.79
576.599	57609.83
576.96	57638.98
577.32	57693.44
577.681	57804.4
578.042	57885.98
578.403	57869.48
578.763	57937.05
579.124	57957.39
579.485	57984.05
579.845	58150.83
580.206	58069.25
580.566	58029.25
580.927	58102.02
581.287	58157.16
581.648	58126.65
582.008	58240.77
582.368	58210.04
582.728	58241.22
583.089	58156.25
583.449	58206.87
583.809	58246.87
584.169	58281.67
584.529	58281.45
584.889	58479.41
585.249	58248
585.609	58182.24
585.969	58387.89
586.329	58303.82
586.688	58399.18
587.048	58347.43
587.408	58337.27
587.768	58387.21
588.127	58368
588.487	58306.31
588.846	58468.11
589.206	58316.02
589.565	58366.19
589.925	58455
590.284	58402.57
590.643	58444.83
591.003	58489.8
591.362	58541.78
591.721	58454.78
592.08	58476.47
592.44	58517.37
592.799	58578.62
593.158	58489.58
593.517	58503.14
593.876	58521.67
594.235	58519.41
594.593	58496.13
594.952	58535.68
595.311	58504.72
595.67	58569.12
596.029	58674.88
596.387	58676.24
596.746	58665.62
597.104	58634.88
597.463	58676.24
597.822	58761.89
598.18	58665.84
598.538	58675.11
598.897	58810.25
599.255	58564.83
599.613	58993.29
599.972	58809.12
600.33	58857.7
600.688	58747.42
601.046	58848.66
601.404	59050.47
601.762	58921.88
602.12	58994.2
602.478	59024.25
602.836	59066.06
603.194	58906.29
603.552	58952.84
603.91	58891.15
604.268	59040.07
604.625	59013.41
604.983	59120.52
605.341	59018.15
605.698	59148.32
606.056	59142.67
606.413	59136.34
606.771	59189.9
607.128	59330.69
607.485	59153.74
607.843	59160.75
608.2	59331.36
608.557	59401.42
608.914	59261.54
609.272	59455.43
609.629	59490
609.986	59530.23
610.343	59397.35
610.7	59640.51
611.057	59595.54
611.414	59511.25
611.771	59538.82
612.127	59622.88
612.484	59624.69
612.841	59696.33
613.198	59624.01
613.554	59684.57
613.911	59839.82
614.267	59810.67
614.624	59744.91
614.98	59812.71
615.337	59956.66
615.693	59889.32
616.05	59816.55
616.406	59992.14
616.762	59897.68
617.118	59921.86
617.475	59958.24
617.831	59958.01
618.187	59988.3
618.543	59983.55
618.899	60190.32
619.255	60081.17
619.611	60089.76
619.967	60183.54
620.323	60146.71
620.678	60083.21
621.034	60124.79
621.39	60080.5
621.746	60067.39
622.101	60315.74
622.457	60117.11
622.812	60153.94
623.168	60147.16
623.523	60217.89
623.879	60208.85
624.234	60042.98
624.589	60272.58
624.945	60221.74
625.3	60204.11
625.655	60243.66
626.01	60200.95
626.365	60247.95
626.72	60218.57
627.075	60184.9
627.43	60153.04
627.785	60069.88
628.14	60146.71
628.495	60147.39
628.85	60116.43
629.205	59996.43
629.559	60166.6
629.914	60056.99
630.269	60020.61
630.623	60022.64
630.978	59931.12
631.332	60087.95
631.687	60101.74
632.041	59916.89
632.396	59924.79
632.75	59871.24
633.104	59924.12
633.459	59791.01
633.813	59807.74
634.167	59849.77
634.521	59768.19
634.875	59844.57
635.229	59719.6
635.583	59673.95
635.937	59593.28
636.291	59572.04
636.645	59574.97
636.999	59649.32
637.352	59592.37
637.706	59478.03
638.06	59528.65
638.413	59471.25
638.767	59414.75
639.121	59413.17
639.474	59266.73
639.828	59309.9
640.181	59364.81
640.534	59348.99
640.888	59232.38
641.241	59166.85
641.594	59160.75
641.947	59276.45
642.301	59196
642.654	59144.02
643.007	59073.74
643.36	59112.84
643.713	59015.44
644.066	59149.9
644.419	59024.03
644.771	58757.82
645.124	58509.69
645.477	58535.68
645.83	58316.25
646.182	58225.4
646.535	58135.91
646.888	58243.71
647.24	58052.53
647.593	58231.73
647.945	58164.84
648.298	57973.21
648.65	58007.33
649.002	57868.8
649.355	57930.04
649.707	57915.13
650.059	57986.09
650.411	58312.18
650.763	58330.49
651.115	58617.26
651.467	58446.64
651.819	58382.91
652.171	58360.77
652.523	58309.92
652.875	58323.25
653.227	58156.48
653.578	58332.97
653.93	58261.56
654.282	58095.92
654.633	58080.1
654.985	58126.65
655.337	58140.89
655.688	58142.02
656.039	58201.68
656.391	57981.57
656.742	58031.06
657.094	58113.99
657.445	58168.46
657.796	58067.44
658.147	58001
658.498	58000.78
658.849	58017.73
659.2	57919.2
659.551	57959.65
659.902	58046.65
660.253	57929.59
660.604	57921.23
660.955	57854.34
661.306	57918.07
661.656	57904.73
662.007	57849.37
662.358	57863.15
662.708	57803.95
663.059	57799.88
663.409	57630.62
663.76	57814.12
664.11	57774.12
664.461	57782.7
664.811	57831.29
665.161	57758.75
665.511	57704.97
665.862	57756.26
666.212	57843.49
666.562	57871.52
666.912	57796.04
667.262	57674.01
667.612	57727.34
667.962	57675.36
668.312	57647.34
668.662	57803.04
669.011	57616.38
669.361	57617.74
669.711	57649.15
670.06	57549.04
670.41	57469.27
670.76	57485.31
671.109	57553.11
671.459	57511.52
671.808	57474.69
672.157	57574.35
672.507	57308.37
672.856	57438.08
673.205	57440.79
673.554	57532.54
673.904	57389.95
674.253	57534.57
674.602	57331.87
674.951	57067.92
675.3	56940.47
675.649	57306.56
675.998	57302.94
676.346	57270.63
676.695	57345.2
677.044	57222.27
677.393	57268.82
677.741	57273.56
678.09	57227.24
678.438	57128.71
678.787	57180.91
679.135	57177.52
679.484	57019.79
679.832	57161.93
680.181	56970.97
680.529	57006.45
680.877	56899.11
681.225	56830.64
681.573	57092.1
681.922	56811.88
682.27	56811.2
682.618	56771.21
682.966	56757.65
683.314	56758.78
683.661	56631.32
684.009	56492.79
684.357	56341.84
684.705	56424.55
685.053	56382.74
685.4	56418.22
685.748	56227.72
686.095	56198.34
686.443	56123.31
686.79	56133.71
687.138	56059.13
687.485	56164.44
687.832	55986.37
688.18	56135.29
688.527	55871.79
688.874	55823.43
689.221	55680.61
689.568	55710.22
689.915	55618.01
690.262	55640.16
690.609	55505.93
690.956	55505.02
691.303	55391.81
691.65	55282.66
691.997	55208.76
692.344	55031.59
692.69	55087.63
693.037	55170.57
693.383	54914.08
693.73	54993.4
694.077	54819.17
694.423	54763.35
694.769	54681.09
695.116	54557.25
695.462	54630.92
695.808	54503.24
696.155	54571.49
696.501	54346.41
696.847	54361.55
697.193	54192.29
697.539	54250.59
697.885	54023.71
698.231	53943.03
698.577	53962.92
698.923	53830.72
699.269	53695.35
699.614	53539.65
699.96	53475.25
700.306	53552.31
700.651	53479.99
700.997	53311.63
701.342	53279.77
701.688	53195.71
702.033	53046.11
702.379	53035.03
702.724	52971.53
703.069	53043.17
703.415	52694.02
703.76	52696.28
704.105	52637.08
704.45	52581.94
704.795	52277.99
705.14	52299.23
705.485	52232.57
705.83	52145.79
706.175	52322.51
706.52	52108.5
706.865	51939.47
707.209	51932.91
707.554	51803.65
707.899	51894.5
708.243	51707.61
708.588	51618.57
708.932	51457.22
709.277	51456.32
709.621	51457.9
709.966	51223.33
710.31	51293.16
710.654	51007.29
710.998	51019.94
711.342	51049.55
711.687	50902.88
712.031	50726.39
712.375	50614.98
712.719	50676.45
713.063	50639.16
713.407	50788.09
713.75	50554.42
714.094	50491.14
714.438	50433.74
714.782	50399.62
715.125	50182
715.469	50243.92
715.812	50098.39
716.156	49841.67
716.499	49842.12
716.843	49840.54
717.186	49587.67
717.53	49862.91
717.873	49869.01
718.216	49829.24
718.559	49491.17
718.902	49349.25
719.246	49490.27
719.589	49286.2
719.932	49083.72
720.275	49196.94
720.617	49104.29
720.96	48998.53
721.303	48923.05
721.646	48950.39
721.989	48778.42
722.331	48805.31
722.674	48741.36
723.016	48837.63
723.359	48626.79
723.701	48583.17
724.044	48391.54
724.386	48114.26
724.729	48230.64
725.071	48152.9
725.413	48148.38
725.755	48033.81
726.097	47978.22
726.439	47719.92
726.782	47834.72
727.124	47748.17
727.465	47734.61
727.807	47719.92
728.149	47500.49
728.491	47470.21
728.833	47610.99
729.175	47370.77
729.516	47254.85
729.858	47210.33
730.199	47330.55
730.541	47086.71
730.882	47027.05
731.224	47150.44
731.565	46903.22
731.906	46907.74
732.248	47015.3
732.589	46834.97
732.93	46620.96
733.271	46706.38
733.612	46662.09
733.953	46784.35
734.294	46433.4
734.635	46467.97
734.976	46474.98
735.317	46305.72
735.658	46255.55
735.999	46262.78
736.339	46157.47
736.68	46206.29
737.021	46001.32
737.361	45979.17
737.702	46070.24
738.042	45891.72
738.383	45752.29
738.723	45693.98
739.063	45664.83
739.404	45679.75
739.744	45462.8
740.084	45336.25
740.424	45387.1
740.764	45289.92
741.104	45385.74
741.444	45179.65
741.784	45155.47
742.124	45048.58
742.464	44959.54
742.804	45061.23
743.143	44783.95
743.483	44798.19
743.823	44782.59
744.162	44595.93
744.502	44692.43
744.841	44468.7
745.181	44712.99
745.52	44481.36
745.86	44500.57
746.199	44306.9
746.538	44315.26
746.877	44332.66
747.216	44195.72
747.556	43942.84
747.895	43958.43
748.234	43797.08
748.573	43709.4
748.911	43691.55
749.25	43729.74
749.589	43468.73
749.928	43462.4
750.267	43364.55
750.605	43382.63
750.944	43127.95
751.283	43191
751.621	43239.58
751.96	42851.35
752.298	42877.79
752.636	42906.94
752.975	42764.57
753.313	42531.13
753.651	42724.57
753.989	42434.86
754.327	42409.55
754.666	42229.89
755.004	42306.27
755.342	42308.99
755.679	42256.56
756.017	41874.42
756.355	42045.72
756.693	41786.06
757.031	41687.76
757.368	41621.55
757.706	41430.82
758.044	41456.35
758.381	41413.64
758.719	41313.76
759.056	41396.24
759.394	41156.02
759.731	40963.94
760.068	40803.49
760.405	40648.47
760.743	40473.1
761.08	40656.37
761.417	40411.41
761.754	40314.91
762.091	40242.83
762.428	40047.58
762.765	39904.3
763.102	39970.52
763.438	39871.76
763.775	39356.97
764.112	39448.95
764.449	39421.38
764.785	39129.18
765.122	39053.48
765.458	38867.27
765.795	38865.91
766.131	38832.02
766.467	38672.47
766.804	38423.89
767.14	38252.6
767.476	38233.84
767.812	37920.4
768.148	38094.86
768.485	37696.45
768.821	37696.9
769.157	37698.03
769.492	37608.55
769.828	37608.09
770.164	37249.01
770.5	37252.17
770.836	37119.52
771.171	36828.45
771.507	36735.35
771.842	36584.17
772.178	36597.95
772.513	36551.4
772.849	36386.88
773.184	36174.23
773.519	36209.71
773.855	36009.94
774.19	35780.8
774.525	35650.18
774.86	35558.2
775.195	35495.61
775.53	35317.08
775.865	35275.5
776.2	35154.15
776.535	34801.39
776.87	34771.78
777.205	34623.09
777.539	34540.38
777.874	34513.71
778.209	34275.75
778.543	34260.16
778.878	33937.91
779.212	34049.99
779.547	33668.76
779.881	33806.61
780.215	33606.62
780.55	33560.06
780.884	33315.32
781.218	33384.93
781.552	33386.06
781.886	33010.7
782.22	32892.96
782.554	32746.75
782.888	32519.87
783.222	32380.89
783.556	32374.11
783.889	32217.95
784.223	32126.88
784.557	31953.55
784.89	31990.84
785.224	31771.86
785.557	31664.97
785.891	31455.03
786.224	31417.07
786.558	31479.21
786.891	31103.63
787.224	30982.05
787.557	30946.12
787.891	30936.86
788.224	30782.06
788.557	30667.03
788.89	30594.04
789.223	30649.18
789.556	30508.84
789.888	30262.98
790.221	30151.57
790.554	29959.03
790.887	29949.31
791.219	29814.4
791.552	29790.45
791.884	29654.18
792.217	29559.27
792.549	29409.21
792.882	29260.06
793.214	29171.48
793.546	29131.48
793.879	28955.21
794.211	28821.21
794.543	28831.15
794.875	28643.58
795.207	28748.66
795.539	28487.2
795.871	28594.32
796.203	28358.84
796.535	28265.97
796.867	28148
797.198	28103.48
797.53	28054.45
797.862	27844.96
798.193	27862.81
798.525	27666.66
798.856	27766.09
799.188	27408.59
799.519	27378.08
799.85	27290.85
800.182	27279.78
800.513	27252.66
800.844	26982.16
801.175	27046.79
801.506	26998.2
801.837	26886.79
802.168	26790.07
802.499	26697.87
802.83	26494.26
803.161	26563.86
803.491	26485
803.822	26460.59
804.153	26294.72
804.483	26091.11
804.814	26029.19
805.145	26002.75
805.475	25998.68
805.805	25832.58
806.136	25874.84
806.466	25805.92
806.796	25714.85
807.126	25538.13
807.457	25459.71
807.787	25588.3
808.117	25276.21
808.447	25265.59
808.777	25265.37
809.107	25145.6
809.436	25015.88
809.766	25125.94
810.096	24994.87
810.426	24793.29
810.755	24879.84
811.085	24783.8
811.414	24826.73
811.744	24595.33
812.073	24516.69
812.403	24443.24
812.732	24279.4
813.061	24375.9
813.39	24178.39
813.719	24167.32
814.049	24221.1
814.378	24106.08
814.707	24011.61
815.036	23947.44
815.365	23916.93
815.693	23657.5
816.022	23702.7
816.351	23544.28
816.68	23505.64
817.008	23564.85
817.337	23396.72
817.665	23431.52
817.994	23321.24
818.322	23335.02
818.651	23249.15
818.979	23128.7
819.307	23252.31
819.636	23237.17
819.964	22958.08
820.292	23090.73
820.62	22938.65
820.948	22917.41
821.276	22946.11
821.604	22811.19
821.932	22830.85
822.259	22897.29
822.587	22886.45
822.915	22871.53
823.243	22870.63
823.57	22852.1
823.898	22835.15
824.225	22691.42
824.553	22683.51
824.88	22864.07
825.207	22790.4
825.535	22830.4
825.862	22826.79
826.189	22766.45
826.516	22869.05
826.843	22895.94
827.17	22909.04
827.497	22860.68
827.824	22756.73
828.151	22864.53
828.478	22752.44
828.805	22845.54
829.131	22731.42
829.458	22589.73
829.785	22532.56
830.111	22612.78
830.438	22787.69
830.764	22605.55
831.09	22676.28
831.417	22556.96
831.743	22754.7
832.069	22619.56
832.395	22504.76
832.722	22647.58
833.048	22512.67
833.374	22398.55
833.7	22346.35
834.026	22435.16
834.351	22544.31
834.677	22399.68
835.003	22489.39
835.329	22441.71
835.654	22378.44
835.98	22232
836.306	22356.74
836.631	22265.67
836.956	22353.13
837.282	22219.8
837.607	22263.86
837.932	22150.19
838.258	22159.69
838.583	22107.71
838.908	21978.67
839.233	22002.4
839.558	21822.52
839.883	21850.32
840.208	21711.34
840.533	21803.31
840.858	21920.14
841.182	21831.56
841.507	21788.62
841.832	21692.58
842.156	21737.78
842.481	21573.26
842.805	21574.62
843.13	21370.55
843.454	21368.97
843.778	21254.4
844.103	21266.83
844.427	21234.29
844.751	21145.7
845.075	21184.57
845.399	21106.83
845.723	20991.81
846.047	20960.62
846.371	20753.85
846.695	20767.41
847.019	20646.73
847.343	20490.35
847.666	20499.16
847.99	20426.85
848.313	20281.54
848.637	20240.64
848.96	20178.27
849.284	20044.94
849.607	20023.24
849.931	19957.94
850.254	19810.82
850.577	19751.39
850.9	19714.55
851.223	19569.47
851.546	19417.84
851.869	19336.71
852.192	19385.3
852.515	19274.11
852.838	19209.71
853.161	19119.31
853.483	19011.97
853.806	18946.21
854.129	18879.77
854.451	18925.19
854.774	18798.42
855.096	18737.4
855.419	18688.36
855.741	18678.42
856.063	18497.18
856.385	18540.35
856.708	18419.9
857.03	18321.14
857.352	18360.69
857.674	18217.64
857.996	18200.02
858.318	18076.4
858.64	18089.06
858.961	18024.43
859.283	17908.95
859.605	17973.36
859.926	17883.41
860.248	17852.91
860.57	17726.13
860.891	17770.87
861.212	17600.48
861.534	17631.22
861.855	17623.53
862.176	17651.1
862.498	17611.78
862.819	17717.32
863.14	17489.98
863.461	17443.43
863.782	17451.33
864.103	17394.16
864.424	17342.64
864.745	17376.53
865.065	17339.7
865.386	17273.26
865.707	17177.22
866.027	17229.19
866.348	17194.84
866.668	17194.17
866.989	17144
867.309	16996.21
867.63	17008.41
867.95	16967.28
868.27	16915.98
868.59	16949.2
868.91	16900.39
869.23	16858.81
869.55	16877.79
869.87	16972.48
870.19	16773.61
870.51	16854.97
870.83	16806.15
871.15	16638.7
871.469	16582.21
871.789	16605.93
872.109	16570.68
872.428	16473.96
872.748	16621.98
873.067	16474.86
873.386	16555.77
873.706	16421.08
874.025	16347.41
874.344	16390.35
874.663	16345.83
874.982	16308.31
875.301	16343.79
875.62	16240.07
875.939	16165.94
876.258	16266.51
876.577	16064.25
876.896	16107.87
877.214	16133.18
877.533	16127.75
877.852	16148.32
878.17	16122.33
878.489	16101.54
878.807	16013.18
879.125	15921.21
879.444	15981.77
879.762	15862
880.08	15870.81
880.398	15871.72
880.716	15846.63
881.034	15830.13
881.352	15813.86
881.67	15655.9
881.988	15725.05
882.306	15724.37
882.624	15671.49
882.941	15575.68
883.259	15347.44
883.577	15497.49
883.894	15441.22
884.212	15414.33
884.529	15411.84
884.846	15274.44
885.164	15338.85
885.481	15248.91
885.798	15338.4
886.115	15137.72
886.432	15151.73
886.75	15076.03
887.067	15015.01
887.383	14991.06
887.7	15110.15
888.017	15012.53
888.334	14949.71
888.651	14920.78
888.967	14925.07
889.284	14819.99
889.6	14724.85
889.917	14670.17
890.233	14777.51
890.55	14593.56
890.866	14667
891.182	14534.8
891.498	14498.87
891.815	14406.44
892.131	14359.44
892.447	14378.65
892.763	14270.63
893.079	14289.84
893.395	14220.69
893.71	14267.46
894.026	14268.37
894.342	14141.82
894.657	14036.06
894.973	14074.02
895.289	13999.45
895.604	13967.58
895.92	13810.53
896.235	13784.54
896.55	13754.93
896.865	13748.83
897.181	13772.34
897.496	13747.25
897.811	13582.51
898.126	13659.34
898.441	13514.49
898.756	13543.42
899.071	13435.62
899.386	13387.71
899.7	13342.29
900.015	13287.83
900.33	13287.6
900.644	13194.72
900.959	13195.85
901.273	13103.65
901.588	13085.8
901.902	12862.98
902.216	12990.89
902.531	12875.86
902.845	12842.19
903.159	12668.86
903.473	12687.84
903.787	12706.83
904.101	12608.07
904.415	12641.97
904.729	12568.75
905.042	12496.89
905.356	12428.19
905.67	12420.28
905.984	12426.38
906.297	12358.81
906.611	12308.42
906.924	12284.01
907.237	12264.35
907.551	12149.1
907.864	12117.92
908.177	12097.8
908.491	12044.02
908.804	11957.02
909.117	11897.81
909.43	11810.13
909.743	11747.08
910.056	11768.09
910.368	11729.45
910.681	11681.77
910.994	11636.57
911.307	11591.38
911.619	11467.54
911.932	11489.01
912.244	11409.01
912.557	11386.64
912.869	11346.18
913.181	11245.17
913.494	11179.64
913.806	11235.91
914.118	11155
914.43	11080.65
914.742	11054.44
915.054	10939.64
915.366	10961.79
915.678	10872.98
915.99	10934.22
916.302	10715.92
916.613	10690.61
916.925	10693.09
917.236	10671.63
917.548	10644.51
917.859	10554.34
918.171	10624.17
918.482	10467.11
918.794	10424.85
919.105	10479.09
919.416	10374.91
919.727	10293.11
920.038	10265.31
920.349	10160.23
920.66	10083.85
920.971	10137.4
921.282	10120.91
921.593	10029.84
921.903	9990.06
922.214	9919.33
922.525	9876.17
922.835	9916.17
923.146	9788.71
923.456	9752.33
923.767	9762.72
924.077	9728.6
924.387	9690.18
924.697	9587.59
925.008	9604.76
925.318	9483.41
925.628	9432.34
925.938	9423.52
926.248	9373.81
926.558	9321.61
926.867	9352.11
927.177	9272.57
927.487	9245.45
927.796	9098.11
928.106	9207.03
928.416	9039.58
928.725	9058.34
929.034	8969.75
929.344	9032.57
929.653	9030.99
929.962	8860.37
930.271	8853.59
930.581	8843.43
930.89	8810.21
931.199	8745.35
931.508	8717.33
931.817	8714.39
932.125	8692.92
932.434	8614.73
932.743	8577.9
933.051	8427.62
933.36	8524.56
933.669	8383.55
933.977	8372.7
934.286	8411.35
934.594	8398.47
934.902	8270.11
935.21	8212.93
935.519	8274.63
935.827	8170.67
936.135	8233.72
936.443	8094.07
936.751	8064.46
937.059	8031.02
937.367	8026.05
937.674	7977.23
937.982	7969.78
938.29	7951.02
938.597	7923.9
938.905	7845.71
939.213	7842.55
939.52	7827.63
939.827	7830.34
940.135	7712.16
940.442	7703.79
940.749	7643.01
941.056	7615.44
941.363	7579.96
941.67	7572.72
941.977	7520.75
942.284	7403.24
942.591	7397.81
942.898	7364.82
943.205	7412.5
943.511	7349
943.818	7285.5
944.125	7224.49
944.431	7221.55
944.738	7214.09
945.044	7104.49
945.35	7156.01
945.657	7111.95
945.963	7057.48
946.269	7074.66
946.575	7024.94
946.881	6935.68
947.187	6941.33
947.493	6892.29
947.799	6837.38
948.105	6814.78
948.41	6796.93
948.716	6769.81
949.022	6705.85
949.327	6747.89
949.633	6630.38
949.938	6714.67
950.244	6708.11
950.549	6610.26
950.854	6534.56
951.16	6521.9
951.465	6478.97
951.77	6495.01
952.075	6465.86
952.38	6479.87
952.685	6419.76
952.99	6330.27
953.294	6310.61
953.599	6388.35
953.904	6229.03
954.209	6198.07
954.513	6219.77
954.818	6181.57
955.122	6174.34
955.426	6056.61
955.731	6123.72
956.035	6062.93
956.339	6047.57
956.643	6031.75
956.948	5954.69
957.252	5966.21
957.556	5966.67
957.86	5922.15
958.163	5925.99
958.467	5813.9
958.771	5866.55
959.075	5846.22
959.378	5740.68
959.682	5794.69
959.985	5756.5
960.289	5709.5
960.592	5678.09
960.896	5683.51
961.199	5628.37
961.502	5619.78
961.805	5561.7
962.108	5518.09
962.411	5519.9
962.714	5436.96
963.017	5490.07
963.32	5463.18
963.623	5441.03
963.926	5455.27
964.228	5387.92
964.531	5443.52
964.833	5371.2
965.136	5315.61
965.438	5278.55
965.741	5294.59
966.043	5255.05
966.345	5234.71
966.648	5219.11
966.95	5173.24
967.252	5146.12
967.554	5129.63
967.856	5118.78
968.158	5073.36
968.46	5009.85
968.761	5063.41
969.063	5023.19
969.365	5005.11
969.666	4952.68
969.968	4922.62
970.269	4878.56
970.571	4913.81
970.872	4891.89
971.174	4859.8
971.475	4797.2
971.776	4810.76
972.077	4767.37
972.378	4744.1
972.679	4761.5
972.98	4692.35
973.281	4643.99
973.582	4655.74
973.883	4674.72
974.183	4612.35
974.484	4635.17
974.785	4598.34
975.085	4562.63
975.386	4575.97
975.686	4523.31
975.986	4486.03
976.287	4506.59
976.587	4472.02
976.887	4418.46
977.187	4457.33
977.487	4436.08
977.787	4378.01
978.087	4409.87
978.387	4322.87
978.687	4298.91
978.987	4309.76
979.286	4254.85
979.586	4279.7
979.885	4208.52
980.185	4228.18
980.484	4218.69
980.784	4206.94
981.083	4173.72
981.382	4130.56
981.682	4183.89
981.981	4088.97
982.28	4058.69
982.579	4043.1
982.878	4114.96
983.177	4036.32
983.475	4023.67
983.774	3994.51
984.073	3984.8
984.372	3917.45
984.67	3891.92
984.969	3919.71
985.267	3937.57
985.566	3909.77
985.864	3865.93
986.162	3880.39
986.461	3844.91
986.759	3777.12
987.057	3785.71
987.355	3741.19
987.653	3761.07
987.951	3769.43
988.249	3748.64
988.547	3723.11
988.844	3688.08
989.142	3689.21
989.44	3637.23
989.737	3653.05
990.035	3592.72
990.332	3627.29
990.63	3557.01
990.927	3561.98
991.224	3550.23
991.521	3539.84
991.819	3512.04
992.116	3550.46
992.413	3498.71
992.71	3479.05
993.006	3444.7
993.303	3427.97
993.6	3392.72
993.897	3407.64
994.193	3422.55
994.49	3381.65
994.787	3328.99
995.083	3324.7
995.379	3323.8
995.676	3291.48
995.972	3283.57
996.268	3258.49
996.565	3257.13
996.861	3220.75
997.157	3234.53
997.453	3218.04
997.749	3174.87
998.044	3169.22
998.34	3140.98
998.636	3146.4
998.932	3091.03
999.227	3088.32
999.523	3085.61
999.818	3062.33
1000.114	3036.35
1000.409	3048.1
1000.704	3027.31
1001	2962.45
1001.295	2958.16
1001.59	2929
1001.885	2965.39
1002.18	2954.99
1002.475	2917.93
1002.77	2896.01
1003.065	2868.67
1003.359	2843.36
1003.654	2851.49
1003.949	2813.3
1004.243	2773.08
1004.538	2762.23
1004.832	2755.9
1005.127	2768.78
1005.421	2745.28
1005.715	2730.59
1006.009	2737.82
1006.304	2688.56
1006.598	2665.73
1006.892	2653.08
1007.186	2651.05
1007.48	2628.9
1007.773	2574.44
1008.067	2568.79
1008.361	2579.64
1008.655	2576.7
1008.948	2542.12
1009.242	2569.69
1009.535	2506.64
1009.829	2493.54
1010.122	2507.77
1010.415	2466.19
1010.708	2475.68
1011.001	2462.58
1011.295	2422.13
1011.588	2429.13
1011.881	2403.82
1012.173	2413.99
1012.466	2361.34
1012.759	2348.23
1013.052	2345.07
1013.344	2331.05
1013.637	2331.73
1013.93	2303.48
1014.222	2263.94
1014.514	2274.33
1014.807	2287.44
1015.099	2250.83
1015.391	2211.51
1015.683	2206.99
1015.976	2212.41
1016.268	2198.63
1016.56	2175.8
1016.851	2176.03
1017.143	2155.69
1017.435	2116.6
1017.727	2105.07
1018.018	2091.74
1018.31	2062.36
1018.602	2117.5
1018.893	2048.8
1019.185	2061.01
1019.476	2019.2
1019.767	2023.49
1020.058	2018.75
1020.35	1980.56
1020.641	1953.66
1020.932	1953.44
1021.223	1954.12
1021.514	1928.13
1021.804	1929.03
1022.095	1917.28
1022.386	1916.83
1022.677	1883.61
1022.967	1834.57
1023.258	1860.11
1023.548	1844.97
1023.839	1811.07
1024.129	1814.23
1024.419	1809.03
1024.709	1787.57
1025	1751.18
1025.29	1783.5
1025.58	1749.15
1025.87	1719.55
1026.16	1718.42
1026.449	1700.56
1026.739	1699.66
1027.029	1693.33
1027.319	1676.61
1027.608	1650.85
1027.898	1671.64
1028.187	1640.68
1028.477	1616.95
1028.766	1635.71
1029.055	1597.97
1029.344	1594.12
1029.634	1581.24
1029.923	1576.72
1030.212	1554.35
1030.501	1538.76
1030.79	1513
1031.078	1535.37
1031.367	1526.56
1031.656	1522.49
1031.945	1495.6
1032.233	1512.32
1032.522	1484.75
1032.81	1458.31
1033.099	1448.14
1033.387	1433.45
1033.675	1419.67
1033.963	1440
1034.251	1409.27
1034.54	1407.69
1034.828	1385.77
1035.116	1375.6
1035.403	1372.44
1035.691	1352.1
1035.979	1320.01
1036.267	1330.63
1036.554	1365.88
1036.842	1317.07
1037.129	1298.54
1037.417	1280.01
1037.704	1284.53
1037.992	1295.83
1038.279	1280.01
1038.566	1273.91
1038.853	1273.91
1039.14	1273.91
