Data from plate_porcelain_FLMS001491_065.txt Node
Date: Tue Feb 07 11:19:41 GMT 2017
User: dcchb
Spectrometer: FLMS00149
Trigger mode: 0
Integration Time (sec): 2.000000E-2
Scans to average: 10
Electric dark correction enabled: true
Nonlinearity correction enabled: false
Boxcar width: 0
XAxis mode: Wavelengths
Number of Pixels in Spectrum: 2048
>>>>>Begin Spectral Data<<<<<
341.393	-19.76
341.776	-19.76
342.16	-19.76
342.543	-51.62
342.927	-86.2
343.31	-69.25
343.693	-65.18
344.077	-62.7
344.46	-69.25
344.843	-52.75
345.226	-45.3
345.61	-55.24
345.993	-14.56
346.376	-1.23
346.759	38.77
347.142	16.4
347.525	38.77
347.908	63.4
348.291	74.7
348.674	110.86
349.057	92.55
349.44	122.61
349.823	140.24
350.206	160.57
350.588	218.43
350.971	239.44
351.354	255.04
351.737	267.46
352.119	288.93
352.502	285.32
352.884	310.63
353.267	323.06
353.65	334.36
354.032	360.8
354.414	343.39
354.797	321.25
355.179	368.03
355.562	356.05
355.944	354.69
356.326	385.88
356.709	371.19
357.091	367.35
357.473	384.07
357.855	380.23
358.238	404.18
358.62	398.99
359.002	374.81
359.384	395.82
359.766	384.3
360.148	367.8
360.53	387.24
360.912	418.2
361.294	407.12
361.676	380
362.057	390.4
362.439	396.5
362.821	412.77
363.203	362.6
363.584	391.08
363.966	397.4
364.348	390.17
364.729	393.11
365.111	370.96
365.493	374.35
365.874	387.01
366.256	396.95
366.637	392.21
367.019	389.27
367.4	396.95
367.781	410.29
368.163	405.31
368.544	390.85
368.925	380.68
369.306	388.37
369.688	415.48
370.069	387.01
370.45	382.26
370.831	395.37
371.212	404.41
371.593	421.13
371.974	432.66
372.355	408.7
372.736	423.62
373.117	414.35
373.498	411.19
373.879	428.59
374.26	416.61
374.641	408.48
375.021	414.81
375.402	429.04
375.783	445.31
376.163	478.31
376.544	458.65
376.925	456.84
377.305	429.27
377.686	465.88
378.066	466.78
378.447	490.06
378.827	464.52
379.208	450.51
379.588	461.81
379.968	484.63
380.349	496.16
380.729	486.22
381.109	478.53
381.489	488.02
381.87	501.13
382.25	502.26
382.63	494.13
383.01	509.04
383.39	516.95
383.77	522.83
384.15	524.18
384.53	502.94
384.91	535.93
385.29	544.52
385.67	543.16
386.049	588.13
386.429	561.47
386.809	575.25
387.189	563.73
387.568	581.81
387.948	604.18
388.328	601.47
388.707	594.46
389.087	615.7
389.466	610.51
389.846	636.49
390.225	619.77
390.605	620.9
390.984	614.57
391.363	664.74
391.743	652.54
392.122	671.07
392.501	679.21
392.881	683.05
393.26	678.53
393.639	683.05
394.018	711.97
394.397	668.81
394.776	741.12
395.155	715.59
395.534	723.72
395.913	740.45
396.292	748.13
396.671	734.35
397.05	753.1
397.429	765.53
397.808	758.07
398.186	760.33
398.565	785.64
398.944	782.48
399.323	804.4
399.701	804.85
400.08	792.87
400.458	816.38
400.837	843.49
401.215	859.54
401.594	845.08
401.972	873.55
402.351	853.44
402.729	895.7
403.107	877.62
403.486	890.5
403.864	895.7
404.242	927.79
404.62	926.2
404.999	935.02
405.377	933.44
405.755	947.22
406.133	965.75
406.511	991.29
406.889	989.25
407.267	993.55
407.645	1022.25
408.023	1049.82
408.401	1063.6
408.779	1061.12
409.156	1078.74
409.534	1104.05
409.912	1099.53
410.29	1165.07
410.667	1131.17
411.045	1167.55
411.422	1175.69
411.8	1177.95
412.178	1207.78
412.555	1234.44
412.933	1256.14
413.31	1260.21
413.687	1268.57
414.065	1305.18
414.442	1320.32
414.819	1328.91
415.197	1323.48
415.574	1382.46
415.951	1375.23
416.328	1382.69
416.705	1389.02
417.082	1402.58
417.46	1437.38
417.837	1436.7
418.214	1451.84
418.591	1481.67
418.967	1472.18
419.344	1490.48
419.721	1530.26
420.098	1514.89
420.475	1553.98
420.852	1556.7
421.228	1578.39
421.605	1586.98
421.982	1627.88
422.358	1618.39
422.735	1651.61
423.111	1669.91
423.488	1669.46
423.864	1700.65
424.241	1761.66
424.617	1761.44
424.994	1763.92
425.37	1815.9
425.746	1794.88
426.123	1837.59
426.499	1825.62
426.875	1848.21
427.251	1902.22
427.627	1937.03
428.003	1966.4
428.379	1982.67
428.756	2003.01
429.132	2045.5
429.507	2084.37
429.883	2087.76
430.259	2122.78
430.635	2147.64
431.011	2160.52
431.387	2210.24
431.763	2251.37
432.138	2284.59
432.514	2288.88
432.89	2294.98
433.265	2360.74
433.641	2396.45
434.016	2427.63
434.392	2477.8
434.767	2501.08
435.143	2519.38
435.518	2546.05
435.894	2561.64
436.269	2593.73
436.644	2659.49
437.02	2689.32
437.395	2664.92
437.77	2738.59
438.145	2755.99
438.52	2813.61
438.895	2812.71
439.271	2799.6
439.646	2912.82
440.021	2946.26
440.395	2930.45
440.77	2892.25
441.145	2996.88
441.52	3073.27
441.895	3034.17
442.27	3049.31
442.645	3047.73
443.019	3097.22
443.394	3133.6
443.769	3155.3
444.143	3155.3
444.518	3198.46
444.892	3205.01
445.267	3215.64
445.641	3248.63
446.016	3281.85
446.39	3312.81
446.764	3316.2
447.139	3350.55
447.513	3390.09
447.887	3432.58
448.262	3439.81
448.636	3501.28
449.01	3479.58
449.384	3573.82
449.758	3557.55
450.132	3635.74
450.506	3653.36
450.88	3714.15
451.254	3660.82
451.628	3752.12
452.002	3815.17
452.376	3805.9
452.75	3830.31
453.123	3854.04
453.497	3951.44
453.871	3976.97
454.244	4061.49
454.618	4077.31
454.992	4145.78
455.365	4213.8
455.739	4268.49
456.112	4264.65
456.486	4343.29
456.859	4395.04
457.232	4497.64
457.606	4508.71
457.979	4557.07
458.352	4641.14
458.725	4701.47
459.099	4753.67
459.472	4843.62
459.845	4863.05
460.218	4980.56
460.591	4983.05
460.964	5013.33
461.337	5128.13
461.71	5210.39
462.083	5280.21
462.456	5295.81
462.829	5316.82
463.201	5396.82
463.574	5455.35
463.947	5493.77
464.32	5679.53
464.692	5690.15
465.065	5735.57
465.438	5824.83
465.81	5947.09
466.183	5996.58
466.555	6095.11
466.928	6126.75
467.3	6173.98
467.672	6277.02
468.045	6427.75
468.417	6499.39
468.789	6524.02
469.161	6594.98
469.534	6704.36
469.906	6870.91
470.278	6891.47
470.65	6963.56
471.022	7157.68
471.394	7258.69
471.766	7334.17
472.138	7441.51
472.51	7607.38
472.882	7685.12
473.253	7815.06
473.625	7933.7
473.997	8105
474.369	8087.82
474.74	8253.02
475.112	8400.13
475.484	8538.89
475.855	8639.22
476.227	8769.16
476.598	9027.23
476.97	9099.32
477.341	9321.01
477.713	9402.14
478.084	9574.34
478.455	9809.13
478.827	9921.9
479.198	10179.07
479.569	10124.83
479.94	10492.96
480.311	10596.01
480.682	10867.41
481.053	11097.46
481.424	11266.05
481.795	11312.37
482.166	11471.01
482.537	11711.68
482.908	11984.22
483.279	12059.92
483.65	12308.05
484.021	12566.35
484.391	12701.49
484.762	12800.92
485.133	12859.45
485.503	13122.04
485.874	13452.2
486.244	13519.32
486.615	13789.6
486.985	13968.57
487.356	14139.42
487.726	14316.36
488.097	14766.97
488.467	14697.82
488.837	15008.09
489.207	15231.14
489.578	15487.86
489.948	15617.12
490.318	15854.4
490.688	15880.39
491.058	16210.55
491.428	16434.05
491.798	16499.81
492.168	16836.29
492.538	16931.89
492.908	17242.84
493.278	17434.92
493.648	17494.13
494.017	17626.33
494.387	17829.71
494.757	18012.31
495.126	18256.14
495.496	18316.03
495.866	18486.65
496.235	18680.54
496.605	18847.32
496.974	18979.29
497.344	19171.15
497.713	19290.47
498.082	19433.51
498.452	19693.17
498.821	19850.23
499.19	19880.28
499.559	20043.22
499.928	20229.88
500.298	20407.5
500.667	20490.66
501.036	20588.06
501.405	20753.71
501.774	20842.97
502.143	21157.76
502.512	21113.02
502.88	21346.68
503.249	21350.75
503.618	21607.24
503.987	21724.98
504.356	21810.63
504.724	22033.67
505.093	22148.7
505.462	22220.33
505.83	22375.81
506.199	22601.11
506.567	22941.44
506.936	22952.97
507.304	23178.5
507.672	23347.08
508.041	23300.31
508.409	23628.21
508.777	23697.58
509.145	23968.99
509.514	23967.86
509.882	24171.02
510.25	24210.34
510.618	24510.22
510.986	24524.91
511.354	24905.69
511.722	25136.87
512.09	25213.93
512.458	25342.96
512.826	25599.68
513.193	25692.78
513.561	25885.32
513.929	26125.99
514.297	26330.28
514.664	26500.9
515.032	26609.6
515.4	26841.23
515.767	26959.19
516.135	27155.8
516.502	27078.29
516.869	27591.94
517.237	27697.7
517.604	27794.42
517.972	28222.44
518.339	28402.09
518.706	28472.15
519.073	28551.24
519.44	28805.92
519.808	29261.05
520.175	29174.73
520.542	29457.66
520.909	29770.64
521.276	29742.4
521.643	30000.69
522.009	30360.23
522.376	30586.22
522.743	30821.92
523.11	31008.13
523.477	31374.9
523.843	31561.78
524.21	31792.51
524.577	32112.5
524.943	32206.29
525.31	32428.65
525.676	32718.59
526.043	32912.71
526.409	32984.34
526.776	33348.18
527.142	33552.47
527.508	33796.07
527.874	34082.17
528.241	34331.2
528.607	34287.14
528.973	34768.7
529.339	34761.7
529.705	35093.22
530.071	35489.59
530.437	35500.66
530.803	35855.91
531.169	36012.97
531.535	35964.38
531.901	36147.88
532.267	36375.44
532.632	36671.71
532.998	36726.85
533.364	36980.62
533.73	37320.28
534.095	37473.49
534.461	37579.48
534.826	37821.05
535.192	37964.55
535.557	38227.37
535.923	37970.2
536.288	38417.2
536.653	38576.51
537.019	38607.93
537.384	38651.09
537.749	38827.81
538.114	39038.2
538.479	39032.32
538.845	39449.71
539.21	39336.49
539.575	39655.13
539.94	39791.62
540.305	39923.15
540.67	39989.13
541.034	40185.29
541.399	40338.95
541.764	40338.5
542.129	40690.58
542.494	40744.37
542.858	40884.02
543.223	40919.5
543.587	41293.28
543.952	41199.95
544.316	41247.63
544.681	41406.27
545.045	41655.53
545.41	41795.41
545.774	41859.82
546.138	41882.87
546.503	42114.95
546.867	42126.93
547.231	42660.7
547.595	42556.75
547.959	42702.51
548.324	42830.64
548.688	42923.74
549.052	43215.26
549.416	43144.3
549.779	43333.23
550.143	43351.76
550.507	43673.1
550.871	43829.48
551.235	43867.67
551.599	44177.27
551.962	44248.91
552.326	44394.44
552.689	44614.55
553.053	44624.04
553.417	44731.15
553.78	45130.01
554.143	45142.89
554.507	45353.06
554.87	45478.25
555.234	45777.91
555.597	45649.77
555.96	45967.96
556.323	46015.19
556.686	46010.22
557.05	46360.26
557.413	46449.98
557.776	46679.58
558.139	46829.63
558.502	46932.68
558.865	47132.9
559.228	47439.56
559.59	47454.92
559.953	47476.39
560.316	47908.7
560.679	48023.05
561.041	48187.79
561.404	48447.21
561.767	48490.83
562.129	48576.03
562.492	48882.01
562.854	48898.5
563.217	48988.67
563.579	49138.95
563.941	49450.35
564.304	49553.63
564.666	49847.18
565.028	49975.31
565.39	50086.95
565.753	50274.51
566.115	50316.77
566.477	50396.54
566.839	50591.34
567.201	50908.39
567.563	50893.03
567.925	51070.42
568.287	51170.31
568.648	51275.16
569.01	51362.84
569.372	51606.23
569.734	51516.06
570.095	51776.39
570.457	51818.43
570.819	51994.69
571.18	52055.71
571.542	52200.56
571.903	52252.31
572.265	52381.57
572.626	52376.6
572.987	52488.46
573.349	52704.28
573.71	52774.11
574.071	52721.23
574.432	52786.08
574.794	53059.52
575.155	53021.11
575.516	53024.5
575.877	53197.37
576.238	53219.29
576.599	53395.56
576.96	53334.32
577.32	53472.85
577.681	53485.73
578.042	53528.66
578.403	53603.01
578.763	53556.69
579.124	53744.25
579.485	53754.42
579.845	53886.17
580.206	53849.11
580.566	53872.83
580.927	53917.58
581.287	54102.21
581.648	53885.49
582.008	53972.04
582.368	53924.58
582.728	54153.96
583.089	53983.57
583.449	54033.73
583.809	54046.62
584.169	54131.81
584.529	54047.07
584.889	54279.83
585.249	54112.15
585.609	54079.38
585.969	54192.15
586.329	54118.48
586.688	54207.97
587.048	54199.38
587.408	54220.62
587.768	54177.23
588.127	54083.22
588.487	54139.72
588.846	54346.49
589.206	54128.87
589.565	54133.39
589.925	54288.64
590.284	54181.75
590.643	54316.44
591.003	54313.05
591.362	54368.19
591.721	54304.01
592.08	54348.98
592.44	54426.04
592.799	54352.14
593.158	54447.74
593.517	54365.03
593.876	54487.73
594.235	54359.38
594.593	54386.27
594.952	54474.63
595.311	54449.32
595.67	54457.45
596.029	54565.92
596.387	54572.25
596.746	54612.7
597.104	54509.88
597.463	54521.63
597.822	54638.24
598.18	54514.85
598.538	54593.95
598.897	54768.4
599.255	54547.17
599.613	54849.98
599.972	54722.53
600.33	54776.09
600.688	54732.47
601.046	54846.82
601.404	54879.14
601.762	54881.4
602.12	54991
602.478	54997.1
602.836	55003.43
603.194	54895.41
603.552	54859.93
603.91	54850.66
604.268	55008.4
604.625	54889.31
604.983	55072.13
605.341	54967.27
605.698	55113.03
606.056	55210.43
606.413	55162.97
606.771	55263.31
607.128	55249.07
607.485	55262.18
607.843	55138.79
608.2	55367.94
608.557	55409.29
608.914	55360.03
609.272	55445.45
609.629	55553.24
609.986	55581.94
610.343	55531.77
610.7	55656.52
611.057	55608.38
611.414	55572.23
611.771	55592.79
612.127	55772.67
612.484	55726.12
612.841	55779
613.198	55787.13
613.554	55776.74
613.911	55834.14
614.267	55802.05
614.624	55831.65
614.98	55907.13
615.337	56005.66
615.693	55958.66
616.05	55900.58
616.406	56092.44
616.762	55990.75
617.118	55974.47
617.475	56054.47
617.831	56127.92
618.187	56063.29
618.543	56110.06
618.899	56231.64
619.255	56251.08
619.611	56186.67
619.967	56264.64
620.323	56256.05
620.678	56169.95
621.034	56088.6
621.39	56138.76
621.746	56160.01
622.101	56458.76
622.457	56210.4
622.812	56186.9
623.168	56331.53
623.523	56317.74
623.879	56375.37
624.234	56232.77
624.589	56425.31
624.945	56278.2
625.3	56409.49
625.655	56333.34
626.01	56335.59
626.365	56376.05
626.72	56336.95
627.075	56314.8
627.43	56226.22
627.785	56162.27
628.14	56253.11
628.495	56191.64
628.85	56216.28
629.205	56078.88
629.559	56291.53
629.914	56100.35
630.269	56167.01
630.623	56119.1
630.978	56085.21
631.332	56202.72
631.687	56103.96
632.041	56090.63
632.396	56029.84
632.75	55859.9
633.104	56064.19
633.459	55898.09
633.813	55915.04
634.167	55885.66
634.521	55850.41
634.875	55883.4
635.229	55865.1
635.583	55697.87
635.937	55622.85
636.291	55630.08
636.645	55742.16
636.999	55587.14
637.352	55667.36
637.706	55404.09
638.06	55581.94
638.413	55567.25
638.767	55386.02
639.121	55526.35
639.474	55345.79
639.828	55290.88
640.181	55353.47
640.534	55281.84
640.888	55268.5
641.241	55113.03
641.594	55127.27
641.947	55311.22
642.301	55200.26
642.654	55176.53
643.007	55104.44
643.36	55050.66
643.713	55133.37
644.066	55100.6
644.419	54800.04
644.771	54703.32
645.124	54495.19
645.477	54434.4
645.83	54153.51
646.182	54067.18
646.535	53877.58
646.888	54027.18
647.24	53838.26
647.593	54002.1
647.945	53972.27
648.298	53829.9
648.65	53738.6
649.002	53601.88
649.355	53840.52
649.707	53700.18
650.059	53829.22
650.411	54237.8
650.763	54175.65
651.115	54476.43
651.467	54304.46
651.819	54312.6
652.171	54242.09
652.523	54244.35
652.875	54172.49
653.227	54075.99
653.578	54208.19
653.93	54027.63
654.282	54047.07
654.633	53908.09
654.985	54002.55
655.337	53933.85
655.688	54005.26
656.039	54049.55
656.391	53819.28
656.742	53869.22
657.094	53977.24
657.445	54024.47
657.796	53885.26
658.147	53774.98
658.498	53852.27
658.849	53901.99
659.2	53822.21
659.551	53763.69
659.902	53850.69
660.253	53712.61
660.604	53871.7
660.955	53738.15
661.306	53785.38
661.656	53658.15
662.007	53654.31
662.358	53653.86
662.708	53594.42
663.059	53588.1
663.409	53382.23
663.76	53610.02
664.11	53550.58
664.461	53587.42
664.811	53564.37
665.161	53617.7
665.511	53561.43
665.862	53605.27
666.212	53559.4
666.562	53520.08
666.912	53505.84
667.262	53525.95
667.612	53546.52
667.962	53510.81
668.312	53476.24
668.662	53551.71
669.011	53441.89
669.361	53374.32
669.711	53350.81
670.06	53309.91
670.41	53297.26
670.76	53274.88
671.109	53374.09
671.459	53186.3
671.808	53228.11
672.157	53330.7
672.507	53034.21
672.856	53168.22
673.205	53198.05
673.554	53278.95
673.904	53012.52
674.253	53282.12
674.602	53165.73
674.951	52645.07
675.3	52476.26
675.649	53026.53
675.998	52954.67
676.346	52980.65
676.695	53053.42
677.044	52886.65
677.393	52996.02
677.741	52960.09
678.09	52900.66
678.438	52821.34
678.787	52844.84
679.135	52805.74
679.484	52713.09
679.832	52796.93
680.181	52625.41
680.529	52675.58
680.877	52497.96
681.225	52469.03
681.573	52663.38
681.922	52456.15
682.27	52320.79
682.618	52346.32
682.966	52292.54
683.314	52346.32
683.661	52215.25
684.009	52100
684.357	52052.32
684.705	51968.25
685.053	51982.94
685.4	51900.91
685.748	51762.83
686.095	51730.07
686.443	51518.32
686.79	51497.08
687.138	51650.97
687.485	51574.82
687.832	51479.45
688.18	51533.69
688.527	51311.55
688.874	51331.66
689.221	51204.2
689.568	51020.48
689.915	50843.54
690.262	50970.76
690.609	50895.51
690.956	50685.12
691.303	50769.41
691.65	50525.35
691.997	50525.58
692.344	50379.14
692.69	50360.38
693.037	50387.05
693.383	49975.99
693.73	50164.91
694.077	49906.39
694.423	49925.14
694.769	49840.17
695.116	49823.9
695.462	49804.02
695.808	49681.76
696.155	49764.47
696.501	49477.7
696.847	49506.62
697.193	49120.64
697.539	49222.79
697.885	49014.66
698.231	48961.78
698.577	48936.47
698.923	48863.7
699.269	48559.3
699.614	48462.13
699.96	48305.98
700.306	48459.42
700.651	48277.05
700.997	48150.27
701.342	48052.87
701.688	47947.57
702.033	47866.67
702.379	47810.17
702.724	47582.83
703.069	47763.39
703.415	47416.51
703.76	47363.63
704.105	47380.58
704.45	47106.46
704.795	46929.29
705.14	46693.59
705.485	46815.85
705.83	46667.15
706.175	46742.17
706.52	46524.55
706.865	46470.09
707.209	46566.36
707.554	46238.91
707.899	46308.06
708.243	46106.26
708.588	46016.77
708.932	45923.21
709.277	45728.64
709.621	45835.98
709.966	45498.59
710.31	45736.78
710.654	45263.8
710.998	45378.82
711.342	45333.62
711.687	45269.9
712.031	45214.31
712.375	45017.7
712.719	45026.29
713.063	44914.2
713.407	44895.22
713.75	44705.17
714.094	44777.03
714.438	44367.32
714.782	44682.34
715.125	44450.03
715.469	44295.69
715.812	44106.99
716.156	43922.81
716.499	43870.84
716.843	43904.74
717.186	43604.86
717.53	44024.96
717.873	43978.63
718.216	43825.42
718.559	43528.02
718.902	43329.61
719.246	43524.63
719.589	43420.45
719.932	43169.16
720.275	43214.81
720.617	43103.17
720.96	43074.25
721.303	43040.13
721.646	43044.19
721.989	42621.83
722.331	42888.72
722.674	42780.7
723.016	42783.41
723.359	42656.63
723.701	42629.29
724.044	42411.22
724.386	42115.86
724.729	42368.96
725.071	42204.67
725.413	42098.23
725.755	42029.3
726.097	41935.07
726.439	41844.45
726.782	41885.81
727.124	41919.93
727.465	41839.03
727.807	41578.47
728.149	41471.13
728.491	41436.78
728.833	41558.13
729.175	41371.47
729.516	41266.39
729.858	41264.58
730.199	41199.04
730.541	41053.74
730.882	41100.29
731.224	41163.34
731.565	40816
731.906	40986.85
732.248	40890.8
732.589	40784.59
732.93	40554.09
733.271	40561.55
733.612	40883.35
733.953	40711.15
734.294	40430.02
734.635	40365.85
734.976	40484.03
735.317	40206.53
735.658	40079.53
735.999	40311.38
736.339	40093.08
736.68	40183.7
737.021	40006.31
737.361	39890.38
737.702	40013.31
738.042	39820.77
738.383	39693.32
738.723	39926.76
739.063	39710.72
739.404	39722.47
739.744	39593.21
740.084	39367.45
740.424	39441.12
740.764	39308.25
741.104	39524.29
741.444	39221.92
741.784	39015.6
742.124	39035.03
742.464	39073.22
742.804	38916.84
743.143	38872.55
743.483	38894.47
743.823	38760.69
744.162	38680.01
744.502	38665.33
744.841	38610.86
745.181	38741.26
745.52	38334.71
745.86	38463.75
746.199	38257.43
746.538	38215.39
746.877	38345.56
747.216	38275.73
747.556	38037.32
747.895	38031.44
748.234	37977.21
748.573	37899.7
748.911	37858.57
749.25	37799.13
749.589	37641.85
749.928	37626.26
750.267	37596.2
750.605	37563.21
750.944	37389.65
751.283	37311.46
751.621	37352.37
751.96	36984.01
752.298	37020.4
752.636	37238.24
752.975	36849.1
753.313	36723
753.651	36921.42
753.989	36749.44
754.327	36602.78
754.666	36412.95
755.004	36574.08
755.342	36574.98
755.679	36535.44
756.017	36271.49
756.355	36310.36
756.693	36119.86
757.031	36135
757.368	35951.72
757.706	35922.35
758.044	35795.34
758.381	35765.74
758.719	35625.86
759.056	35667.66
759.394	35472.87
759.731	35132.76
760.068	35256.38
760.405	34898.87
760.743	34840.79
761.08	34962.37
761.417	34742.04
761.754	34788.36
762.091	34700.68
762.428	34622.95
762.765	34356.96
763.102	34440.35
763.438	34269.73
763.775	33978.67
764.112	34060.93
764.449	33952.68
764.785	33861.61
765.122	33549.98
765.458	33562.86
765.795	33397.89
766.131	33425.24
766.467	33318.35
766.804	33152.25
767.14	32933.95
767.476	32952.03
767.812	32749.55
768.148	32803.78
768.485	32654.86
768.821	32482.44
769.157	32469.78
769.492	32294.42
769.828	32415.77
770.164	31919.06
770.5	31956.35
770.836	31888.78
771.171	31707.32
771.507	31668.22
771.842	31420.09
772.178	31517.94
772.513	31396.59
772.849	31352.3
773.184	31213.32
773.519	31201.57
773.855	31075.47
774.19	30908.92
774.525	30572.88
774.86	30541.47
775.195	30689.04
775.53	30475.26
775.865	30261.25
776.2	30084.76
776.535	29886.35
776.87	29936.29
777.205	29790.3
777.539	29642.96
777.874	29679.35
778.209	29546.92
778.543	29401.16
778.878	29209.98
779.212	29221.51
779.547	29059.7
779.881	28990.1
780.215	28865.36
780.55	28872.59
780.884	28681.18
781.218	28567.74
781.552	28580.39
781.886	28525.03
782.22	28302.43
782.554	28190.35
782.888	27872.39
783.222	27870.58
783.556	27800.07
783.889	27705.61
784.223	27571.83
784.557	27449.12
784.89	27559.85
785.224	27296.81
785.557	27157.61
785.891	27082.35
786.224	26937.5
786.558	26962.13
786.891	26709.71
787.224	26710.16
787.557	26662.48
787.891	26624.06
788.224	26442.14
788.557	26426.32
788.89	26303.39
789.223	26343.62
789.556	26077.18
789.888	26006.22
790.221	25867.47
790.554	25757.87
790.887	25761.48
791.219	25765.33
791.552	25542.96
791.884	25435.62
792.217	25353.81
792.549	25366.01
792.882	25147.49
793.214	25106.13
793.546	25020.94
793.879	24855.29
794.211	24876.54
794.543	24767.84
794.875	24710.89
795.207	24667.28
795.539	24675.64
795.871	24539.82
796.203	24364.46
796.535	24292.82
796.867	24200.85
797.198	24166.5
797.53	24145.71
797.862	23870.46
798.193	23909.33
798.525	23776.23
798.856	23841.53
799.188	23532.16
799.519	23462.79
799.85	23414.88
800.182	23369.23
800.513	23522.22
800.844	23156.35
801.175	23274.32
801.506	23253.75
801.837	23086.07
802.168	23098.05
802.499	22933.31
802.83	22885.4
803.161	22737.83
803.491	22751.62
803.822	22736.25
804.153	22623.26
804.483	22441.12
804.814	22362.25
805.145	22365.64
805.475	22213.33
805.805	22203.61
806.136	22133.33
806.466	22189.6
806.796	22125.87
807.126	22069.6
807.457	21936.05
807.787	21902.6
808.117	21778.09
808.447	21758.65
808.777	21766.79
809.107	21564.98
809.436	21558.88
809.766	21654.25
810.096	21454.48
810.426	21429.62
810.755	21382.62
811.085	21408.38
811.414	21190.3
811.744	21020.59
812.073	21058.33
812.403	20986.69
812.732	20961.38
813.061	20891.78
813.39	20743.54
813.719	20819.24
814.049	20876.41
814.378	20778.34
814.707	20554.16
815.036	20545.12
815.365	20517.55
815.693	20306.71
816.022	20443.21
816.351	20298.12
816.68	20238.69
817.008	20322.76
817.337	20171.57
817.665	20008.64
817.994	20149.65
818.322	20063.33
818.651	19947.4
818.979	19932.26
819.307	19869.66
819.636	19927.51
819.964	19811.58
820.292	19872.37
820.62	19752.38
820.948	19711.93
821.276	19805.71
821.604	19730.23
821.932	19704.69
822.259	19637.58
822.587	19587.41
822.915	19575.43
823.243	19673.96
823.57	19555.55
823.898	19664.47
824.225	19583.57
824.553	19539.05
824.88	19591.02
825.207	19638.93
825.535	19551.48
825.862	19515.32
826.189	19565.26
826.516	19542.89
826.843	19698.59
827.17	19674.19
827.497	19636.22
827.824	19514.87
828.151	19654.07
828.478	19543.79
828.805	19637.58
829.131	19470.35
829.458	19502.89
829.785	19404.81
830.111	19520.07
830.438	19573.62
830.764	19508.54
831.09	19432.84
831.417	19493.4
831.743	19520.29
832.069	19377.47
832.395	19353.97
832.722	19326.85
833.048	19349.9
833.374	19358.71
833.7	19218.15
834.026	19255.44
834.351	19325.27
834.677	19334.99
835.003	19273.52
835.329	19343.12
835.654	19201.66
835.98	19075.11
836.306	19184.93
836.631	19112.17
836.956	19120.53
837.282	19138.15
837.607	19103.13
837.932	18985.16
838.258	19084.37
838.583	19008.67
838.908	18844.83
839.233	18993.3
839.558	18907.88
839.883	18802.34
840.208	18685.29
840.533	18770.03
840.858	18683.25
841.182	18752.18
841.507	18722.8
841.832	18496.14
842.156	18527.1
842.481	18525.97
842.805	18435.35
843.13	18372.98
843.454	18359.87
843.778	18220.66
844.103	18238.07
844.427	18206.88
844.751	18218.86
845.075	18182.02
845.399	18097.73
845.723	18067.9
846.047	18025.19
846.371	17870.17
846.695	17804.86
847.019	17739.32
847.343	17747.68
847.666	17565.31
847.99	17383.85
848.313	17480.8
848.637	17404.19
848.96	17157.19
849.284	17371.87
849.607	17205.78
849.931	17040.81
850.254	16950.64
850.577	16855.05
850.9	16737.31
851.223	16728.5
851.546	16667.49
851.869	16629.29
852.192	16734.15
852.515	16541.39
852.838	16443.99
853.161	16549.75
853.483	16321.28
853.806	16369.41
854.129	16299.13
854.451	16272.69
854.774	16155.18
855.096	16109.31
855.419	16076.31
855.741	16015.3
856.063	15868.86
856.385	15875.87
856.708	15846.04
857.03	15745.93
857.352	15756.1
857.674	15689.21
857.996	15608.98
858.318	15499.15
858.64	15560.4
858.961	15497.57
859.283	15491.47
859.605	15306.39
859.926	15416.67
860.248	15381.87
860.57	15314.98
860.891	15294.19
861.212	15198.6
861.534	15124.48
861.855	15120.63
862.176	15198.82
862.498	15143.46
862.819	15104.59
863.14	15057.36
863.461	15044.93
863.782	14898.04
864.103	14959.73
864.424	14836.8
864.745	14973.29
865.065	14822.34
865.386	14850.13
865.707	14836.8
866.027	14814.88
866.348	14754.09
866.668	14736.01
866.989	14618.95
867.309	14563.13
867.63	14663.24
867.95	14664.15
868.27	14492.63
868.59	14603.36
868.91	14581.44
869.23	14517.49
869.55	14451.72
869.87	14564.94
870.19	14513.64
870.51	14449.46
870.83	14463.02
871.15	14214.89
871.469	14228.23
871.789	14308.68
872.109	14255.12
872.428	14221.45
872.748	14233.88
873.067	14141
873.386	14104.39
873.706	14125.41
874.025	14126.54
874.344	14061.9
874.663	14106.42
874.982	14097.84
875.301	14077.95
875.62	13906.88
875.939	13985.3
876.258	14015.58
876.577	13910.5
876.896	13865.3
877.214	13819.2
877.533	13885.41
877.852	13797.96
878.17	13832.08
878.489	13790.72
878.807	13721.12
879.125	13673.44
879.444	13752.08
879.762	13657.85
880.08	13735.59
880.398	13586.21
880.716	13636.38
881.034	13600.22
881.352	13672.54
881.67	13565.87
881.988	13558.87
882.306	13529.49
882.624	13448.14
882.941	13309.61
883.259	13240
883.577	13228.25
883.894	13360
884.212	13246.56
884.529	13206.79
884.846	13179.44
885.164	13134.02
885.481	13084.75
885.798	13122.95
886.115	13018.54
886.432	13038.2
886.75	13037.07
887.067	13018.77
887.383	12926.34
887.7	12982.61
888.017	12937.41
888.334	12911.88
888.651	12894.25
888.967	12805.44
889.284	12742.16
889.6	12777.42
889.917	12638.66
890.233	12692
890.55	12585.78
890.866	12545.11
891.182	12541.94
891.498	12470.53
891.815	12397.77
892.131	12367.71
892.447	12368.16
892.763	12346.02
893.079	12299.24
893.395	12255.62
893.71	12235.74
894.026	12200.71
894.342	12113.48
894.657	12087.27
894.973	12085.23
895.289	12027.83
895.604	12002.3
895.92	11887.27
896.235	11832.36
896.55	11879.81
896.865	11845.24
897.181	11806.37
897.496	11835.3
897.811	11798.69
898.126	11698.8
898.441	11723.66
898.756	11638.24
899.071	11576.09
899.386	11531.8
899.7	11510.56
900.015	11465.81
900.33	11318.25
900.644	11428.98
900.959	11359.38
901.273	11267.85
901.588	11236.22
901.902	11229.89
902.216	11206.39
902.531	11192.15
902.845	11094.52
903.159	10995.77
903.473	11021.31
903.787	10913.74
904.101	10917.58
904.415	10801.88
904.729	10767.75
905.042	10725.27
905.356	10734.76
905.67	10686.85
905.984	10712.84
906.297	10604.82
906.611	10650.47
906.924	10528.66
907.237	10565.95
907.551	10472.39
907.864	10389.23
908.177	10490.02
908.491	10387.42
908.804	10238.73
909.117	10287.31
909.43	10225.17
909.743	10186.75
910.056	10107.43
910.368	10070.82
910.681	10035.57
910.994	10040.54
911.307	9988.79
911.619	9866.08
911.932	9942.69
912.244	9853.65
912.557	9813.65
912.869	9765.97
913.181	9681.45
913.494	9679.19
913.806	9708.57
914.118	9590.38
914.43	9594.45
914.742	9578.41
915.054	9547.9
915.366	9459.77
915.678	9438.97
915.99	9418.41
916.302	9301.58
916.613	9261.35
916.925	9251.41
917.236	9183.39
917.548	9110.17
917.859	9171.86
918.171	9073.11
918.482	9103.16
918.794	9032.88
919.105	8956.73
919.416	8896.16
919.727	8912.89
920.038	8858.65
920.349	8866.56
920.66	8752.89
920.971	8810.97
921.282	8711.99
921.593	8620.01
921.903	8643.06
922.214	8501.15
922.525	8594.03
922.835	8490.98
923.146	8493.01
923.456	8461.83
923.767	8456.63
924.077	8415.95
924.387	8263.64
924.697	8286.91
925.008	8270.64
925.318	8254.6
925.628	8166.47
925.938	8221.15
926.248	8074.04
926.558	8071.55
926.867	8030.2
927.177	7968.96
927.487	7953.36
927.796	7935.96
928.106	7928.05
928.416	7867.04
928.725	7801.73
929.034	7816.19
929.344	7752.01
929.653	7791.33
929.962	7647.84
930.271	7705.01
930.581	7615.29
930.89	7569.42
931.199	7575.75
931.508	7523.32
931.817	7488.97
932.125	7471.57
932.434	7396.77
932.743	7375.98
933.051	7333.04
933.36	7294.85
933.669	7318.58
933.977	7258.47
934.286	7265.7
934.594	7184.34
934.902	7150.9
935.21	7075.65
935.519	7094.18
935.827	7088.98
936.135	7020.28
936.443	7017.8
936.751	6933.5
937.059	6963.56
937.367	6909.1
937.674	6892.38
937.982	6926.95
938.29	6854.86
938.597	6835.2
938.905	6772.6
939.213	6765.6
939.52	6660.29
939.827	6742.77
940.135	6654.64
940.442	6625.94
940.749	6611.03
941.056	6599.95
941.363	6490.35
941.67	6536.45
941.977	6515.89
942.284	6430.01
942.591	6492.16
942.898	6424.14
943.205	6361.54
943.511	6360.64
943.818	6290.81
944.125	6212.17
944.431	6232.73
944.738	6183.92
945.044	6205.16
945.35	6232.51
945.657	6079.74
945.963	6108.67
946.269	6085.84
946.575	6115.67
946.881	6048.56
947.187	5971.5
947.493	5957.71
947.799	5933.53
948.105	5941.21
948.41	5884.72
948.716	5886.07
949.022	5844.27
949.327	5844.04
949.633	5762.24
949.938	5812.63
950.244	5745.96
950.549	5708
950.854	5700.99
951.16	5723.82
951.465	5661.67
951.77	5629.13
952.075	5573.09
952.38	5644.95
952.685	5559.08
952.99	5493.99
953.294	5490.38
953.599	5476.14
953.904	5442.7
954.209	5389.14
954.513	5407.67
954.818	5304.85
955.122	5341.68
955.426	5281.8
955.731	5313.66
956.035	5260.1
956.339	5231.18
956.643	5228.01
956.948	5165.64
957.252	5212.65
957.556	5146.21
957.86	5154.34
958.163	5120.22
958.467	5078.86
958.771	5032.99
959.075	5060.79
959.378	4986.66
959.682	5030.96
959.985	5011.97
960.289	4976.49
960.592	4914.57
960.896	4868.7
961.199	4907.79
961.502	4904.4
961.805	4837.06
962.108	4831.86
962.411	4809.72
962.714	4750.51
963.017	4771.98
963.32	4721.13
963.623	4760.68
963.926	4688.37
964.228	4687.46
964.531	4677.07
964.833	4708.93
965.136	4602.49
965.438	4628.93
965.741	4604.98
966.043	4588.93
966.345	4515.94
966.648	4509.84
966.95	4510.97
967.252	4491.08
967.554	4481.37
967.856	4507.13
968.158	4444.53
968.46	4446.56
968.761	4456.06
969.063	4362.27
969.365	4328.83
969.666	4325.21
969.968	4333.12
970.269	4317.08
970.571	4252.22
970.872	4251.09
971.174	4182.16
971.475	4192.33
971.776	4202.5
972.077	4148.94
972.378	4146.01
972.679	4123.86
972.98	4144.65
973.281	4099.68
973.582	4102.39
973.883	4067.82
974.183	4027.59
974.484	4053.13
974.785	4039.34
975.085	4025.78
975.386	4026.69
975.686	3967.48
975.986	3907.14
976.287	3928.39
976.587	3879.57
976.887	3835.96
977.187	3847.48
977.487	3861.95
977.787	3819.01
978.087	3798.22
978.387	3795.51
978.687	3814.94
978.987	3744.89
979.286	3728.84
979.586	3728.16
979.885	3691.56
980.185	3689.3
980.484	3643.42
980.784	3665.34
981.083	3638.9
981.382	3608.62
981.682	3578.79
981.981	3602.07
982.28	3590.09
982.579	3556.42
982.878	3586.7
983.177	3512.13
983.475	3528.4
983.774	3482.07
984.073	3481.62
984.372	3456.53
984.67	3446.36
984.969	3460.83
985.267	3452.69
985.566	3402.52
985.864	3385.12
986.162	3398
986.461	3291.79
986.759	3334.95
987.057	3302.41
987.355	3318.01
987.653	3262.19
987.951	3288.63
988.249	3258.57
988.547	3243.66
988.844	3233.94
989.142	3214.73
989.44	3200.49
989.737	3164.11
990.035	3181.06
990.332	3160.5
990.63	3136.54
990.927	3145.81
991.224	3096.54
991.521	3107.84
991.819	3119.82
992.116	3066.71
992.413	3023.55
992.71	3045.02
993.006	3015.19
993.303	2988.52
993.6	2986.94
993.897	2951.01
994.193	2970.44
994.49	2930.45
994.787	2899.26
995.083	2928.86
995.379	2908.98
995.676	2902.65
995.972	2834.63
996.268	2853.16
996.565	2846.38
996.861	2822.43
997.157	2853.39
997.453	2787.85
997.749	2787.17
998.044	2749.66
998.34	2731.58
998.636	2720.06
998.932	2697.68
999.227	2715.76
999.523	2708.3
999.818	2623.56
1000.114	2671.47
1000.409	2657.68
1000.704	2647.74
1001	2641.87
1001.295	2583.79
1001.59	2571.81
1001.885	2585.6
1002.18	2549.89
1002.475	2567.52
1002.77	2514.64
1003.065	2487.52
1003.359	2493.17
1003.654	2461.31
1003.949	2488.42
1004.243	2450.68
1004.538	2403
1004.832	2456.33
1005.127	2417.01
1005.421	2399.16
1005.715	2383.79
1006.009	2372.95
1006.304	2374.75
1006.598	2344.47
1006.892	2303.34
1007.186	2321.2
1007.48	2325.72
1007.773	2280.52
1008.067	2285.26
1008.361	2256.11
1008.655	2296.11
1008.948	2229
1009.242	2210.24
1009.535	2214.76
1009.829	2218.6
1010.122	2187.64
1010.415	2226.96
1010.708	2172.73
1011.001	2141.54
1011.295	2163.69
1011.588	2131.37
1011.881	2094.31
1012.173	2092.05
1012.466	2064.03
1012.759	2090.92
1013.052	2067.42
1013.344	2071.03
1013.637	2029.68
1013.93	2038.27
1014.222	2049.56
1014.514	2011.15
1014.807	1993.3
1015.099	1994.88
1015.391	1953.3
1015.683	1962.79
1015.976	1977.02
1016.268	1913.3
1016.56	1923.24
1016.851	1892.05
1017.143	1871.04
1017.435	1871.26
1017.727	1865.84
1018.018	1849.8
1018.31	1842.56
1018.602	1856.58
1018.893	1846.41
1019.185	1786.52
1019.476	1777.03
1019.767	1789.68
1020.058	1773.41
1020.35	1785.62
1020.641	1777.93
1020.932	1761.44
1021.223	1722.79
1021.514	1700.87
1021.804	1711.72
1022.095	1702
1022.386	1704.72
1022.677	1691.61
1022.967	1630.14
1023.258	1616.81
1023.548	1629.69
1023.839	1610.93
1024.129	1622.68
1024.419	1597.37
1024.709	1592.63
1025	1575.9
1025.29	1563.7
1025.58	1572.06
1025.87	1585.62
1026.16	1545.17
1026.449	1542.69
1026.739	1491.16
1027.029	1505.62
1027.319	1495
1027.608	1503.36
1027.898	1486.87
1028.187	1448.68
1028.477	1464.5
1028.766	1468.34
1029.055	1430.37
1029.344	1417.94
1029.634	1392.41
1029.923	1389.47
1030.212	1403.25
1030.501	1369.13
1030.79	1360.32
1031.078	1375.68
1031.367	1342.69
1031.656	1367.1
1031.945	1333.65
1032.233	1337.72
1032.522	1318.51
1032.81	1287.32
1033.099	1329.36
1033.387	1282.13
1033.675	1281.22
1033.963	1262.47
1034.251	1250.94
1034.54	1265.4
1034.828	1234.9
1035.116	1221.79
1035.403	1234.22
1035.691	1210.94
1035.979	1233.54
1036.267	1221.56
1036.554	1198.97
1036.842	1172.3
1037.129	1206.65
1037.417	1178.4
1037.704	1146.99
1037.992	1173.43
1038.279	1159.42
1038.566	1121
1038.853	1121
1039.14	1121
