Data from plate_porcelain_FLMS001491_052.txt Node
Date: Tue Feb 07 11:19:32 GMT 2017
User: dcchb
Spectrometer: FLMS00149
Trigger mode: 0
Integration Time (sec): 2.000000E-2
Scans to average: 10
Electric dark correction enabled: true
Nonlinearity correction enabled: false
Boxcar width: 0
XAxis mode: Wavelengths
Number of Pixels in Spectrum: 2048
>>>>>Begin Spectral Data<<<<<
341.393	-3.09
341.776	-3.09
342.16	-3.09
342.543	-41.74
342.927	-58.46
343.31	-62.98
343.693	-71.34
344.077	-69.76
344.46	-67.72
344.843	-32.24
345.226	-33.83
345.61	-27.05
345.993	-30.21
346.376	0.52
346.759	17.02
347.142	26.51
347.525	22.67
347.908	53.85
348.291	84.59
348.674	90.92
349.057	99.05
349.44	148.09
349.823	152.61
350.206	177.92
350.588	238.71
350.971	251.82
351.354	282.32
351.737	282.32
352.119	292.49
352.502	313.51
352.884	320.97
353.267	311.47
353.65	334.98
354.032	346.05
354.414	348.99
354.797	371.36
355.179	344.47
355.562	382.43
355.944	366.39
356.326	375.2
356.709	381.08
357.091	367.29
357.473	398.03
357.855	385.15
358.238	392.38
358.62	383.79
359.002	401.87
359.384	406.39
359.766	407.07
360.148	370.68
360.53	387.63
360.912	426.95
361.294	403.22
361.676	383.56
362.057	391.47
362.439	398.7
362.821	405.71
363.203	383.79
363.584	395.54
363.966	421.98
364.348	383.56
364.729	390.34
365.111	379.95
365.493	386.73
365.874	388.76
366.256	388.53
366.637	392.83
367.019	409.1
367.4	407.97
367.781	406.61
368.163	402.32
368.544	386.73
368.925	407.74
369.306	410.68
369.688	430.57
370.069	417.46
370.45	394.18
370.831	419.72
371.212	424.24
371.593	399.38
371.974	412.49
372.355	417.46
372.736	406.39
373.117	433.96
373.498	428.76
373.879	444.58
374.26	439.83
374.641	423.34
375.021	429.89
375.402	453.17
375.783	446.84
376.163	464.24
376.544	462.21
376.925	467.18
377.305	461.53
377.686	464.24
378.066	461.3
378.447	484.13
378.827	489.1
379.208	482.54
379.588	477.57
379.968	504.01
380.349	492.04
380.729	497.01
381.109	480.51
381.489	501.75
381.87	488.42
382.25	494.97
382.63	518.7
383.01	551.24
383.39	514.41
383.77	531.13
384.15	523.22
384.53	542.2
384.91	542.66
385.29	551.24
385.67	581.07
386.049	577.23
386.429	583.78
386.809	595.08
387.189	580.62
387.568	564.8
387.948	591.24
388.328	590.11
388.707	605.93
389.087	596.89
389.466	634.86
389.846	626.49
390.225	633.05
390.605	646.61
390.984	645.93
391.363	673.27
391.743	659.71
392.122	656.78
392.501	690.45
392.881	688.41
393.26	695.65
393.639	704.01
394.018	696.78
394.397	716.44
394.776	713.5
395.155	734.74
395.534	727.28
395.913	769.54
396.292	741.75
396.671	751.92
397.05	755.08
397.429	793.72
397.808	788.07
398.186	777.45
398.565	807.06
398.944	793.95
399.323	800.28
399.701	812.48
400.08	819.26
400.458	842.31
400.837	861.74
401.215	871.91
401.594	868.07
401.972	854.51
402.351	883.21
402.729	892.48
403.107	915.98
403.486	903.32
403.864	913.72
404.242	925.92
404.62	932.48
404.999	949.2
405.377	955.75
405.755	970.67
406.133	1009.99
406.511	991.23
406.889	1037.78
407.267	1021.29
407.645	1053.6
408.023	1069.2
408.401	1057.9
408.779	1083.66
409.156	1127.05
409.534	1088.4
409.912	1132.47
410.29	1154.16
410.667	1159.59
411.045	1189.87
411.422	1193.94
411.8	1220.38
412.178	1215.63
412.555	1233.71
412.933	1262.41
413.31	1295.86
413.687	1298.34
414.065	1305.8
414.442	1291.34
414.819	1331.11
415.197	1383.09
415.574	1398.23
415.951	1383.31
416.328	1396.64
416.705	1444.78
417.082	1451.33
417.46	1459.69
417.837	1483.87
418.214	1475.06
418.591	1490.88
418.967	1525.45
419.344	1531.1
419.721	1536.53
420.098	1536.75
420.475	1560.03
420.852	1591.22
421.228	1612.01
421.605	1614.94
421.982	1623.3
422.358	1680.25
422.735	1689.74
423.111	1679.57
423.488	1715.96
423.864	1737.88
424.241	1762.28
424.617	1781.94
424.994	1797.76
425.37	1826.01
425.746	1834.6
426.123	1854.03
426.499	1868.95
426.875	1908.95
427.251	1923.86
427.627	1988.04
428.003	1993.01
428.379	2019.23
428.756	2021.03
429.132	2059.45
429.507	2076.85
429.883	2125.21
430.259	2158.43
430.635	2200.46
431.011	2193.01
431.387	2238.66
431.763	2299.9
432.138	2281.59
432.514	2332.89
432.89	2341.48
433.265	2420.35
433.641	2447.69
434.016	2456.05
434.392	2507.12
434.767	2576.95
435.143	2559.1
435.518	2582.6
435.894	2621.47
436.269	2646.55
436.644	2692.2
437.02	2701.24
437.395	2731.52
437.77	2786.89
438.145	2813.1
438.52	2886.55
438.895	2881.8
439.271	2887.45
439.646	2963.16
440.021	2979.2
440.395	3004.96
440.77	3001.12
441.145	3025.3
441.52	3110.72
441.895	3071.85
442.27	3093.77
442.645	3139.2
443.019	3195.69
443.394	3160.89
443.769	3206.09
444.143	3201.34
444.518	3296.26
444.892	3267.33
445.267	3283.6
445.641	3343.49
446.016	3350.94
446.39	3403.82
446.764	3410.83
447.139	3382.35
447.513	3506.42
447.887	3497.38
448.262	3457.15
448.636	3551.39
449.01	3559.53
449.384	3609.69
449.758	3623.7
450.132	3638.39
450.506	3722.46
450.88	3756.58
451.254	3763.81
451.628	3790.25
452.002	3844.26
452.376	3873.42
452.75	3908.22
453.123	3988.67
453.497	3995.22
453.871	4045.61
454.244	4131.26
454.618	4137.14
454.992	4210.36
455.365	4234.08
455.739	4380.75
456.112	4367.41
456.486	4408.09
456.859	4486.73
457.232	4569.44
457.606	4548.65
457.979	4615.77
458.352	4730.79
458.725	4777.8
459.099	4838.59
459.472	4927.85
459.845	4990.45
460.218	5018.02
460.591	4995.19
460.964	5079.94
461.337	5275.86
461.71	5261.85
462.083	5327.61
462.456	5370.78
462.829	5434.73
463.201	5509.98
463.574	5598.12
463.947	5625.01
464.32	5737.77
464.692	5763.31
465.065	5862.97
465.438	5898.9
465.81	6007.37
466.183	6111.1
466.555	6224.31
466.928	6240.13
467.3	6280.36
467.672	6411.43
468.045	6489.84
468.417	6581.37
468.789	6678.99
469.161	6708.82
469.534	6751.53
469.906	6926.22
470.278	7012.54
470.65	7132.31
471.022	7284.4
471.394	7409.59
471.766	7482.13
472.138	7545.86
472.51	7693.65
472.882	7871.5
473.253	7919.86
473.625	8042.8
473.997	8232.4
474.369	8266.75
474.74	8409.57
475.112	8534.31
475.484	8790.35
475.855	8826.28
476.227	8993.73
476.598	9097.46
476.97	9241.64
477.341	9444.34
477.713	9633.72
478.084	9661.96
478.455	10014.5
478.827	10023.76
479.198	10324.77
479.569	10401.61
479.94	10762.95
480.311	10798.88
480.682	11000.91
481.053	11304.18
481.424	11460.56
481.795	11487.68
482.166	11661.68
482.537	11808.57
482.908	12128.11
483.279	12246.3
483.65	12500.53
484.021	12781.88
484.391	13000.41
484.762	13000.86
485.133	13178.71
485.503	13368.08
485.874	13719.94
486.244	13825.47
486.615	14059.36
486.985	14309.07
487.356	14493.7
487.726	14653.7
488.097	14973.24
488.467	14994.25
488.837	15367.58
489.207	15435.14
489.578	15733.67
489.948	15890.5
490.318	16128.69
490.688	16168.91
491.058	16491.16
491.428	16711.95
491.798	16818.84
492.168	17271.93
492.538	17257.47
492.908	17495.43
493.278	17766.16
493.648	17773.61
494.017	18050.9
494.387	18209.54
494.757	18385.12
495.126	18503.54
495.496	18632.35
495.866	18788.05
496.235	19076.63
496.605	19221.71
496.974	19292.67
497.344	19448.37
497.713	19620.12
498.082	19802.26
498.452	19978.3
498.821	20056.72
499.19	20219.43
499.559	20375.13
499.928	20493.32
500.298	20723.14
500.667	20875.68
501.036	20954.77
501.405	21101.44
501.774	21195.22
502.143	21445.16
502.512	21487.64
502.88	21764.7
503.249	21765.83
503.618	21938.02
503.987	22178.02
504.356	22275.87
504.724	22363.1
505.093	22469.08
505.462	22653.49
505.83	22792.69
506.199	22940.03
506.567	23266.35
506.936	23215.51
507.304	23604.2
507.672	23765.1
508.041	23825.66
508.409	24033.34
508.777	24282.37
509.145	24432.65
509.514	24467
509.882	24732.75
510.25	24784.73
510.618	24937.72
510.986	25055.46
511.354	25241.89
511.722	25539.74
512.09	25803.69
512.458	25744.48
512.826	25946.51
513.193	26228.31
513.561	26252.94
513.929	26597.34
514.297	26861.96
514.664	26969.53
515.032	27163.65
515.4	27352.57
515.767	27449.74
516.135	27640.25
516.502	27554.15
516.869	28030.97
517.237	28267.58
517.604	28162.04
517.972	28597.28
518.339	28809.93
518.706	28833.66
519.073	29121.34
519.44	29328.56
519.808	29637.48
520.175	29738.5
520.542	30033.41
520.909	30189.33
521.276	30329.67
521.643	30627.74
522.009	30790.45
522.376	31048.52
522.743	31286.93
523.11	31522.18
523.477	31883.07
523.843	32079.68
524.21	32325.55
524.577	32612.32
524.943	32831.98
525.31	33058.86
525.676	33260.44
526.043	33581.33
526.409	33692.52
526.776	34151.72
527.142	34154.2
527.508	34424.48
527.874	34711.93
528.241	34866.05
528.607	35027.4
528.973	35295.19
529.339	35300.16
529.705	35792.35
530.071	35999.35
530.437	36198.89
530.803	36391.43
531.169	36685.43
531.535	36608.37
531.901	36714.81
532.267	36991.64
532.632	37205.42
532.998	37471.18
533.364	37612.19
533.73	37751.17
534.095	38185.96
534.461	38130.82
534.826	38527.65
535.192	38495.78
535.557	38885.83
535.923	38823
536.288	38964.24
536.653	39163.56
537.019	39199.49
537.384	39386.15
537.749	39547.05
538.114	39670.21
538.479	39785.69
538.845	40168.05
539.21	39974.39
539.575	40226.58
539.94	40349.29
540.305	40621.83
540.67	40557.87
541.034	40758.32
541.399	40906.34
541.764	41022.27
542.129	41299.78
542.494	41277.63
542.858	41619.54
543.223	41491.41
543.587	41972.75
543.952	41875.13
544.316	41964.62
544.681	42143.6
545.045	42390.59
545.41	42469.91
545.774	42558.95
546.138	42539.52
546.503	42780.64
546.867	42678.95
547.231	43235.77
547.595	43264.02
547.959	43322.55
548.324	43343.11
548.688	43529.1
549.052	43648.87
549.416	43781.07
549.779	44010.66
550.143	43942.64
550.507	44224.44
550.871	44555.28
551.235	44498.56
551.599	44957.76
551.962	44854.94
552.326	44994.37
552.689	45218.54
553.053	45277.52
553.417	45445.43
553.78	45838.64
554.143	45708.25
554.507	45933.78
554.87	46088.35
555.234	46416.03
555.597	46404.27
555.96	46545.51
556.323	46702.12
556.686	46678.17
557.05	47083.35
557.413	47124.48
557.776	47210.13
558.139	47525.37
558.502	47519.05
558.865	47630.23
559.228	48038.36
559.59	48119.03
559.953	48221.85
560.316	48556.31
560.679	48597.44
561.041	48872.68
561.404	48961.72
561.767	49204.43
562.129	49048.5
562.492	49600.57
562.854	49629.5
563.217	49665.43
563.579	49805.09
563.941	50063.39
564.304	50274.23
564.666	50452.3
565.028	50447.78
565.39	50695.23
565.753	50789.02
566.115	50884.38
566.477	51082.34
566.839	51152.62
567.201	51290.25
567.563	51384.03
567.925	51568.21
568.287	51591.71
568.648	51656.57
569.01	51918.48
569.372	52090.68
569.734	52057.68
570.095	52243.44
570.457	52413.16
570.819	52382.87
571.18	52507.84
571.542	52659.02
571.903	52751
572.265	52871.67
572.626	52894.73
572.987	53031.9
573.349	53118.22
573.71	53234.15
574.071	53333.58
574.432	53315.73
574.794	53521.83
575.155	53634.59
575.516	53444.54
575.877	53664.65
576.238	53720.92
576.599	53866
576.96	53806.79
577.32	53811.31
577.681	53934.47
578.042	54046.79
578.403	54107.57
578.763	54153.22
579.124	54213.11
579.485	54279.1
579.845	54321.35
580.206	54296.72
580.566	54373.78
580.927	54476.38
581.287	54475.02
581.648	54372.2
582.008	54479.99
582.368	54589.6
582.728	54452.42
583.089	54502.37
583.449	54497.39
583.809	54574.68
584.169	54593.66
584.529	54515.7
584.889	54762.02
585.249	54556.6
585.609	54487.23
585.969	54647
586.329	54674.34
586.688	54590.5
587.048	54643.38
587.408	54656.26
587.768	54593.66
588.127	54571.07
588.487	54622.36
588.846	54795.69
589.206	54584.4
589.565	54558.18
589.925	54798.86
590.284	54660.33
590.643	54773.77
591.003	54747.56
591.362	54884.28
591.721	54755.69
592.08	54722.47
592.44	54882.24
592.799	54893.09
593.158	54744.17
593.517	54811.96
593.876	54844.28
594.235	54773.32
594.593	54799.99
594.952	54915.01
595.311	54860.78
595.67	54916.37
596.029	55044.72
596.387	54996.82
596.746	54999.53
597.104	54938.29
597.463	55017.61
597.822	55087.21
598.18	55028.91
598.538	55049.7
598.897	55214.44
599.255	54944.16
599.613	55322.68
599.972	55167.89
600.33	55171.95
600.688	55173.99
601.046	55297.83
601.404	55370.82
601.762	55344.83
602.12	55378.95
602.478	55414.66
602.836	55460.31
603.194	55248.34
603.552	55346.41
603.91	55229.58
604.268	55419.86
604.625	55405.85
604.983	55587.31
605.341	55355.23
605.698	55570.81
606.056	55523.58
606.413	55609.68
606.771	55693.07
607.128	55686.29
607.485	55527.42
607.843	55585.73
608.2	55730.81
608.557	55826.17
608.914	55709.79
609.272	55839.28
609.629	55899.39
609.986	56010.8
610.343	55879.51
610.7	56098.48
611.057	56027.75
611.414	55970.8
611.771	56017.58
612.127	56127.41
612.484	56110.23
612.841	56249.89
613.198	56048.09
613.554	56181.42
613.911	56287.63
614.267	56313.39
614.624	56220.51
614.98	56340.06
615.337	56455.76
615.693	56392.26
616.05	56333.05
616.406	56523.1
616.762	56425.71
617.118	56436.78
617.475	56445.37
617.831	56572.37
618.187	56486.95
618.543	56530.11
618.899	56620.95
619.255	56569.66
619.611	56592.25
619.967	56672.03
620.323	56689.2
620.678	56727.39
621.034	56554.52
621.39	56695.98
621.746	56642.65
622.101	56860.27
622.457	56626.38
622.812	56638.81
623.168	56761.74
623.523	56774.85
623.879	56827.95
624.234	56624.34
624.589	56703.89
624.945	56757
625.3	56694.4
625.655	56738.01
626.01	56698.92
626.365	56735.3
626.72	56762.87
627.075	56725.58
627.43	56676.09
627.785	56642.42
628.14	56681.52
628.495	56724.68
628.85	56653.27
629.205	56526.27
629.559	56618.24
629.914	56498.02
630.269	56534.86
630.623	56482.65
630.978	56439.04
631.332	56500.28
631.687	56579.37
632.041	56495.08
632.396	56504.57
632.75	56434.07
633.104	56456.21
633.459	56359.72
633.813	56308.65
634.167	56305.48
634.521	56281.3
634.875	56335.54
635.229	56195.43
635.583	56115.66
635.937	56159.5
636.291	56116.56
636.645	56025.49
636.999	55983.23
637.352	56162.66
637.706	55920.41
638.06	56011.03
638.413	55994.76
638.767	55857.58
639.121	55908.66
639.474	55743.46
639.828	55789.11
640.181	55715.67
640.534	55772.16
640.888	55679.28
641.241	55636.12
641.594	55585.5
641.947	55650.13
642.301	55617.14
642.654	55565.62
643.007	55607.2
643.36	55482
643.713	55507.31
644.066	55561.55
644.419	55355
644.771	55245.4
645.124	54888.34
645.477	54830.27
645.83	54666.66
646.182	54536.94
646.535	54389.83
646.888	54481.8
647.24	54339.21
647.593	54559.99
647.945	54369.49
648.298	54222.37
648.65	54151.19
649.002	54089.27
649.355	54233.9
649.707	54177.18
650.059	54347.79
650.411	54675.47
650.763	54677.73
651.115	54909.59
651.467	54681.34
651.819	54752.76
652.171	54674.57
652.523	54633.21
652.875	54728.12
653.227	54487.45
653.578	54651.29
653.93	54662.14
654.282	54421.24
654.633	54352.31
654.985	54448.36
655.337	54400.9
655.688	54398.64
656.039	54470.5
656.391	54272.09
656.742	54379.88
657.094	54404.06
657.445	54455.59
657.796	54432.76
658.147	54282.26
658.498	54235.03
658.849	54317.06
659.2	54213.11
659.551	54109.16
659.902	54276.38
660.253	54254.92
660.604	54178.99
660.955	54128.14
661.306	54196.39
661.656	54086.11
662.007	54104.41
662.358	54065.54
662.708	54064.86
663.059	53909.84
663.409	53792.55
663.76	54007.01
664.11	53955.04
664.461	53973.79
664.811	54049.5
665.161	53969.95
665.511	53931.99
665.862	53920.46
666.212	54016.96
666.562	53953.23
666.912	53990.29
667.262	53977.41
667.612	53963.17
667.962	53951.19
668.312	53919.56
668.662	54093.34
669.011	53892.44
669.361	53782.61
669.711	53842.27
670.06	53764.53
670.41	53615.16
670.76	53652.9
671.109	53688.83
671.459	53686.57
671.808	53698.77
672.157	53778.77
672.507	53481.83
672.856	53549.62
673.205	53592.33
673.554	53647.93
673.904	53497.2
674.253	53663.97
674.602	53563.86
674.951	53130.88
675.3	53104.89
675.649	53502.39
675.998	53385.11
676.346	53518.44
676.695	53578.55
677.044	53268.5
677.393	53407.48
677.741	53387.37
678.09	53445.44
678.438	53241.38
678.787	53275.96
679.135	53356.63
679.484	53200.03
679.832	53268.05
680.181	53156.87
680.529	53156.41
680.877	52974.5
681.225	52984.44
681.573	53221.95
681.922	52903.99
682.27	52816.53
682.618	52886.36
682.966	52712.13
683.314	52811.11
683.661	52640.95
684.009	52567.95
684.357	52532.02
684.705	52502.42
685.053	52504.45
685.4	52455.87
685.748	52219.71
686.095	52182.65
686.443	52080.96
686.79	52000.96
687.138	52092.26
687.485	51960.29
687.832	52043.22
688.18	52057.01
688.527	51863.11
688.874	51782.66
689.221	51750.8
689.568	51607.98
689.915	51498.83
690.262	51614.53
690.609	51356.91
690.956	51339.06
691.303	51193.07
691.65	51035.79
691.997	50961.89
692.344	50837.6
692.69	50897.72
693.037	51024.72
693.383	50652.75
693.73	50773.2
694.077	50514.45
694.423	50554.9
694.769	50375.92
695.116	50336.6
695.462	50175.02
695.808	50161.24
696.155	50197.39
696.501	49869.49
696.847	49933.22
697.193	49664.75
697.539	49833.11
697.885	49626.34
698.231	49526.9
698.577	49500.24
698.923	49381.82
699.269	49091.21
699.614	48887.37
699.96	48966.92
700.306	48853.48
700.651	48926.47
700.997	48646.25
701.342	48690.77
701.688	48375.52
702.033	48409.65
702.379	48343.88
702.724	48280.84
703.069	48328.74
703.415	47842.2
703.76	47889.21
704.105	47841.75
704.45	47719.95
704.795	47433.85
705.14	47331.26
705.485	47412.38
705.83	47246.51
706.175	47433.85
706.52	47326.96
706.865	47009.23
707.209	46909.8
707.554	46859.18
707.899	46845.62
708.243	46682.23
708.588	46628
708.932	46354.78
709.277	46358.85
709.621	46302.13
709.966	46213.09
710.31	46151.63
710.654	45780.79
710.998	45973.33
711.342	45903.04
711.687	45793.22
712.031	45696.5
712.375	45404.98
712.719	45561.81
713.063	45439.78
713.407	45574.92
713.75	45312.55
714.094	45242.95
714.438	45171.99
714.782	45088.15
715.125	44970.87
715.469	45073.91
715.812	44675.51
716.156	44582.4
716.499	44623.76
716.843	44499.24
717.186	44323.2
717.53	44515.51
717.873	44400.71
718.216	44388.51
718.559	44227.61
718.902	43976.99
719.246	44227.16
719.589	44025.58
719.932	43858.58
720.275	43823.78
720.617	43715.76
720.96	43573.39
721.303	43645.48
721.646	43664.01
721.989	43452.94
722.331	43518.02
722.674	43300.85
723.016	43448.19
723.359	43264.7
723.701	43232.38
724.044	42949.22
724.386	42860.64
724.729	43044.81
725.071	42783.58
725.413	42680.3
725.755	42706.74
726.097	42505.39
726.439	42336.13
726.782	42437.15
727.124	42437.6
727.465	42259.98
727.807	42109.7
728.149	42223.14
728.491	42027.67
728.833	42210.49
729.175	42059.53
729.516	41843.49
729.858	41723.95
730.199	41680.78
730.541	41746.32
730.882	41616.6
731.224	41702.93
731.565	41344.29
731.906	41437.85
732.248	41546.77
732.589	41227.46
732.93	41086.22
733.271	41200.12
733.612	41390.17
733.953	41062.95
734.294	41000.57
734.635	40962.84
734.976	40945.89
735.317	40727.59
735.658	40822.05
735.999	40775.72
736.339	40755.38
736.68	40649.17
737.021	40586.12
737.361	40279.24
737.702	40476.97
738.042	40466.13
738.383	40357.43
738.723	40294.83
739.063	40225.45
739.404	40205.57
739.744	40146.81
740.084	40046.48
740.424	39941.85
740.764	39919.25
741.104	40089.19
741.444	39790.66
741.784	39586.37
742.124	39718.8
742.464	39483.1
742.804	39569.88
743.143	39354.97
743.483	39398.36
743.823	39288.08
744.162	39204.01
744.502	39352.26
744.841	39038.14
745.181	39234.97
745.52	39061.19
745.86	39093.96
746.199	38957.46
746.538	39031.81
746.877	38801.08
747.216	38738.04
747.556	38631.15
747.895	38630.92
748.234	38382.34
748.573	38345.28
748.911	38431.15
749.25	38364.26
749.589	38259.4
749.928	38107.54
750.267	38140.99
750.605	38142.12
750.944	37946.64
751.283	37752.75
751.621	37861.9
751.96	37618.29
752.298	37793.2
752.636	37575.58
752.975	37478.63
753.313	37338.75
753.651	37377.39
753.989	37208.36
754.327	37200.67
754.666	37141.69
755.004	37099.21
755.342	37180.56
755.679	37035.26
756.017	36756.62
756.355	36933.56
756.693	36604.98
757.031	36674.59
757.368	36444.54
757.706	36344.65
758.044	36320.02
758.381	36282.28
758.719	36110.53
759.056	36205.9
759.394	36062.85
759.731	35781.73
760.068	35806.13
760.405	35532.47
760.743	35515.97
761.08	35636.2
761.417	35344.9
761.754	35229.88
762.091	35142.65
762.428	35048.19
762.765	34947.85
763.102	34946.5
763.438	34693.62
763.775	34679.38
764.112	34595.55
764.449	34427.64
764.785	34318.04
765.122	34026.07
765.458	34105.84
765.795	34033.3
766.131	33945.17
766.467	33762.8
766.804	33516.03
767.14	33520.09
767.476	33517.38
767.812	33257.05
768.148	33321
768.485	33039.43
768.821	32899.32
769.157	32794.01
769.492	32833.78
769.828	32800.56
770.164	32467.24
770.5	32464.53
770.836	32365.32
771.171	32121.49
771.507	32113.58
771.842	31952.22
772.178	31824.77
772.513	31936.18
772.849	31755.39
773.184	31695.73
773.519	31638.79
773.855	31401.05
774.19	31198.35
774.525	31177.56
774.86	31126.71
775.195	30978.47
775.53	30911.35
775.865	30784.8
776.2	30466.61
776.535	30324.47
776.87	30332.15
777.205	30285.38
777.539	30150.01
777.874	30167.64
778.209	29928.1
778.543	29853.97
778.878	29620.08
779.212	29520.88
779.547	29473.65
779.881	29483.14
780.215	29257.61
780.55	29319.98
780.884	29206.31
781.218	29066.2
781.552	29039.31
781.886	28893.32
782.22	28737.62
782.554	28608.58
782.888	28366.56
783.222	28301.25
783.556	28067.58
783.889	28126.34
784.223	27905.78
784.557	27800.24
784.89	27909.17
785.224	27696.74
785.557	27670.76
785.891	27560.25
786.224	27454.26
786.558	27350.99
786.891	27151
787.224	27045.01
787.557	27032.58
787.891	26956.42
788.224	26949.42
788.557	26920.04
788.89	26732.25
789.223	26588.75
789.556	26483.67
789.888	26408.19
790.221	26374.97
790.554	26224.01
790.887	26205.26
791.219	25996.68
791.552	25930.01
791.884	25811.82
792.217	25762.11
792.549	25626.06
792.882	25534.77
793.214	25447.76
793.546	25481.89
793.879	25269.01
794.211	25093.2
794.543	25188.56
794.875	25080.54
795.207	25043.93
795.539	24906.99
795.871	24893.65
796.203	24734.11
796.535	24557.39
796.867	24584.73
797.198	24374.8
797.53	24338.19
797.862	24227.68
798.193	24270.39
798.525	24122.6
798.856	24143.62
799.188	23776.62
799.519	23812.1
799.85	23706.11
800.182	23653.01
800.513	23699.33
800.844	23685.1
801.175	23585.21
801.506	23670.41
801.837	23406.23
802.168	23404.88
802.499	23253.92
802.83	23160.82
803.161	23100.48
803.491	23091.89
803.822	23001.95
804.153	22957.21
804.483	22797.44
804.814	22674.95
805.145	22731
805.475	22650.55
805.805	22533.49
806.136	22505.02
806.466	22498.46
806.796	22463.89
807.126	22293.04
807.457	22282.42
807.787	22215.98
808.117	22141.41
808.447	22060.73
808.777	22030
809.107	21918.82
809.436	21968.08
809.766	21807.41
810.096	21825.26
810.426	21649.22
810.755	21636.56
811.085	21598.6
811.414	21569.9
811.744	21393.41
812.073	21362.67
812.403	21464.82
812.732	21210.13
813.061	21152.28
813.39	21139.18
813.719	21120.42
814.049	21126.52
814.378	21032.51
814.707	20919.52
815.036	20894.89
815.365	20804.95
815.693	20644.95
816.022	20743.48
816.351	20620.09
816.68	20571.96
817.008	20549.59
817.337	20298.52
817.665	20274.34
817.994	20373.55
818.322	20326.77
818.651	20293.32
818.979	20150.73
819.307	20181.01
819.636	20032.99
819.964	20073.67
820.292	20075.47
820.62	19909.6
820.948	19937.63
821.276	20040.9
821.604	19955.93
821.932	19965.65
822.259	20061.46
822.587	20030.28
822.915	19946.21
823.243	19930.62
823.57	19883.62
823.898	19934.46
824.225	19831.19
824.553	19793.45
824.88	19841.36
825.207	19861.7
825.535	19801.13
825.862	19883.62
826.189	19809.04
826.516	19935.82
826.843	19953.67
827.17	19903.28
827.497	19940.34
827.824	19953.22
828.151	19982.14
828.478	19794.8
828.805	19881.13
829.131	19733.56
829.458	19819.66
829.785	19649.72
830.111	19875.48
830.438	19905.99
830.764	19792.54
831.09	19902.6
831.417	19691.53
831.743	19789.38
832.069	19715.03
832.395	19644.3
832.722	19715.48
833.048	19705.32
833.374	19740.57
833.7	19631.42
834.026	19658.54
834.351	19630.29
834.677	19613.34
835.003	19575.38
835.329	19580.57
835.654	19456.51
835.98	19401.59
836.306	19527.92
836.631	19302.84
836.956	19470.97
837.282	19465.1
837.607	19296.96
837.932	19322.73
838.258	19326.79
838.583	19308.04
838.908	19135.61
839.233	19148.27
839.558	19145.33
839.883	18905.79
840.208	18959.57
840.533	18976.52
840.858	19014.49
841.182	18965.45
841.507	18945.34
841.832	18916.41
842.156	18894.72
842.481	18832.34
842.805	18764.1
843.13	18741.27
843.454	18600.71
843.778	18557.1
844.103	18427.61
844.427	18586.02
844.751	18492.01
845.075	18490.21
845.399	18352.36
845.723	18381.51
846.047	18345.12
846.371	18144.9
846.695	18115.53
847.019	17917.34
847.343	17964.8
847.666	17765.48
847.99	17691.81
848.313	17680.74
848.637	17617.91
848.96	17707.4
849.284	17573.85
849.607	17357.13
849.931	17296.56
850.254	17205.04
850.577	17154.42
850.9	17159.17
851.223	17043.01
851.546	16984.03
851.869	16822.45
852.192	16880.98
852.515	16787.2
852.838	16742.68
853.161	16727.99
853.483	16634.44
853.806	16560.09
854.129	16451.16
854.451	16481.9
854.774	16372.52
855.096	16266.99
855.419	16314.67
855.741	16222.02
856.063	16158.74
856.385	16129.82
856.708	16059.99
857.03	15961.46
857.352	15967.33
857.674	15936.37
857.996	15836.26
858.318	15674.23
858.64	15708.36
858.961	15749.04
859.283	15673.33
859.605	15580.23
859.926	15683.73
860.248	15540
860.57	15454.35
860.891	15540.23
861.212	15384.07
861.534	15361.02
861.855	15355.83
862.176	15389.5
862.498	15340.01
862.819	15355.83
863.14	15186.56
863.461	15223.4
863.782	15128.26
864.103	15151.31
864.424	15065.89
864.745	15206.45
865.065	15041.26
865.386	15046.45
865.707	15008.04
866.027	15036.29
866.348	14991.09
866.668	14928.04
866.989	14907.7
867.309	14805.33
867.63	14814.14
867.95	14820.92
868.27	14702.28
868.59	14740.93
868.91	14740.25
869.23	14717.65
869.55	14748.61
869.87	14721.27
870.19	14695.5
870.51	14695.96
870.83	14649.18
871.15	14377.77
871.469	14469.29
871.789	14587.03
872.109	14417.32
872.428	14352.01
872.748	14489.41
873.067	14351.56
873.386	14422.29
873.706	14352.46
874.025	14255.06
874.344	14293.25
874.663	14361.05
874.982	14285.12
875.301	14253.48
875.62	14143.65
875.939	14047.16
876.258	14159.02
876.577	14112.47
876.896	14030.66
877.214	13992.7
877.533	14124.44
877.852	14014.17
878.17	14076.31
878.489	14100.94
878.807	14008.29
879.125	13972.13
879.444	13865.47
879.762	13839.03
880.08	13990.66
880.398	13818.01
880.716	13819.59
881.034	13733.04
881.352	13894.39
881.67	13731.01
881.988	13836.09
882.306	13737.34
882.624	13652.37
882.941	13613.27
883.259	13554.29
883.577	13525.36
883.894	13508.42
884.212	13479.72
884.529	13456.89
884.846	13390.9
885.164	13390.23
885.481	13334.18
885.798	13332.83
886.115	13273.39
886.432	13188.65
886.75	13155.43
887.067	13182.77
887.383	13143.45
887.7	13217.58
888.017	13002.89
888.334	13106.39
888.651	13060.74
888.967	13009.67
889.284	12994.53
889.6	12952.27
889.917	12797.7
890.233	12893.97
890.55	12766.97
890.866	12816.23
891.182	12711.37
891.498	12664.14
891.815	12571.72
892.131	12569.46
892.447	12537.59
892.763	12486.52
893.079	12582.79
893.395	12326.75
893.71	12360.88
894.026	12421.89
894.342	12354.32
894.657	12188.22
894.973	12206.98
895.289	12186.64
895.604	12108
895.92	12067.32
896.235	11956.37
896.55	12003.14
896.865	12050.15
897.181	11926.54
897.496	11972.86
897.811	11831.4
898.126	11867.56
898.441	11772.87
898.756	11756.37
899.071	11741
899.386	11773.09
899.7	11668.46
900.015	11658.97
900.33	11483.16
900.644	11553.89
900.959	11536.26
901.273	11484.29
901.588	11375.36
901.902	11269.38
902.216	11311.64
902.531	11244.97
902.845	11215.37
903.159	11160.91
903.473	11084.75
903.787	11103.73
904.101	11060.8
904.415	10991.19
904.729	10926.11
905.042	10865.77
905.356	10890.18
905.67	10849.28
905.984	10880.46
906.297	10799.33
906.611	10714.37
906.924	10751.88
907.237	10729.73
907.551	10564.31
907.864	10521.38
908.177	10572.45
908.491	10448.38
908.804	10474.82
909.117	10405.45
909.43	10316.64
909.743	10270.99
910.056	10260.14
910.368	10209.52
910.681	10170.42
910.994	10134.95
911.307	10037.09
911.619	10060.6
911.932	10037.32
912.244	9967.27
912.557	9976.08
912.869	9835.29
913.181	9838.23
913.494	9779.25
913.806	9739.93
914.118	9802.98
914.43	9729.31
914.742	9689.08
915.054	9694.5
915.366	9579.48
915.678	9543.55
915.99	9468.75
916.302	9406.38
916.613	9434.62
916.925	9371.58
917.236	9344.23
917.548	9284.8
917.859	9351.01
918.171	9212.03
918.482	9223.1
918.794	9136.78
919.105	9070.11
919.416	9014.75
919.727	9024.69
920.038	8976.11
920.349	8930.01
920.66	8914.86
920.971	8889.1
921.282	8839.16
921.593	8729.78
921.903	8706.51
922.214	8735.66
922.525	8683.91
922.835	8601.43
923.146	8617.92
923.456	8595.32
923.767	8503.12
924.077	8518.26
924.387	8466.29
924.697	8412.05
925.008	8393.97
925.318	8351.49
925.628	8291.15
925.938	8284.37
926.248	8222.45
926.558	8198.5
926.867	8228.78
927.177	8117.37
927.487	8045.73
927.796	7980.43
928.106	8074.66
928.416	7952.86
928.725	7953.99
929.034	7953.08
929.344	7941.1
929.653	7897.72
929.962	7805.06
930.271	7750.6
930.581	7734.56
930.89	7719.19
931.199	7649.59
931.508	7671.73
931.817	7640.32
932.125	7610.94
932.434	7583.6
932.743	7477.39
933.051	7450.72
933.36	7447.78
933.669	7418.41
933.977	7372.08
934.286	7366.88
934.594	7322.82
934.902	7189.03
935.21	7189.94
935.519	7219.77
935.827	7149.04
936.135	7154.46
936.443	7112.2
936.751	7115.36
937.059	7059.77
937.367	7031.98
937.674	6985.42
937.982	6947.23
938.29	6951.53
938.597	6958.98
938.905	6849.61
939.213	6831.76
939.52	6803.96
939.827	6778.2
940.135	6704.53
940.442	6645.32
940.749	6673.57
941.056	6678.09
941.363	6590.63
941.67	6603.06
941.977	6594.7
942.284	6523.06
942.591	6573.91
942.898	6508.37
943.205	6450.75
943.511	6429.28
943.818	6421.14
944.125	6373.69
944.431	6323.07
944.738	6287.14
945.044	6277.65
945.35	6242.62
945.657	6229.29
945.963	6165.11
946.269	6155.16
946.575	6197.65
946.881	6067.26
947.187	6094.6
947.493	6071.32
947.799	6052.34
948.105	5998.78
948.41	6001.95
948.716	5970.54
949.022	5875.17
949.327	5883.76
949.633	5903.42
949.938	5871.78
950.244	5866.81
950.549	5801.27
950.854	5718.34
951.16	5779.58
951.465	5718.79
951.77	5664.1
952.075	5703.65
952.38	5638.11
952.685	5615.97
952.99	5543.88
953.294	5595.18
953.599	5474.28
953.904	5501.62
954.209	5458.46
954.513	5489.42
954.818	5413.04
955.122	5444
955.426	5403.09
955.731	5377.1
956.035	5263.21
956.339	5326.48
956.643	5319.25
956.948	5249.2
957.252	5246.71
957.556	5231.57
957.86	5222.31
958.163	5210.33
958.467	5162.19
958.771	5165.81
959.075	5107.73
959.378	5081.07
959.682	5120.84
959.985	5043.78
960.289	5006.49
960.592	4962.2
960.896	4966.27
961.199	4990.67
961.502	4979.6
961.805	4915.42
962.108	4867.97
962.411	4846.04
962.714	4803.79
963.017	4863.67
963.32	4800.17
963.623	4816.44
963.926	4794.97
964.228	4776.22
964.531	4759.72
964.833	4751.58
965.136	4677.01
965.438	4705.26
965.741	4700.74
966.043	4617.8
966.345	4621.87
966.648	4622.32
966.95	4598.14
967.252	4560.18
967.554	4571.25
967.856	4517.69
968.158	4464.13
968.46	4491.25
968.761	4433.85
969.063	4402.67
969.365	4405.15
969.666	4409.45
969.968	4340.75
970.269	4402.89
970.571	4333.29
970.872	4286.29
971.174	4309.11
971.475	4279.05
971.776	4249
972.077	4204.71
972.378	4216.91
972.679	4211.26
972.98	4197.02
973.281	4126.52
973.582	4140.98
973.883	4130.58
974.183	4150.24
974.484	4095.1
974.785	4077.25
975.085	4044.03
975.386	4038.38
975.686	4011.94
975.986	4004.94
976.287	4009.68
976.587	3973.98
976.887	3879.06
977.187	3906.41
977.487	3890.14
977.787	3871.16
978.087	3851.04
978.387	3806.52
978.687	3846.52
978.987	3808.33
979.286	3769.46
979.586	3764.72
979.885	3716.81
980.185	3736.92
980.484	3724.49
980.784	3696.24
981.083	3689.47
981.382	3685.17
981.682	3672.06
981.981	3669.58
982.28	3606.3
982.579	3622.12
982.878	3647.43
983.177	3575.8
983.475	3560.65
983.774	3534.89
984.073	3559.3
984.372	3524.95
984.67	3503.26
984.969	3496.7
985.267	3453.99
985.566	3463.03
985.864	3442.47
986.162	3451.05
986.461	3419.19
986.759	3388.68
987.057	3349.36
987.355	3371.28
987.653	3338.97
987.951	3310.49
988.249	3292.19
988.547	3333.99
988.844	3275.01
989.142	3275.92
989.44	3273.88
989.737	3195.92
990.035	3239.99
990.332	3209.25
990.63	3203.6
990.927	3195.69
991.224	3139.2
991.521	3130.84
991.819	3130.16
992.116	3122.02
992.413	3108.01
992.71	3079.76
993.006	3062.36
993.303	3012.65
993.6	3057.39
993.897	3069.59
994.193	3022.14
994.49	2989.6
994.787	2991.86
995.083	2969.71
995.379	2936.04
995.676	2939.88
995.972	2882.93
996.268	2882.48
996.565	2891.75
996.861	2872.99
997.157	2846.78
997.453	2825.99
997.749	2828.7
998.044	2806.55
998.34	2768.13
998.636	2757.74
998.932	2732.65
999.227	2752.09
999.523	2699.43
999.818	2732.88
1000.114	2717.29
1000.409	2661.47
1000.704	2660.57
1001	2653.33
1001.295	2620.34
1001.59	2610.4
1001.885	2616.95
1002.18	2599.1
1002.475	2555.71
1002.77	2590.28
1003.065	2539.21
1003.359	2531.76
1003.654	2541.25
1003.949	2525.2
1004.243	2469.38
1004.538	2464.41
1004.832	2485.2
1005.127	2474.36
1005.421	2456.5
1005.715	2414.92
1006.009	2396.62
1006.304	2409.05
1006.598	2387.13
1006.892	2364.53
1007.186	2385.77
1007.48	2350.74
1007.773	2335.6
1008.067	2306.22
1008.361	2299.67
1008.655	2319.78
1008.948	2290.41
1009.242	2292.21
1009.535	2250.86
1009.829	2217.19
1010.122	2228.26
1010.415	2209.5
1010.708	2219.9
1011.001	2183.29
1011.295	2189.84
1011.588	2160.69
1011.881	2146.91
1012.173	2125.66
1012.466	2131.31
1012.759	2129.96
1013.052	2107.13
1013.344	2076.17
1013.637	2062.84
1013.93	2068.72
1014.222	2013.35
1014.514	2013.8
1014.807	2019.68
1015.099	1995.72
1015.391	2011.09
1015.683	1986.91
1015.976	1981.04
1016.268	1963.18
1016.56	1931.77
1016.851	1925.9
1017.143	1934.26
1017.435	1944.88
1017.727	1891.09
1018.018	1897.2
1018.31	1878.44
1018.602	1872.34
1018.893	1804.09
1019.185	1804.77
1019.476	1810.42
1019.767	1817.2
1020.058	1812.45
1020.35	1775.62
1020.641	1792.34
1020.932	1760.93
1021.223	1755.5
1021.514	1735.39
1021.804	1716.86
1022.095	1737.43
1022.386	1722.96
1022.677	1693.36
1022.967	1667.15
1023.258	1681.61
1023.548	1669.86
1023.839	1640.48
1024.129	1633.25
1024.419	1654.94
1024.709	1641.38
1025	1596.86
1025.29	1596.64
1025.58	1574.49
1025.87	1572.68
1026.16	1596.19
1026.449	1549.63
1026.739	1566.36
1027.029	1505.34
1027.319	1500.82
1027.608	1520.93
1027.898	1498.11
1028.187	1487.04
1028.477	1489.07
1028.766	1468.96
1029.055	1461.5
1029.344	1433.25
1029.634	1448.62
1029.923	1417.66
1030.212	1413.59
1030.501	1402.29
1030.79	1409.07
1031.078	1396.42
1031.367	1374.5
1031.656	1365.68
1031.945	1346.7
1032.233	1365.01
1032.522	1329.53
1032.81	1336.31
1033.099	1356.19
1033.387	1311.9
1033.675	1277.1
1033.963	1279.13
1034.251	1278.91
1034.54	1289.53
1034.828	1235.74
1035.116	1256.99
1035.403	1249.3
1035.691	1242.07
1035.979	1245.91
1036.267	1220.6
1036.554	1206.37
1036.842	1172.92
1037.129	1198.91
1037.417	1191.23
1037.704	1186.93
1037.992	1176.31
1038.279	1193.03
1038.566	1155.07
1038.853	1155.07
1039.14	1155.07
