Data from plate_ceramic_FLMS001491_004.txt Node
Date: Tue Feb 07 11:16:13 GMT 2017
User: dcchb
Spectrometer: FLMS00149
Trigger mode: 0
Integration Time (sec): 2.000000E-2
Scans to average: 10
Electric dark correction enabled: true
Nonlinearity correction enabled: false
Boxcar width: 0
XAxis mode: Wavelengths
Number of Pixels in Spectrum: 2048
>>>>>Begin Spectral Data<<<<<
341.393	7.51
341.776	7.51
342.16	7.51
342.543	-50.11
342.927	-61.86
343.31	-69.77
343.693	-50.79
344.077	-63.67
344.46	-60.28
344.843	-62.31
345.226	-46.27
345.61	-29.77
345.993	-10.56
346.376	-18.02
346.759	12.49
347.142	31.92
347.525	21.98
347.908	64.91
348.291	81.18
348.674	85.48
349.057	113.5
349.44	127.96
349.823	158.47
350.206	155.08
350.588	221.52
350.971	192.37
351.354	225.59
351.737	270.56
352.119	262.87
352.502	306.04
352.884	303.33
353.267	308.97
353.65	325.7
354.032	333.38
354.414	333.83
354.797	321.63
355.179	351.46
355.562	347.17
355.944	355.98
356.326	355.75
356.709	346.26
357.091	349.65
357.473	360.95
357.855	360.95
358.238	345.13
358.62	360.27
359.002	359.82
359.384	351.23
359.766	364.79
360.148	353.27
360.53	372.02
360.912	332.7
361.294	354.17
361.676	352.14
362.057	365.02
362.439	351.01
362.821	361.63
363.203	349.43
363.584	364.79
363.966	375.87
364.348	371.12
364.729	363.21
365.111	377.9
365.493	377.45
365.874	356.43
366.256	356.88
366.637	368.41
367.019	360.05
367.4	381.29
367.781	390.78
368.163	371.57
368.544	371.35
368.925	358.01
369.306	358.47
369.688	348.52
370.069	371.57
370.45	348.3
370.831	356.21
371.212	375.64
371.593	362.76
371.974	377.67
372.355	380.39
372.736	369.76
373.117	354.17
373.498	374.96
373.879	385.13
374.26	384.68
374.641	365.92
375.021	376.09
375.402	380.16
375.783	372.48
376.163	402.53
376.544	412.93
376.925	407.73
377.305	384.45
377.686	422.64
378.066	408.86
378.447	408.63
378.827	412.48
379.208	420.84
379.588	419.48
379.968	419.03
380.349	417.9
380.729	431.46
381.109	420.61
381.489	428.07
381.87	425.36
382.25	417.22
382.63	433.27
383.01	439.37
383.39	419.03
383.77	438.92
384.15	445.92
384.53	461.29
384.91	457.22
385.29	461.97
385.67	494.96
386.049	510.1
386.429	477.56
386.809	484.34
387.189	487.05
387.568	485.24
387.948	473.26
388.328	510.1
388.707	505.13
389.087	495.64
389.466	499.7
389.846	507.39
390.225	521.85
390.605	509.2
390.984	506.48
391.363	526.6
391.743	542.87
392.122	539.03
392.501	536.31
392.881	556.2
393.26	559.82
393.639	572.47
394.018	561.17
394.397	553.26
394.776	576.54
395.155	592.36
395.534	570.44
395.913	592.58
396.292	616.76
396.671	622.41
397.05	592.58
397.429	610.44
397.808	607.5
398.186	604.33
398.565	644.11
398.944	627.38
399.323	634.16
399.701	630.32
400.08	644.79
400.458	648.18
400.837	689.98
401.215	671
401.594	658.12
401.972	670.32
402.351	710.55
402.729	696.76
403.107	724.56
403.486	726.37
403.864	713.71
404.242	742.86
404.62	740.38
404.999	750.77
405.377	753.93
405.755	762.97
406.133	779.7
406.511	788.74
406.889	793.48
407.267	799.58
407.645	799.13
408.023	835.06
408.401	818.79
408.779	825.8
409.156	844.78
409.534	856.08
409.912	863.76
410.29	887.04
410.667	912.35
411.045	901.95
411.422	908.96
411.8	913.03
412.178	930.43
412.555	943.99
412.933	969.52
413.31	960.94
413.687	979.24
414.065	984.89
414.442	999.35
414.819	1033.7
415.197	1028.5
415.574	1060.82
415.951	1030.09
416.328	1043.19
416.705	1094.04
417.082	1083.42
417.46	1066.47
417.837	1087.26
418.214	1120.03
418.591	1120.25
418.967	1135.62
419.344	1118.9
419.721	1159.12
420.098	1165
420.475	1179.69
420.852	1217.43
421.228	1223.53
421.605	1220.14
421.982	1234.83
422.358	1262.85
422.735	1226.24
423.111	1247.71
423.488	1297.42
423.864	1292.68
424.241	1302.62
424.617	1331.32
424.994	1331.77
425.37	1334.26
425.746	1344.88
426.123	1372.22
426.499	1393.47
426.875	1416.06
427.251	1465.78
427.627	1447.93
428.003	1506.46
428.379	1494.71
428.756	1519.34
429.132	1521.37
429.507	1541.03
429.883	1539.23
430.259	1650.41
430.635	1604.99
431.011	1632.33
431.387	1686.57
431.763	1683.85
432.138	1714.81
432.514	1707.81
432.89	1744.64
433.265	1756.17
433.641	1785.32
434.016	1778.54
434.392	1843.85
434.767	1896.05
435.143	1884.07
435.518	1876.62
435.894	1929.72
436.269	1943.96
436.644	1972.89
437.02	1995.94
437.395	2031.64
437.77	2017.4
438.145	2042.04
438.52	2065.76
438.895	2101.02
439.271	2075.03
439.646	2164.97
440.021	2156.61
440.395	2197.29
440.77	2166.78
441.145	2157.97
441.52	2244.29
441.895	2226.21
442.27	2250.39
442.645	2256.72
443.019	2308.7
443.394	2323.39
443.769	2295.82
444.143	2305.76
444.518	2372.65
444.892	2359.77
445.267	2394.8
445.641	2393.21
446.016	2429.6
446.39	2429.37
446.764	2487
447.139	2470.5
447.513	2510.72
447.887	2481.57
448.262	2503.49
448.636	2536.26
449.01	2570.38
449.384	2611.51
449.758	2617.39
450.132	2656.48
450.506	2681.34
450.88	2663.26
451.254	2679.53
451.628	2743.71
452.002	2792.53
452.376	2786.65
452.75	2803.6
453.123	2820.55
453.497	2897.16
453.871	2880.21
454.244	2973.76
454.618	2950.26
454.992	2986.42
455.365	3037.04
455.739	3106.42
456.112	3125.4
456.486	3178.28
456.859	3223.7
457.232	3300.08
457.606	3228.45
457.979	3310.03
458.352	3389.12
458.725	3423.47
459.099	3457.37
459.472	3533.52
459.845	3549.79
460.218	3577.36
460.591	3610.36
460.964	3608.32
461.337	3750.92
461.71	3808.54
462.083	3855.1
462.456	3827.75
462.829	3846.96
463.201	3938.03
463.574	3957.01
463.947	4015.54
464.32	4146.61
464.692	4133.96
465.065	4240.62
465.438	4237.46
465.81	4309.1
466.183	4309.55
466.555	4442.43
466.928	4480.62
467.3	4505.25
467.672	4553.84
468.045	4685.81
468.417	4696.2
468.789	4774.17
469.161	4802.87
469.534	4895.3
469.906	4968.29
470.278	5041.73
470.65	5077.44
471.022	5185
471.394	5310.88
471.766	5339.58
472.138	5350.88
472.51	5472.68
472.882	5557.2
473.253	5626.12
473.625	5710.19
473.997	5834.71
474.369	5933.69
474.74	5938.21
475.112	6080.57
475.484	6163.06
475.855	6259.55
476.227	6327.57
476.598	6549.71
476.97	6571.41
477.341	6755.13
477.713	6809.59
478.084	6849.37
478.455	7055.92
478.827	7088.68
479.198	7358.73
479.569	7357.83
479.94	7598.5
480.311	7659.97
480.682	7809.57
481.053	8028.55
481.424	8105.15
481.795	8205.26
482.166	8310.35
482.537	8446.16
482.908	8614.75
483.279	8692.26
483.65	8878.69
484.021	9042.08
484.391	9215.41
484.762	9163.88
485.133	9347.16
485.503	9455.63
485.874	9683.87
486.244	9739.01
486.615	9978.33
486.985	10066.01
487.356	10302.61
487.726	10354.13
488.097	10592.77
488.467	10624.64
488.837	10835.7
489.207	11007.9
489.578	11149.14
489.948	11278.18
490.318	11411.96
490.688	11430.49
491.058	11633.2
491.428	11811.72
491.798	11979.4
492.168	12150.92
492.538	12196.12
492.908	12409.67
493.278	12499.61
493.648	12572.16
494.017	12719.04
494.387	12879.72
494.757	13030
495.126	13175.53
495.496	13237.67
495.866	13343.66
496.235	13449.87
496.605	13597.67
496.974	13638.34
497.344	13905.91
497.713	13947.94
498.082	14029.07
498.452	14257.31
498.821	14218.67
499.19	14332.11
499.559	14404.42
499.928	14620.46
500.298	14694.59
500.667	14847.8
501.036	14818.2
501.405	14991.53
501.774	14964.18
502.143	15238.75
502.512	15249.37
502.88	15466.32
503.249	15328.02
503.618	15553.09
503.987	15650.27
504.356	15845.06
504.724	15893.65
505.093	15945.85
505.462	16029.92
505.83	16191.72
506.199	16372.73
506.567	16506.06
506.936	16503.58
507.304	16721.65
507.672	16849.1
508.041	16923.91
508.409	17045.03
508.777	17210.45
509.145	17362.09
509.514	17305.36
509.882	17427.62
510.25	17535.19
510.618	17733.6
510.986	17853.6
511.354	17973.14
511.722	18236.87
512.09	18403.64
512.458	18186.7
512.826	18535.39
513.193	18643.18
513.561	18720.02
513.929	18901.03
514.297	19160.91
514.664	19400.9
515.032	19298.53
515.4	19470.73
515.767	19557.51
516.135	19740.1
516.502	19645.42
516.869	19989.81
517.237	20105.06
517.604	20140.09
517.972	20350.48
518.339	20532.4
518.706	20656.91
519.073	20651.04
519.44	20771.04
519.808	21031.59
520.175	21226.17
520.542	21477.68
520.909	21564.91
521.276	21532.6
521.643	21863.89
522.009	21913.15
522.376	22115.86
522.743	22120.83
523.11	22528.05
523.477	22674.04
523.843	22983.63
524.21	23132.56
524.577	23307.69
524.943	23408.93
525.31	23503.39
525.676	23827
526.043	23840.33
526.409	24168.23
526.776	24338.63
527.142	24349.25
527.508	24547.21
527.874	24859.06
528.241	24850.25
528.607	24990.36
528.973	25299.73
529.339	25306.51
529.705	25542.66
530.071	25824.24
530.437	25924.12
530.803	26043.44
531.169	26267.61
531.535	26293.6
531.901	26239.82
532.267	26359.36
532.632	26692.69
532.998	26809.3
533.364	27045
533.73	27164.99
534.095	27335.16
534.461	27424.87
534.826	27636.39
535.192	27666.67
535.557	27873
535.923	27972.88
536.288	28066.44
536.653	28211.52
537.019	28091.07
537.384	28287.45
537.749	28451.74
538.114	28602.02
538.479	28738.06
538.845	28680.88
539.21	28903.7
539.575	28788.23
539.94	29035
540.305	29248.55
540.67	29254.88
541.034	29403.58
541.399	29505.27
541.764	29507.53
542.129	29692.61
542.494	29775.32
542.858	29856.45
543.223	29912.72
543.587	30118.81
543.952	30161.3
544.316	30407.17
544.681	30440.39
545.045	30420.27
545.41	30697.1
545.774	30710.44
546.138	30812.13
546.503	30880.6
546.867	30953.82
547.231	31233.81
547.595	31281.95
547.959	31280.82
548.324	31353.36
548.688	31586.34
549.052	31661.37
549.416	31766.9
549.779	31843.29
550.143	31944.3
550.507	32227.68
550.871	32368.02
551.235	32302.48
551.599	32642.36
551.962	32496.15
552.326	32653.21
552.689	32972.97
553.053	32879.64
553.417	33071.5
553.78	33449.35
554.143	33287.77
554.507	33535.9
554.87	33678.04
555.234	33958.49
555.597	33732.95
555.96	34028.31
556.323	34185.6
556.686	34032.38
557.05	34446.61
557.413	34547.85
557.776	34539.49
558.139	34928.86
558.502	34956.65
558.865	34963.2
559.228	35243.65
559.59	35418.56
559.953	35420.37
560.316	35749.17
560.679	35802.73
561.041	36015.15
561.404	36290.85
561.767	36526.1
562.129	36430.74
562.492	36802.93
562.854	36832.53
563.217	36908.92
563.579	37014.68
563.941	37246.99
564.304	37561.33
564.666	37591.61
565.028	37684.26
565.39	37828.44
565.753	37997.7
566.115	38142.33
566.477	38301.2
566.839	38539.38
567.201	38778.02
567.563	38666.61
567.925	38987.28
568.287	39035.64
568.648	39060.72
569.01	39333.26
569.372	39602.41
569.734	39580.26
570.095	39822.96
570.457	40032.45
570.819	40107.02
571.18	40028.38
571.542	40445.32
571.903	40483.96
572.265	40510.4
572.626	40661.81
572.987	40917.17
573.349	40947.68
573.71	41035.59
574.071	41052.31
574.432	41160.56
574.794	41400.78
575.155	41379.08
575.516	41366.88
575.877	41614.33
576.238	41626.08
576.599	41866.07
576.96	41879.86
577.32	41873.31
577.681	42007.77
578.042	42197.59
578.403	42166.86
578.763	42261.32
579.124	42321.88
579.485	42648.2
579.845	42515.55
580.206	42462.44
580.566	42548.54
580.927	42685.71
581.287	42798.25
581.648	42707.63
582.008	42711.7
582.368	42643.91
582.728	42790.8
583.089	42764.13
583.449	42696.11
583.809	42959.6
584.169	42927.52
584.529	42774.75
584.889	43096.1
585.249	42954.86
585.609	42776.11
585.969	42961.19
586.329	42929.78
586.688	42890.23
587.048	43061.07
587.408	43047.06
587.768	43006.61
588.127	43095.42
588.487	42907.63
588.846	43337.45
589.206	43050.68
589.565	43017.68
589.925	43299.03
590.284	43096.55
590.643	43285.25
591.003	43296.55
591.362	43352.36
591.721	43137.68
592.08	43206.83
592.44	43419.93
592.799	43419.03
593.158	43381.74
593.517	43383.32
593.876	43407.05
594.235	43337.45
594.593	43492.92
594.952	43546.93
595.311	43299.93
595.67	43445.92
596.029	43646.82
596.387	43702.64
596.746	43763.43
597.104	43626.48
597.463	43713.94
597.822	43702.86
598.18	43602.75
598.538	43701.05
598.897	43836.42
599.255	43565.01
599.613	44062.4
599.972	43976.08
600.33	43919.13
600.688	43765.46
601.046	43961.39
601.404	44137.65
601.762	44080.48
602.12	44178.78
602.478	44221.49
602.836	44227.82
603.194	44046.81
603.552	44125.9
603.91	44073.47
604.268	44473.92
604.625	44263.07
604.983	44435.95
605.341	44254.26
605.698	44403.41
606.056	44395.05
606.413	44505.33
606.771	44638.2
607.128	44771.99
607.485	44583.97
607.843	44539.9
608.2	44756.17
608.557	44890.18
608.914	44684.31
609.272	45007.01
609.629	45054.69
609.986	45182.15
610.343	44793.68
610.7	45290.62
611.057	45014.01
611.414	45096.05
611.771	45130.85
612.127	45365.64
612.484	45246.1
612.841	45325.42
613.198	45249.04
613.554	45394.8
613.911	45502.36
614.267	45457.17
614.624	45476.15
614.98	45523.38
615.337	45819.42
615.693	45680.44
616.05	45766.99
616.406	45948.45
616.762	45614.9
617.118	45759.76
617.475	45930.15
617.831	46002.69
618.187	45924.72
618.543	45908.45
618.899	46156.58
619.255	46073.87
619.611	45966.08
619.967	46266.86
620.323	46280.42
620.678	46126.08
621.034	46013.76
621.39	46058.51
621.746	46104.38
622.101	46539.62
622.457	46157.49
622.812	46265.28
623.168	46435.22
623.523	46306.18
623.879	46438.16
624.234	46161.33
624.589	46391.61
624.945	46393.86
625.3	46276.13
625.655	46183.25
626.01	46270.93
626.365	46457.14
626.72	46302.79
627.075	46238.84
627.43	46232.29
627.785	46054.89
628.14	46066.19
628.495	46240.2
628.85	46249.69
629.205	46035
629.559	46285.39
629.914	45935.35
630.269	46078.39
630.623	45935.57
630.978	45794.11
631.332	45964.95
631.687	45977.38
632.041	45953.65
632.396	45966.76
632.75	45686.09
633.104	45795.91
633.459	45563.6
633.813	45685.18
634.167	45641.57
634.521	45596.82
634.875	45650.83
635.229	45533.55
635.583	45287.23
635.937	45447.9
636.291	45285.42
636.645	45208.36
636.999	45244.97
637.352	45282.03
637.706	45063.05
638.06	45223.27
638.413	45046.56
638.767	45000.68
639.121	45077.74
639.474	44834.36
639.828	44802.04
640.181	44989.16
640.534	44800.01
640.888	44772.66
641.241	44547.59
641.594	44692.67
641.947	44741.7
642.301	44693.34
642.654	44585.1
643.007	44531.77
643.36	44515.95
643.713	44416.52
644.066	44614.48
644.419	44200.7
644.771	44014.27
645.124	43660.6
645.477	43612.7
645.83	43248.64
646.182	43097.68
646.535	42976.1
646.888	42995.99
647.24	42863.79
647.593	43165.7
647.945	43093.16
648.298	42771.81
648.65	42750.12
649.002	42607.75
649.355	42787.41
649.707	42676.22
650.059	42914.86
650.411	43369.31
650.763	43365.02
651.115	43642.52
651.467	43501.74
651.819	43478.69
652.171	43431
652.523	43241.86
652.875	43335.19
653.227	43167.28
653.578	43604.79
653.93	43339.71
654.282	43295.42
654.633	43012.26
654.985	43239.82
655.337	43158.47
655.688	43253.61
656.039	43341.97
656.391	42775.65
656.742	42850.46
657.094	42867.4
657.445	43089.77
657.796	42920.74
658.147	42879.16
658.498	42874.86
658.849	42918.25
659.2	42780.85
659.551	42743.57
659.902	42748.76
660.253	42668.31
660.604	42696.11
660.955	42555.55
661.306	42746.05
661.656	42564.36
662.007	42466.96
662.358	42595.09
662.708	42482.1
663.059	42446.85
663.409	42330.69
663.76	42502.89
664.11	42467.64
664.461	42377.7
664.811	42414.31
665.161	42490.24
665.511	42455.66
665.862	42325.72
666.212	42451.14
666.562	42576.79
666.912	42499.5
667.262	42445.72
667.612	42371.37
667.962	42430.58
668.312	42187.42
668.662	42471.03
669.011	42323.01
669.361	42340.86
669.711	42308.1
670.06	42098.38
670.41	42184.71
670.76	42005.51
671.109	42220.87
671.459	42001.21
671.808	42069.46
672.157	42188.33
672.507	41903.59
672.856	41967.77
673.205	41972.51
673.554	41967.77
673.904	41826.53
674.253	42120.98
674.602	41774.1
674.951	41457.5
675.3	41181.12
675.649	41816.13
675.998	41612.75
676.346	41657.04
676.695	41891.84
677.044	41565.29
677.393	41623.59
677.741	41790.14
678.09	41480.32
678.438	41531.39
678.787	41640.09
679.135	41582.24
679.484	41434.22
679.832	41407.33
680.181	41263.6
680.529	41487.33
680.877	41172.08
681.225	41034.46
681.573	41226.32
681.922	41050.05
682.27	41012.09
682.618	40975.02
682.966	40954.23
683.314	40913.78
683.661	40633.79
684.009	40528.26
684.357	40491.42
684.705	40519.67
685.053	40476.28
685.4	40417.07
685.748	40240.35
686.095	40234.48
686.443	39963.75
686.79	40010.98
687.138	39999.91
687.485	40066.8
687.832	40105.67
688.18	39913.36
688.527	39677.88
688.874	39763.53
689.221	39585.68
689.568	39427.72
689.915	39458.23
690.262	39374.39
690.609	39356.31
690.956	39278.8
691.303	39029.09
691.65	39006.26
691.997	38984.57
692.344	38730.56
692.69	38789.09
693.037	38861.18
693.383	38505.71
693.73	38675.2
694.077	38215.55
694.423	38360.4
694.769	38317.69
695.116	38158.6
695.462	38109.56
695.808	38157.47
696.155	37944.6
696.501	37553.42
696.847	37806.52
697.193	37525.62
697.539	37638.16
697.885	37366.08
698.231	37253.31
698.577	37199.08
698.923	37154.33
699.269	36808.81
699.614	36720.9
699.96	36720.67
700.306	36741.01
700.651	36654.91
700.997	36528.59
701.342	36337.18
701.688	36223.96
702.033	36194.13
702.379	36192.1
702.724	36150.52
703.069	36172.21
703.415	35686.12
703.76	35825.78
704.105	35681.15
704.45	35651.32
704.795	35356.87
705.14	35253.14
705.485	35329.07
705.83	35129.75
706.175	35125.23
706.52	35102.18
706.865	34961.62
707.209	34941.51
707.554	34920.49
707.899	34948.29
708.243	34800.95
708.588	34708.75
708.932	34430.56
709.277	34417
709.621	34504.91
709.966	34202.1
710.31	34336.1
710.654	33893.63
710.998	34222.66
711.342	34087.52
711.687	33881.43
712.031	33838.26
712.375	33796
712.719	33713.52
713.063	33743.35
713.407	33763.91
713.75	33506.52
714.094	33483.92
714.438	33395.79
714.782	33417.26
715.125	33215.45
715.469	33346.3
715.812	33156.25
716.156	33006.87
716.499	32898.85
716.843	32968.91
717.186	32769.36
717.53	32836.48
717.873	32857.05
718.216	32898.4
718.559	32645.75
718.902	32461.58
719.246	32698.41
719.589	32304.52
719.932	32325.08
720.275	32317.62
720.617	32359.88
720.96	32295.25
721.303	32236.95
721.646	32161.02
721.989	31889.61
722.331	31880.12
722.674	31851.87
723.016	31941.59
723.359	31763.52
723.701	31848.03
724.044	31544.09
724.386	31449.4
724.729	31757.64
725.071	31622.28
725.413	31528.94
725.755	31401.49
726.097	31228.16
726.439	31152.23
726.782	31028.62
727.124	31302.74
727.465	31187.03
727.807	31199.01
728.149	30975.29
728.491	30971.45
728.833	31135.73
729.175	30907.72
729.516	30786.82
729.858	30809.42
730.199	30785.24
730.541	30689.42
730.882	30670.44
731.224	30749.76
731.565	30489.88
731.906	30489.65
732.248	30526.71
732.589	30387.96
732.93	30176.44
733.271	30232.48
733.612	30378.47
733.953	30365.13
734.294	30203.1
734.635	30085.59
734.976	30153.84
735.317	29922.89
735.658	30082.2
735.999	30052.6
736.339	29849.22
736.68	30053.28
737.021	29826.84
737.361	29738.94
737.702	29956.78
738.042	29725.15
738.383	29636.11
738.723	29630.69
739.063	29601.76
739.404	29582.56
739.744	29485.61
740.084	29484.7
740.424	29420.75
740.764	29236.35
741.104	29616.45
741.444	29217.14
741.784	29198.84
742.124	29300.98
742.464	29148.89
742.804	29149.57
743.143	28971.27
743.483	29043.36
743.823	28923.14
744.162	28899.18
744.502	28822.12
744.841	28727.89
745.181	28715.01
745.52	28697.16
745.86	28668.91
746.199	28664.84
746.538	28515.46
746.877	28533.77
747.216	28484.28
747.556	28322.02
747.895	28397.95
748.234	28190.28
748.573	28289.26
748.911	28260.78
749.25	28237.51
749.589	28056.27
749.928	28044.06
750.267	28099.66
750.605	28074.57
750.944	27947.12
751.283	27880
751.621	27906.89
751.96	27732.89
752.298	27645.43
752.636	27731.53
752.975	27535.83
753.313	27409.28
753.651	27552.33
753.989	27337.19
754.327	27301.03
754.666	27193.69
755.004	27176.29
755.342	27140.36
755.679	27151.21
756.017	27154.37
756.355	27123.19
756.693	26894.49
757.031	27006.13
757.368	26672.12
757.706	26900.59
758.044	26663.08
758.381	26647.27
758.719	26571.56
759.056	26529.53
759.394	26554.84
759.731	26224.45
760.068	26259.25
760.405	26154.4
760.743	26025.36
761.08	26011.35
761.417	25930.9
761.754	25995.98
762.091	25815.2
762.428	25782.88
762.765	25588.76
763.102	25659.49
763.438	25450.01
763.775	25323.23
764.112	25306.51
764.449	25258.15
764.785	25164.14
765.122	24917.59
765.458	24903.81
765.795	24876.24
766.131	24888.89
766.467	24824.94
766.804	24732.74
767.14	24583.36
767.476	24568.9
767.812	24516.93
768.148	24539.3
768.485	24261.79
768.821	24225.18
769.157	24150.38
769.492	24151.74
769.828	24039.88
770.164	23855.7
770.5	23826.1
770.836	23809.37
771.171	23572.54
771.507	23569.15
771.842	23292.78
772.178	23422.72
772.513	23346.56
772.849	23218.43
773.184	23077.42
773.519	23092.56
773.855	22977.76
774.19	22826.8
774.525	22857.76
774.86	22869.29
775.195	22808.72
775.53	22597.65
775.865	22594.04
776.2	22437.21
776.535	22292.58
776.87	22295.74
777.205	22194.73
777.539	22098.91
777.874	22149.3
778.209	21874.74
778.543	21835.19
778.878	21672.48
779.212	21720.16
779.547	21608.75
779.881	21577.57
780.215	21340.74
780.55	21483.33
780.884	21331.47
781.218	21223.68
781.552	21238.59
781.886	21142.78
782.22	20971.26
782.554	20899.85
782.888	20684.03
783.222	20559.97
783.556	20629.57
783.889	20571.72
784.223	20402.23
784.557	20264.16
784.89	20426.41
785.224	20173.54
785.557	20137.83
785.891	20190.49
786.224	20120.21
786.558	19961.57
786.891	19906.88
787.224	19931.28
787.557	19880.89
787.891	19677.51
788.224	19790.95
788.557	19605.87
788.89	19545.98
789.223	19437.96
789.556	19389.6
789.888	19390.06
790.221	19251.98
790.554	19124.98
790.887	19140.8
791.219	19049.73
791.552	19016.51
791.884	18944.42
792.217	18851.76
792.549	18809.05
792.882	18636.18
793.214	18606.57
793.546	18528.83
793.879	18417.65
794.211	18325.68
794.543	18478.67
794.875	18396.18
795.207	18308.05
795.539	18361.83
795.871	18248.84
796.203	18122.07
796.535	17940.38
796.867	17917.1
797.198	17930.88
797.53	17874.16
797.862	17736.31
798.193	17835.29
798.525	17608.86
798.856	17662.87
799.188	17530.22
799.519	17388.53
799.85	17376.77
800.182	17346.04
800.513	17451.58
800.844	17296.32
801.175	17334.06
801.506	17279.83
801.837	17275.08
802.168	17078.7
802.499	17049.1
802.83	16938.59
803.161	16836.22
803.491	16906.5
803.822	16886.17
804.153	16723.23
804.483	16609.79
804.814	16622.67
805.145	16557.81
805.475	16537.7
805.805	16453.86
806.136	16445.05
806.466	16568.21
806.796	16484.82
807.126	16297.03
807.457	16235.34
807.787	16251.15
808.117	16066.07
808.447	16069.46
808.777	16045.74
809.107	15941.78
809.436	15952.63
809.766	15929.36
810.096	15879.64
810.426	15806.87
810.755	15758.06
811.085	15686.42
811.414	15683.71
811.744	15650.04
812.073	15543.15
812.403	15490.27
812.732	15450.27
813.061	15417.73
813.39	15404.17
813.719	15412.31
814.049	15449.82
814.378	15387.9
814.707	15285.76
815.036	15357.84
815.365	15262.03
815.693	15070.85
816.022	15040.79
816.351	15064.07
816.68	14945.43
817.008	14972.09
817.337	14811.19
817.665	14879.44
817.994	14846.67
818.322	14855.03
818.651	14758.76
818.979	14755.37
819.307	14782.04
819.636	14704.3
819.964	14585.89
820.292	14598.32
820.62	14616.85
820.948	14641.48
821.276	14693
821.604	14611.2
821.932	14602.61
822.259	14614.59
822.587	14555.38
822.915	14502.95
823.243	14634.93
823.57	14552.89
823.898	14512.44
824.225	14507.25
824.553	14504.31
824.88	14479.68
825.207	14473.12
825.535	14467.02
825.862	14492.33
826.189	14497.75
826.516	14535.49
826.843	14591.99
827.17	14550.63
827.497	14482.61
827.824	14567.13
828.151	14507.7
828.478	14418.43
828.805	14559.45
829.131	14408.72
829.458	14458.66
829.785	14362.39
830.111	14395.38
830.438	14545.66
830.764	14566.68
831.09	14478.77
831.417	14418.89
831.743	14391.77
832.069	14426.57
832.395	14313.13
832.722	14375.95
833.048	14322.39
833.374	14366.91
833.7	14310.41
834.026	14261.15
834.351	14366.23
834.677	14320.58
835.003	14392.45
835.329	14355.39
835.654	14287.14
835.98	14100.48
836.306	14152.45
836.631	14145.67
836.956	14250.08
837.282	14239.91
837.607	14211.89
837.932	14188.16
838.258	14083.98
838.583	14003.98
838.908	13884.44
839.233	13945.23
839.558	13855.06
839.883	13748.4
840.208	13918.11
840.533	13886.7
840.858	13888.05
841.182	13886.47
841.507	13774.38
841.832	13719.24
842.156	13793.37
842.481	13681.96
842.805	13643.99
843.13	13528.74
843.454	13589.76
843.778	13516.54
844.103	13489.87
844.427	13491.45
844.751	13478.8
845.075	13491.68
845.399	13527.84
845.723	13396.77
846.047	13388.18
846.371	13239.48
846.695	13189.54
847.019	13125.59
847.343	13070.45
847.666	12911.81
847.99	12850.34
848.313	12934.41
848.637	12814.86
848.96	12779.61
849.284	12815.99
849.607	12683.79
849.931	12691.02
850.254	12547.75
850.577	12528.09
850.9	12416.45
851.223	12432.27
851.546	12351.14
851.869	12356.12
852.192	12339.17
852.515	12232.28
852.838	12134.2
853.161	12172.84
853.483	12208.55
853.806	12069.12
854.129	12098.27
854.451	12067.08
854.774	11976.01
855.096	11874.55
855.419	11945.96
855.741	11839.97
856.063	11768.56
856.385	11748
856.708	11728.11
857.03	11651.73
857.352	11674.1
857.674	11577.38
857.996	11513.2
858.318	11548.45
858.64	11537.61
858.961	11444.05
859.283	11422.58
859.605	11376.03
859.926	11426.2
860.248	11334.45
860.57	11229.37
860.891	11243.6
861.212	11283.38
861.534	11254.45
861.855	11178.07
862.176	11226.43
862.498	11178.07
862.819	11217.84
863.14	11174.68
863.461	11110.27
863.782	11040.9
864.103	11133.55
864.424	11072.99
864.745	11081.57
865.065	10984.85
865.386	10971.52
865.707	10890.62
866.027	10981.46
866.348	10955.47
866.668	10957.73
866.989	10925.64
867.309	10811.07
867.63	10878.19
867.95	10839.09
868.27	10805.2
868.59	10737.18
868.91	10742.82
869.23	10732.43
869.55	10694.01
869.87	10810.62
870.19	10763.84
870.51	10690.4
870.83	10623.73
871.15	10544.41
871.469	10617.4
871.789	10622.15
872.109	10573.79
872.428	10504.87
872.748	10488.14
873.067	10534.24
873.386	10516.16
873.706	10459.22
874.025	10452.44
874.344	10445.66
874.663	10492.89
874.982	10390.52
875.301	10390.74
875.62	10318.43
875.939	10378.99
876.258	10332.44
876.577	10306.9
876.896	10263.29
877.214	10225.55
877.533	10210.41
877.852	10201.14
878.17	10280.69
878.489	10261.26
878.807	10199.79
879.125	10227.13
879.444	10139.45
879.762	10094.48
880.08	10121.6
880.398	10192.33
880.716	10115.95
881.034	10094.25
881.352	10084.76
881.67	10103.52
881.988	10017.42
882.306	9960.25
882.624	9965.44
882.941	9991.88
883.259	9901.27
883.577	9877.54
883.894	9907.14
884.212	9860.81
884.529	9835.5
884.846	9800.25
885.164	9763.42
885.481	9782.62
885.798	9774.71
886.115	9644.32
886.432	9649.29
886.75	9611.56
887.067	9566.13
887.383	9561.39
887.7	9595.96
888.017	9619.92
888.334	9577.21
888.651	9556.19
888.967	9550.99
889.284	9470.32
889.6	9445.46
889.917	9379.02
890.233	9435.06
890.55	9327.04
890.866	9320.26
891.182	9271.9
891.498	9280.26
891.815	9191.91
892.131	9222.19
892.447	9137.9
892.763	9189.19
893.079	9197.78
893.395	9158.23
893.71	9105.81
894.026	9052.47
894.342	9085.69
894.657	9007.5
894.973	8977.45
895.289	9025.81
895.604	8952.14
895.92	8915.3
896.235	8757.57
896.55	8784.46
896.865	8794.63
897.181	8753.27
897.496	8779.94
897.811	8719.83
898.126	8690
898.441	8654.52
898.756	8581.98
899.071	8550.34
899.386	8619.49
899.7	8469.89
900.015	8472.6
900.33	8417.01
900.644	8452.94
900.959	8410.91
901.273	8386.5
901.588	8279.84
901.902	8293.62
902.216	8274.42
902.531	8248.2
902.845	8211.14
903.159	8157.36
903.473	8123.23
903.787	8110.58
904.101	8039.85
904.415	8047.75
904.729	7980.19
905.042	7993.07
905.356	7944.48
905.67	7890.92
905.984	7919.4
906.297	7910.58
906.611	7874.65
906.924	7887.76
907.237	7904.03
907.551	7746.97
907.864	7827.87
908.177	7727.99
908.491	7657.26
908.804	7639.4
909.117	7623.81
909.43	7539.29
909.743	7522.34
910.056	7591.27
910.368	7535
910.681	7461.33
910.994	7393.31
911.307	7447.09
911.619	7375.46
911.932	7367.77
912.244	7243.48
912.557	7269.24
912.869	7218.85
913.181	7213.88
913.494	7156.48
913.806	7116.71
914.118	7118.74
914.43	7041.91
914.742	7109.7
915.054	7041.91
915.366	7041.45
915.678	6989.25
915.99	6939.76
916.302	6845.53
916.613	6902.02
916.925	6883.49
917.236	6872.87
917.548	6770.05
917.859	6816.15
918.171	6745.42
918.482	6774.57
918.794	6692.54
919.105	6772.08
919.416	6669.26
919.727	6676.27
920.038	6572.31
920.349	6525.76
920.66	6518.3
920.971	6519.89
921.282	6481.02
921.593	6420.9
921.903	6337.97
922.214	6409.83
922.525	6370.28
922.835	6308.14
923.146	6326.44
923.456	6248.93
923.767	6309.72
924.077	6243.28
924.387	6177.52
924.697	6176.62
925.008	6207.35
925.318	6136.39
925.628	6139.78
925.938	6074.02
926.248	6032.44
926.558	6017.07
926.867	6034.25
927.177	5983.4
927.487	5896.17
927.796	5886.46
928.106	5929.84
928.416	5873.57
928.725	5815.27
929.034	5765.1
929.344	5785.22
929.653	5758.1
929.962	5703.18
930.271	5775.95
930.581	5690.53
930.89	5644.2
931.199	5626.58
931.508	5622.28
931.817	5595.16
932.125	5606.24
932.434	5522.4
932.743	5555.16
933.051	5480.14
933.36	5492.57
933.669	5418.67
933.977	5362.4
934.286	5421.61
934.594	5358.56
934.902	5361.95
935.21	5311.56
935.519	5331.22
935.827	5391.78
936.135	5294.15
936.443	5190.2
936.751	5151.11
937.059	5196.53
937.367	5173.93
937.674	5135.51
937.982	5149.53
938.29	5111.79
938.597	5101.17
938.905	5089.64
939.213	5057.55
939.52	5046.93
939.827	5065.23
940.135	5045.8
940.442	4941.85
940.749	4921.28
941.056	4935.97
941.363	4875.41
941.67	4857.33
941.977	4801.51
942.284	4793.38
942.591	4860.49
942.898	4758.12
943.205	4801.29
943.511	4759.93
943.818	4761.06
944.125	4680.61
944.431	4693.49
944.738	4676.54
945.044	4630.22
945.35	4598.81
945.657	4595.87
945.963	4565.36
946.269	4506.6
946.575	4512.93
946.881	4517.9
947.187	4498.7
947.493	4491.92
947.799	4504.34
948.105	4433.39
948.41	4393.84
948.716	4454.4
949.022	4366.27
949.327	4432.03
949.633	4342.99
949.938	4325.14
950.244	4330.56
950.549	4296.67
950.854	4300.51
951.16	4280.17
951.465	4278.81
951.77	4255.54
952.075	4211.7
952.38	4216.67
952.685	4224.8
952.99	4119.72
953.294	4139.38
953.599	4111.59
953.904	4085.6
954.209	4082.44
954.513	4058.71
954.818	4043.11
955.122	4052.38
955.426	3991.59
955.731	4042.66
956.035	3958.6
956.339	3958.6
956.643	3944.36
956.948	3957.69
957.252	3902.1
957.556	3934.64
957.86	3891.25
958.163	3846.51
958.467	3820.75
958.771	3821.65
959.075	3811.26
959.378	3808.32
959.682	3803.57
959.985	3740.07
960.289	3762.9
960.592	3680.19
960.896	3669.56
961.199	3719.73
961.502	3664.59
961.805	3634.99
962.108	3649
962.411	3650.58
962.714	3611.03
963.017	3605.39
963.32	3600.64
963.623	3606.74
963.926	3600.41
964.228	3575.78
964.531	3563.8
964.833	3558.38
965.136	3527.65
965.438	3492.39
965.741	3445.39
966.043	3487.65
966.345	3442.68
966.648	3457.37
966.95	3440.19
967.252	3405.16
967.554	3403.81
967.856	3361.1
968.158	3354.77
968.46	3363.36
968.761	3346.64
969.063	3340.99
969.365	3279.52
969.666	3312.74
969.968	3257.15
970.269	3265.28
970.571	3211.72
970.872	3246.52
971.174	3218.05
971.475	3185.51
971.776	3193.42
972.077	3163.82
972.378	3165.17
972.679	3118.39
972.98	3111.84
973.281	3099.41
973.582	3094.21
973.883	3070.26
974.183	3065.06
974.484	3030.94
974.785	3033.88
975.085	3057.83
975.386	2977.15
975.686	3004.5
975.986	2973.31
976.287	2989.36
976.587	2978.28
976.887	2999.53
977.187	2923.6
977.487	2909.58
977.787	2871.17
978.087	2920.66
978.387	2870.72
978.687	2828.91
978.987	2841.56
979.286	2857.83
979.586	2806.31
979.885	2825.97
980.185	2789.36
980.484	2808.57
980.784	2804.5
981.083	2769.25
981.382	2776.25
981.682	2755.24
981.981	2725.86
982.28	2727.22
982.579	2759.76
982.878	2714.11
983.177	2703.71
983.475	2656.26
983.774	2657.39
984.073	2621.46
984.372	2643.15
984.67	2646.09
984.969	2592.98
985.267	2619.42
985.566	2621
985.864	2585.07
986.162	2570.84
986.461	2551.63
986.759	2553.44
987.057	2517.5
987.355	2533.1
987.653	2503.72
987.951	2488.35
988.249	2501.69
988.547	2495.81
988.844	2477.51
989.142	2478.18
989.44	2469.6
989.737	2442.48
990.035	2415.36
990.332	2392.99
990.63	2388.69
990.927	2382.82
991.224	2399.99
991.521	2376.49
991.819	2388.02
992.116	2345.53
992.413	2343.72
992.71	2328.36
993.006	2309.83
993.303	2293.78
993.6	2357.06
993.897	2315.48
994.193	2300.56
994.49	2268.7
994.787	2278.64
995.083	2246.55
995.379	2243.16
995.676	2207
995.972	2223.73
996.268	2191.86
996.565	2191.64
996.861	2169.26
997.157	2172.65
997.453	2187.12
997.749	2160.23
998.044	2143.28
998.34	2124.07
998.636	2090.62
998.932	2096.05
999.227	2094.01
999.523	2068.7
999.818	2030.06
1000.114	2084.75
1000.409	2040.91
1000.704	2030.29
1001	2008.37
1001.295	2043.17
1001.59	1999.33
1001.885	1992.09
1002.18	1985.77
1002.475	1983.96
1002.77	1975.37
1003.065	1939.44
1003.359	1979.44
1003.654	1904.41
1003.949	1934.02
1004.243	1909.61
1004.538	1948.03
1004.832	1903.06
1005.127	1882.49
1005.421	1896.73
1005.715	1889.05
1006.009	1856.5
1006.304	1874.36
1006.598	1821.7
1006.892	1815.83
1007.186	1802.27
1007.48	1843.62
1007.773	1802.95
1008.067	1792.33
1008.361	1754.59
1008.655	1745.1
1008.948	1727.47
1009.242	1779.44
1009.535	1748.49
1009.829	1735.6
1010.122	1729.73
1010.415	1723.4
1010.708	1704.19
1011.001	1701.93
1011.295	1666.68
1011.588	1663.29
1011.881	1637.75
1012.173	1625.32
1012.466	1629.17
1012.759	1644.08
1013.052	1643.86
1013.344	1625.32
1013.637	1597.08
1013.93	1586.68
1014.222	1588.94
1014.514	1562.5
1014.807	1570.64
1015.099	1569.73
1015.391	1527.02
1015.683	1518.21
1015.976	1535.16
1016.268	1556.63
1016.56	1514.59
1016.851	1515.27
1017.143	1483.63
1017.435	1462.39
1017.727	1456.52
1018.018	1443.41
1018.31	1434.6
1018.602	1442.05
1018.893	1437.98
1019.185	1423.3
1019.476	1421.49
1019.767	1410.87
1020.058	1398.89
1020.35	1387.82
1020.641	1352.56
1020.932	1355.28
1021.223	1370.64
1021.514	1361.6
1021.804	1352.56
1022.095	1344.2
1022.386	1313.24
1022.677	1310.53
1022.967	1319.34
1023.258	1304.88
1023.548	1294.71
1023.839	1285.67
1024.129	1257.42
1024.419	1264.66
1024.709	1255.39
1025	1243.87
1025.29	1270.08
1025.58	1214.94
1025.87	1226.46
1026.16	1212.23
1026.449	1205
1026.739	1221.95
1027.029	1187.82
1027.319	1187.6
1027.608	1170.2
1027.898	1164.32
1028.187	1175.17
1028.477	1164.09
1028.766	1128.61
1029.055	1122.74
1029.344	1144.43
1029.634	1110.31
1029.923	1119.12
1030.212	1097.2
1030.501	1094.27
1030.79	1124.32
1031.078	1099.69
1031.367	1080.71
1031.656	1066.24
1031.945	1090.42
1032.233	1102.63
1032.522	1059.46
1032.81	1054.04
1033.099	1041.39
1033.387	1037.77
1033.675	1026.24
1033.963	1029.41
1034.251	1026.02
1034.54	1027.15
1034.828	980.14
1035.116	1025.11
1035.403	1006.13
1035.691	984.66
1035.979	989.18
1036.267	995.28
1036.554	976.08
1036.842	962.97
1037.129	978.79
1037.417	939.01
1037.704	936.53
1037.992	941.73
1038.279	918.68
1038.566	942.63
1038.853	942.63
1039.14	942.63
