Data from plate_porcelain_FLMS001491_044.txt Node
Date: Tue Feb 07 11:19:22 GMT 2017
User: dcchb
Spectrometer: FLMS00149
Trigger mode: 0
Integration Time (sec): 2.000000E-2
Scans to average: 10
Electric dark correction enabled: true
Nonlinearity correction enabled: false
Boxcar width: 0
XAxis mode: Wavelengths
Number of Pixels in Spectrum: 2048
>>>>>Begin Spectral Data<<<<<
341.393	-14.91
341.776	-14.91
342.16	-14.91
342.543	-55.37
342.927	-85.87
343.31	-70.28
343.693	-62.82
344.077	-69.38
344.46	-76.16
344.843	-58.3
345.226	-26.89
345.61	-51.07
345.993	0.68
346.376	-16.5
346.759	7.68
347.142	42.71
347.525	37.06
347.908	55.82
348.291	83.84
348.674	103.27
349.057	100.34
349.44	133.33
349.823	135.14
350.206	173.1
350.588	245.87
350.971	261.01
351.354	240.45
351.737	275.25
352.119	308.47
352.502	304.85
352.884	320.9
353.267	312.76
353.65	349.82
354.032	340.1
354.414	353.21
354.797	353.44
355.179	366.54
355.562	375.13
355.944	368.13
356.326	376.71
356.709	374.23
357.091	373.55
357.473	397.96
357.855	378.07
358.238	392.53
358.62	387.33
359.002	400.44
359.384	383.94
359.766	382.36
360.148	392.76
360.53	408.58
360.912	382.59
361.294	382.81
361.676	406.09
362.057	389.37
362.439	392.98
362.821	388.01
363.203	389.59
363.584	371.74
363.966	394.34
364.348	394.34
364.729	398.86
365.111	402.7
365.493	369.26
365.874	395.92
366.256	402.48
366.637	385.07
367.019	397.05
367.4	396.6
367.781	379.65
368.163	401.8
368.544	397.28
368.925	397.05
369.306	420.55
369.688	391.4
370.069	401.57
370.45	406.32
370.831	410.61
371.212	420.33
371.593	411.06
371.974	412.64
372.355	410.84
372.736	414.23
373.117	409.93
373.498	411.06
373.879	430.5
374.26	403.83
374.641	421.46
375.021	421.23
375.402	427.33
375.783	437.5
376.163	453.32
376.544	463.49
376.925	455.36
377.305	461.68
377.686	467.11
378.066	467.33
378.447	452.42
378.827	470.27
379.208	473.89
379.588	494.22
379.968	486.99
380.349	460.78
380.729	485.86
381.109	497.16
381.489	504.39
381.87	518.63
382.25	523.38
382.63	519.99
383.01	530.16
383.39	533.55
383.77	531.96
384.15	507.33
384.53	539.65
384.91	563.6
385.29	534.45
385.67	559.31
386.049	559.99
386.429	561.57
386.809	581
387.189	591.62
387.568	592.3
387.948	578.74
388.328	602.02
388.707	605.63
389.087	623.03
389.466	627.1
389.846	640.21
390.225	642.92
390.605	665.75
390.984	644.73
391.363	650.6
391.743	663.71
392.122	688.57
392.501	691.28
392.881	689.47
393.26	709.59
393.639	709.59
394.018	726.08
394.397	742.58
394.776	723.6
395.155	716.82
395.534	726.76
395.913	744.39
396.292	767.44
396.671	776.48
397.05	783.48
397.429	761.11
397.808	772.18
398.186	781.67
398.565	791.39
398.944	815.57
399.323	818.96
399.701	824.39
400.08	836.81
400.458	863.71
400.837	868.23
401.215	864.61
401.594	863.93
401.972	852.18
402.351	866.42
402.729	886.76
403.107	885.85
403.486	905.96
403.864	922.01
404.242	912.07
404.62	951.84
404.999	959.97
405.377	966.53
405.755	956.36
406.133	1008.56
406.511	1018.73
406.889	1012.4
407.267	1044.04
407.645	1011.72
408.023	1066.64
408.401	1085.62
408.779	1090.14
409.156	1091.95
409.534	1112.97
409.912	1108.9
410.29	1163.59
410.667	1178.27
411.045	1165.85
411.422	1198.84
411.8	1216.92
412.178	1227.09
412.555	1214.88
412.933	1276.12
413.31	1281.77
413.687	1311.83
414.065	1317.03
414.442	1319.06
414.819	1350.25
415.197	1355.44
415.574	1394.09
415.951	1407.65
416.328	1434.54
416.705	1401.09
417.082	1442.45
417.46	1444.48
417.837	1433.86
418.214	1510.69
418.591	1491.71
418.967	1523.35
419.344	1534.87
419.721	1559.73
420.098	1556.8
420.475	1569.45
420.852	1546.4
421.228	1611.71
421.605	1650.58
421.982	1663.01
422.358	1666.17
422.735	1700.07
423.111	1708.43
423.488	1715.21
423.864	1741.88
424.241	1790.24
424.617	1766.73
424.994	1816.22
425.37	1860.74
425.746	1834.98
426.123	1866.39
426.499	1852.15
426.875	1909.78
427.251	1930.34
427.627	1979.38
428.003	2010.57
428.379	2013.05
428.756	2060.74
429.132	2079.27
429.507	2096.44
429.883	2139.83
430.259	2142.77
430.635	2176.44
431.011	2218.02
431.387	2262.31
431.763	2287.62
432.138	2315.19
432.514	2391.8
432.89	2382.31
433.265	2407.85
433.641	2446.04
434.016	2464.57
434.392	2492.14
434.767	2569.88
435.143	2562.87
435.518	2596.77
435.894	2608.07
436.269	2647.16
436.644	2728.06
437.02	2747.05
437.395	2729.42
437.77	2791.11
438.145	2832.02
438.52	2850.77
438.895	2913.82
439.271	2917.89
439.646	2958.34
440.021	2991.56
440.395	2994.72
440.77	2970.09
441.145	2995.85
441.52	3038.11
441.895	3119.47
442.27	3123.99
442.645	3163.53
443.019	3170.09
443.394	3192.46
443.769	3220.93
444.143	3217.77
444.518	3285.11
444.892	3293.7
445.267	3301.38
445.641	3330.08
446.016	3332.57
446.39	3382.06
446.764	3420.25
447.139	3444.66
447.513	3481.49
447.887	3519
448.262	3500.92
448.636	3531.21
449.01	3622.96
449.384	3619.11
449.758	3662.28
450.132	3700.92
450.506	3715.38
450.88	3688.72
451.254	3730.98
451.628	3814.36
452.002	3829.05
452.376	3914.7
452.75	3913.12
453.123	3994.92
453.497	4081.7
453.871	4046.67
454.244	4121.02
454.618	4200.34
454.992	4276.27
455.365	4238.98
455.739	4346.55
456.112	4420
456.486	4426.32
456.859	4465.42
457.232	4539.09
457.606	4562.37
457.979	4642.14
458.352	4755.81
458.725	4791.29
459.099	4815.92
459.472	4913.09
459.845	4996.03
460.218	5017.04
460.591	5143.14
460.964	5118.74
461.337	5283.48
461.71	5306.3
462.083	5438.28
462.456	5403.25
462.829	5466.75
463.201	5556.01
463.574	5615.22
463.947	5645.73
464.32	5762.56
464.692	5818.38
465.065	5891.37
465.438	5953.97
465.81	6067.19
466.183	6122.78
466.555	6247.29
466.928	6306.95
467.3	6342.66
467.672	6424.24
468.045	6590.11
468.417	6597.79
468.789	6651.58
469.161	6755.3
469.534	6888.63
469.906	7045.69
470.278	7098.12
470.65	7155.52
471.022	7336.76
471.394	7450.43
471.766	7511.67
472.138	7581.72
472.51	7750.3
472.882	7926.8
473.253	7941.71
473.625	8071.43
473.997	8296.05
474.369	8340.57
474.74	8425.99
475.112	8602.03
475.484	8758.41
475.855	8862.37
476.227	8978.97
476.598	9206.76
476.97	9314.56
477.341	9574.66
477.713	9681.78
478.084	9747.99
478.455	10040.64
478.827	10131.94
479.198	10397.92
479.569	10442.44
479.94	10776.21
480.311	10824.57
480.682	11093.27
481.053	11381.17
481.424	11476.99
481.795	11598.11
482.166	11796.75
482.537	12008.5
482.908	12223.63
483.279	12385.21
483.65	12584.75
484.021	12877.63
484.391	12969.6
484.762	13120.56
485.133	13260.89
485.503	13501.11
485.874	13778.17
486.244	13896.58
486.615	14144.26
486.985	14274.88
487.356	14575.44
487.726	14731.36
488.097	15076.89
488.467	15103.78
488.837	15428.29
489.207	15630.55
489.578	15835.29
489.948	16134.27
490.318	16256.07
490.688	16335.84
491.058	16612.44
491.428	16774.7
491.798	16955.49
492.168	17308.02
492.538	17417.85
492.908	17554.11
493.278	17901
493.648	17892.41
494.017	18236.81
494.387	18282.23
494.757	18581.66
495.126	18679.28
495.496	18755.21
495.866	18909.79
496.235	19212.83
496.605	19291.24
496.974	19341.41
497.344	19636.55
497.713	19803.1
498.082	19917.67
498.452	20165.8
498.821	20237.43
499.19	20309.07
499.559	20511.78
499.928	20691.43
500.298	20778.21
500.667	21054.81
501.036	21117.41
501.405	21207.13
501.774	21363.51
502.143	21570.73
502.512	21662.93
502.88	22015.24
503.249	22034.22
503.618	22027.67
503.987	22307.66
504.356	22372.97
504.724	22534.55
505.093	22601.89
505.462	22824.94
505.83	22930.7
506.199	23214.76
506.567	23510.79
506.936	23461.08
507.304	23826.27
507.672	23910.11
508.041	23922.31
508.409	24174.73
508.777	24296.54
509.145	24594.83
509.514	24565.23
509.882	24910.98
510.25	24920.93
510.618	25133.12
510.986	25279.79
511.354	25480.69
511.722	25600.68
512.09	25975.36
512.458	26032.99
512.826	26159.09
513.193	26395.24
513.561	26394.33
513.929	26870.03
514.297	26959.74
514.664	27123.13
515.032	27255.1
515.4	27672.49
515.767	27611.7
516.135	27873.84
516.502	27763.79
516.869	28351.8
517.237	28436.31
517.604	28469.76
517.972	28901.16
518.339	29049.86
518.706	29061.16
519.073	29250.3
519.44	29418.21
519.808	29842.15
520.175	29880.8
520.542	30142.03
520.909	30386.77
521.276	30449.82
521.643	30902.01
522.009	31082.57
522.376	31422.45
522.743	31377.93
523.11	31883
523.477	32201.19
523.843	32228.76
524.21	32593.04
524.577	32791
524.943	32954.39
525.31	33210.2
525.676	33603.18
526.043	33730.41
526.409	33907.58
526.776	34315.71
527.142	34374.46
527.508	34546.89
527.874	34887.22
528.241	35176.02
528.607	35235.01
528.973	35545.28
529.339	35663.24
529.705	36066.62
530.071	36219.39
530.437	36529.66
530.803	36667.96
531.169	36928.29
531.535	36766.04
531.901	37041.51
532.267	37232.92
532.632	37441.73
532.998	37771.89
533.364	37933.69
533.73	38052.78
534.095	38355.6
534.461	38460.01
534.826	38652.32
535.192	38970.27
535.557	39191.96
535.923	39041.46
536.288	39318.06
536.653	39534.55
537.019	39510.37
537.384	39777.03
537.749	39726.41
538.114	39893.87
538.479	39968.67
538.845	40358.03
539.21	40225.61
539.575	40456.34
539.94	40686.16
540.305	40825.14
540.67	40828.76
541.034	41169.09
541.399	41262.87
541.764	41410.44
542.129	41413.37
542.494	41504.22
542.858	41868.96
543.223	41849.3
543.587	42022.17
543.952	42088.84
544.316	42365.67
544.681	42435.04
545.045	42584.42
545.41	42696.96
545.774	42804.52
546.138	42861.02
546.503	43083.16
546.867	43185.98
547.231	43471.85
547.595	43535.58
547.959	43762.92
548.324	43736.48
548.688	43851.95
549.052	43929.47
549.416	44148.22
549.779	44321.55
550.143	44280.64
550.507	44699.84
550.871	44662.1
551.235	44813.51
551.599	45232.71
551.962	45206.72
552.326	45298.02
552.689	45477.9
553.053	45476.54
553.417	45462.31
553.78	46110.65
554.143	45940.03
554.507	46189.75
554.87	46352.68
555.234	46722.61
555.597	46602.62
555.96	46689.62
556.323	47007.35
556.686	47081.7
557.05	47295.71
557.413	47497.51
557.776	47613.66
558.139	47707.22
558.502	47945.63
558.865	48016.14
559.228	48272.63
559.59	48459.29
559.953	48477.37
560.316	48982.21
560.679	48929.56
561.041	49129.56
561.404	49372.94
561.767	49486.16
562.129	49428.53
562.492	49844.79
562.854	49840.27
563.217	49867.39
563.579	50120.94
563.941	50324.33
564.304	50507.15
564.666	50714.15
565.028	50746.24
565.39	50887.48
565.753	51122.72
566.115	51123.4
566.477	51336.28
566.839	51334.92
567.201	51601.81
567.563	51625.54
567.925	51888.58
568.287	51856.72
568.648	52086.54
569.01	52118.86
569.372	52328.79
569.734	52294.44
570.095	52515.46
570.457	52712.29
570.819	52702.57
571.18	52655.34
571.542	52902.56
571.903	52975.78
572.265	53012.62
572.626	53116.57
572.987	53197.47
573.349	53352.5
573.71	53473.4
574.071	53561.76
574.432	53639.27
574.794	53872.71
575.155	53782.31
575.516	53779.83
575.877	53834.52
576.238	53881.07
576.599	54029.77
576.96	54086.04
577.32	54119.93
577.681	54137.79
578.042	54199.93
578.403	54276.31
578.763	54316.76
579.124	54367.61
579.485	54470.88
579.845	54590.43
580.206	54434.95
580.566	54602.63
580.927	54543.42
581.287	54648.51
581.648	54574.61
582.008	54705.91
582.368	54596.76
582.728	54716.08
583.089	54645.34
583.449	54682.4
583.809	54754.04
584.169	54852.12
584.529	54774.6
584.889	54862.51
585.249	54749.07
585.609	54702.29
585.969	54890.31
586.329	54805.79
586.688	54792.23
587.048	54794.49
587.408	54703.87
587.768	54788.84
588.127	54803.08
588.487	54703.42
588.846	55036.29
589.206	54763.98
589.565	54818.45
589.925	54926.24
590.284	54930.31
590.643	54955.39
591.003	54978.89
591.362	55009.85
591.721	54853.7
592.08	54941.15
592.44	55046.69
592.799	55107.7
593.158	55010.53
593.517	55059.8
593.876	55076.29
594.235	55032.45
594.593	55064.77
594.952	55180.47
595.311	55068.61
595.67	55161.26
596.029	55171.43
596.387	55182.73
596.746	55277.42
597.104	55116.97
597.463	55173.92
597.822	55221.37
598.18	55206.68
598.538	55223.86
598.897	55415.27
599.255	55206.68
599.613	55539.33
599.972	55297.76
600.33	55412.1
600.688	55345.89
601.046	55445.1
601.404	55548.82
601.762	55458.65
602.12	55647.12
602.478	55615.71
602.836	55630.4
603.194	55507.69
603.552	55609.16
603.91	55455.72
604.268	55678.76
604.625	55589.05
604.983	55727.12
605.341	55551.31
605.698	55750.4
606.056	55750.62
606.413	55806.22
606.771	55830.85
607.128	55897.74
607.485	55825.88
607.843	55847.57
608.2	55964.4
608.557	56027
608.914	55986.32
609.272	56107.68
609.629	56136.6
609.986	56212.31
610.343	56042.82
610.7	56272.42
611.057	56198.07
611.414	56171.4
611.771	56299.31
612.127	56382.47
612.484	56327.78
612.841	56340.89
613.198	56343.83
613.554	56379.08
613.911	56526.88
614.267	56411.17
614.624	56479.42
614.98	56550.15
615.337	56606.65
615.693	56562.13
616.05	56626.53
616.406	56708.57
616.762	56648.45
617.118	56588.79
617.475	56606.65
617.831	56661.56
618.187	56667.66
618.543	56751.28
618.899	56868.34
619.255	56852.97
619.611	56813.65
619.967	56840.99
620.323	56882.57
620.678	56810.26
621.034	56777.04
621.39	56830.82
621.746	56759.41
622.101	57080.99
622.457	56865.4
622.812	56824.04
623.168	56948.33
623.523	56894.32
623.879	56980.65
624.234	56812.29
624.589	56938.16
624.945	56937.03
625.3	56927.99
625.655	56913.31
626.01	56914.44
626.365	56985.17
626.72	56923.48
627.075	56892.97
627.43	56860.43
627.785	56793.31
628.14	56821.78
628.495	56901.78
628.85	56814.1
629.205	56706.53
629.559	56962.34
629.914	56774.78
630.269	56814.1
630.623	56746.08
630.978	56668.11
631.332	56718.06
631.687	56829.47
632.041	56735.23
632.396	56696.36
632.75	56535.24
633.104	56619.53
633.459	56462.24
633.813	56425.18
634.167	56489.59
634.521	56524.39
634.875	56522.58
635.229	56437.84
635.583	56318.07
635.937	56359.87
636.291	56269.93
636.645	56280.55
636.999	56199.65
637.352	56323.04
637.706	56125.08
638.06	56221.8
638.413	56156.04
638.767	56075.36
639.121	56191.74
639.474	55914.24
639.828	55931.41
640.181	55971.41
640.534	55961.92
640.888	55868.81
641.241	55807.8
641.594	55823.84
641.947	55947.23
642.301	55763.73
642.654	55797.18
643.007	55737.52
643.36	55720.34
643.713	55677.18
644.066	55737.07
644.419	55503.17
644.771	55384.53
645.124	55137.31
645.477	55103.18
645.83	54954.94
646.182	54774.83
646.535	54711.78
646.888	54675.4
647.24	54600.6
647.593	54776.19
647.945	54654.61
648.298	54481.96
648.65	54473.82
649.002	54282.87
649.355	54454.84
649.707	54410.55
650.059	54595.85
650.411	54903.87
650.763	54928.73
651.115	55153.35
651.467	55021.6
651.819	55013.69
652.171	54857.54
652.523	54890.99
652.875	54871.78
653.227	54687.38
653.578	54901.38
653.93	54806.24
654.282	54715.4
654.633	54585.91
654.985	54726.47
655.337	54721.05
655.688	54707.71
656.039	54770.31
656.391	54479.47
656.742	54631.11
657.094	54560.37
657.445	54723.08
657.796	54685.34
658.147	54553.82
658.498	54489.19
658.849	54565.12
659.2	54484.67
659.551	54451.9
659.902	54496.42
660.253	54457.78
660.604	54479.02
660.955	54348.18
661.306	54469.08
661.656	54276.09
662.007	54360.15
662.358	54293.71
662.708	54388.85
663.059	54255.07
663.409	54072.02
663.76	54312.7
664.11	54191.8
664.461	54299.36
664.811	54272.25
665.161	54225.47
665.511	54137.33
665.862	54256.43
666.212	54367.16
666.562	54247.61
666.912	54291.45
667.262	54246.94
667.612	54260.72
667.962	54248.74
668.312	54101.18
668.662	54267.5
669.011	54154.06
669.361	54129.2
669.711	54060.73
670.06	54023.89
670.41	54024.12
670.76	53875.87
671.109	53990.67
671.459	53904.8
671.808	53952.93
672.157	54056.88
672.507	53821.18
672.856	53794.52
673.205	53856.89
673.554	53908.64
673.904	53813.5
674.253	53930.33
674.602	53823.9
674.951	53452.15
675.3	53292.16
675.649	53807.62
675.998	53665.26
676.346	53665.03
676.695	53795.87
677.044	53538.48
677.393	53701.41
677.741	53698.02
678.09	53525.6
678.438	53519.5
678.787	53617.8
679.135	53549.33
679.484	53363.34
679.832	53478.14
680.181	53288.54
680.529	53376.9
680.877	53310.46
681.225	53159.05
681.573	53377.13
681.922	53150.47
682.27	53076.8
682.618	53087.19
682.966	53014.65
683.314	52971.26
683.661	52856.24
684.009	52808.55
684.357	52692.85
684.705	52659.63
685.053	52756.8
685.4	52819.18
685.748	52491.5
686.095	52542.57
686.443	52283.15
686.79	52276.37
687.138	52469.35
687.485	52404.5
687.832	52252.19
688.18	52310.04
688.527	52054.68
688.874	52072.08
689.221	51882.25
689.568	51884.74
689.915	51857.17
690.262	51790.05
690.609	51687.91
690.956	51551.86
691.303	51473.9
691.65	51363.17
691.997	51303.06
692.344	51208.6
692.69	51137.86
693.037	51160.01
693.383	50901.71
693.73	51100.58
694.077	50757.99
694.423	50875.95
694.769	50720.47
695.116	50630.31
695.462	50647.03
695.808	50451.33
696.155	50475.51
696.501	50341.5
696.847	50208.62
697.193	49837.33
697.539	50058.57
697.885	49802.98
698.231	49745.81
698.577	49837.56
698.923	49762.08
699.269	49401.86
699.614	49322.77
699.96	49131.82
700.306	49190.8
700.651	49235.09
700.997	48978.15
701.342	48935.89
701.688	48821.09
702.033	48644.14
702.379	48745.84
702.724	48456.35
703.069	48689.12
703.415	48205.96
703.76	48214.55
704.105	48209.35
704.45	48113.54
704.795	47802.58
705.14	47654.79
705.485	47698.86
705.83	47474.23
706.175	47619.54
706.52	47518.98
706.865	47352.43
707.209	47389.94
707.554	47151.08
707.899	47229.94
708.243	47095.71
708.588	46941.14
708.932	46713.8
709.277	46721.03
709.621	46709.28
709.966	46451.43
710.31	46594.93
710.654	46238.11
710.998	46312.68
711.342	46281.72
711.687	46185.23
712.031	45964.67
712.375	45925.8
712.719	45889.87
713.063	45758.57
713.407	45745.92
713.75	45592.47
714.094	45571.23
714.438	45514.96
714.782	45439.26
715.125	45162.2
715.469	45381.86
715.812	45128.76
716.156	44918.37
716.499	44831.82
716.843	44947.07
717.186	44637.92
717.53	44836.56
717.873	44796.56
718.216	44621.88
718.559	44729.67
718.902	44421.88
719.246	44558.83
719.589	44204.49
719.932	44051.95
720.275	44080.42
720.617	43951.84
720.96	43902.57
721.303	43878.62
721.646	44023.93
721.989	43710.94
722.331	43797.72
722.674	43700.09
723.016	43655.12
723.359	43508.91
723.701	43548.46
724.044	43336.26
724.386	43109.37
724.729	43336.04
725.071	43101.92
725.413	43079.09
725.755	42982.15
726.097	42955.03
726.439	42630.29
726.782	42699.67
727.124	42761.36
727.465	42639.56
727.807	42553.23
728.149	42540.8
728.491	42419.9
728.833	42461.48
729.175	42180.81
729.516	42219
729.858	42129.97
730.199	42211.09
730.541	42023.53
730.882	42063.07
731.224	42097.2
731.565	41789.41
731.906	41839.8
732.248	41875.96
732.589	41609.53
732.93	41540.15
733.271	41593.48
733.612	41577.21
733.953	41704.67
734.294	41420.38
734.635	41286.82
734.976	41448.63
735.317	41134.74
735.658	41150.1
735.999	41076.43
736.339	40981.52
736.68	41058.58
737.021	40908.98
737.361	40567.29
737.702	40849.1
738.042	40782.43
738.383	40643
738.723	40607.29
739.063	40430.12
739.404	40599.61
739.744	40379.28
740.084	40360.97
740.424	40408.88
740.764	40222.22
741.104	40481.42
741.444	40180.19
741.784	39987.65
742.124	40139.74
742.464	39979.29
742.804	39918.5
743.143	39844.6
743.483	39817.03
743.823	39767.09
744.162	39566.19
744.502	39674.21
744.841	39401.68
745.181	39628.11
745.52	39457.04
745.86	39453.2
746.199	39346.76
746.538	39341.56
746.877	39209.36
747.216	39158.07
747.556	38999.65
747.895	38982.93
748.234	38613.45
748.573	38774.35
748.911	38688.25
749.25	38679.21
749.589	38559.44
749.928	38518.54
750.267	38553.56
750.605	38385.43
750.944	38352.89
751.283	38084.42
751.621	38244.87
751.96	38103.86
752.298	37992.9
752.636	37977.31
752.975	37839.68
753.313	37564.21
753.651	37873.58
753.989	37584.77
754.327	37466.81
754.666	37332.13
755.004	37397.21
755.342	37363.54
755.679	37362.63
756.017	37236.31
756.355	37140.72
756.693	36989.54
757.031	37140.94
757.368	36879.26
757.706	36824.34
758.044	36728.98
758.381	36664.57
758.719	36519.27
759.056	36506.61
759.394	36314.98
759.731	36083.35
760.068	36027.53
760.405	36010.58
760.743	35771.94
761.08	35834.31
761.417	35605.84
761.754	35626.41
762.091	35652.85
762.428	35368.56
762.765	35197.49
763.102	35310.03
763.438	35086.08
763.775	34985.75
764.112	34862.13
764.449	34736.26
764.785	34627.11
765.122	34369.94
765.458	34346.44
765.795	34239.55
766.131	34321.81
766.467	34015.83
766.804	33938.77
767.14	33687.48
767.476	33590.53
767.812	33597.53
768.148	33703.52
768.485	33414.49
768.821	33250.43
769.157	33164.78
769.492	33124.78
769.828	33180.6
770.164	32818.57
770.5	32793.04
770.836	32772.92
771.171	32486.6
771.507	32395.53
771.842	32093.17
772.178	32159.38
772.513	32077.8
772.849	32073.51
773.184	32035.99
773.519	31931.59
773.855	31676.23
774.19	31482.79
774.525	31432.17
774.86	31413.86
775.195	31371.83
775.53	31162.34
775.865	31016.36
776.2	30791.96
776.535	30604.39
776.87	30622.02
777.205	30481.23
777.539	30475.58
777.874	30453.89
778.209	30166.89
778.543	30070.85
778.878	29989.95
779.212	29951.3
779.547	29641.25
779.881	29681.48
780.215	29559.67
780.55	29615.94
780.884	29414.59
781.218	29352
781.552	29284.65
781.886	29061.38
782.22	28914.72
782.554	28820.26
782.888	28754.5
783.222	28575.75
783.556	28396.09
783.889	28372.36
784.223	28361.06
784.557	28163.1
784.89	28148.41
785.224	28026.38
785.557	27870.23
785.891	27802.43
786.224	27599.95
786.558	27627.75
786.891	27301.2
787.224	27359.51
787.557	27311.15
787.891	27115.67
788.224	27164.26
788.557	27105.5
788.89	27050.14
789.223	26925.62
789.556	26741.67
789.888	26613.31
790.221	26654.21
790.554	26392.98
790.887	26348.46
791.219	26264.85
791.552	26109.14
791.884	26044.74
792.217	25962.48
792.549	25899.66
792.882	25809.49
793.214	25600.46
793.546	25669.61
793.879	25603.17
794.211	25315.49
794.543	25466.45
794.875	25344.19
795.207	25310.75
795.539	25193.91
795.871	24980.59
796.203	24998.66
796.535	24733.81
796.867	24750.54
797.198	24750.31
797.53	24716.41
797.862	24506.7
798.193	24599.13
798.525	24320.04
798.856	24331.11
799.188	24175.64
799.519	23939.71
799.85	23939.03
800.182	23965.25
800.513	24041.4
800.844	23825.81
801.175	23822.88
801.506	23792.59
801.837	23462.66
802.168	23549.66
802.499	23542.21
802.83	23428.54
803.161	23294.08
803.491	23283.68
803.822	23284.81
804.153	23173.63
804.483	22969.11
804.814	22997.14
805.145	22878.27
805.475	22866.52
805.805	22681.44
806.136	22794.2
806.466	22709.01
806.796	22702.91
807.126	22470.6
807.457	22454.78
807.787	22438.73
808.117	22350.37
808.447	22248.91
808.777	22344.5
809.107	22144.28
809.436	22095.01
809.766	22182.47
810.096	22047.1
810.426	21923.72
810.755	22004.85
811.085	21758.98
811.414	21791.74
811.744	21565.53
812.073	21656.61
812.403	21611.41
812.732	21379.78
813.061	21408.93
813.39	21363.05
813.719	21227.69
814.049	21426.56
814.378	21310.63
814.707	21065.43
815.036	21120.57
815.365	21009.17
815.693	20803.29
816.022	20887.81
816.351	20737.53
816.68	20692.56
817.008	20667.71
817.337	20560.82
817.665	20540.02
817.994	20567.59
818.322	20525.79
818.651	20490.31
818.979	20258.9
819.307	20423.64
819.636	20385
819.964	20129.19
820.292	20249.86
820.62	20166.48
820.948	20062.52
821.276	20208.28
821.604	20069.08
821.932	20186.59
822.259	20207.38
822.587	20134.61
822.915	20122.86
823.243	20178.45
823.57	20094.39
823.898	20164.44
824.225	19982.3
824.553	20017.55
824.88	19969.42
825.207	20054.84
825.535	20002.86
825.862	20108.4
826.189	20042.41
826.516	20025.69
826.843	20157.21
827.17	20234.5
827.497	20171.9
827.824	20081.51
828.151	20097.32
828.478	20036.99
828.805	20127.61
829.131	20023.65
829.458	19983.66
829.785	19855.3
830.111	19938.01
830.438	20056.87
830.764	20057.33
831.09	20011.68
831.417	19915.41
831.743	19912.7
832.069	20006.48
832.395	19824.79
832.722	19827.5
833.048	19855.52
833.374	19874.51
833.7	19781.4
834.026	19745.92
834.351	19777.56
834.677	19805.81
835.003	19820.27
835.329	19804.45
835.654	19719.03
835.98	19679.03
836.306	19660.05
836.631	19652.82
836.956	19617.34
837.282	19659.82
837.607	19543.89
837.932	19434.52
838.258	19619.82
838.583	19487.85
838.908	19362.65
839.233	19349.32
839.558	19308.64
839.883	19290.11
840.208	19187.74
840.533	19143
840.858	19186.84
841.182	19261.64
841.507	19125.6
841.832	18993.85
842.156	19100.29
842.481	19046.05
842.805	18952.27
843.13	18841.76
843.454	18815.55
843.778	18740.52
844.103	18840.86
844.427	18693.52
844.751	18704.59
845.075	18627.08
845.399	18597.25
845.723	18474.99
846.047	18524.71
846.371	18334.66
846.695	18274.1
847.019	18207.2
847.343	18134.44
847.666	17925.63
847.99	17880.43
848.313	17898.06
848.637	17813.99
848.96	17751.4
849.284	17682.7
849.607	17602.7
849.931	17540.78
850.254	17442.25
850.577	17341.46
850.9	17307.79
851.223	17210.39
851.546	17125.43
851.869	17027.12
852.192	17157.97
852.515	16980.34
852.838	16903.06
853.161	16900.57
853.483	16789.16
853.806	16746.9
854.129	16736.06
854.451	16681.14
854.774	16550.53
855.096	16574.93
855.419	16426.69
855.741	16439.34
856.063	16320.25
856.385	16208.61
856.708	16162.51
857.03	16062.85
857.352	16089.97
857.674	16013.59
857.996	16006.58
858.318	15920.03
858.64	15915.97
858.961	15841.39
859.283	15756.42
859.605	15657.44
859.926	15753.94
860.248	15752.58
860.57	15680.04
860.891	15769.3
861.212	15542.64
861.534	15589.19
861.855	15438.46
862.176	15530.21
862.498	15508.74
862.819	15515.98
863.14	15505.81
863.461	15352.59
863.782	15336.77
864.103	15325.92
864.424	15283.44
864.745	15292.48
865.065	15202.09
865.386	15174.74
865.707	15167.96
866.027	15205.7
866.348	15200.96
866.668	15139.49
866.989	15036.67
867.309	14988.31
867.63	15018.81
867.95	15050.45
868.27	14832.83
868.59	14875.99
868.91	14892.72
869.23	14831.93
869.55	14825.82
869.87	14918.25
870.19	14867.86
870.51	14859.95
870.83	14788.99
871.15	14671.7
871.469	14654.08
871.789	14655.89
872.109	14581.76
872.428	14546.74
872.748	14627.19
873.067	14576.34
873.386	14519.84
873.706	14547.41
874.025	14397.36
874.344	14396.23
874.663	14527.53
874.982	14367.31
875.301	14395.1
875.62	14280.75
875.939	14307.87
876.258	14306.97
876.577	14278.04
876.896	14247.08
877.214	14238.95
877.533	14226.74
877.852	14189.91
878.17	14198.95
878.489	14244.37
878.807	14142.23
879.125	14085.05
879.444	14105.62
879.762	14074.43
880.08	13999.63
880.398	14007.09
880.716	14007.54
881.034	13916.92
881.352	13950.59
881.67	13912.4
881.988	13899.97
882.306	13865.62
882.624	13795.34
882.941	13767.55
883.259	13687.32
883.577	13671.05
883.894	13613.88
884.212	13571.39
884.529	13577.27
884.846	13507.22
885.164	13582.24
885.481	13473.54
885.798	13506.31
886.115	13329.82
886.432	13386.31
886.75	13400.78
887.067	13331.63
887.383	13307.22
887.7	13323.49
888.017	13216.38
888.334	13274.68
888.651	13170.05
888.967	13078.75
889.284	13090.73
889.6	13026.55
889.917	13028.81
890.233	12971.18
890.55	12950.62
890.866	12939.32
891.182	12832.88
891.498	12775.48
891.815	12799.66
892.131	12672.21
892.447	12675.6
892.763	12646.9
893.079	12651.64
893.395	12598.54
893.71	12516.06
894.026	12566.9
894.342	12467.47
894.657	12384.31
894.973	12404.19
895.289	12380.24
895.604	12375.49
895.92	12209.17
896.235	12303.86
896.55	12219.57
896.865	12152.67
897.181	12172.11
897.496	12142.96
897.811	12073.35
898.126	12071.55
898.441	11920.36
898.756	11968.05
899.071	11848.05
899.386	11897.99
899.7	11757.43
900.015	11679.47
900.33	11651.45
900.644	11596.31
900.959	11662.74
901.273	11515.63
901.588	11461.62
901.902	11463.65
902.216	11379.14
902.531	11411.9
902.845	11414.62
903.159	11278.8
903.473	11206.94
903.787	11177.56
904.101	10987.96
904.415	11137.56
904.729	11097.34
905.042	11020.05
905.356	11011.46
905.67	11002.2
905.984	10971.69
906.297	10995.19
906.611	10855.31
906.924	10917.23
907.237	10770.56
907.551	10754.29
907.864	10677.23
908.177	10675.2
908.491	10674.52
908.804	10628.2
909.117	10516.33
909.43	10488.76
909.743	10380.97
910.056	10373.06
910.368	10333.51
910.681	10293.29
910.994	10337.13
911.307	10190.24
911.619	10087.64
911.932	10198.6
912.244	10047.65
912.557	10092.62
912.869	10052.17
913.181	9960.87
913.494	9935.11
913.806	9839.06
914.118	9839.29
914.43	9821.44
914.742	9891.27
915.054	9756.13
915.366	9681.33
915.678	9658.28
915.99	9575.12
916.302	9571.73
916.613	9496.25
916.925	9541.44
917.236	9416.02
917.548	9407.66
917.859	9473.42
918.171	9301.9
918.482	9226.88
918.794	9250.6
919.105	9229.36
919.416	9117.95
919.727	9147.78
920.038	9044.28
920.349	9054
920.66	9014.23
920.971	9023.94
921.282	8953.66
921.593	8902.14
921.903	8764.52
922.214	8814.23
922.525	8801.8
922.835	8713.22
923.146	8727.23
923.456	8576.27
923.767	8612.88
924.077	8607.46
924.387	8621.69
924.697	8438.87
925.008	8501.25
925.318	8465.77
925.628	8378.54
925.938	8405.43
926.248	8291.76
926.558	8331.76
926.867	8235.94
927.177	8199.33
927.487	8169.95
927.796	8082.5
928.106	8119.11
928.416	8062.61
928.725	7989.39
929.034	8003.18
929.344	7949.17
929.653	7955.72
929.962	7896.06
930.271	7896.74
930.581	7786.91
930.89	7787.82
931.199	7752.79
931.508	7692.45
931.817	7706.01
932.125	7653.13
932.434	7596.41
932.743	7624.21
933.051	7549.63
933.36	7518.67
933.669	7418.56
933.977	7454.04
934.286	7400.03
934.594	7432.8
934.902	7290.43
935.21	7281.84
935.519	7246.82
935.827	7224.89
936.135	7203.88
936.443	7124.56
936.751	7132.92
937.059	7129.76
937.367	7113.71
937.674	7104.22
937.982	7053.15
938.29	6976.99
938.597	6979.7
938.905	6949.2
939.213	6924.79
939.52	6855.41
939.827	6892.93
940.135	6814.74
940.442	6785.81
940.749	6850.22
941.056	6754.85
941.363	6692.03
941.67	6717.56
941.977	6646.83
942.284	6625.14
942.591	6594.63
942.898	6573.61
943.205	6547.85
943.511	6502.2
943.818	6460.85
944.125	6417.01
944.431	6364.8
944.738	6388.76
945.044	6319.16
945.35	6378.82
945.657	6243.9
945.963	6287.52
946.269	6243.45
946.575	6197.13
946.881	6180.4
947.187	6161.19
947.493	6086.85
947.799	6057.47
948.105	6061.99
948.41	6006.4
948.716	6045.04
949.022	5920.75
949.327	5949.67
949.633	5923.91
949.938	5880.52
950.244	5888.43
950.549	5839.17
950.854	5813.41
951.16	5794.65
951.465	5793.52
951.77	5760.98
952.075	5732.28
952.38	5724.37
952.685	5721.88
952.99	5646.63
953.294	5590.14
953.599	5560.98
953.904	5518.5
954.209	5536.58
954.513	5519.85
954.818	5507.43
955.122	5509.46
955.426	5457.71
955.731	5425.17
956.035	5420.65
956.339	5397.82
956.643	5389.69
956.948	5282.8
957.252	5315.34
957.556	5307.66
957.86	5262.46
958.163	5264.49
958.467	5224.72
958.771	5242.8
959.075	5210.26
959.378	5185.17
959.682	5167.1
959.985	5103.59
960.289	5099.98
960.592	5079.87
960.896	5033.31
961.199	5049.81
961.502	4969.59
961.805	4964.39
962.108	4906.31
962.411	4926.42
962.714	4920.32
963.017	4895.92
963.32	4876.03
963.623	4819.76
963.926	4832.64
964.228	4852.08
964.531	4771.4
964.833	4755.36
965.136	4755.81
965.438	4751.74
965.741	4729.37
966.043	4716.49
966.345	4653.21
966.648	4663.83
966.95	4657.73
967.252	4607.34
967.554	4582.25
967.856	4573.44
968.158	4546.32
968.46	4547.45
968.761	4508.13
969.063	4494.57
969.365	4411.41
969.666	4472.65
969.968	4382.03
970.269	4337.29
970.571	4355.14
970.872	4339.77
971.174	4335.25
971.475	4318.98
971.776	4292.32
972.077	4264.07
972.378	4253.22
972.679	4226.78
972.98	4207.35
973.281	4182.49
973.582	4216.84
973.883	4161.02
974.183	4160.12
974.484	4109.95
974.785	4121.93
975.085	4101.14
975.386	4088.25
975.686	4087.8
975.986	4008.93
976.287	4045.32
976.587	3976.39
976.887	3973.23
977.187	3963.74
977.487	3965.32
977.787	3923.74
978.087	3889.16
978.387	3883.74
978.687	3897.98
978.987	3861.37
979.286	3780.69
979.586	3846
979.885	3835.61
980.185	3798.77
980.484	3763.29
980.784	3729.39
981.083	3775.04
981.382	3679.68
981.682	3701.37
981.981	3716.06
982.28	3655.27
982.579	3645.1
982.878	3625.67
983.177	3625.89
983.475	3546.12
983.774	3568.49
984.073	3585.67
984.372	3517.42
984.67	3540.7
984.969	3534.6
985.267	3477.87
985.566	3511.09
985.864	3482.85
986.162	3481.94
986.461	3434.49
986.759	3394.71
987.057	3396.52
987.355	3397.42
987.653	3356.97
987.951	3367.14
988.249	3335.51
988.547	3352
988.844	3282.17
989.142	3301.83
989.44	3242.85
989.737	3275.39
990.035	3262.29
990.332	3234.49
990.63	3241.04
990.927	3201.05
991.224	3193.36
991.521	3187.71
991.819	3171.22
992.116	3166.24
992.413	3101.16
992.71	3111.78
993.006	3101.61
993.303	3045.8
993.6	3060.71
993.897	3081.95
994.193	3037.89
994.49	3009.64
994.787	3005.12
995.083	2954.5
995.379	2933.26
995.676	2931.22
995.972	2909.98
996.268	2908.4
996.565	2900.04
996.861	2873.82
997.157	2891.68
997.453	2856.2
997.749	2831.56
998.044	2819.36
998.34	2791.34
998.636	2786.37
998.932	2822.3
999.227	2812.36
999.523	2728.52
999.818	2741.85
1000.114	2712.7
1000.409	2725.13
1000.704	2672.25
1001	2694.17
1001.295	2677.44
1001.59	2642.42
1001.885	2647.16
1002.18	2600.38
1002.475	2602.19
1002.77	2596.99
1003.065	2567.62
1003.359	2589.31
1003.654	2568.52
1003.949	2531.01
1004.243	2505.92
1004.538	2505.7
1004.832	2526.71
1005.127	2490.33
1005.421	2484.23
1005.715	2438.13
1006.009	2405.36
1006.304	2403.55
1006.598	2422.31
1006.892	2405.59
1007.186	2363.33
1007.48	2366.49
1007.773	2348.19
1008.067	2336.66
1008.361	2299.15
1008.655	2303.89
1008.948	2319.04
1009.242	2257.57
1009.535	2270
1009.829	2254.18
1010.122	2240.39
1010.415	2248.98
1010.708	2226.16
1011.001	2220.05
1011.295	2194.07
1011.588	2184.58
1011.881	2165.59
1012.173	2151.81
1012.466	2163.56
1012.759	2110.45
1013.052	2116.1
1013.344	2102.77
1013.637	2093.05
1013.93	2055.31
1014.222	2061.87
1014.514	2098.02
1014.807	2012.6
1015.099	2015.31
1015.391	2041.08
1015.683	2003.11
1015.976	1979.16
1016.268	1979.83
1016.56	1963.34
1016.851	1958.59
1017.143	1947.07
1017.435	1943.45
1017.727	1931.02
1018.018	1889.67
1018.31	1909.78
1018.602	1874.98
1018.893	1878.59
1019.185	1881.08
1019.476	1842.66
1019.767	1826.62
1020.058	1814.42
1020.35	1792.72
1020.641	1771.93
1020.932	1780.74
1021.223	1737.13
1021.514	1768.54
1021.804	1733.74
1022.095	1726.06
1022.386	1702.55
1022.677	1710.01
1022.967	1683.57
1023.258	1687.87
1023.548	1658.04
1023.839	1659.17
1024.129	1626.17
1024.419	1651.03
1024.709	1622.78
1025	1632.5
1025.29	1589.79
1025.58	1596.12
1025.87	1577.13
1026.16	1565.16
1026.449	1523.35
1026.739	1554.54
1027.029	1557.47
1027.319	1529.23
1027.608	1525.38
1027.898	1494.42
1028.187	1483.8
1028.477	1489.45
1028.766	1475.67
1029.055	1458.27
1029.344	1450.81
1029.634	1434.76
1029.923	1424.6
1030.212	1427.31
1030.501	1418.95
1030.79	1402.67
1031.078	1398.16
1031.367	1382.56
1031.656	1379.62
1031.945	1368.55
1032.233	1341.21
1032.522	1354.77
1032.81	1348.21
1033.099	1356.8
1033.387	1315.67
1033.675	1313.86
1033.963	1298.27
1034.251	1299.63
1034.54	1293.3
1034.828	1258.95
1035.116	1250.81
1035.403	1236.35
1035.691	1257.14
1035.979	1244.04
1036.267	1210.14
1036.554	1210.36
1036.842	1202.68
1037.129	1208.78
1037.417	1225.05
1037.704	1171.72
1037.992	1181.44
1038.279	1175.79
1038.566	1164.94
1038.853	1164.94
1039.14	1164.94
