Data from plate_ceramic_FLMS001491_058.txt Node
Date: Tue Feb 07 11:16:59 GMT 2017
User: dcchb
Spectrometer: FLMS00149
Trigger mode: 0
Integration Time (sec): 2.000000E-2
Scans to average: 10
Electric dark correction enabled: true
Nonlinearity correction enabled: false
Boxcar width: 0
XAxis mode: Wavelengths
Number of Pixels in Spectrum: 2048
>>>>>Begin Spectral Data<<<<<
341.393	-16.81
341.776	-16.81
342.16	-16.81
342.543	-40.99
342.927	-70.37
343.31	-61.55
343.693	-71.95
344.077	-61.78
344.46	-64.04
344.843	-55.9
345.226	-43.25
345.61	-32.85
345.993	-6.86
346.376	21.38
346.759	21.61
347.142	5.56
347.525	41.72
347.908	53.7
348.291	73.36
348.674	80.82
349.057	100.03
349.44	119.69
349.823	128.27
350.206	157.2
350.588	213.47
350.971	211.66
351.354	235.84
351.737	234.03
352.119	251.43
352.502	272.9
352.884	270.42
353.267	277.2
353.65	294.6
354.032	327.14
354.414	311.55
354.797	338.89
355.179	342.28
355.562	348.61
355.944	337.08
356.326	354.26
356.709	355.16
357.091	337.31
357.473	360.81
357.855	364.88
358.238	351.54
358.62	371.2
359.002	356.74
359.384	362.17
359.766	365.56
360.148	351.32
360.53	337.99
360.912	356.97
361.294	346.8
361.676	343.86
362.057	369.62
362.439	355.39
362.821	342.51
363.203	353.8
363.584	356.29
363.966	346.57
364.348	328.95
364.729	373.01
365.111	355.39
365.493	362.17
365.874	324.2
366.256	351.32
366.637	363.52
367.019	341.6
367.4	351.54
367.781	361.71
368.163	346.8
368.544	357.42
368.925	376.63
369.306	359.23
369.688	369.62
370.069	331.21
370.45	360.58
370.831	347.02
371.212	350.64
371.593	366.01
371.974	370.53
372.355	366.46
372.736	379.11
373.117	380.02
373.498	367.14
373.879	383.86
374.26	392.67
374.641	383.18
375.021	386.8
375.402	368.04
375.783	389.28
376.163	386.8
376.544	405.1
376.925	389.06
377.305	413.01
377.686	398.32
378.066	371.88
378.447	415.95
378.827	411.66
379.208	414.82
379.588	392.22
379.968	385.44
380.349	415.27
380.729	422.5
381.109	437.87
381.489	398.1
381.87	419.11
382.25	424.99
382.63	427.02
383.01	437.19
383.39	443.97
383.77	434.03
384.15	449.39
384.53	443.29
384.91	449.17
385.29	465.21
385.67	448.72
386.049	461.82
386.429	450.98
386.809	482.84
387.189	463.86
387.568	471.77
387.948	482.39
388.328	478.55
388.707	477.64
389.087	489.39
389.466	491.2
389.846	500.69
390.225	506.79
390.605	503.63
390.984	493.91
391.363	527.81
391.743	510.18
392.122	537.53
392.501	499.34
392.881	539.79
393.26	550.18
393.639	528.71
394.018	548.15
394.397	559.45
394.776	550.18
395.155	559.22
395.534	564.19
395.913	573.01
396.292	600.13
396.671	612.1
397.05	586.57
397.429	584.53
397.808	604.65
398.186	619.56
398.565	613.01
398.944	619.79
399.323	633.12
399.701	631.99
400.08	636.96
400.458	648.71
400.837	648.03
401.215	651.88
401.594	655.72
401.972	681.48
402.351	668.6
402.729	672.67
403.107	699.33
403.486	699.33
403.864	693.46
404.242	719.22
404.62	724.19
404.999	724.87
405.377	751.08
405.755	734.13
406.133	751.76
406.511	747.01
406.889	741.59
407.267	782.04
407.645	777.75
408.023	790.4
408.401	805.32
408.779	813.68
409.156	808.71
409.534	828.37
409.912	834.92
410.29	841.48
410.667	894.81
411.045	859.33
411.422	908.14
411.8	895.71
412.178	910.63
412.555	888.03
412.933	917.86
413.31	915.82
413.687	944.3
414.065	953.56
414.442	981.36
414.819	979.32
415.197	982.26
415.574	1006.89
415.951	1022.26
416.328	1021.81
416.705	1015.26
417.082	1046.44
417.46	998.53
417.837	1076.95
418.214	1075.14
418.591	1083.05
418.967	1122.15
419.344	1123.95
419.721	1117.85
420.098	1102.71
420.475	1135.48
420.852	1154.01
421.228	1175.48
421.605	1166.66
421.982	1164.86
422.358	1171.41
422.735	1240.56
423.111	1215.93
423.488	1259.32
423.864	1225.87
424.241	1250.96
424.617	1246.66
424.994	1282.37
425.37	1265.64
425.746	1310.84
426.123	1334.34
426.499	1311.75
426.875	1350.39
427.251	1389.26
427.627	1382.48
428.003	1408.24
428.379	1448.46
428.756	1450.5
429.132	1480.1
429.507	1474.68
429.883	1467.45
430.259	1538.86
430.635	1574.11
431.011	1559.87
431.387	1574.11
431.763	1591.51
432.138	1611.85
432.514	1666.54
432.89	1645.52
433.265	1678.52
433.641	1713.09
434.016	1729.14
434.392	1756.25
434.767	1789.7
435.143	1784.05
435.518	1824.27
435.894	1850.94
436.269	1852.97
436.644	1845.29
437.02	1895.23
437.395	1917.6
437.77	1926.64
438.145	1931.84
438.52	1983.14
438.895	2002.57
439.271	1996.02
439.646	2045.96
440.021	2021.33
440.395	2076.24
440.77	2071.05
441.145	2066.53
441.52	2121.22
441.895	2093.87
442.27	2141.78
442.645	2135
443.019	2182.23
443.394	2178.62
443.769	2217.94
444.143	2227.43
444.518	2238.73
444.892	2198.95
445.267	2258.84
445.641	2299.52
446.016	2312.17
446.39	2346.52
446.764	2325.28
447.139	2328.89
447.513	2383.58
447.887	2412.51
448.262	2428.1
448.636	2396.01
449.01	2427.65
449.384	2472.62
449.758	2454.31
450.132	2505.84
450.506	2533.41
450.88	2506.29
451.254	2560.53
451.628	2597.14
452.002	2615.21
452.376	2666.51
452.75	2675.55
453.123	2699.51
453.497	2761.2
453.871	2739.05
454.244	2798.71
454.618	2822.44
454.992	2868.99
455.365	2852.27
455.739	2944.02
456.112	2964.36
456.486	3011.14
456.859	2995.32
457.232	3087.97
457.606	3081.19
457.979	3158.7
458.352	3164.13
458.725	3219.04
459.099	3231.02
459.472	3302.88
459.845	3347.17
460.218	3397.79
460.591	3395.31
460.964	3429.66
461.337	3522.76
461.71	3540.84
462.083	3609.99
462.456	3578.35
462.829	3619.93
463.201	3715.75
463.574	3759.59
463.947	3775.64
464.32	3872.36
464.692	3856.31
465.065	3924.56
465.438	3965.69
465.81	3998
466.183	4081.84
466.555	4206.58
466.928	4172.46
467.3	4229.86
467.672	4292.23
468.045	4377.43
468.417	4416.07
468.789	4403.64
469.161	4493.58
469.534	4546.01
469.906	4678.21
470.278	4672.33
470.65	4747.81
471.022	4833.69
471.394	4964.76
471.766	4958.43
472.138	5058.54
472.51	5164.3
472.882	5215.15
473.253	5254.69
473.625	5324.75
473.997	5544.85
474.369	5550.96
474.74	5543.27
475.112	5682.48
475.484	5783.04
475.855	5905.97
476.227	5932.64
476.598	6164.27
476.97	6150.94
477.341	6289.02
477.713	6386.41
478.084	6450.14
478.455	6614.66
478.827	6672.96
479.198	6853.07
479.569	6901.88
479.94	7088.54
480.311	7119.05
480.682	7307.07
481.053	7502.99
481.424	7564.91
481.795	7589.77
482.166	7760.39
482.537	7843.55
482.908	8086.71
483.279	8110.21
483.65	8302.3
484.021	8413.03
484.391	8577.54
484.762	8630.87
485.133	8654.6
485.503	8846.46
485.874	9111.77
486.244	9153.57
486.615	9252.33
486.985	9431.53
487.356	9568.25
487.726	9702.48
488.097	9816.83
488.467	9915.36
488.837	10126.88
489.207	10244.62
489.578	10459.08
489.948	10490.26
490.318	10630.37
490.688	10674.66
491.058	10913.3
491.428	11004.37
491.798	11107.42
492.168	11329.79
492.538	11367.3
492.908	11484.81
493.278	11672.15
493.648	11694.07
494.017	11875.31
494.387	11991.46
494.757	12123.44
495.126	12205.02
495.496	12336.99
495.866	12369.31
496.235	12553.48
496.605	12640.49
496.974	12706.47
497.344	12894.27
497.713	12919.8
498.082	13046.35
498.452	13154.15
498.821	13350.98
499.19	13348.26
499.559	13408.6
499.928	13553.23
500.298	13663.51
500.667	13809.72
501.036	13771.3
501.405	13892.21
501.774	13997.29
502.143	14160.9
502.512	14214.46
502.88	14366.09
503.249	14388.92
503.618	14559.76
503.987	14689.7
504.356	14691.51
504.724	14866.19
505.093	14861.9
505.462	15009.69
505.83	15128.56
506.199	15210.36
506.567	15390.7
506.936	15395.67
507.304	15585.95
507.672	15671.82
508.041	15724.93
508.409	15768.31
508.777	15967.63
509.145	16140.73
509.514	16202.88
509.882	16354.74
510.25	16427.05
510.618	16540.05
510.986	16556.77
511.354	16837.66
511.722	16862.3
512.09	17042.18
512.458	17049.18
512.826	17212.57
513.193	17293.92
513.561	17437.2
513.929	17621.37
514.297	17803.74
514.664	17928.03
515.032	18028.82
515.4	18205.99
515.767	18234.92
516.135	18368.02
516.502	18280.34
516.869	18612.53
517.237	18715.36
517.604	18738.18
517.972	19029.25
518.339	19068.57
518.706	19211.16
519.073	19264.95
519.44	19464.94
519.808	19559.63
520.175	19797.36
520.542	19953.74
520.909	20136.79
521.276	20053.63
521.643	20340.4
522.009	20426.27
522.376	20692.25
522.743	20792.14
523.11	20974.96
523.477	21261.73
523.843	21373.36
524.21	21537.2
524.577	21635.28
524.943	21925.44
525.31	22048.38
525.676	22143.06
526.043	22306.67
526.409	22362.94
526.776	22696.95
527.142	22691.97
527.508	22974.23
527.874	23115.24
528.241	23279.3
528.607	23317.95
528.973	23598.84
529.339	23518.39
529.705	23864.37
530.071	23983.24
530.437	24196.34
530.803	24463.68
531.169	24511.81
531.535	24481.53
531.901	24585.94
532.267	24618.48
532.632	24902.99
532.998	25005.59
533.364	25286.03
533.73	25232.47
534.095	25481.51
534.461	25619.13
534.826	25743.65
535.192	25925.34
535.557	26037.42
535.923	26011.66
536.288	26214.59
536.653	26311.77
537.019	26363.06
537.384	26491.42
537.749	26644.19
538.114	26573.45
538.479	26766.22
538.845	26922.15
539.21	26889.38
539.575	27078.07
539.94	27228.8
540.305	27337.95
540.67	27433.09
541.034	27551.96
541.399	27584.73
541.764	27830.6
542.129	27808.9
542.494	27825.62
542.858	28023.59
543.223	28063.81
543.587	28250.25
543.952	28223.81
544.316	28388.77
544.681	28440.75
545.045	28600.97
545.41	28764.13
545.774	28825.15
546.138	28872.6
546.503	28968.19
546.867	28980.85
547.231	29287.28
547.595	29301.74
547.959	29426.71
548.324	29452.02
548.688	29559.14
549.052	29608.18
549.416	29785.8
549.779	29856.98
550.143	29977.66
550.507	30258.55
550.871	30272.57
551.235	30327.25
551.599	30511.43
551.962	30568.6
552.326	30503.52
552.689	30907.8
553.053	30777.64
553.417	30819.22
553.78	31291.97
554.143	31198.19
554.507	31452.42
554.87	31438.86
555.234	31716.82
555.597	31800.66
555.96	31829.81
556.323	32095.57
556.686	32106.42
557.05	32287.65
557.413	32459.85
557.776	32576.23
558.139	32781.2
558.502	32810.35
558.865	32957.01
559.228	33252.6
559.59	33278.36
559.953	33412.37
560.316	33560.61
560.679	33631.12
561.041	33798.12
561.404	34175.97
561.767	34419.8
562.129	34292.12
562.492	34554.94
562.854	34642.62
563.217	34806.46
563.579	34939.34
563.941	35165.54
564.304	35171.42
564.666	35462.26
565.028	35540.22
565.39	35652.76
565.753	35889.82
566.115	35964.62
566.477	36244.61
566.839	36371.16
567.201	36450.93
567.563	36425.85
567.925	36797.82
568.287	36719.63
568.648	36781.55
569.01	37098.83
569.372	37228.09
569.734	37268.09
570.095	37621.07
570.457	37731.58
570.819	37737.68
571.18	37750.79
571.542	38118.01
571.903	38186.93
572.265	38249.08
572.626	38325.24
572.987	38452.24
573.349	38493.37
573.71	38595.51
574.071	38797.99
574.432	38800.48
574.794	39033.47
575.155	39070.07
575.516	38855.39
575.877	39337.19
576.238	39346
576.599	39630.51
576.96	39507.13
577.32	39586.22
577.681	39687.23
578.042	39869.83
578.403	40011.07
578.763	39888.58
579.124	40013.33
579.485	40080.67
579.845	40240.21
580.206	39976.94
580.566	40174.45
580.927	40214.9
581.287	40396.37
581.648	40211.74
582.008	40455.8
582.368	40367.89
582.728	40508.68
583.089	40298.06
583.449	40391.4
583.809	40427.78
584.169	40630.49
584.529	40505.97
584.889	40747.32
585.249	40428
585.609	40493.99
585.969	40698.73
586.329	40660.99
586.688	40657.15
587.048	40693.76
587.408	40618.96
587.768	40717.04
588.127	40606.98
588.487	40518.4
588.846	40916.35
589.206	40707.09
589.565	40633.2
589.925	40822.8
590.284	40743.25
590.643	40891.95
591.003	40887.88
591.362	40916.81
591.721	40966.52
592.08	40914.77
592.44	41020.53
592.799	41060.08
593.158	41076.8
593.517	41081.09
593.876	41080.19
594.235	40983.47
594.593	41123.35
594.952	41178.49
595.311	41008.1
595.67	41139.4
596.029	41266.63
596.387	41307.98
596.746	41444.7
597.104	41226.63
597.463	41337.13
597.822	41405.38
598.18	41259.4
598.538	41340.98
598.897	41525.6
599.255	41231.37
599.613	41764.24
599.972	41630.69
600.33	41676.33
600.688	41439.28
601.046	41670.01
601.404	41762.43
601.762	41666.39
602.12	41699.84
602.478	41900.06
602.836	41902.32
603.194	41605.83
603.552	41820.06
603.91	41704.13
604.268	41793.39
604.625	41859.83
604.983	42128.75
605.341	41874.75
605.698	42170.56
606.056	42187.51
606.413	42224.57
606.771	42209.43
607.128	42258.69
607.485	42210.1
607.843	42216.88
608.2	42416.65
608.557	42433.6
608.914	42371.68
609.272	42596.08
609.629	42630.88
609.986	42656.87
610.343	42446.93
610.7	42825.46
611.057	42759.47
611.414	42788.39
611.771	42878.11
612.127	43071.33
612.484	42872.91
612.841	43057.09
613.198	42926.7
613.554	42927.83
613.911	43275.61
614.267	43091.66
614.624	43139.12
614.98	43321.94
615.337	43398.1
615.693	43353.58
616.05	43332.79
616.406	43544.76
616.762	43347.7
617.118	43348.83
617.475	43331.43
617.831	43476.74
618.187	43629.05
618.543	43553.8
618.899	43799.89
619.255	43707.01
619.611	43634.25
619.967	43819.78
620.323	43870.85
620.678	43737.52
621.034	43686
621.39	43738.2
621.746	43705.21
622.101	44075.59
622.457	43684.42
622.812	43895.48
623.168	43930.06
623.523	43892.77
623.879	44033.56
624.234	43880.57
624.589	43974.8
624.945	43996.72
625.3	44034.01
625.655	43951.08
626.01	43879.89
626.365	43969.83
626.72	43889.83
627.075	43953.34
627.43	43796.73
627.785	43681.03
628.14	43812.77
628.495	43918.08
628.85	43754.7
629.205	43627.92
629.559	43816.84
629.914	43513.8
630.269	43818.42
630.623	43571.65
630.978	43460.92
631.332	43648.03
631.687	43815.03
632.041	43527.13
632.396	43599.9
632.75	43328.27
633.104	43380.7
633.459	43285.78
633.813	43259.12
634.167	43234.94
634.521	43179.12
634.875	43287.59
635.229	43177.99
635.583	43011.21
635.937	42990.88
636.291	42844.66
636.645	42962.85
636.999	42869.75
637.352	43023.87
637.706	42683.99
638.06	42992.91
638.413	42688.74
638.767	42708.85
639.121	42763.99
639.474	42414.39
639.828	42566.71
640.181	42501.62
640.534	42528.97
640.888	42373.04
641.241	42071.13
641.594	42357.67
641.947	42384.56
642.301	42268.18
642.654	42264.11
643.007	42241.06
643.36	41986.83
643.713	42149.54
644.066	42181.63
644.419	41791.81
644.771	41652.15
645.124	41251.94
645.477	41249.45
645.83	40948.22
646.182	40708.68
646.535	40651.05
646.888	40892.17
647.24	40628.9
647.593	40898.5
647.945	40785.51
648.298	40632.75
648.65	40437.04
649.002	40330.83
649.355	40429.59
649.707	40377.84
650.059	40540.77
650.411	41079.97
650.763	40979.4
651.115	41419.62
651.467	41064.82
651.819	41177.82
652.171	41073.86
652.523	40960.42
652.875	41123.35
653.227	40848.11
653.578	41176.46
653.93	41118.83
654.282	40939.4
654.633	40782.57
654.985	40956.8
655.337	40819.41
655.688	40811.5
656.039	40845.62
656.391	40525.86
656.742	40675
657.094	40545.97
657.445	40710.71
657.796	40613.76
658.147	40582.35
658.498	40597.72
658.849	40565.85
659.2	40460.09
659.551	40466.2
659.902	40630.71
660.253	40448.57
660.604	40428.46
660.955	40352.53
661.306	40481.11
661.656	40467.55
662.007	40267.78
662.358	40195.69
662.708	40240.89
663.059	40169.48
663.409	39916.61
663.76	40147.56
664.11	40079.99
664.461	39998.41
664.811	40128.58
665.161	40110.95
665.511	40075.47
665.862	40190.72
666.212	40322.92
666.562	40280.89
666.912	40248.57
667.262	40146.2
667.612	40086.32
667.962	40219.65
668.312	40047.9
668.662	40169.48
669.011	40149.82
669.361	40020.33
669.711	39962.03
670.06	39987.34
670.41	39896.04
670.76	39776.72
671.109	39920.9
671.459	39773.11
671.808	39789.6
672.157	39919.77
672.507	39588.93
672.856	39546.22
673.205	39736.5
673.554	39746.89
673.904	39439.33
674.253	39717.51
674.602	39646.33
674.951	39182.16
675.3	38934.71
675.649	39531.08
675.998	39349.62
676.346	39459.67
676.695	39552.1
677.044	39286.57
677.393	39416.73
677.741	39430.97
678.09	39434.36
678.438	39189.85
678.787	39223.74
679.135	39199.79
679.484	39214.48
679.832	39334.25
680.181	38993.92
680.529	39010.19
680.877	38972.68
681.225	38877.31
681.573	39148.49
681.922	38858.55
682.27	38725.45
682.618	38783.08
682.966	38586.47
683.314	38642.97
683.661	38535.63
684.009	38376.08
684.357	38375.18
684.705	38328.62
685.053	38318
685.4	38141.74
685.748	38040.5
686.095	38040.95
686.443	37879.37
686.79	37688.87
687.138	37741.07
687.485	37850.45
687.832	37736.55
688.18	37875.98
688.527	37581.3
688.874	37562.32
689.221	37316.45
689.568	37251.14
689.915	37213.4
690.262	37293.62
690.609	37128.88
690.956	36953.75
691.303	36978.15
691.65	36774.77
691.997	36692.51
692.344	36530.48
692.69	36625.62
693.037	36695.67
693.383	36479.18
693.73	36496.58
694.077	36235.57
694.423	36276.93
694.769	36265.85
695.116	36160.32
695.462	36127.1
695.808	35906.99
696.155	35857.73
696.501	35518.76
696.847	35487.34
697.193	35318.53
697.539	35551.52
697.885	35275.15
698.231	35380.91
698.577	35201.48
698.923	35099.56
699.269	34794.25
699.614	34609.63
699.96	34603.53
700.306	34651.66
700.651	34549.06
700.997	34447.15
701.342	34343.19
701.688	34423.42
702.033	34280.37
702.379	34262.29
702.724	34043.54
703.069	34261.39
703.415	33716.54
703.76	33705.47
704.105	33685.36
704.45	33652.14
704.795	33417.34
705.14	33197.91
705.485	33230.45
705.83	33084.7
706.175	33300.06
706.52	33170.34
706.865	32994.75
707.209	33108.42
707.554	32869.33
707.899	33116.11
708.243	32808.09
708.588	32782.33
708.932	32524.48
709.277	32551.83
709.621	32441.1
709.966	32342.57
710.31	32386.18
710.654	32094.44
710.998	32217.15
711.342	32219.18
711.687	32044.04
712.031	31957.27
712.375	31765.63
712.719	31880.43
713.063	31848.57
713.407	31928.57
713.75	31651.96
714.094	31556.15
714.438	31486.54
714.782	31534
715.125	31383.95
715.469	31505.75
715.812	31277.96
716.156	31143.73
716.499	31095.14
716.843	30991.19
717.186	30846.11
717.53	31153.22
717.873	30997.74
718.216	30977.18
718.559	30795.72
718.902	30591.43
719.246	30816.05
719.589	30676.17
719.932	30438.66
720.275	30544.65
720.617	30533.58
720.96	30548.04
721.303	30504.65
721.646	30502.16
721.989	30257.65
722.331	30245.9
722.674	30141.5
723.016	30096.98
723.359	30020.14
723.701	29987.6
724.044	29965.46
724.386	29784.67
724.729	29870.09
725.071	29863.76
725.413	29728.17
725.755	29763.2
726.097	29662.86
726.439	29348.3
726.782	29497.67
727.124	29589.42
727.465	29418.8
727.807	29342.19
728.149	29338.13
728.491	29306.72
728.833	29341.74
729.175	29240.95
729.516	29097.23
729.858	29064.69
730.199	28986.27
730.541	29057.46
730.882	28921.87
731.224	29073.28
731.565	28800.97
731.906	28825.37
732.248	28856.11
732.589	28661.76
732.93	28490.01
733.271	28633.51
733.612	28704.02
733.953	28645.26
734.294	28421.99
734.635	28420.18
734.976	28502.22
735.317	28235.11
735.658	28374.76
735.999	28332.28
736.339	28286.18
736.68	28447.08
737.021	28138.61
737.361	28043.02
737.702	28222.68
738.042	28094.54
738.383	28043.92
738.723	28179.74
739.063	27978.16
739.404	28108.78
739.744	27825.85
740.084	27715.8
740.424	27799.86
740.764	27671.73
741.104	27769.35
741.444	27716.47
741.784	27511.96
742.124	27551.73
742.464	27466.99
742.804	27385.18
743.143	27391.06
743.483	27381.79
743.823	27276.03
744.162	27244.85
744.502	27191.74
744.841	27195.13
745.181	27184.96
745.52	27093.21
745.86	27020.22
746.199	27000.79
746.538	26994.69
746.877	27055.7
747.216	26971.86
747.556	26770.06
747.895	26705.43
748.234	26666.33
748.573	26665.65
748.911	26603.74
749.25	26731.19
749.589	26423.85
749.928	26475.6
750.267	26561.25
750.605	26456.39
750.944	26323.97
751.283	26331.2
751.621	26229.96
751.96	26136.4
752.298	26088.27
752.636	26261.15
752.975	25989.29
753.313	25930.53
753.651	26034.26
753.989	25770.99
754.327	25810.54
754.666	25603.76
755.004	25872.23
755.342	25636.76
755.679	25590.65
756.017	25433.37
756.355	25449.64
756.693	25426.82
757.031	25319.48
757.368	25085.58
757.706	25229.99
758.044	25139.59
758.381	25212.59
758.719	25173.94
759.056	25111.57
759.394	25031.12
759.731	24757
760.068	24806.49
760.405	24641.75
760.743	24574.64
761.08	24590
761.417	24438.59
761.754	24472.72
762.091	24469.1
762.428	24340.07
762.765	24165.83
763.102	24178.26
763.438	24172.39
763.775	23947.76
764.112	24000.87
764.449	23917.93
764.785	23810.14
765.122	23644.27
765.458	23512.52
765.795	23513.42
766.131	23528.34
766.467	23387.77
766.804	23143.04
767.14	23043.6
767.476	23324.95
767.812	23121.79
768.148	23138.97
768.485	22933.1
768.821	22749.83
769.157	22838.86
769.492	22756.15
769.828	22714.35
770.164	22491.53
770.5	22484.07
770.836	22522.26
771.171	22243.17
771.507	22237.3
771.842	22098.32
772.178	22214.25
772.513	22121.82
772.849	22015.61
773.184	21731.55
773.519	21855.39
773.855	21824.88
774.19	21635.28
774.525	21581.04
774.86	21428.05
775.195	21450.65
775.53	21379.69
775.865	21249.98
776.2	21156.42
776.535	20954.84
776.87	21025.58
777.205	20893.6
777.539	20805.92
777.874	20932.7
778.209	20582.88
778.543	20673.95
778.878	20534.97
779.212	20515.53
779.547	20322.54
779.881	20281.19
780.215	20221.3
780.55	20170.68
780.884	20118.03
781.218	20076.68
781.552	20008.43
781.886	19955.1
782.22	19863.35
782.554	19669.23
782.888	19602.34
783.222	19523.02
783.556	19569.12
783.889	19445.73
784.223	19374.1
784.557	19205.96
784.89	19261.1
785.224	19249.8
785.557	19085.74
785.891	18894.33
786.224	18956.7
786.558	18893.43
786.891	18823.15
787.224	18702.02
787.557	18725.3
787.891	18632.19
788.224	18516.49
788.557	18569.37
788.89	18524.63
789.223	18424.06
789.556	18300.45
789.888	18322.37
790.221	18262.71
790.554	18072.21
790.887	18010.52
791.219	18022.27
791.552	17957.18
791.884	17902.04
792.217	17716.74
792.549	17672.22
792.882	17544.76
793.214	17560.81
793.546	17642.16
793.879	17301.38
794.211	17321.72
794.543	17413.47
794.875	17327.82
795.207	17408.05
795.539	17253.47
795.871	17219.8
796.203	17140.26
796.535	17016.64
796.867	16914.72
797.198	16916.76
797.53	16931.9
797.862	16771
798.193	16805.8
798.525	16564.9
798.856	16718.35
799.188	16553.6
799.519	16493.04
799.85	16392.93
800.182	16376.21
800.513	16375.98
800.844	16306.61
801.175	16345.47
801.506	16310.45
801.837	16292.37
802.168	16202.65
802.499	16085.37
802.83	16028.42
803.161	15949.33
803.491	16021.41
803.822	15926.28
804.153	15963.79
804.483	15707.75
804.814	15649
805.145	15729.22
805.475	15658.49
805.805	15627.53
806.136	15617.81
806.466	15552.95
806.796	15594.08
807.126	15400.19
807.457	15476.8
807.787	15331.04
808.117	15286.29
808.447	15125.85
808.777	15207.2
809.107	15155.9
809.436	15165.17
809.766	15099.63
810.096	15128.56
810.426	15034.32
810.755	14932.63
811.085	15026.41
811.414	14911.16
811.744	14725.4
812.073	14732.86
812.403	14732.18
812.732	14655.8
813.061	14655.58
813.39	14497.84
813.719	14596.37
814.049	14635.91
814.378	14571.96
814.707	14544.84
815.036	14423.04
815.365	14347.11
815.693	14266.88
816.022	14367.45
816.351	14180.11
816.68	14103.95
817.008	14267.56
817.337	14013.78
817.665	14081.13
817.994	14091.07
818.322	14068.25
818.651	13965.88
818.979	13915.26
819.307	13930.62
819.636	14024.86
819.964	13806.11
820.292	13859.89
820.62	13814.92
820.948	13768.82
821.276	13777.41
821.604	13803.39
821.932	13855.82
822.259	13746.9
822.587	13788.25
822.915	13758.2
823.243	13768.59
823.57	13760.23
823.898	13783.73
824.225	13675.94
824.553	13698.99
824.88	13716.84
825.207	13789.16
825.535	13717.29
825.862	13722.94
826.189	13666.9
826.516	13824.86
826.843	13806.78
827.17	13778.76
827.497	13824.41
827.824	13724.53
828.151	13765.2
828.478	13732.66
828.805	13732.66
829.131	13616.96
829.458	13635.49
829.785	13640.46
830.111	13665.54
830.438	13666
830.764	13634.81
831.09	13719.55
831.417	13555.72
831.743	13711.87
832.069	13614.92
832.395	13547.36
832.722	13530.18
833.048	13612.89
833.374	13537.86
833.7	13548.03
834.026	13520.69
834.351	13653.12
834.677	13535.83
835.003	13481.14
835.329	13463.06
835.654	13434.14
835.98	13354.59
836.306	13459.45
836.631	13403.86
836.956	13485.66
837.282	13485.89
837.607	13361.6
837.932	13331.32
838.258	13428.49
838.583	13334.71
838.908	13229.17
839.233	13222.84
839.558	13161.38
839.883	13131.32
840.208	13095.39
840.533	13094.71
840.858	13230.98
841.182	13094.71
841.507	13138.55
841.832	13043.19
842.156	13040.25
842.481	12970.2
842.805	12969.97
843.13	12851.1
843.454	12806.81
843.778	12851.55
844.103	12882.29
844.427	12814.27
844.751	12731.11
845.075	12753.25
845.399	12757.09
845.723	12590.54
846.047	12646.81
846.371	12477.78
846.695	12492.92
847.019	12415.63
847.343	12311
847.666	12311.23
847.99	12302.64
848.313	12204.57
848.637	12143.78
848.96	12154.4
849.284	12132.25
849.607	12012.03
849.931	12026.72
850.254	11895.87
850.577	11837.57
850.9	11855.87
851.223	11741.98
851.546	11673.96
851.869	11614.75
852.192	11685.71
852.515	11574.53
852.838	11422.44
853.161	11500.4
853.483	11409.78
853.806	11386.73
854.129	11443.46
854.451	11329.79
854.774	11393.06
855.096	11279.17
855.419	11298.38
855.741	11271.26
856.063	11144.93
856.385	11126.4
856.708	11137.48
857.03	11068.78
857.352	11095.67
857.674	10982.68
857.996	10927.09
858.318	10864.49
858.64	10868.33
858.961	10822
859.283	10774.1
859.605	10685.74
859.926	10801.67
860.248	10653.19
860.57	10649.8
860.891	10739.07
861.212	10620.2
861.534	10603.48
861.855	10657.71
862.176	10633.08
862.498	10574.78
862.819	10625.4
863.14	10478.74
863.461	10505.63
863.782	10482.35
864.103	10415.23
864.424	10466.98
864.745	10491.62
865.065	10403.94
865.386	10350.15
865.707	10359.42
866.027	10406.2
866.348	10382.47
866.668	10330.49
866.989	10296.14
867.309	10281
867.63	10352.86
867.95	10327.55
868.27	10186.31
868.59	10203.71
868.91	10155.58
869.23	10105.64
869.55	10143.6
869.87	10212.75
870.19	10117.39
870.51	10155.13
870.83	10084.85
871.15	9985.87
871.469	9966.88
871.789	9984.96
872.109	10008.69
872.428	9944.29
872.748	9935.25
873.067	10004.62
873.386	9918.52
873.706	9949.94
874.025	9892.76
874.344	9854.8
874.663	9924.85
874.982	9858.87
875.301	9858.41
875.62	9808.47
875.939	9787.91
876.258	9750.85
876.577	9735.7
876.896	9762.14
877.214	9680.11
877.533	9721.47
877.852	9676.95
878.17	9606.44
878.489	9670.4
878.807	9704.97
879.125	9747.68
879.444	9583.84
879.762	9564.86
880.08	9631.3
880.398	9565.77
880.716	9561.92
881.034	9524.41
881.352	9573
881.67	9482.38
881.988	9556.73
882.306	9484.86
882.624	9498.2
882.941	9369.16
883.259	9330.29
883.577	9285.09
883.894	9356.51
884.212	9296.62
884.529	9314.25
884.846	9283.06
885.164	9247.58
885.481	9245.32
885.798	9248.94
886.115	9168.71
886.432	9114.48
886.75	9111.99
887.067	9214.81
887.383	9106.12
887.7	9114.03
888.017	9067.47
888.334	9131.88
888.651	9075.38
888.967	9048.49
889.284	9028.38
889.6	8997.64
889.917	8902.28
890.233	8899.57
890.55	8837.42
890.866	8822.28
891.182	8803.53
891.498	8808.05
891.815	8723.98
892.131	8658.44
892.447	8687.82
892.763	8666.13
893.079	8716.75
893.395	8597.43
893.71	8651.89
894.026	8672.23
894.342	8602.85
894.657	8471.33
894.973	8533.93
895.289	8553.36
895.604	8545.45
895.92	8472.01
896.235	8348.62
896.55	8315.18
896.865	8319.47
897.181	8290.32
897.496	8353.37
897.811	8282.18
898.126	8218.23
898.441	8133.94
898.756	8204.22
899.071	8209.87
899.386	8161.51
899.7	8017.33
900.015	8133.03
900.33	8040.83
900.644	8041.96
900.959	7994.51
901.273	7940.5
901.588	7912.25
901.902	7884.91
902.216	7837.68
902.531	7862.76
902.845	7777.34
903.159	7753.38
903.473	7761.29
903.787	7697.57
904.101	7611.01
904.415	7607.62
904.729	7596.33
905.042	7556.55
905.356	7601.75
905.67	7514.07
905.984	7493.28
906.297	7501.64
906.611	7472.94
906.924	7447.4
907.237	7402.66
907.551	7402.88
907.864	7358.14
908.177	7305.49
908.491	7377.35
908.804	7253.28
909.117	7205.38
909.43	7126.28
909.743	7145.49
910.056	7084.7
910.368	7104.14
910.681	7041.31
910.994	7035.66
911.307	7019.39
911.619	6945.27
911.932	6999.28
912.244	6897.81
912.557	6918.15
912.869	6909.11
913.181	6811.26
913.494	6802
913.806	6734.43
914.118	6810.13
914.43	6726.07
914.742	6769.23
915.054	6634.77
915.366	6655.79
915.678	6625.73
915.99	6606.52
916.302	6522.91
916.613	6530.59
916.925	6550.25
917.236	6555.68
917.548	6505.28
917.859	6490.37
918.171	6404.94
918.482	6385.51
918.794	6375.57
919.105	6393.87
919.416	6294.44
919.727	6322.69
920.038	6359.3
920.349	6190.03
920.66	6175.8
920.971	6199.3
921.282	6176.93
921.593	6140.77
921.903	6098.29
922.214	6045.63
922.525	6088.12
922.835	6048.8
923.146	5973.54
923.456	6037.04
923.767	5934.9
924.077	5955.24
924.387	5946.43
924.697	5899.2
925.008	5849.48
925.318	5825.75
925.628	5840.67
925.938	5762.7
926.248	5719.31
926.558	5681.12
926.867	5738.75
927.177	5657.62
927.487	5696.49
927.796	5629.15
928.106	5630.05
928.416	5559.77
928.725	5548.92
929.034	5500.11
929.344	5462.14
929.653	5439.09
929.962	5475.7
930.271	5404.52
930.581	5398.64
930.89	5370.4
931.199	5294.01
931.508	5351.64
931.817	5332.66
932.125	5323.17
932.434	5314.35
932.743	5227.35
933.051	5161.59
933.36	5218.31
933.669	5198.42
933.977	5150.74
934.286	5147.8
934.594	5095.15
934.902	5080.46
935.21	5091.98
935.519	5082.04
935.827	5026.9
936.135	5037.07
936.443	4978.77
936.751	4975.15
937.059	4955.04
937.367	4915.72
937.674	4902.39
937.982	4874.14
938.29	4852.67
938.597	4910.75
938.905	4826.23
939.213	4833.91
939.52	4796.17
939.827	4795.95
940.135	4790.52
940.442	4715.72
940.749	4697.64
941.056	4701.26
941.363	4667.14
941.67	4612.9
941.977	4584.88
942.284	4603.64
942.591	4618.32
942.898	4536.52
943.205	4529.74
943.511	4536.97
943.818	4518.44
944.125	4455.62
944.431	4413.36
944.738	4440.48
945.044	4464.66
945.35	4445.22
945.657	4407.93
945.963	4349.41
946.269	4366.58
946.575	4326.58
946.881	4336.98
947.187	4286.36
947.493	4256.75
947.799	4254.49
948.105	4261.72
948.41	4193.48
948.716	4220.6
949.022	4201.61
949.327	4176.53
949.633	4137.66
949.938	4154.16
950.244	4150.31
950.549	4084.78
950.854	4076.19
951.16	4056.98
951.465	4047.04
951.77	4047.27
952.075	4050.2
952.38	4012.01
952.685	4035.97
952.99	3958.68
953.294	3987.16
953.599	3889.3
953.904	3895.18
954.209	3890.21
954.513	3887.95
954.818	3841.85
955.122	3806.82
955.426	3800.95
955.731	3823.54
956.035	3771.34
956.339	3758.23
956.643	3754.84
956.948	3715.07
957.252	3719.59
957.556	3721.17
957.86	3697.67
958.163	3677.78
958.467	3652.7
958.771	3661.29
959.075	3625.36
959.378	3614.74
959.682	3633.49
959.985	3599.37
960.289	3577.9
960.592	3559.37
960.896	3553.04
961.199	3522.99
961.502	3504
961.805	3450.9
962.108	3461.29
962.411	3448.64
962.714	3424.68
963.017	3432.82
963.32	3449.32
963.623	3388.07
963.926	3376.32
964.228	3406.15
964.531	3380.39
964.833	3347.85
965.136	3319.83
965.438	3306.27
965.741	3292.94
966.043	3327.29
966.345	3232.6
966.648	3248.87
966.95	3268.3
967.252	3246.84
967.554	3237.57
967.856	3217.23
968.158	3174.3
968.46	3190.34
968.761	3177.01
969.063	3133.62
969.365	3139.27
969.666	3134.75
969.968	3102.43
970.269	3097.23
970.571	3085.03
970.872	3040.51
971.174	3033.06
971.475	3023.11
971.776	3006.84
972.077	3012.27
972.378	2995.77
972.679	2962.32
972.98	2971.59
973.281	2989.44
973.582	2956
973.883	2936.56
974.183	2906.96
974.484	2903.34
974.785	2910.35
975.085	2886.39
975.386	2859.5
975.686	2877.13
975.986	2835.55
976.287	2847.52
976.587	2818.82
976.887	2835.55
977.187	2799.84
977.487	2794.87
977.787	2786.28
978.087	2779.96
978.387	2758.03
978.687	2752.84
978.987	2725.49
979.286	2703.35
979.586	2694.08
979.885	2679.62
980.185	2694.08
980.484	2666.29
980.784	2648.66
981.083	2635.1
981.382	2606.4
981.682	2608.89
981.981	2635.78
982.28	2585.38
982.579	2570.47
982.878	2595.78
983.177	2567.08
983.475	2519.17
983.774	2565.5
984.073	2558.49
984.372	2517.82
984.67	2546.29
984.969	2467.87
985.267	2504.26
985.566	2485.05
985.864	2452.28
986.162	2442.34
986.461	2426.29
986.759	2435.78
987.057	2401.89
987.355	2433.52
987.653	2381.55
987.951	2388.33
988.249	2379.06
988.547	2357.14
988.844	2342.68
989.142	2357.37
989.44	2335.9
989.737	2344.94
990.035	2302.91
990.332	2297.71
990.63	2313.53
990.927	2303.13
991.224	2291.61
991.521	2263.13
991.819	2222.23
992.116	2236.92
992.413	2240.99
992.71	2218.16
993.006	2196.47
993.303	2224.26
993.6	2200.31
993.897	2167.54
994.193	2197.82
994.49	2168.45
994.787	2120.76
995.083	2117.37
995.379	2132.74
995.676	2106.53
995.972	2109.69
996.268	2073.99
996.565	2101.33
996.861	2068.34
997.157	2072.86
997.453	2039.86
997.749	2021.78
998.044	2048.45
998.34	2056.36
998.636	2032.86
998.932	1994.44
999.227	1997.15
999.523	1957.15
999.818	1960.54
1000.114	1978.39
1000.409	1952.86
1000.704	1950.37
1001	1915.57
1001.295	1943.59
1001.59	1913.99
1001.885	1885.06
1002.18	1901.11
1002.475	1888.68
1002.77	1878.28
1003.065	1859.53
1003.359	1858.62
1003.654	1835.12
1003.949	1820.43
1004.243	1823.6
1004.538	1826.31
1004.832	1808
1005.127	1788.57
1005.421	1756.03
1005.715	1796.03
1006.009	1775.91
1006.304	1754.9
1006.598	1745.18
1006.892	1749.25
1007.186	1720.32
1007.48	1711.06
1007.773	1707.67
1008.067	1689.14
1008.361	1712.64
1008.655	1657.27
1008.948	1667.22
1009.242	1689.81
1009.535	1641.45
1009.829	1641.68
1010.122	1616.82
1010.415	1656.14
1010.708	1623.6
1011.001	1596.94
1011.295	1615.01
1011.588	1607.33
1011.881	1560.78
1012.173	1584.28
1012.466	1555.13
1012.759	1554
1013.052	1556.26
1013.344	1530.72
1013.637	1547.67
1013.93	1492.53
1014.222	1514.9
1014.514	1501.8
1014.807	1493.44
1015.099	1507.9
1015.391	1464.96
1015.683	1460.44
1015.976	1464.74
1016.268	1472.64
1016.56	1428.8
1016.851	1426.09
1017.143	1458.86
1017.435	1444.4
1017.727	1391.97
1018.018	1421.35
1018.31	1391.97
1018.602	1412.76
1018.893	1384.06
1019.185	1362.59
1019.476	1358.52
1019.767	1342.25
1020.058	1325.53
1020.35	1333.21
1020.641	1335.47
1020.932	1320.78
1021.223	1310.62
1021.514	1288.24
1021.804	1282.37
1022.095	1280.33
1022.386	1268.36
1022.677	1270.84
1022.967	1268.58
1023.258	1240.33
1023.548	1248.92
1023.839	1210.5
1024.129	1210.96
1024.419	1223.84
1024.709	1203.95
1025	1185.87
1025.29	1201.92
1025.58	1182.26
1025.87	1186.78
1026.16	1155.37
1026.449	1187.23
1026.739	1147.91
1027.029	1160.11
1027.319	1129.6
1027.608	1116.27
1027.898	1136.38
1028.187	1117.17
1028.477	1094.58
1028.766	1106.33
1029.055	1078.98
1029.344	1098.64
1029.634	1082.82
1029.923	1069.04
1030.212	1088.47
1030.501	1054.35
1030.79	1049.15
1031.078	1040.57
1031.367	1053.67
1031.656	1041.92
1031.945	1022.71
1032.233	1040.34
1032.522	1032.66
1032.81	1021.81
1033.099	984.3
1033.387	972.32
1033.675	992.21
1033.963	960.34
1034.251	960.12
1034.54	978.19
1034.828	939.1
1035.116	955.14
1035.403	973.22
1035.691	955.37
1035.979	932.77
1036.267	938.2
1036.554	938.87
1036.842	907.46
1037.129	935.03
1037.417	922.38
1037.704	916.28
1037.992	908.82
1038.279	903.17
1038.566	904.98
1038.853	904.98
1039.14	904.98
