Data from plate_porcelain_FLMS001491_015.txt Node
Date: Tue Feb 07 11:18:52 GMT 2017
User: dcchb
Spectrometer: FLMS00149
Trigger mode: 0
Integration Time (sec): 2.000000E-2
Scans to average: 10
Electric dark correction enabled: true
Nonlinearity correction enabled: false
Boxcar width: 0
XAxis mode: Wavelengths
Number of Pixels in Spectrum: 2048
>>>>>Begin Spectral Data<<<<<
341.393	3.05
341.776	3.05
342.16	3.05
342.543	-64.97
342.927	-77.63
343.31	-62.26
343.693	-68.36
344.077	-74.46
344.46	-73.11
344.843	-29.72
345.226	-44.63
345.61	-22.94
345.993	-9.38
346.376	-1.47
346.759	5.08
347.142	18.64
347.525	56.38
347.908	48.93
348.291	46.21
348.674	81.47
349.057	129.6
349.44	131.41
349.823	106.78
350.206	169.6
350.588	192.65
350.971	239.2
351.354	259.09
351.737	259.54
352.119	269.94
352.502	274.23
352.884	333.89
353.267	296.6
353.65	350.61
354.032	330.73
354.414	348.35
354.797	334.12
355.179	352.87
355.562	369.14
355.944	367.33
356.326	379.99
356.709	390.39
357.091	362.59
357.473	358.97
357.855	359.43
358.238	403.49
358.62	384.74
359.002	389.26
359.384	392.19
359.766	399.42
360.148	371.85
360.53	371.85
360.912	369.82
361.294	373.44
361.676	380.44
362.057	379.54
362.439	365.98
362.821	381.57
363.203	382.48
363.584	384.96
363.966	387.22
364.348	380.22
364.729	372.31
365.111	393.1
365.493	390.61
365.874	381.12
366.256	393.77
366.637	382.48
367.019	398.97
367.4	375.47
367.781	383.61
368.163	393.77
368.544	389.26
368.925	386.32
369.306	388.8
369.688	380.67
370.069	393.1
370.45	378.86
370.831	383.38
371.212	403.27
371.593	396.03
371.974	403.94
372.355	406.88
372.736	399.42
373.117	413.89
373.498	414.79
373.879	393.55
374.26	384.74
374.641	389.71
375.021	403.94
375.402	425.86
375.783	429.93
376.163	410.05
376.544	441.68
376.925	432.19
377.305	455.02
377.686	456.82
378.066	454.56
378.447	461.8
378.827	446.88
379.208	461.34
379.588	466.54
379.968	466.77
380.349	466.99
380.729	489.37
381.109	494.56
381.489	469.93
381.87	476.94
382.25	482.59
382.63	486.88
383.01	501.79
383.39	502.92
383.77	496.15
384.15	520.55
384.53	525.3
384.91	526.88
385.29	540.44
385.67	528.01
386.049	532.08
386.429	517.61
386.809	538.63
387.189	520.1
387.568	558.52
387.948	533.43
388.328	570.72
388.707	552.41
389.087	557.84
389.466	598.97
389.846	594.9
390.225	615.69
390.605	588.12
390.984	599.42
391.363	606.42
391.743	626.76
392.122	629.25
392.501	642.36
392.881	633.77
393.26	616.37
393.639	643.03
394.018	658.85
394.397	664.95
394.776	673.99
395.155	686.65
395.534	673.99
395.913	685.29
396.292	682.58
396.671	711.28
397.05	707.89
397.429	698.63
397.808	732.75
398.186	700.43
398.565	742.92
398.944	740.21
399.323	744.27
399.701	755.8
400.08	772.07
400.458	782.69
400.837	801.45
401.215	790.15
401.594	771.17
401.972	796.02
402.351	813.2
402.729	824.5
403.107	839.86
403.486	834.44
403.864	822.01
404.242	841.45
404.62	864.95
404.999	864.72
405.377	868.11
405.755	879.19
406.133	913.08
406.511	897.72
406.889	939.98
407.267	948.79
407.645	958.51
408.023	961.9
408.401	958.73
408.779	985.17
409.156	1002.35
409.534	994.21
409.912	1016.13
410.29	1041.67
410.667	1063.36
411.045	1086.41
411.422	1078.73
411.8	1100.88
412.178	1082.57
412.555	1106.98
412.933	1128.22
413.31	1146.75
413.687	1160.99
414.065	1173.42
414.442	1179.97
414.819	1221.78
415.197	1217.71
415.574	1259.06
415.951	1231.72
416.328	1259.74
416.705	1257.26
417.082	1266.29
417.46	1271.94
417.837	1341.09
418.214	1322.56
418.591	1349.46
418.967	1345.84
419.344	1373.64
419.721	1367.99
420.098	1355.78
420.475	1399.85
420.852	1412.05
421.228	1413.86
421.605	1432.62
421.982	1463.13
422.358	1457.02
422.735	1510.13
423.111	1492.96
423.488	1521.65
423.864	1513.07
424.241	1589
424.617	1556.91
424.994	1593.52
425.37	1589.22
425.746	1613.86
426.123	1632.16
426.499	1645.72
426.875	1696.34
427.251	1691.37
427.627	1727.75
428.003	1767.07
428.379	1759.84
428.756	1805.04
429.132	1791.7
429.507	1851.36
429.883	1853.17
430.259	1923.45
430.635	1927.75
431.011	1895.2
431.387	1957.8
431.763	1995.77
432.138	2020.4
432.514	2053.39
432.89	2053.17
433.265	2090.68
433.641	2141.07
434.016	2163.45
434.392	2176.78
434.767	2216.78
435.143	2208.42
435.518	2267.85
435.894	2279.83
436.269	2297.91
436.644	2361.63
437.02	2369.99
437.395	2361.63
437.77	2398.69
438.145	2436.66
438.52	2477.79
438.895	2471.69
439.271	2511.46
439.646	2586.03
440.021	2537.9
440.395	2572.47
440.77	2537
441.145	2589.65
441.52	2680.72
441.895	2623.09
442.27	2718.91
442.645	2687.95
443.019	2718.23
443.394	2712.81
443.769	2787.84
444.143	2737.67
444.518	2828.74
444.892	2798.23
445.267	2785.58
445.641	2808.85
446.016	2847.72
446.39	2912.13
446.764	2917.78
447.139	2903.09
447.513	2975.4
447.887	2927.95
448.262	2982.63
448.636	3017.66
449.01	3029.19
449.384	3093.82
449.758	3120.93
450.132	3173.36
450.506	3148.73
450.88	3187.6
451.254	3198.67
451.628	3200.48
452.002	3286.58
452.376	3267.6
452.75	3308.5
453.123	3345.79
453.497	3439.34
453.871	3486.35
454.244	3531.32
454.618	3549.62
454.992	3592.11
455.365	3608.15
455.739	3652.22
456.112	3699.9
456.486	3751.65
456.859	3815.15
457.232	3856.06
457.606	3856.96
457.979	3903.29
458.352	3992.55
458.725	4040.68
459.099	4044.75
459.472	4176.5
459.845	4256.72
460.218	4228.02
460.591	4278.87
460.964	4298.98
461.337	4421.47
461.71	4443.16
462.083	4525.19
462.456	4519.77
462.829	4577.85
463.201	4636.15
463.574	4670.5
463.947	4761.34
464.32	4833.88
464.692	4857.84
465.065	4931.96
465.438	4967.67
465.81	5041.56
466.183	5102.13
466.555	5216.02
466.928	5272.74
467.3	5274.32
467.672	5357.49
468.045	5553.64
468.417	5566.97
468.789	5520.42
469.161	5618.95
469.534	5689.68
469.906	5863.91
470.278	5921.77
470.65	5967.41
471.022	6084.25
471.394	6176.22
471.766	6231.81
472.138	6286.28
472.51	6450.56
472.882	6549.55
473.253	6595.19
473.625	6695.76
473.997	6848.29
474.369	6912.02
474.74	6958.12
475.112	7123.54
475.484	7187.49
475.855	7398.11
476.227	7457.09
476.598	7655.05
476.97	7693.47
477.341	7887.36
477.713	8028.83
478.084	8007.81
478.455	8250.52
478.827	8356.5
479.198	8653.44
479.569	8567.8
479.94	8871.07
480.311	8942.93
480.682	9186.99
481.053	9313.09
481.424	9488.68
481.795	9582.23
482.166	9689.58
482.537	9809.8
482.908	10042.79
483.279	10161.43
483.65	10387.64
484.021	10625.82
484.391	10623.79
484.762	10765.03
485.133	10898.36
485.503	11106.94
485.874	11287.73
486.244	11369.31
486.615	11600.26
486.985	11777.66
487.356	11960.02
487.726	12064.2
488.097	12363.18
488.467	12403.4
488.837	12667.58
489.207	12713.68
489.578	13069.15
489.948	13120.22
490.318	13336.03
490.688	13379.2
491.058	13574.67
491.428	13815.57
491.798	13868.67
492.168	14185.73
492.538	14230.02
492.908	14345.27
493.278	14576.68
493.648	14640.86
494.017	14814.64
494.387	14975.76
494.757	15034.29
495.126	15254.18
495.496	15352.25
495.866	15493.94
496.235	15667.95
496.605	15775.29
496.974	15970.54
497.344	16038.56
497.713	16072.23
498.082	16275.39
498.452	16394.48
498.821	16526.01
499.19	16627.47
499.559	16774.14
499.928	16935.03
500.298	17060.23
500.667	17174.12
501.036	17161.7
501.405	17328.7
501.774	17463.38
502.143	17558.97
502.512	17604.4
502.88	17866.76
503.249	17900.21
503.618	18041.45
503.987	18112.41
504.356	18336.35
504.724	18452.74
505.093	18494.54
505.462	18591.94
505.83	18742.9
506.199	18958.71
506.567	19185.6
506.936	19080.97
507.304	19294.75
507.672	19366.16
508.041	19565.47
508.409	19682.31
508.777	19897.67
509.145	19986.03
509.514	20039.13
509.882	20292.23
510.25	20238
510.618	20458.11
510.986	20581.72
511.354	20749.17
511.722	21001.37
512.09	21200.46
512.458	21162.27
512.826	21355.26
513.193	21490.62
513.561	21624.4
513.929	21799.99
514.297	22036.82
514.664	22136.03
515.032	22275.01
515.4	22338.51
515.767	22550.48
516.135	22662.79
516.502	22621.44
516.869	23034.31
517.237	23162.44
517.604	23137.13
517.972	23492.6
518.339	23587.74
518.706	23784.57
519.073	23892.37
519.44	23867.73
519.808	24363.09
520.175	24312.02
520.542	24638.34
520.909	24743.19
521.276	24797.88
521.643	25171.43
522.009	25346.11
522.376	25530.74
522.743	25609.16
523.11	25920.56
523.477	26132.76
523.843	26293.88
524.21	26586.76
524.577	26826.75
524.943	26935
525.31	27086.86
525.676	27346.06
526.043	27545.83
526.409	27687.75
526.776	27927.97
527.142	28145.36
527.508	28208.18
527.874	28561.4
528.241	28633.48
528.607	28864.66
528.973	28952.35
529.339	28997.99
529.705	29295.61
530.071	29649.73
530.437	29780.12
530.803	30007.46
531.169	30107.57
531.535	30157.74
531.901	30277.06
532.267	30343.04
532.632	30651.96
532.998	30827.78
533.364	30938.06
533.73	31035.91
534.095	31314.54
534.461	31363.81
534.826	31641.77
535.192	31757.02
535.557	31943.68
535.923	31992.04
536.288	32129.66
536.653	32302.99
537.019	32268.87
537.384	32420.5
537.749	32612.59
538.114	32686.94
538.479	32716.54
538.845	32933.26
539.21	32879.47
539.575	33139.58
539.94	33386.81
540.305	33467.03
540.67	33349.74
541.034	33601.04
541.399	33741.6
541.764	33868.15
542.129	34013
542.494	34050.52
542.858	34288.02
543.223	34349.72
543.587	34525.98
543.952	34528.7
544.316	34666.32
544.681	34550.39
545.045	34862.93
545.41	35025.63
545.774	35204.39
546.138	35197.15
546.503	35398.28
546.867	35397.6
547.231	35660.42
547.595	35814.99
547.959	35794.88
548.324	36046.85
548.688	36061.76
549.052	36259.27
549.416	36328.2
549.779	36450.45
550.143	36495.42
550.507	36841.63
550.871	36903.78
551.235	36931.35
551.599	37313.71
551.962	37255.18
552.326	37370.43
552.689	37627.82
553.053	37520.03
553.417	37745.34
553.78	37982.62
554.143	37953.92
554.507	38269.84
554.87	38343.06
555.234	38609.49
555.597	38547.12
555.96	38667.34
556.323	38844.52
556.686	38990.95
557.05	39376.7
557.413	39473.88
557.776	39488.11
558.139	39866.18
558.502	39945.5
558.865	39913.87
559.228	40268.43
559.59	40431.14
559.953	40291.93
560.316	40942.77
560.679	40747.74
561.041	41118.35
561.404	41326.94
561.767	41620.49
562.129	41615.97
562.492	41950.2
562.854	41953.81
563.217	41963.3
563.579	42404.87
563.941	42521.48
564.304	42675.83
564.666	42832.21
565.028	42997.85
565.39	43104.52
565.753	43247.56
566.115	43348.35
566.477	43574.11
566.839	43695.46
567.201	44070.14
567.563	44059.52
567.925	44388.55
568.287	44329.57
568.648	44509.68
569.01	44699.05
569.372	44890.46
569.734	44892.72
570.095	45127.29
570.457	45332.48
570.819	45474.62
571.18	45373.38
571.542	45604.56
571.903	45653.38
572.265	45994.38
572.626	45926.14
572.987	46058.79
573.349	46303.08
573.71	46445.67
574.071	46490.64
574.432	46654.03
574.794	46855.15
575.155	46855.15
575.516	46801.82
575.877	46976.05
576.238	47085.2
576.599	47116.84
576.96	47143.05
577.32	47322.03
577.681	47397.74
578.042	47426.21
578.403	47573.33
578.763	47504.85
579.124	47686.09
579.485	47680.44
579.845	47820.78
580.206	47798.4
580.566	47821.68
580.927	47774.45
581.287	48008.57
581.648	47827.56
582.008	48078.85
582.368	48057.15
582.728	48108.9
583.089	47975.8
583.449	47976.48
583.809	48154.78
584.169	48251.73
584.529	48120.2
584.889	48500.08
585.249	48149.58
585.609	48214.44
585.969	48307.54
586.329	48207.88
586.688	48247.21
587.048	48374.21
587.408	48180.77
587.768	48291.5
588.127	48195.46
588.487	48121.79
588.846	48493.75
589.206	48160.88
589.565	48161.33
589.925	48371.27
590.284	48175.12
590.643	48333.76
591.003	48413.98
591.362	48496.92
591.721	48443.13
592.08	48461.66
592.44	48528.33
592.799	48537.82
593.158	48592.96
593.517	48502.34
593.876	48484.49
594.235	48485.39
594.593	48394.32
594.952	48598.61
595.311	48562.68
595.67	48595.67
596.029	48877.02
596.387	48745.05
596.746	48712.96
597.104	48742.79
597.463	48793.86
597.822	48805.38
598.18	48688.55
598.538	48716.12
598.897	48901.43
599.255	48741.66
599.613	49175.54
599.972	48910.01
600.33	49057.35
600.688	48874.31
601.046	48963.35
601.404	49107.07
601.762	49079.73
602.12	49230.23
602.478	49231.59
602.836	49194.75
603.194	49108.2
603.552	49191.59
603.91	48989.79
604.268	49204.24
604.625	49206.95
604.983	49520.84
605.341	49297.57
605.698	49564.01
606.056	49498.7
606.413	49455.31
606.771	49608.75
607.128	49627.73
607.485	49407.18
607.843	49475.65
608.2	49658.92
608.557	49824.79
608.914	49597.68
609.272	49822.76
609.629	49850.55
609.986	50005.13
610.343	49859.14
610.7	50122.64
611.057	50022.98
611.414	50069.76
611.771	50026.82
612.127	50150.21
612.484	50211.45
612.841	50242.63
613.198	50206.7
613.554	50149.53
613.911	50404.44
614.267	50456.87
614.624	50344.33
614.98	50418.67
615.337	50526.69
615.693	50485.57
616.05	50453.25
616.406	50631.32
616.762	50515.62
617.118	50470.2
617.475	50565.34
617.831	50648.72
618.187	50725.11
618.543	50757.42
618.899	50909.06
619.255	50812.11
619.611	50672
619.967	50913.58
620.323	50815.95
620.678	50706.12
621.034	50690.53
621.39	50760.13
621.746	50721.72
622.101	51092.55
622.457	50854.14
622.812	50697.99
623.168	51021.6
623.523	50926.68
623.879	51035.16
624.234	50785.67
624.589	50991.77
624.945	50890.07
625.3	50939.56
625.655	50960.58
626.01	50882.62
626.365	50957.19
626.72	50852.34
627.075	50861.6
627.43	50891.66
627.785	50793.58
628.14	50829.96
628.495	50922.62
628.85	50801.94
629.205	50653.7
629.559	50842.62
629.914	50656.41
630.269	50830.64
630.623	50551.55
630.978	50585.68
631.332	50759.91
631.687	50695.5
632.041	50559.46
632.396	50597.43
632.75	50397.21
633.104	50542.51
633.459	50456.41
633.813	50372.57
634.167	50341.16
634.521	50401.05
634.875	50350.88
635.229	50264.33
635.583	50140.49
635.937	50067.27
636.291	50104.11
636.645	50155.18
636.999	50057.33
637.352	50034.28
637.706	49855.3
638.06	49854.62
638.413	49857.11
638.767	49777.34
639.121	49814.4
639.474	49598.81
639.828	49637.9
640.181	49643.55
640.534	49689.43
640.888	49470.45
641.241	49416.44
641.594	49427.51
641.947	49501.18
642.301	49432.03
642.654	49390.23
643.007	49414.18
643.36	49301.87
643.713	49200.63
644.066	49400.4
644.419	49077.69
644.771	48763.8
645.124	48304.83
645.477	48337.83
645.83	48179.64
646.182	48021.22
646.535	47903.94
646.888	47949.81
647.24	47753.43
647.593	47938.74
647.945	47889.25
648.298	47611.52
648.65	47604.74
649.002	47509.37
649.355	47617.84
649.707	47505.53
650.059	47718.18
650.411	48013.31
650.763	48091.96
651.115	48380.54
651.467	48253.31
651.819	48300.31
652.171	48084.05
652.523	48111.84
652.875	48016.25
653.227	47876.59
653.578	48082.46
653.93	47938.74
654.282	47832.3
654.633	47758.86
654.985	47800.89
655.337	47884.28
655.688	47814.67
656.039	47884.73
656.391	47646.54
656.742	47685.19
657.094	47702.59
657.445	47710.04
657.796	47726.54
658.147	47658.75
658.498	47651.29
658.849	47760.21
659.2	47524.06
659.551	47564.29
659.902	47626.21
660.253	47499.66
660.604	47520.22
660.955	47330.17
661.306	47512.76
661.656	47424.85
662.007	47510.5
662.358	47281.81
662.708	47345.99
663.059	47256.95
663.409	47040.68
663.76	47386.44
664.11	47388.92
664.461	47496.72
664.811	47365.42
665.161	47274.35
665.511	47180.34
665.862	47240.23
666.212	47308.93
666.562	47311.86
666.912	47272.77
667.262	47206.56
667.612	47155.48
667.962	47301.69
668.312	47074.13
668.662	47248.81
669.011	47151.64
669.361	47086.11
669.711	47132.66
670.06	46946
670.41	46934.92
670.76	46818.99
671.109	47038.42
671.459	46907.35
671.808	46862.38
672.157	46865.55
672.507	46527.25
672.856	46632.11
673.205	46706.91
673.554	46853.34
673.904	46597.31
674.253	46735.38
674.602	46604.76
674.951	46110.09
675.3	45967.04
675.649	46585.33
675.998	46503.52
676.346	46478.89
676.695	46729.96
677.044	46223.98
677.393	46550.53
677.741	46454.71
678.09	46341.49
678.438	46288.84
678.787	46285
679.135	46290.2
679.484	46065.57
679.832	46196.86
680.181	45927.27
680.529	46017.89
680.877	45972.92
681.225	45907.61
681.573	46099.92
681.922	45733.37
682.27	45699.93
682.618	45619.48
682.966	45568.86
683.314	45644.34
683.661	45472.82
684.009	45235.99
684.357	45141.3
684.705	45101.75
685.053	45259.94
685.4	45129.55
685.748	44892.27
686.095	44987.63
686.443	44715.32
686.79	44741.54
687.138	44671.25
687.485	44743.12
687.832	44507.19
688.18	44681.42
688.527	44299.06
688.874	44389.45
689.221	44297.71
689.568	44156.01
689.915	44011.61
690.262	44132.51
690.609	43974.78
690.956	43737.49
691.303	43608.91
691.65	43461.57
691.997	43490.27
692.344	43233.1
692.69	43184.74
693.037	43182.93
693.383	42814.81
693.73	43011.86
694.077	42757.41
694.423	42864.97
694.769	42734.13
695.116	42662.04
695.462	42444.65
695.808	42304.09
696.155	42419.79
696.501	42015.28
696.847	42052.57
697.193	41905.45
697.539	41929.18
697.885	41667.72
698.231	41658.9
698.577	41614.39
698.923	41545.24
699.269	41309.76
699.614	40966.04
699.96	41148.86
700.306	40973.95
700.651	40939.38
700.997	40956.32
701.342	40799.94
701.688	40731.7
702.033	40604.02
702.379	40544.58
702.724	40398.82
703.069	40365.38
703.415	39979.63
703.76	40012.85
704.105	39964.49
704.45	39938.95
704.795	39670.71
705.14	39635.23
705.485	39569.24
705.83	39397.04
706.175	39371.28
706.52	39375.12
706.865	39244.73
707.209	39129.93
707.554	39008.58
707.899	39171.29
708.243	38954.79
708.588	38872.99
708.932	38514.13
709.277	38633.22
709.621	38536.95
709.966	38324.3
710.31	38413.11
710.654	38170.63
710.998	38135.83
711.342	37964.54
711.687	37926.57
712.031	37781.49
712.375	37779.68
712.719	37736.97
713.063	37663.53
713.407	37723.41
713.75	37464.66
714.094	37451.33
714.438	37293.82
714.782	37343.54
715.125	37262.64
715.469	37358.23
715.812	36959.14
716.156	36851.8
716.499	36879.37
716.843	36965.02
717.186	36728.64
717.53	36994.62
717.873	36737.45
718.216	36618.81
718.559	36439.15
718.902	36368.87
719.246	36344.69
719.589	36183.79
719.932	36112.84
720.275	35986.96
720.617	36009.34
720.96	36040.3
721.303	35981.09
721.646	35750.59
721.989	35671.04
722.331	35800.08
722.674	35608.22
723.016	35806.63
723.359	35583.81
723.701	35583.58
724.044	35339.75
724.386	35256.81
724.729	35262.01
725.071	35248.68
725.413	35191.96
725.755	35041.23
726.097	35104.95
726.439	34850.72
726.782	34899.53
727.124	35018.18
727.465	34733.21
727.807	34859.76
728.149	34676.49
728.491	34554.68
728.833	34630.39
729.175	34577.28
729.516	34406.21
729.858	34390.17
730.199	34427
730.541	34375.03
730.882	34227.46
731.224	34368.93
731.565	34140.46
731.906	34152.44
732.248	34226.11
732.589	33915.15
732.93	33832.9
733.271	33879.9
733.612	33922.16
733.953	33946.57
734.294	33630.87
734.635	33622.51
734.976	33648.27
735.317	33480.14
735.658	33495.05
735.999	33433.58
736.339	33379.57
736.68	33348.39
737.021	33288.28
737.361	33127.83
737.702	33311.78
738.042	33307.49
738.383	33073.37
738.723	33216.41
739.063	33093.25
739.404	33119.47
739.744	33025.01
740.084	32865.24
740.424	32745.24
740.764	32768.74
741.104	32860.72
741.444	32588.63
741.784	32394.06
742.124	32665.69
742.464	32635.87
742.804	32522.65
743.143	32371.47
743.483	32400.84
743.823	32303.9
744.162	32264.58
744.502	32199.49
744.841	32058.25
745.181	32249.89
745.52	31947.75
745.86	32046.28
746.199	31979.16
746.538	31816
746.877	31929.89
747.216	31828.43
747.556	31767.41
747.895	31683.12
748.234	31563.8
748.573	31566.06
748.911	31392.28
749.25	31464.37
749.589	31444.26
749.928	31372.4
750.267	31240.42
750.605	31104.61
750.944	30976.25
751.283	31035.46
751.621	31018.05
751.96	30907.32
752.298	30991.84
752.636	30953.88
752.975	30735.35
753.313	30514.11
753.651	30846.53
753.989	30425.98
754.327	30502.36
754.666	30260.56
755.004	30386.21
755.342	30259.43
755.679	30339.65
756.017	30084.75
756.355	30113.22
756.693	29994.58
757.031	30027.35
757.368	29772.66
757.706	29712.33
758.044	29657.19
758.381	29699.67
758.719	29586.23
759.056	29616.06
759.394	29453.35
759.731	29253.58
760.068	29285.44
760.405	29087.26
760.743	29074.38
761.08	29305.11
761.417	28903.31
761.754	28940.59
762.091	28934.95
762.428	28756.19
762.765	28529.53
763.102	28652.24
763.438	28383.32
763.775	28220.84
764.112	28263.78
764.449	28241.4
764.785	28117.79
765.122	27939.27
765.458	27811.59
765.795	27896.78
766.131	27705.83
766.467	27739.27
766.804	27522.78
767.14	27520.52
767.476	27479.16
767.812	27305.84
768.148	27361.65
768.485	27019.06
768.821	26892.74
769.157	26909.46
769.492	26853.87
769.828	26825.17
770.164	26555.8
770.5	26556.25
770.836	26581.33
771.171	26377.05
771.507	26246.65
771.842	25995.14
772.178	26011.86
772.513	26009.15
772.849	25921.92
773.184	25877.17
773.519	25730.06
773.855	25641.25
774.19	25609.38
774.525	25433.34
774.86	25429.5
775.195	25327.13
775.53	25272.22
775.865	25046.46
776.2	24919.91
776.535	24830.65
776.87	24806.24
777.205	24651.67
777.539	24655.28
777.874	24457.32
778.209	24341.17
778.543	24366.93
778.878	24184.11
779.212	24102.76
779.547	23985.25
779.881	24134.62
780.215	23876.32
780.55	23860.5
780.884	23752.71
781.218	23619.15
781.552	23692.6
781.886	23519.04
782.22	23364.02
782.554	23417.35
782.888	23010.13
783.222	23054.42
783.556	22972.39
783.889	22934.43
784.223	22814.88
784.557	22708.22
784.89	22827.76
785.224	22607.2
785.557	22490.14
785.891	22422.8
786.224	22337.15
786.558	22367.43
786.891	22166.31
787.224	22098.97
787.557	22053.54
787.891	22003.83
788.224	21927.45
788.557	21912.98
788.89	21850.39
789.223	21790.95
789.556	21510.06
789.888	21580.79
790.221	21465.54
790.554	21322.26
790.887	21249.72
791.219	21234.36
791.552	21185.32
791.884	21138.54
792.217	21001.82
792.549	20892.22
792.882	20878.21
793.214	20658.33
793.546	20794.14
793.879	20662.62
794.211	20483.64
794.543	20525.45
794.875	20498.56
795.207	20510.31
795.539	20308.73
795.871	20355.51
796.203	20058.34
796.535	20009.3
796.867	20150.09
797.198	19884.34
797.53	19814.51
797.862	19840.95
798.193	19822.87
798.525	19653.83
798.856	19776.09
799.188	19478.7
799.519	19463.56
799.85	19439.15
800.182	19398.7
800.513	19410.9
800.844	19254.52
801.175	19286.61
801.506	19275.09
801.837	19034.64
802.168	19012.27
802.499	19079.16
802.83	18920.75
803.161	18854.76
803.491	18802.1
803.822	18819.51
804.153	18745.83
804.483	18466.29
804.814	18555.78
805.145	18509.68
805.475	18491.15
805.805	18317.37
806.136	18422.23
806.466	18325.51
806.796	18299.07
807.126	18105.85
807.457	18138.17
807.787	18068.34
808.117	17986.08
808.447	17917.16
808.777	18036.7
809.107	17903.37
809.436	17788.35
809.766	17784.05
810.096	17777.95
810.426	17703.15
810.755	17637.84
811.085	17631.97
811.414	17547
811.744	17471.97
812.073	17407.11
812.403	17376.38
812.732	17230.62
813.061	17253.9
813.39	17168.48
813.719	17052.32
814.049	17298.64
814.378	17137.52
814.707	17069.49
815.036	16961.93
815.365	16961.25
815.693	16784.98
816.022	16749.73
816.351	16751.54
816.68	16678.77
817.008	16769.62
817.337	16593.57
817.665	16551.09
817.994	16651.88
818.322	16618.21
818.651	16513.58
818.979	16413.01
819.307	16533.01
819.636	16516.74
819.964	16330.31
820.292	16435.61
820.62	16407.14
820.948	16334.6
821.276	16274.71
821.604	16299.8
821.932	16328.95
822.259	16320.81
822.587	16245.79
822.915	16313.81
823.243	16173.25
823.57	16192
823.898	16214.6
824.225	16162.63
824.553	16176.41
824.88	16208.5
825.207	16267.26
825.535	16123.53
825.862	16146.81
826.189	16189.52
826.516	16155.17
826.843	16089.86
827.17	16204.21
827.497	16114.04
827.824	16168.28
828.151	16166.47
828.478	16031.1
828.805	16145.68
829.131	16088.28
829.458	16110.2
829.785	15973.93
830.111	16027.71
830.438	16154.72
830.764	16081.72
831.09	16090.54
831.417	16025.45
831.743	16026.36
832.069	16065.68
832.395	15993.82
832.722	16068.62
833.048	15908.85
833.374	15907.72
833.7	15875.18
834.026	15904.55
834.351	15977.55
834.677	15882.86
835.003	15953.59
835.329	15962.63
835.654	15841.05
835.98	15826.82
836.306	15848.51
836.631	15821.84
836.956	15850.77
837.282	15842.18
837.607	15723.99
837.932	15705.01
838.258	15696.2
838.583	15687.61
838.908	15544.56
839.233	15590.89
839.558	15536.2
839.883	15502.53
840.208	15415.07
840.533	15424.34
840.858	15560.61
841.182	15486.71
841.507	15406.26
841.832	15267.73
842.156	15306.38
842.481	15275.42
842.805	15206.49
843.13	15233.61
843.454	15126.95
843.778	15146.83
844.103	15038.59
844.427	15041.3
844.751	15115.65
845.075	15003.11
845.399	14942.32
845.723	14885.15
846.047	14850.12
846.371	14713.62
846.695	14838.82
847.019	14565.83
847.343	14489.9
847.666	14559.73
847.99	14453.52
848.313	14483.35
848.637	14314.09
848.96	14328.55
849.284	14204.26
849.607	14196.8
849.931	14109.57
850.254	14060.08
850.577	13951.84
850.9	13872.97
851.223	13916.13
851.546	13859.18
851.869	13695.35
852.192	13752.07
852.515	13664.16
852.838	13631.62
853.161	13635.01
853.483	13562.47
853.806	13496.26
854.129	13404.28
854.451	13433.21
854.774	13302.36
855.096	13307.33
855.419	13263.49
855.741	13285.64
856.063	13186.66
856.385	13191.63
856.708	13084.06
857.03	13060.56
857.352	13072.54
857.674	13029.15
857.996	12920
858.318	12889.72
858.64	12843.39
858.961	12808.59
859.283	12742.6
859.605	12721.13
859.926	12726.33
860.248	12645.43
860.57	12619.67
860.891	12667.35
861.212	12506.45
861.534	12551.42
861.855	12528.82
862.176	12501.48
862.498	12480.69
862.819	12506.22
863.14	12388.26
863.461	12402.72
863.782	12371.09
864.103	12316.4
864.424	12287.25
864.745	12275.04
865.065	12222.84
865.386	12212.67
865.707	12239.11
866.027	12242.5
866.348	12154.82
866.668	12210.41
866.989	12192.56
867.309	12034.82
867.63	12029.63
867.95	11997.99
868.27	11935.17
868.59	12129.29
868.91	12003.87
869.23	12000.02
869.55	11927.93
869.87	12009.51
870.19	11889.07
870.51	11983.98
870.83	11898.33
871.15	11776.75
871.469	11793.25
871.789	11799.12
872.109	11810.65
872.428	11786.24
872.748	11730.43
873.067	11662.18
873.386	11708.05
873.706	11739.01
874.025	11605.23
874.344	11596.19
874.663	11619.92
874.982	11620.15
875.301	11652.24
875.62	11573.59
875.939	11557.1
876.258	11479.59
876.577	11440.26
876.896	11458.34
877.214	11353.94
877.533	11454.05
877.852	11397.1
878.17	11374.28
878.489	11401.17
878.807	11364.79
879.125	11290.89
879.444	11285.69
879.762	11330.66
880.08	11286.6
880.398	11231.68
880.716	11161.63
881.034	11264.68
881.352	11165.92
881.67	11163.66
881.988	11118.69
882.306	11127.28
882.624	11077.34
882.941	11085.02
883.259	10940.16
883.577	10941.52
883.894	10937.68
884.212	10921.18
884.529	10850.9
884.846	10897.45
885.164	10880.96
885.481	10840.28
885.798	10854.06
886.115	10876.21
886.432	10746.95
886.75	10741.98
887.067	10746.5
887.383	10638.48
887.7	10680.28
888.017	10631.7
888.334	10637.57
888.651	10567.52
888.967	10562.32
889.284	10472.61
889.6	10407.75
889.917	10414.3
890.233	10383.79
890.55	10365.94
890.866	10407.3
891.182	10381.99
891.498	10341.08
891.815	10241.43
892.131	10252.27
892.447	10211.82
892.763	10170.02
893.079	10143.58
893.395	10169.34
893.71	10038.49
894.026	10093.63
894.342	10037.59
894.657	9926.18
894.973	9992.84
895.289	10005.5
895.604	9950.59
895.92	9847.99
896.235	9834.2
896.55	9729.12
896.865	9781.1
897.181	9760.76
897.496	9783.81
897.811	9636.02
898.126	9585.17
898.441	9655.23
898.756	9584.72
899.071	9511.05
899.386	9552.18
899.7	9412.97
900.015	9459.3
900.33	9401.22
900.644	9331.17
900.959	9386.53
901.273	9344.95
901.588	9314.67
901.902	9233.99
902.216	9271.51
902.531	9222.7
902.845	9131.17
903.159	9119.65
903.473	9007.56
903.787	8996.71
904.101	9033.55
904.415	8969.59
904.729	8911.74
905.042	8935.02
905.356	8844.17
905.67	8821.58
905.984	8840.33
906.297	8746.32
906.611	8691.64
906.924	8693.22
907.237	8730.05
907.551	8615.71
907.864	8616.16
908.177	8597.4
908.491	8558.08
908.804	8484.41
909.117	8447.35
909.43	8501.13
909.743	8430.17
910.056	8430.4
910.368	8347.69
910.681	8263.4
910.994	8248.48
911.307	8180.46
911.619	8159.67
911.932	8172.78
912.244	8098.43
912.557	8099.79
912.869	8046.91
913.181	8016.17
913.494	8026.12
913.806	7940.24
914.118	7908.83
914.43	7870.87
914.742	7879.68
915.054	7775.28
915.366	7826.35
915.678	7780.25
915.99	7712.68
916.302	7670.65
916.613	7631.78
916.925	7611.66
917.236	7601.72
917.548	7502.51
917.859	7543.87
918.171	7503.87
918.482	7485.11
918.794	7400.14
919.105	7430.88
919.416	7335.97
919.727	7318.34
920.038	7336.19
920.349	7267.04
920.66	7245.35
920.971	7209.41
921.282	7217.1
921.593	7151.34
921.903	7100.49
922.214	7074.73
922.525	7043.32
922.835	6996.99
923.146	6991.57
923.456	6954.96
923.767	6970.33
924.077	6928.74
924.387	6854.85
924.697	6789.31
925.008	6830.22
925.318	6798.13
925.628	6759.48
925.938	6701.86
926.248	6670.45
926.558	6631.58
926.867	6648.53
927.177	6585.25
927.487	6558.58
927.796	6507.51
928.106	6546.83
928.416	6473.84
928.725	6406.95
929.034	6417.35
929.344	6503.22
929.653	6432.71
929.962	6354.07
930.271	6267.07
930.581	6283.11
930.89	6270.91
931.199	6201.53
931.508	6227.29
931.817	6251.47
932.125	6213.28
932.434	6176
932.743	6082.89
933.051	6050.12
933.36	6071.14
933.669	6012.38
933.977	6024.81
934.286	5988.2
934.594	5954.53
934.902	5895.33
935.21	5904.59
935.519	5890.58
935.827	5856.68
936.135	5784.59
936.443	5765.16
936.751	5767.42
937.059	5780.3
937.367	5685.61
937.674	5688.78
937.982	5699.62
938.29	5624.82
938.597	5606.97
938.905	5528.33
939.213	5586.86
939.52	5591.15
939.827	5537.82
940.135	5502.12
940.442	5484.94
940.749	5467.77
941.056	5458.95
941.363	5411.27
941.67	5381.21
941.977	5368.33
942.284	5332.85
942.591	5294.44
942.898	5278.62
943.205	5239.3
943.511	5227.09
943.818	5226.64
944.125	5157.27
944.431	5135.12
944.738	5099.64
945.044	5146.64
945.35	5105.74
945.657	5073.65
945.963	5087.66
946.269	5045.18
946.575	5019.87
946.881	4970.38
947.187	5015.8
947.493	4955.24
947.799	4898.06
948.105	4882.92
948.41	4850.61
948.716	4889.93
949.022	4815.81
949.327	4833.21
949.633	4756.6
949.938	4757.73
950.244	4756.37
950.549	4708.01
950.854	4699.65
951.16	4700.1
951.465	4668.24
951.77	4639.54
952.075	4598.18
952.38	4589.82
952.685	4628.24
952.99	4566.09
953.294	4549.37
953.599	4521.58
953.904	4533.1
954.209	4459.43
954.513	4521.8
954.818	4440
955.122	4392.31
955.426	4361.35
955.731	4364.29
956.035	4369.72
956.339	4368.59
956.643	4323.16
956.948	4289.04
957.252	4258.53
957.556	4296.95
957.86	4244.07
958.163	4211.75
958.467	4213.11
958.771	4177.18
959.075	4169.95
959.378	4154.81
959.682	4112.77
959.985	4131.98
960.289	4083.4
960.592	4084.3
960.896	4028.26
961.199	4054.7
961.502	4014.7
961.805	3983.29
962.108	3983.96
962.411	3930.41
962.714	3883.63
963.017	3923.4
963.32	3896.28
963.623	3901.03
963.926	3900.58
964.228	3866.45
964.531	3858.54
964.833	3857.19
965.136	3802.05
965.438	3778.32
965.741	3759.56
966.043	3744.87
966.345	3734.7
966.648	3736.29
966.95	3740.35
967.252	3680.24
967.554	3710.3
967.856	3691.32
968.158	3627.81
968.46	3650.19
968.761	3642.96
969.063	3589.17
969.365	3668.27
969.666	3598.44
969.968	3557.08
970.269	3541.71
970.571	3510.53
970.872	3517.53
971.174	3488.16
971.475	3475.5
971.776	3434.6
972.077	3435.95
972.378	3468.27
972.679	3444.54
972.98	3387.59
973.281	3406.13
973.582	3372.45
973.883	3374.04
974.183	3372.68
974.484	3305.79
974.785	3327.71
975.085	3304.21
975.386	3306.01
975.686	3240.71
975.986	3246.36
976.287	3283.19
976.587	3212.46
976.887	3185.79
977.187	3210.88
977.487	3186.02
977.787	3201.38
978.087	3128.62
978.387	3149.86
978.687	3156.19
978.987	3114.83
979.286	3100.37
979.586	3102.63
979.885	3059.02
980.185	3040.94
980.484	3066.93
980.784	3033.03
981.083	3000.71
981.382	3026.47
981.682	3049.52
981.981	2989.86
982.28	2955.52
982.579	2967.94
982.878	2941.5
983.177	2943.31
983.475	2927.72
983.774	2884.33
984.073	2874.16
984.372	2898.57
984.67	2868.51
984.969	2835.52
985.267	2848.17
985.566	2795.07
985.864	2795.52
986.162	2777.89
986.461	2774.28
986.759	2790.1
987.057	2737.44
987.355	2748.06
987.653	2707.61
987.951	2753.49
988.249	2688.86
988.547	2733.37
988.844	2659.7
989.142	2677.1
989.44	2644.79
989.737	2641.17
990.035	2606.37
990.332	2630.1
990.63	2606.82
990.927	2572.7
991.224	2550.78
991.521	2595.3
991.819	2558.69
992.116	2573.15
992.413	2530.67
992.71	2514.4
993.006	2495.19
993.303	2490.22
993.6	2487.73
993.897	2477.11
994.193	2491.8
994.49	2439.82
994.787	2399.82
995.083	2428.75
995.379	2376.55
995.676	2425.13
995.972	2385.36
996.268	2388.07
996.565	2370.22
996.861	2350.79
997.157	2356.89
997.453	2310.11
997.749	2340.84
998.044	2295.19
998.34	2308.07
998.636	2278.47
998.932	2290.45
999.227	2243.9
999.523	2250.9
999.818	2227.85
1000.114	2211.81
1000.409	2226.72
1000.704	2194.41
1001	2177.91
1001.295	2158.47
1001.59	2147.4
1001.885	2154.86
1002.18	2137.23
1002.475	2120.06
1002.77	2113.05
1003.065	2089.1
1003.359	2094.07
1003.654	2078.93
1003.949	2066.73
1004.243	2085.71
1004.538	2045.71
1004.832	2034.41
1005.127	2014.3
1005.421	1995.99
1005.715	1992.6
1006.009	2000.74
1006.304	1992.83
1006.598	1969.1
1006.892	1965.71
1007.186	1947.86
1007.48	1954.19
1007.773	1920.74
1008.067	1943.34
1008.361	1884.13
1008.655	1894.98
1008.948	1892.94
1009.242	1884.81
1009.535	1868.99
1009.829	1859.5
1010.122	1853.62
1010.415	1827.41
1010.708	1826.96
1011.001	1809.78
1011.295	1776.34
1011.588	1778.37
1011.881	1781.99
1012.173	1770.91
1012.466	1749.9
1012.759	1758.48
1013.052	1761.2
1013.344	1728.43
1013.637	1734.76
1013.93	1689.79
1014.222	1711.71
1014.514	1681.65
1014.807	1660.41
1015.099	1654.08
1015.391	1649.79
1015.683	1645.72
1015.976	1632.16
1016.268	1620.18
1016.56	1624.25
1016.851	1612.5
1017.143	1592.61
1017.435	1599.84
1017.727	1561.88
1018.018	1560.3
1018.31	1586.51
1018.602	1550.13
1018.893	1552.39
1019.185	1526.17
1019.476	1506.97
1019.767	1510.58
1020.058	1484.82
1020.35	1504.48
1020.641	1457.93
1020.932	1472.16
1021.223	1462.45
1021.514	1462.22
1021.804	1432.39
1022.095	1423.8
1022.386	1404.37
1022.677	1441.43
1022.967	1404.82
1023.258	1420.64
1023.548	1376.12
1023.839	1381.55
1024.129	1363.92
1024.419	1372.73
1024.709	1335.22
1025	1325.05
1025.29	1318.95
1025.58	1310.36
1025.87	1290.47
1026.16	1280.98
1026.449	1301.77
1026.739	1308.1
1027.029	1284.15
1027.319	1241.44
1027.608	1267.2
1027.898	1232.17
1028.187	1253.64
1028.477	1224.94
1028.766	1236.46
1029.055	1215.22
1029.344	1212.51
1029.634	1218.39
1029.923	1218.61
1030.212	1190.14
1030.501	1198.27
1030.79	1172.51
1031.078	1184.71
1031.367	1136.58
1031.656	1150.59
1031.945	1141.1
1032.233	1130.48
1032.522	1138.84
1032.81	1111.27
1033.099	1105.85
1033.387	1085.51
1033.675	1094.77
1033.963	1091.16
1034.251	1084.15
1034.54	1102.23
1034.828	1056.36
1035.116	1050.03
1035.403	1071.95
1035.691	1046.87
1035.979	1058.84
1036.267	1021.1
1036.554	1026.53
1036.842	1015.68
1037.129	1001.89
1037.417	1019.97
1037.704	985.85
1037.992	997.6
1038.279	998.96
1038.566	982.69
1038.853	982.69
1039.14	982.69
