Data from plate_ceramic_FLMS001491_092.txt Node
Date: Tue Feb 07 11:17:34 GMT 2017
User: dcchb
Spectrometer: FLMS00149
Trigger mode: 0
Integration Time (sec): 2.000000E-2
Scans to average: 10
Electric dark correction enabled: true
Nonlinearity correction enabled: false
Boxcar width: 0
XAxis mode: Wavelengths
Number of Pixels in Spectrum: 2048
>>>>>Begin Spectral Data<<<<<
341.393	-5.32
341.776	-5.32
342.16	-5.32
342.543	-58.2
342.927	-79
343.31	-49.17
343.693	-75.83
344.077	-65.89
344.46	-71.09
344.843	-49.39
345.226	-58.43
345.61	-45.55
345.993	-19.34
346.376	19.76
346.759	28.35
347.142	29.48
347.525	46.43
347.908	62.47
348.291	53.66
348.674	94.11
349.057	100.44
349.44	107.67
349.823	141.79
350.206	159.64
350.588	190.38
350.971	215.01
351.354	248.68
351.737	250.94
352.119	264.27
352.502	276.02
352.884	288
353.267	303.37
353.65	295.23
354.032	328.23
354.414	350.37
354.797	328.45
355.179	334.1
355.562	327.1
355.944	320.32
356.326	348.56
356.709	361.67
357.091	374.33
357.473	352.86
357.855	360.77
358.238	363.93
358.62	352.86
359.002	351.05
359.384	356.02
359.766	358.73
360.148	354.21
360.53	345.63
360.912	344.95
361.294	378.17
361.676	361.22
362.057	334.55
362.439	347.89
362.821	344.27
363.203	357.15
363.584	345.17
363.966	362.58
364.348	378.62
364.729	352.41
365.111	361.67
365.493	340.88
365.874	355.8
366.256	337.04
366.637	346.98
367.019	345.17
367.4	348.11
367.781	347.66
368.163	373.2
368.544	352.86
368.925	361.9
369.306	364.84
369.688	360.54
370.069	353.08
370.45	345.63
370.831	365.06
371.212	375.23
371.593	372.29
371.974	383.59
372.355	352.18
372.736	379.75
373.117	379.98
373.498	377.26
373.879	368
374.26	383.37
374.641	381.56
375.021	374.33
375.402	382.46
375.783	396.92
376.163	399.18
376.544	403.93
376.925	388.34
377.305	400.54
377.686	390.6
378.066	423.36
378.447	402.8
378.827	421.78
379.208	414.33
379.588	425.62
379.968	404.38
380.349	413.87
380.729	424.27
381.109	422.69
381.489	416.59
381.87	412.74
382.25	444.15
382.63	437.15
383.01	427.21
383.39	454.1
383.77	450.93
384.15	438.28
384.53	436.92
384.91	453.87
385.29	457.71
385.67	470.37
386.049	484.61
386.429	472.85
386.809	471.27
387.189	475.79
387.568	476.24
387.948	509.01
388.328	480.54
388.707	487.54
389.087	502.91
389.466	488.67
389.846	504.72
390.225	525.73
390.605	513.98
390.984	520.31
391.363	523.25
391.743	513.31
392.122	551.5
392.501	511.27
392.881	542.68
393.26	528.45
393.639	548.11
394.018	571.61
394.397	567.99
394.776	578.16
395.155	581.55
395.534	586.3
395.913	582.23
396.292	588.56
396.671	606.64
397.05	609.12
397.429	618.39
397.808	618.16
398.186	585.17
398.565	617.48
398.944	629.46
399.323	609.8
399.701	654.09
400.08	647.31
400.458	646.18
400.837	672.62
401.215	679.18
401.594	670.14
401.972	667.65
402.351	699.97
402.729	682.57
403.107	696.58
403.486	669.23
403.864	681.21
404.242	704.04
404.62	704.26
404.999	735.22
405.377	734.09
405.755	745.16
406.133	765.73
406.511	768.67
406.889	767.76
407.267	787.2
407.645	812.28
408.023	815.22
408.401	811.38
408.779	821.32
409.156	831.49
409.534	850.7
409.912	829.68
410.29	865.84
410.667	873.52
411.045	894.09
411.422	900.64
411.8	908.32
412.178	899.28
412.555	925.72
412.933	929.34
413.31	959.17
413.687	978.15
414.065	985.84
414.442	968.21
414.819	974.54
415.197	998.72
415.574	1015.67
415.951	1016.12
416.328	1052.05
416.705	1058.6
417.082	1026.29
417.46	1048.43
417.837	1076
418.214	1117.36
418.591	1108.09
418.967	1083.46
419.344	1133.18
419.721	1139.73
420.098	1118.04
420.475	1145.83
420.852	1141.31
421.228	1181.08
421.605	1191.03
421.982	1177.7
422.358	1226.96
422.735	1254.98
423.111	1242.78
423.488	1240.29
423.864	1288.88
424.241	1316.9
424.617	1283.45
424.994	1308.77
425.37	1313.51
425.746	1334.53
426.123	1376.33
426.499	1373.17
426.875	1368.88
427.251	1388.54
427.627	1446.16
428.003	1445.71
428.379	1452.72
428.756	1462.43
429.132	1497.01
429.507	1510.12
429.883	1539.27
430.259	1562.54
430.635	1569.32
431.011	1591.02
431.387	1629.66
431.763	1651.58
432.138	1664.01
432.514	1706.49
432.89	1708.08
433.265	1711.01
433.641	1800.73
434.016	1747.62
434.392	1784.46
434.767	1819.03
435.143	1791.46
435.518	1868.75
435.894	1832.37
436.269	1881.86
436.644	1947.39
437.02	1956.43
437.395	1922.31
437.77	1955.98
438.145	1992.14
438.52	2031.01
438.895	2039.14
439.271	1981.52
439.646	2075.98
440.021	2098.8
440.395	2105.35
440.77	2067.62
441.145	2137.22
441.52	2155.3
441.895	2153.71
442.27	2189.42
442.645	2203.43
443.019	2230.1
443.394	2228.51
443.769	2218.35
444.143	2242.3
444.518	2266.03
444.892	2269.64
445.267	2284.78
445.641	2347.16
446.016	2332.47
446.39	2329.76
446.764	2357.55
447.139	2397.55
447.513	2398.68
447.887	2447.49
448.262	2432.8
448.636	2435.06
449.01	2495.4
449.384	2501.05
449.758	2533.82
450.132	2577.66
450.506	2528.85
450.88	2538.79
451.254	2599.13
451.628	2647.71
452.002	2649.75
452.376	2629.86
452.75	2729.29
453.123	2744.43
453.497	2792.12
453.871	2801.38
454.244	2836.86
454.618	2846.58
454.992	2911.89
455.365	2936.74
455.739	3011.09
456.112	2994.6
456.486	3033.92
456.859	3113.69
457.232	3142.84
457.606	3147.36
457.979	3187.81
458.352	3256.28
458.725	3297.64
459.099	3281.14
459.472	3379.45
459.845	3379.22
460.218	3414.25
460.591	3451.99
460.964	3485.66
461.337	3585.99
461.71	3638.65
462.083	3684.07
462.456	3696.72
462.829	3688.14
463.201	3761.81
463.574	3809.94
463.947	3862.82
464.32	3944.18
464.692	3963.16
465.065	4039.54
465.438	4050.84
465.81	4086.55
466.183	4146.66
466.555	4261.91
466.928	4313.21
467.3	4295.58
467.672	4333.54
468.045	4482.69
468.417	4464.61
468.789	4555.91
469.161	4558.62
469.534	4616.25
469.906	4778.5
470.278	4749.58
470.65	4906.41
471.022	4959.52
471.394	5025.28
471.766	5049.01
472.138	5162.45
472.51	5232.05
472.882	5368.32
473.253	5370.13
473.625	5487.19
473.997	5599.27
474.369	5634.08
474.74	5679.27
475.112	5817.35
475.484	5935.76
475.855	5959.26
476.227	6017.79
476.598	6213.04
476.97	6275.87
477.341	6424.11
477.713	6511.57
478.084	6554.05
478.455	6769.19
478.827	6848.51
479.198	6975.28
479.569	6954.72
479.94	7187.25
480.311	7255.73
480.682	7427.7
481.053	7535.27
481.424	7740.01
481.795	7721.03
482.166	7857.75
482.537	8039.44
482.908	8227.45
483.279	8292.31
483.65	8447.33
484.021	8638.97
484.391	8671.96
484.762	8818.85
485.133	8887.1
485.503	8932.52
485.874	9226.52
486.244	9315.11
486.615	9464.71
486.985	9595.78
487.356	9732.95
487.726	9833.96
488.097	10087.52
488.467	10126.39
488.837	10357.34
489.207	10423.55
489.578	10603.21
489.948	10701.51
490.318	10762.3
490.688	10939.02
491.058	11069.19
491.428	11210.65
491.798	11390.99
492.168	11586.23
492.538	11551.21
492.908	11740.58
493.278	11824.19
493.648	11877.75
494.017	12084.98
494.387	12156.84
494.757	12317.06
495.126	12533.78
495.496	12478.87
495.866	12668.47
496.235	12800.89
496.605	12893.32
496.974	12877.27
497.344	13083.14
497.713	13168.34
498.082	13313.2
498.452	13469.12
498.821	13475.22
499.19	13503.92
499.559	13726.97
499.928	13807.42
500.298	13928.09
500.667	14034.98
501.036	14114.98
501.405	14187.3
501.774	14285.82
502.143	14413.51
502.512	14433.84
502.88	14647.17
503.249	14675.19
503.618	14778.47
503.987	14833.16
504.356	14929.2
504.724	15011.91
505.093	15174.62
505.462	15204.67
505.83	15306.82
506.199	15439.69
506.567	15647.37
506.936	15638.33
507.304	15839.46
507.672	15882.17
508.041	16034.25
508.409	16130.75
508.777	16270.41
509.145	16391.98
509.514	16398.76
509.882	16577.97
510.25	16614.35
510.618	16844.4
510.986	16864.74
511.354	17026.77
511.722	17191.06
512.09	17363.71
512.458	17323.71
512.826	17537.26
513.193	17657.49
513.561	17752.4
513.929	17991.49
514.297	18101.77
514.664	18186.74
515.032	18269
515.4	18526.62
515.767	18572.72
516.135	18685.03
516.502	18577.24
516.869	18902.88
517.237	19064.91
517.604	19063.33
517.972	19210.89
518.339	19403.2
518.706	19524.78
519.073	19648.85
519.44	19772.23
519.808	20024.66
520.175	20028.72
520.542	20334.71
520.909	20460.8
521.276	20509.16
521.643	20595.26
522.009	20792.55
522.376	20898.31
522.743	21108.92
523.11	21232.76
523.477	21528.35
523.843	21683.37
524.21	21875.68
524.577	22186.86
524.943	22192.51
525.31	22280.19
525.676	22470.47
526.043	22553.18
526.409	22763.34
526.776	23090.79
527.142	23272.03
527.508	23264.12
527.874	23420.27
528.241	23620.27
528.607	23731.9
528.973	23936.42
529.339	23996.98
529.705	24184.32
530.071	24416.86
530.437	24477.42
530.803	24676.06
531.169	24868.82
531.535	24793.8
531.901	25002.61
532.267	25159.66
532.632	25219.1
532.998	25374.35
533.364	25645.3
533.73	25837.16
534.095	25880.32
534.461	25998.74
534.826	26082.12
535.192	26208.68
535.557	26387.43
535.923	26408.22
536.288	26578.84
536.653	26663.13
537.019	26644.6
537.384	26790.35
537.749	27006.17
538.114	26972.72
538.479	27040.52
538.845	27226.73
539.21	27257.91
539.575	27527.74
539.94	27513.95
540.305	27639.15
540.67	27719.37
541.034	27934.28
541.399	27945.58
541.764	28119.59
542.129	28180.6
542.494	28259.92
542.858	28326.81
543.223	28394.83
543.587	28506.24
543.952	28745.11
544.316	28768.83
544.681	28720.02
545.045	28901.26
545.41	29065.78
545.774	29149.39
546.138	29288.14
546.503	29449.72
546.867	29444.52
547.231	29637.96
547.595	29636.16
547.959	29874.57
548.324	29870.95
548.688	29975.13
549.052	30060.1
549.416	30320.43
549.779	30294.9
550.143	30459.18
550.507	30533.08
550.871	30698.5
551.235	30688.78
551.599	30940.98
551.962	31121.99
552.326	31053.75
552.689	31364.92
553.053	31269.33
553.417	31322.89
553.78	31624.35
554.143	31547.52
554.507	31771.01
554.87	31924.01
555.234	32161.29
555.597	32222.08
555.96	32278.57
556.323	32499.58
556.686	32540.03
557.05	32926.24
557.413	32998.55
557.776	33104.31
558.139	33189.06
558.502	33209.17
558.865	33486.9
559.228	33641.47
559.59	33749.72
559.953	33838.08
560.316	34155.58
560.679	34141.35
561.041	34417.05
561.404	34516.25
561.767	34765.51
562.129	34744.04
562.492	35139.06
562.854	35094.54
563.217	35179.06
563.579	35419.51
563.941	35599.61
564.304	35782.66
564.666	35977.46
565.028	36115.99
565.39	36188.75
565.753	36409.09
566.115	36547.39
566.477	36630.77
566.839	36721.39
567.201	36932.69
567.563	36914.16
567.925	37336.74
568.287	37318.89
568.648	37299.01
569.01	37644.98
569.372	37871.87
569.734	37761.14
570.095	38114.35
570.457	38250.62
570.819	38300.33
571.18	38242.26
571.542	38546.88
571.903	38572.19
572.265	38810.38
572.626	38905.29
572.987	38950.49
573.349	39148.45
573.71	39245.39
574.071	39232.97
574.432	39360.65
574.794	39605.61
575.155	39590.02
575.516	39609.23
575.877	39812.84
576.238	39869.79
576.599	40103
576.96	40072.49
577.32	40101.64
577.681	40305.48
578.042	40443.78
578.403	40371.24
578.763	40500.5
579.124	40449.88
579.485	40812.59
579.845	40786.82
580.206	40699.82
580.566	40793.83
580.927	40846.26
581.287	40950.21
581.648	40879.48
582.008	40956.99
582.368	40866.82
582.728	41111.56
583.089	40952.47
583.449	40915.86
583.809	41067.49
584.169	41266.13
584.529	40971.68
584.889	41382.51
585.249	41001.28
585.609	41089.87
585.969	41282.18
586.329	41222.52
586.688	41233.82
587.048	41350.88
587.408	41271.33
587.768	41260.93
588.127	41166.25
588.487	41166.47
588.846	41506.8
589.206	41193.37
589.565	41225.23
589.925	41403.53
590.284	41319.24
590.643	41400.59
591.003	41548.16
591.362	41584.09
591.721	41520.36
592.08	41534.6
592.44	41676.29
592.799	41600.13
593.158	41760.58
593.517	41601.72
593.876	41651.21
594.235	41558.33
594.593	41761.71
594.952	41770.07
595.311	41752
595.67	41745.22
596.029	42007.58
596.387	41856.85
596.746	41927.36
597.104	41799.9
597.463	41835.16
597.822	42129.61
598.18	41906.34
598.538	41914.7
598.897	42092.33
599.255	41925.1
599.613	42390.17
599.972	42152.89
600.33	42257.29
600.688	41972.33
601.046	42266.33
601.404	42434.46
601.762	42344.97
602.12	42540
602.478	42503.16
602.836	42692.54
603.194	42303.62
603.552	42365.09
603.91	42255.71
604.268	42588.58
604.625	42507.68
604.983	42619.09
605.341	42561.47
605.698	42702.7
606.056	42841.46
606.413	42725.08
606.771	42963.94
607.128	42999.19
607.485	42724.63
607.843	42878.29
608.2	43079.42
608.557	42974.79
608.914	43037.84
609.272	43228.11
609.629	43248.68
609.986	43321.9
610.343	43034.67
610.7	43497.49
611.057	43480.76
611.414	43364.38
611.771	43460.2
612.127	43605.28
612.484	43531.16
612.841	43721.66
613.198	43633.53
613.554	43716.46
613.911	43760.08
614.267	43763.24
614.624	43885.27
614.98	43829.23
615.337	44185.83
615.693	43953.75
616.05	43976.34
616.406	44157.58
616.762	43991.48
617.118	43993.74
617.475	43894.76
617.831	44054.53
618.187	44173.17
618.543	44069.9
618.899	44377.69
619.255	44139.96
619.611	44301.31
619.967	44460.85
620.323	44589.89
620.678	44327.97
621.034	44426.95
621.39	44356.67
621.746	44312.38
622.101	44821.29
622.457	44363.68
622.812	44523
623.168	44644.12
623.523	44601.41
623.879	44682.77
624.234	44393.96
624.589	44561.19
624.945	44583.79
625.3	44511.47
625.655	44478.48
626.01	44528.42
626.365	44589.66
626.72	44591.24
627.075	44546.72
627.43	44626.95
627.785	44432.15
628.14	44459.95
628.495	44578.14
628.85	44605.25
629.205	44264.02
629.559	44508.76
629.914	44313.51
630.269	44231.7
630.623	44244.13
630.978	44265.38
631.332	44357.58
631.687	44467.63
632.041	44109.67
632.396	44274.41
632.75	44008.66
633.104	44155.1
633.459	43847.31
633.813	43833.07
634.167	43946.74
634.521	43868.32
634.875	43857.93
635.229	43865.61
635.583	43710.81
635.937	43539.97
636.291	43577.48
636.645	43644.83
636.999	43352.63
637.352	43566.86
637.706	43188.12
638.06	43587.2
638.413	43393.31
638.767	43349.02
639.121	43383.82
639.474	43097.27
639.828	43027.22
640.181	43144.5
640.534	43149.25
640.888	43130.72
641.241	42739.54
641.594	42891.63
641.947	43049.14
642.301	42923.26
642.654	42968.23
643.007	42932.76
643.36	42838.75
643.713	42666.1
644.066	42949.93
644.419	42462.49
644.771	42287.8
645.124	41877.87
645.477	41866.12
645.83	41657.08
646.182	41479.01
646.535	41324.89
646.888	41388.16
647.24	41265.68
647.593	41471.32
647.945	41519.46
648.298	41078.11
648.65	41117.89
649.002	40944.78
649.355	41166.25
649.707	41058
650.059	41175.51
650.411	41537.54
650.763	41632.45
651.115	42132.55
651.467	41909.05
651.819	41829.73
652.171	41851.65
652.523	41740.7
652.875	41626.35
653.227	41542.51
653.578	41872.44
653.93	41702.51
654.282	41466.58
654.633	41429.74
654.985	41485.34
655.337	41539.57
655.688	41357.66
656.039	41594.26
656.391	41135.97
656.742	41256.87
657.094	41266.13
657.445	41425
657.796	41274.49
658.147	41134.38
658.498	41017.55
658.849	41150.66
659.2	41158.11
659.551	41113.14
659.902	41111.33
660.253	41022.75
660.604	41071.34
660.955	40919.02
661.306	40970.32
661.656	40893.94
662.007	40876.09
662.358	40828.86
662.708	40967.16
663.059	41056.19
663.409	40653.49
663.76	40945.69
664.11	40721.51
664.461	40864.34
664.811	40874.73
665.161	40952.24
665.511	40804.22
665.862	40661.63
666.212	40863.66
666.562	40901.4
666.912	40852.36
667.262	40716.77
667.612	40802.87
667.962	40867.72
668.312	40735.3
668.662	40931
669.011	40881.51
669.361	40729.42
669.711	40716.54
670.06	40554.29
670.41	40538.02
670.76	40406.72
671.109	40567.39
671.459	40410.34
671.808	40407.17
672.157	40490.79
672.507	40345.93
672.856	40390.45
673.205	40304.35
673.554	40232.26
673.904	40197.23
674.253	40362.2
674.602	40302.54
674.951	39762.44
675.3	39494.88
675.649	40200.85
675.998	40091.93
676.346	40181.19
676.695	40278.81
677.044	40038.59
677.393	40059.16
677.741	40102.77
678.09	39940.29
678.438	39864.36
678.787	39925.15
679.135	39908.65
679.484	39792.27
679.832	39905.94
680.181	39606.74
680.529	39815.32
680.877	39510.47
681.225	39436.35
681.573	39669.11
681.922	39398.16
682.27	39460.3
682.618	39509.79
682.966	39213.76
683.314	39302.34
683.661	39112.97
684.009	39044.04
684.357	38997.94
684.705	38863.48
685.053	38980.99
685.4	38938.74
685.748	38896.25
686.095	38735.58
686.443	38531.74
686.79	38475.7
687.138	38437.96
687.485	38471.4
687.832	38458.52
688.18	38478.41
688.527	38273.67
688.874	38184.63
689.221	38008.14
689.568	37910.51
689.915	37896.73
690.262	37855.37
690.609	37862.38
690.956	37774.02
691.303	37579.9
691.65	37544.42
691.997	37348.72
692.344	37108.05
692.69	37229.85
693.037	37346.24
693.383	36958.68
693.73	37117.99
694.077	36839.81
694.423	36950.09
694.769	36861.95
695.116	36911.22
695.462	36746.93
695.808	36570.44
696.155	36531.12
696.501	36369.09
696.847	36278.47
697.193	36054.29
697.539	36214.51
697.885	35921.19
698.231	35876.67
698.577	35817.01
698.923	35787.18
699.269	35528.2
699.614	35297.02
699.96	35325.95
700.306	35310.58
700.651	35229.91
700.997	35060.87
701.342	35012.96
701.688	34937.94
702.033	34738.85
702.379	34879.63
702.724	34765.06
703.069	34825.4
703.415	34312.19
703.76	34403.49
704.105	34271.51
704.45	34165.75
704.795	34083.5
705.14	33841.24
705.485	34048.47
705.83	33932.99
706.175	33855.03
706.52	33823.39
706.865	33723.28
707.209	33688.25
707.554	33412.1
707.899	33572.55
708.243	33330.3
708.588	33355.15
708.932	33062.73
709.277	33072.9
709.621	33078.55
709.966	32903.87
710.31	32917.65
710.654	32711.1
710.998	32812.8
711.342	32799.01
711.687	32750.42
712.031	32588.39
712.375	32411.68
712.719	32434.73
713.063	32377.55
713.407	32510.2
713.75	32297.55
714.094	32183.43
714.438	32052.82
714.782	32281.51
715.125	32073.61
715.469	32136.66
715.812	32007.17
716.156	31639.27
716.499	31691.69
716.843	31747.96
717.186	31517.69
717.53	31626.39
717.873	31601.98
718.216	31598.59
718.559	31520.17
718.902	31302.33
719.246	31241.54
719.589	31221.42
719.932	31287.19
720.275	31169.9
720.617	31138.72
720.96	30968.55
721.303	30988.21
721.646	30994.09
721.989	30813.98
722.331	30808.33
722.674	30750.7
723.016	30640.65
723.359	30597.94
723.701	30667.99
724.044	30474.78
724.386	30309.81
724.729	30544.15
725.071	30329.7
725.413	30291.05
725.755	30217.84
726.097	30167.67
726.439	29992.3
726.782	29872.53
727.124	30108.91
727.465	29876.83
727.807	29926.54
728.149	29835.92
728.491	29684.06
728.833	29851.29
729.175	29714.8
729.516	29677.74
729.858	29538.53
730.199	29508.02
730.541	29495.82
730.882	29553.67
731.224	29634.8
731.565	29270.52
731.906	29336.28
732.248	29398.42
732.589	29195.04
732.93	29131.08
733.271	29161.14
733.612	29144.19
733.953	29176.05
734.294	29115.94
734.635	29076.17
734.976	29115.27
735.317	28869.4
735.658	28913.46
735.999	28955.72
736.339	28843.18
736.68	28797.31
737.021	28745.33
737.361	28527.94
737.702	28771.77
738.042	28683.64
738.383	28664.66
738.723	28556.18
739.063	28509.63
739.404	28472.8
739.744	28421.72
740.084	28322.29
740.424	28424.89
740.764	28353.48
741.104	28416.07
741.444	28099.25
741.784	28071.45
742.124	28078.46
742.464	28093.37
742.804	27998.91
743.143	27879.37
743.483	27872.13
743.823	27882.53
744.162	27788.97
744.502	27860.61
744.841	27627.85
745.181	27717.79
745.52	27487.29
745.86	27621.52
746.199	27560.73
746.538	27499.26
746.877	27492.26
747.216	27443.45
747.556	27398.7
747.895	27346.05
748.234	27312.15
748.573	27267.63
748.911	27202.55
749.25	27065.83
749.589	27103.79
749.928	26963.68
750.267	27052.04
750.605	26878.04
750.944	26754.2
751.283	26806.17
751.621	26802.78
751.96	26610.02
752.298	26671.49
752.636	26686.4
752.975	26553.3
753.313	26433.98
753.651	26628.1
753.989	26356.02
754.327	26313.76
754.666	26228.56
755.004	26182.91
755.342	26257.94
755.679	26198.73
756.017	26032.18
756.355	25949.25
756.693	25877.16
757.031	25918.97
757.368	25720.55
757.706	25732.3
758.044	25682.14
758.381	25676.26
758.719	25612.76
759.056	25569.6
759.394	25390.84
759.731	25267.91
760.068	25136.16
760.405	25178.19
760.743	25067.01
761.08	25176.61
761.417	25020.91
761.754	24920.8
762.091	24892.33
762.428	24740.47
762.765	24651.2
763.102	24757.19
763.438	24627.25
763.775	24322.4
764.112	24497.08
764.449	24421.6
764.785	24181.38
765.122	23990.88
765.458	23964.44
765.795	24036.3
766.131	24090.31
766.467	23883.09
766.804	23760.83
767.14	23721.28
767.476	23712.7
767.812	23523.1
768.148	23603.09
768.485	23348.64
768.821	23283.78
769.157	23211.69
769.492	23161.75
769.828	23195.42
770.164	22922.43
770.5	22882.89
770.836	22912.94
771.171	22753.4
771.507	22675.66
771.842	22509.11
772.178	22527.19
772.513	22496
772.849	22296.46
773.184	22191.38
773.519	22251.04
773.855	22149.35
774.19	22051.04
774.525	21908.68
774.86	21869.58
775.195	21902.12
775.53	21773.09
775.865	21634.33
776.2	21506.88
776.535	21336.71
776.87	21377.16
777.205	21468.46
777.539	21269.37
777.874	21262.14
778.209	21013.56
778.543	21125.19
778.878	20951.41
779.212	20848.36
779.547	20744.86
779.881	20782.38
780.215	20620.57
780.55	20575.15
780.884	20442.27
781.218	20529.28
781.552	20551.87
781.886	20403.63
782.22	20190.08
782.554	20126.58
782.888	19981.27
783.222	19951.66
783.556	19937.2
783.889	19869.41
784.223	19696.08
784.557	19730.43
784.89	19638.23
785.224	19551.68
785.557	19386.71
785.891	19451.11
786.224	19334.73
786.558	19270.55
786.891	19139.48
787.224	19075.53
787.557	19150.1
787.891	19065.36
788.224	19073.5
788.557	18988.75
788.89	18836.21
789.223	18785.59
789.556	18696.1
789.888	18659.27
790.221	18490.46
790.554	18429.9
790.887	18426.51
791.219	18336.79
791.552	18241.43
791.884	18162.79
792.217	18164.59
792.549	18122.11
792.882	17954.43
793.214	17842.57
793.546	17871.49
793.879	17806.86
794.211	17689.58
794.543	17821.1
794.875	17647.09
795.207	17633.76
795.539	17670.14
795.871	17573.65
796.203	17429.02
796.535	17345.86
796.867	17276.48
797.198	17293.2
797.53	17237.39
797.862	17118.97
798.193	17198.97
798.525	17049.82
798.856	17081.01
799.188	16893.21
799.519	16817.96
799.85	16682.37
800.182	16817.96
800.513	16776.15
800.844	16649.6
801.175	16677.17
801.506	16571.41
801.837	16586.78
802.168	16517.18
802.499	16457.97
802.83	16383.62
803.161	16318.77
803.491	16302.27
803.822	16292.1
804.153	16185.89
804.483	15947.25
804.814	15957.42
805.145	15992.45
805.475	15976.63
805.805	15971.43
806.136	15845.33
806.466	15878.55
806.796	15885.56
807.126	15703.41
807.457	15672
807.787	15716.3
808.117	15518.79
808.447	15496.64
808.777	15559.24
809.107	15425.46
809.436	15406.02
809.766	15429.07
810.096	15393.14
810.426	15260.94
810.755	15192.02
811.085	15196.54
811.414	15165.12
811.744	15070.89
812.073	14950.67
812.403	14904.34
812.732	14907.05
813.061	14894.85
813.39	14861.63
813.719	14862.76
814.049	14898.01
814.378	14852.82
814.707	14699.6
815.036	14702.54
815.365	14641.52
815.693	14507.06
816.022	14552.03
816.351	14469.77
816.68	14411.92
817.008	14554.07
817.337	14339.16
817.665	14318.14
817.994	14365.37
818.322	14347.07
818.651	14234.07
818.979	14253.96
819.307	14188.88
819.636	14131.03
819.964	14000.18
820.292	14100.07
820.62	14039.96
820.948	14026.62
821.276	14068.2
821.604	14120.41
821.932	14094.42
822.259	14053.06
822.587	14119.95
822.915	13994.99
823.243	14008.54
823.57	14012.61
823.898	13999.28
824.225	13935.55
824.553	13949.79
824.88	13959.05
825.207	13929.68
825.535	13944.14
825.862	13906.85
826.189	13906.63
826.516	14032.5
826.843	14125.15
827.17	14082.89
827.497	14057.58
827.824	14006.06
828.151	14076.56
828.478	13919.73
828.805	13960.18
829.131	13952.05
829.458	13919.28
829.785	13854.42
830.111	13914.08
830.438	14018.71
830.764	13945.49
831.09	13914.76
831.417	13813.07
831.743	13854.88
832.069	13815.1
832.395	13822.79
832.722	13831.15
833.048	13804.03
833.374	13761.32
833.7	13686.52
834.026	13805.16
834.351	13858.94
834.677	13809
835.003	13780.08
835.329	13752.73
835.654	13759.96
835.98	13642.68
836.306	13630.93
836.631	13661.89
836.956	13695.33
837.282	13670.93
837.607	13564.26
837.932	13526.52
838.258	13530.59
838.583	13546.18
838.908	13390.03
839.233	13530.14
839.558	13457.37
839.883	13375.11
840.208	13425.28
840.533	13384.83
840.858	13345.51
841.182	13425.28
841.507	13405.62
841.832	13364.49
842.156	13257.15
842.481	13180.09
842.805	13280.2
843.13	13125.86
843.454	13151.84
843.778	13075.69
844.103	13081.79
844.427	13077.72
844.751	13056.7
845.075	13020.32
845.399	12922.7
845.723	12841.12
846.047	12948.68
846.371	12726.32
846.695	12768.12
847.019	12647.68
847.343	12567.68
847.666	12534.01
847.99	12560.67
848.313	12419.89
848.637	12458.75
848.96	12342.6
849.284	12414.46
849.607	12318.19
849.931	12242.49
850.254	12180.12
850.577	12104.64
850.9	11946.45
851.223	11997.07
851.546	11914.14
851.869	11877.53
852.192	11946.23
852.515	11937.19
852.838	11799.79
853.161	11710.53
853.483	11737.64
853.806	11612.9
854.129	11607.25
854.451	11647.48
854.774	11554.37
855.096	11563.64
855.419	11484.77
855.741	11459.68
856.063	11377.88
856.385	11372.68
856.708	11308.95
857.03	11248.62
857.352	11268.05
857.674	11186.25
857.996	11216.3
858.318	11111.9
858.64	11100.37
858.961	11069.64
859.283	11031.22
859.605	11006.59
859.926	10991.22
860.248	10971.11
860.57	10846.82
860.891	10942.64
861.212	10782.19
861.534	10863.09
861.855	10835.97
862.176	10868.06
862.498	10826.25
862.819	10821.96
863.14	10781.96
863.461	10715.07
863.782	10658.8
864.103	10755.3
864.424	10673.26
864.745	10672.36
865.065	10638.46
865.386	10595.53
865.707	10580.84
866.027	10569.31
866.348	10580.61
866.668	10520.95
866.989	10510.56
867.309	10353.95
867.63	10494.29
867.95	10475.76
868.27	10418.13
868.59	10422.2
868.91	10381.07
869.23	10332.26
869.55	10353.72
869.87	10360.28
870.19	10374.97
870.51	10349.43
870.83	10276.21
871.15	10254.07
871.469	10251.13
871.789	10235.99
872.109	10242.54
872.428	10162.77
872.748	10151.24
873.067	10141.08
873.386	10152.37
873.706	10172.49
874.025	10134.75
874.344	10106.95
874.663	10101.3
874.982	10036.67
875.301	10051.13
875.62	10068.08
875.939	9920.74
876.258	10013.62
876.577	10007.97
876.896	9929.56
877.214	9848.88
877.533	9883.23
877.852	9922.78
878.17	9942.89
878.489	9900.4
878.807	9817.92
879.125	9894.53
879.444	9860.63
879.762	9775.66
880.08	9790.12
880.398	9781.76
880.716	9699.5
881.034	9610.92
881.352	9690.24
881.67	9711.48
881.988	9683.23
882.306	9565.05
882.624	9670.81
882.941	9590.36
883.259	9538.61
883.577	9545.84
883.894	9581.77
884.212	9544.71
884.529	9492.96
884.846	9493.86
885.164	9399.4
885.481	9371.38
885.798	9502.9
886.115	9316.24
886.432	9337.93
886.75	9367.54
887.067	9302.23
887.383	9268.56
887.7	9347.2
888.017	9258.61
888.334	9221.1
888.651	9162.34
888.967	9211.83
889.284	9193.3
889.6	9096.58
889.917	9120.76
890.233	9071.05
890.55	9011.39
890.866	9014.33
891.182	8966.19
891.498	8977.72
891.815	8879.41
892.131	8902.01
892.447	8865.63
892.763	8856.14
893.079	8836.25
893.395	8832.18
893.71	8843.71
894.026	8741.79
894.342	8695.92
894.657	8696.59
894.973	8687.33
895.289	8667.67
895.604	8626.99
895.92	8560.78
896.235	8525.98
896.55	8561.68
896.865	8478.97
897.181	8456.83
897.496	8511.97
897.811	8474.45
898.126	8436.71
898.441	8375.92
898.756	8352.87
899.071	8311.52
899.386	8307
899.7	8248.47
900.015	8226.78
900.33	8194.01
900.644	8120.11
900.959	8148.36
901.273	8093.45
901.588	8050.51
901.902	8011.64
902.216	7994.01
902.531	8010.06
902.845	7971.64
903.159	7929.38
903.473	7860.23
903.787	7792.66
904.101	7775.94
904.415	7732.1
904.729	7761.93
905.042	7722.38
905.356	7760.57
905.67	7801.7
905.984	7615.94
906.297	7617.98
906.611	7624.53
906.924	7585.44
907.237	7530.07
907.551	7505.66
907.864	7496.85
908.177	7461.15
908.491	7444.65
908.804	7393.8
909.117	7429.73
909.43	7319.23
909.743	7285.78
910.056	7239.46
910.368	7259.57
910.681	7220.47
910.994	7156.07
911.307	7174.6
911.619	7112.91
911.932	7092.79
912.244	7026.58
912.557	7083.53
912.869	6977.99
913.181	6938.67
913.494	7009.86
913.806	6932.35
914.118	6919.24
914.43	6883.76
914.742	6834.5
915.054	6854.16
915.366	6785.68
915.678	6753.59
915.99	6766.02
916.302	6714.5
916.613	6669.98
916.925	6644.22
917.236	6639.25
917.548	6620.49
917.859	6601.06
918.171	6532.58
918.482	6455.75
918.794	6432.7
919.105	6464.56
919.416	6441.74
919.727	6478.8
920.038	6431.12
920.349	6336.88
920.66	6304.79
920.971	6307.96
921.282	6283.55
921.593	6233.16
921.903	6226.15
922.214	6127.62
922.525	6159.26
922.835	6115.42
923.146	6102.54
923.456	6128.53
923.767	6067.28
924.077	6035.65
924.387	5995.87
924.697	5930.34
925.008	5961.75
925.318	5883.33
925.628	5858.02
925.938	5891.47
926.248	5825.26
926.558	5849.21
926.867	5819.83
927.177	5786.39
927.487	5754.75
927.796	5736.45
928.106	5667.52
928.416	5666.84
928.725	5644.02
929.034	5660.29
929.344	5637.92
929.653	5564.47
929.962	5522.67
930.271	5552.72
930.581	5585.49
930.89	5517.02
931.199	5434.08
931.508	5429.79
931.817	5439.5
932.125	5376.91
932.434	5345.72
932.743	5304.37
933.051	5293.52
933.36	5284.03
933.669	5269.11
933.977	5225.95
934.286	5277.93
934.594	5246.51
934.902	5137.82
935.21	5118.16
935.519	5167.87
935.827	5144.6
936.135	5086.29
936.443	5089
936.751	5039.06
937.059	5034.09
937.367	4988.44
937.674	4962.68
937.982	5007.88
938.29	4965.39
938.597	4996.13
938.905	4895.34
939.213	4906.41
939.52	4898.73
939.827	4853.3
940.135	4820.31
940.442	4790.26
940.749	4795
941.056	4780.09
941.363	4761.33
941.67	4721.1
941.977	4735.79
942.284	4650.15
942.591	4688.56
942.898	4636.81
943.205	4616.02
943.511	4588.9
943.818	4521.11
944.125	4515.69
944.431	4515.01
944.738	4539.41
945.044	4464.39
945.35	4462.13
945.657	4427.78
945.963	4465.52
946.269	4400.44
946.575	4417.38
946.881	4419.42
947.187	4390.72
947.493	4332.87
947.799	4309.82
948.105	4335.13
948.41	4276.6
948.716	4258.29
949.022	4220.33
949.327	4237.05
949.633	4209.03
949.938	4232.76
950.244	4151.85
950.549	4170.61
950.854	4159.31
951.16	4191.63
951.465	4151.4
951.77	4108.01
952.075	4088.35
952.38	4060.33
952.685	4049.26
952.99	4022.14
953.294	3991.63
953.599	4007.9
953.904	3944.85
954.209	3922.93
954.513	3972.88
954.818	3916.15
955.122	3906.44
955.426	3903.5
955.731	3849.72
956.035	3839.55
956.339	3815.37
956.643	3854.46
956.948	3802.48
957.252	3792.32
957.556	3760
957.86	3710.96
958.163	3734.24
958.467	3691.3
958.771	3689.95
959.075	3690.4
959.378	3621.02
959.682	3638.42
959.985	3650.4
960.289	3677.74
960.592	3616.95
960.896	3560.91
961.199	3591.87
961.502	3557.52
961.805	3537.18
962.108	3499.22
962.411	3481.36
962.714	3478.2
963.017	3449.73
963.32	3491.08
963.623	3459.22
963.926	3420.35
964.228	3407.24
964.531	3442.27
964.833	3391.65
965.136	3371.08
965.438	3364.98
965.741	3362.04
966.043	3317.53
966.345	3341.25
966.648	3312.1
966.95	3316.17
967.252	3266
967.554	3258.09
967.856	3298.77
968.158	3236.62
968.46	3229.84
968.761	3195.72
969.063	3211.77
969.365	3181.48
969.666	3141.26
969.968	3158.43
970.269	3139.68
970.571	3102.16
970.872	3130.41
971.174	3088.38
971.475	3096.06
971.776	3043.86
972.077	3075.05
972.378	3041.83
972.679	3028.72
972.98	3033.24
973.281	2993.92
973.582	3019.91
973.883	2979.91
974.183	2950.08
974.484	2982.17
974.785	2903.75
975.085	2937.87
975.386	2944.88
975.686	2898.78
975.986	2892.9
976.287	2876.41
976.587	2856.75
976.887	2810.42
977.187	2857.42
977.487	2828.27
977.787	2806.8
978.087	2772.46
978.387	2777.43
978.687	2774.72
978.987	2766.35
979.286	2752.57
979.586	2716.86
979.885	2757.31
980.185	2700.59
980.484	2741.5
980.784	2701.72
981.083	2673.02
981.382	2667.6
981.682	2670.09
981.981	2679.35
982.28	2634.83
982.579	2632.8
982.878	2618.79
983.177	2602.74
983.475	2579.01
983.774	2590.99
984.073	2603.19
984.372	2588.28
984.67	2582.4
984.969	2559.58
985.267	2547.6
985.566	2489.07
985.864	2524.1
986.162	2502.86
986.461	2476.64
986.759	2478
987.057	2444.33
987.355	2424.22
987.653	2419.7
987.951	2428.51
988.249	2377.66
988.547	2424.22
988.844	2375.18
989.142	2367.04
989.44	2354.16
989.737	2345.12
990.035	2339.7
990.332	2374.27
990.63	2346.03
990.927	2335.4
991.224	2327.5
991.521	2294.28
991.819	2287.27
992.116	2265.8
992.413	2253.6
992.71	2266.03
993.006	2221.96
993.303	2251.11
993.6	2236.88
993.897	2191
994.193	2195.52
994.49	2167.95
994.787	2199.14
995.083	2148.97
995.379	2158.01
995.676	2115.75
995.972	2103.77
996.268	2120.72
996.565	2085.47
996.861	2110.33
997.157	2096.99
997.453	2069.2
997.749	2078.69
998.044	2056.54
998.34	2021.74
998.636	2075.52
998.932	2002.98
999.227	2018.35
999.523	2033.72
999.818	2011.8
1000.114	1987.84
1000.409	1984.68
1000.704	1960.95
1001	1947.62
1001.295	1914.4
1001.59	1936.55
1001.885	1922.53
1002.18	1930.9
1002.475	1902.2
1002.77	1874.4
1003.065	1911.69
1003.359	1901.07
1003.654	1870.33
1003.949	1859.71
1004.243	1868.75
1004.538	1834.17
1004.832	1835.3
1005.127	1818.13
1005.421	1846.83
1005.715	1811.58
1006.009	1795.31
1006.304	1792.14
1006.598	1791.24
1006.892	1750.11
1007.186	1739.71
1007.48	1734.52
1007.773	1741.52
1008.067	1721.41
1008.361	1713.95
1008.655	1713.5
1008.948	1673.5
1009.242	1688.64
1009.535	1675.99
1009.829	1658.36
1010.122	1663.56
1010.415	1647.74
1010.708	1658.81
1011.001	1625.59
1011.295	1666.72
1011.588	1619.72
1011.881	1617.91
1012.173	1600.51
1012.466	1611.81
1012.759	1590.79
1013.052	1549.66
1013.344	1539.72
1013.637	1560.96
1013.93	1542.66
1014.222	1519.38
1014.514	1548.53
1014.807	1522.32
1015.099	1497.23
1015.391	1474.64
1015.683	1489.55
1015.976	1483.68
1016.268	1487.97
1016.56	1445.03
1016.851	1483.9
1017.143	1461.53
1017.435	1433.96
1017.727	1431.7
1018.018	1420.63
1018.31	1437.58
1018.602	1431.93
1018.893	1377.69
1019.185	1374.75
1019.476	1358.71
1019.767	1353.28
1020.058	1339.95
1020.35	1375.43
1020.641	1333.17
1020.932	1328.88
1021.223	1309.67
1021.514	1309.22
1021.804	1290.91
1022.095	1273.74
1022.386	1297.92
1022.677	1261.08
1022.967	1265.6
1023.258	1269.22
1023.548	1207.75
1023.839	1282.78
1024.129	1237.13
1024.419	1215.89
1024.709	1239.16
1025	1214.08
1025.29	1213.4
1025.58	1192.16
1025.87	1173.63
1026.16	1198.03
1026.449	1177.24
1026.739	1172.27
1027.029	1134.53
1027.319	1143.12
1027.608	1157.13
1027.898	1134.31
1028.187	1149.67
1028.477	1108.77
1028.766	1126.62
1029.055	1116.23
1029.344	1124.82
1029.634	1100.18
1029.923	1097.25
1030.212	1095.89
1030.501	1063.8
1030.79	1081.88
1031.078	1066.29
1031.367	1037.59
1031.656	1050.01
1031.945	1047.98
1032.233	1040.07
1032.522	1037.59
1032.81	1013.18
1033.099	1015.44
1033.387	994.42
1033.675	1001.2
1033.963	986.74
1034.251	974.54
1034.54	1005.27
1034.828	1006.4
1035.116	980.64
1035.403	963.92
1035.691	947.42
1035.979	964.59
1036.267	937.7
1036.554	935.89
1036.842	932.05
1037.129	951.26
1037.417	897.7
1037.704	919.17
1037.992	892.73
1038.279	893.63
1038.566	913.97
1038.853	913.97
1039.14	913.97
