Data from plate_porcelain_FLMS001491_069.txt Node
Date: Tue Feb 07 11:19:42 GMT 2017
User: dcchb
Spectrometer: FLMS00149
Trigger mode: 0
Integration Time (sec): 2.000000E-2
Scans to average: 10
Electric dark correction enabled: true
Nonlinearity correction enabled: false
Boxcar width: 0
XAxis mode: Wavelengths
Number of Pixels in Spectrum: 2048
>>>>>Begin Spectral Data<<<<<
341.393	-9.84
341.776	-9.84
342.16	-9.84
342.543	-69.5
342.927	-55.49
343.31	-59.79
343.693	-58.66
344.077	-62.95
344.46	-69.28
344.843	-38.77
345.226	-29.5
345.61	-54.81
345.993	-8.04
346.376	-7.36
346.759	10.72
347.142	22.02
347.525	16.6
347.908	47.1
348.291	81.45
348.674	84.62
349.057	126.65
349.44	130.04
349.823	163.03
350.206	170.04
350.588	240.54
350.971	253.2
351.354	253.65
351.737	283.48
352.119	304.27
352.502	309.92
352.884	306.08
353.267	335.01
353.65	325.06
354.032	342.24
354.414	370.26
354.797	352.63
355.179	365.74
355.562	375
355.944	368
356.326	383.59
356.709	390.37
357.091	380.88
357.473	377.94
357.855	383.14
358.238	389.92
358.62	402.35
359.002	388.11
359.384	408.45
359.766	391.95
360.148	407.32
360.53	395.57
360.912	391.73
361.294	410.94
361.676	378.85
362.057	389.92
362.439	383.37
362.821	395.57
363.203	400.54
363.584	378.39
363.966	384.5
364.348	398.28
364.729	389.02
365.111	389.69
365.493	400.31
365.874	392.63
366.256	391.5
366.637	402.35
367.019	391.05
367.4	407.32
367.781	396.47
368.163	395.57
368.544	417.04
368.925	391.73
369.306	403.93
369.688	409.13
370.069	402.8
370.45	410.48
370.831	416.81
371.212	405.51
371.593	413.87
371.974	413.65
372.355	422.46
372.736	438.51
373.117	415.23
373.498	414.33
373.879	412.97
374.26	422.69
374.641	420.88
375.021	432.4
375.402	427.88
375.783	448
376.163	467.88
376.544	465.17
376.925	469.01
377.305	443.25
377.686	466.3
378.066	454.1
378.447	473.53
378.827	474.89
379.208	491.84
379.588	495.45
379.968	489.8
380.349	470.59
380.729	487.54
381.109	516.92
381.489	480.31
381.87	494.1
382.25	498.39
382.63	502.01
383.01	502.46
383.39	527.54
383.77	521.89
384.15	524.83
384.53	515.57
384.91	525.06
385.29	553.08
385.67	556.24
386.049	557.15
386.429	585.85
386.809	577.71
387.189	575.9
387.568	566.64
387.948	584.72
388.328	594.43
388.707	643.7
389.087	633.53
389.466	607.99
389.846	631.27
390.225	624.94
390.605	636.47
390.984	643.7
391.363	632.17
391.743	651.61
392.122	649.57
392.501	685.5
392.881	679.63
393.26	687.99
393.639	673.3
394.018	711.49
394.397	692.51
394.776	710.36
395.155	712.17
395.534	722.11
395.913	746.97
396.292	732.06
396.671	752.17
397.05	761.89
397.429	763.47
397.808	742.23
398.186	781.77
398.565	786.97
398.944	783.36
399.323	798.5
399.701	802.79
400.08	817.93
400.458	817.7
400.837	835.33
401.215	841.21
401.594	850.7
401.972	876.91
402.351	866.74
402.729	881.43
403.107	913.97
403.486	897.93
403.864	934.54
404.242	943.35
404.62	958.27
404.999	921.88
405.377	950.58
405.755	959.4
406.133	982.22
406.511	994.42
406.889	1005.72
407.267	1010.24
407.645	994.87
408.023	1066.29
408.401	1074.65
408.779	1066.06
409.156	1112.84
409.534	1091.37
409.912	1105.61
410.29	1158.03
410.667	1134.31
411.045	1165.27
411.422	1167.53
411.8	1214.98
412.178	1215.21
412.555	1224.02
412.933	1254.53
413.31	1248.88
413.687	1255.66
414.065	1288.43
414.442	1313.28
414.819	1327.52
415.197	1348.99
415.574	1342.89
415.951	1372.72
416.328	1396.67
416.705	1418.14
417.082	1410.01
417.46	1462.21
417.837	1447.74
418.214	1453.85
418.591	1475.77
418.967	1481.64
419.344	1489.78
419.721	1526.84
420.098	1521.19
420.475	1551.02
420.852	1570.68
421.228	1571.81
421.605	1587.18
421.982	1636.21
422.358	1642.09
422.735	1663.56
423.111	1668.76
423.488	1707.17
423.864	1705.59
424.241	1709.88
424.617	1752.6
424.994	1764.8
425.37	1761.18
425.746	1798.02
426.123	1833.5
426.499	1849.09
426.875	1921.86
427.251	1938.58
427.627	1925.25
428.003	1938.13
428.379	1988.07
428.756	2016.09
429.132	2025.36
429.507	2061.06
429.883	2078.69
430.259	2113.49
430.635	2153.49
431.011	2170.89
431.387	2211.11
431.763	2265.8
432.138	2313.26
432.514	2312.81
432.89	2298.12
433.265	2375.18
433.641	2401.17
434.016	2416.98
434.392	2438.45
434.767	2520.48
435.143	2486.36
435.518	2547.15
435.894	2581.5
436.269	2658.56
436.644	2671.44
437.02	2701.04
437.395	2669.86
437.77	2727.94
438.145	2782.17
438.52	2833.47
438.895	2827.37
439.271	2850.65
439.646	2936.97
440.021	2925.9
440.395	2933.36
440.77	2920.7
441.145	2936.29
441.52	3030.53
441.895	3029.85
442.27	3082.05
442.645	3119.11
443.019	3112.33
443.394	3153.24
443.769	3148.26
444.143	3150.75
444.518	3225.32
444.892	3186.91
445.267	3225.55
445.641	3280.01
446.016	3274.14
446.39	3356.62
446.764	3353.23
447.139	3385.32
447.513	3375.6
447.887	3380.8
448.262	3452.66
448.636	3442.27
449.01	3495.6
449.384	3572.43
449.758	3569.72
450.132	3622.38
450.506	3638.65
450.88	3704.41
451.254	3689.27
451.628	3719.1
452.002	3798.64
452.376	3808.81
452.75	3878.64
453.123	3853.33
453.497	3954.57
453.871	3967
454.244	4041.57
454.618	4101.69
454.992	4146.88
455.365	4177.16
455.739	4271.62
456.112	4312.3
456.486	4355.69
456.859	4446.31
457.232	4491.28
457.606	4499.42
457.979	4564.5
458.352	4623.03
458.725	4708.9
459.099	4744.83
459.472	4853.76
459.845	4892.63
460.218	4910.48
460.591	4986.41
460.964	5025.5
461.337	5130.81
461.71	5257.14
462.083	5251.71
462.456	5277.93
462.829	5277.93
463.201	5429.11
463.574	5463.01
463.947	5559.73
464.32	5635.66
464.692	5727.86
465.065	5766.05
465.438	5841.75
465.81	5910.45
466.183	6015.99
466.555	6094.63
466.928	6107.73
467.3	6203.33
467.672	6239.26
468.045	6422.3
468.417	6414.17
468.789	6537.1
469.161	6646.7
469.534	6764.44
469.906	6879.47
470.278	6941.61
470.65	6996.3
471.022	7125.79
471.394	7286.91
471.766	7342.5
472.138	7465.89
472.51	7607.58
472.882	7712.89
473.253	7826.56
473.625	7902.26
473.997	8078.08
474.369	8127.79
474.74	8249.6
475.112	8415.02
475.484	8519.42
475.855	8712.19
476.227	8768.68
476.598	9025.62
476.97	9080.09
477.341	9329.8
477.713	9440.75
478.084	9479.4
478.455	9772.27
478.827	9883.68
479.198	10164.8
479.569	10187.85
479.94	10488.86
480.311	10634.17
480.682	10846.59
481.053	10992.58
481.424	11258.56
481.795	11431.21
482.166	11517.54
482.537	11626.23
482.908	11941.71
483.279	12098.09
483.65	12241.36
484.021	12571.29
484.391	12588.02
484.762	12783.04
485.133	12943.94
485.503	13137.61
485.874	13473.87
486.244	13508.67
486.615	13878.15
486.985	13968.55
487.356	14274.75
487.726	14417.57
488.097	14665.93
488.467	14658.92
488.837	15006.48
489.207	15264.56
489.578	15482.4
489.948	15626.13
490.318	15788.84
490.688	15943.41
491.058	16159
491.428	16405.77
491.798	16533.45
492.168	16960.56
492.538	17098.86
492.908	17218.86
493.278	17371.17
493.648	17521.9
494.017	17697.49
494.387	17841.21
494.757	18034.2
495.126	18205.95
495.496	18288.43
495.866	18369.56
496.235	18579.5
496.605	18830.79
496.974	18998.02
497.344	19208.86
497.713	19199.14
498.082	19381.74
498.452	19741.5
498.821	19706.7
499.19	19873.47
499.559	20089.51
499.928	20139.91
500.298	20369.51
500.667	20582.83
501.036	20483.85
501.405	20764.98
501.774	20732.21
502.143	21106.44
502.512	21084.29
502.88	21290.61
503.249	21371.29
503.618	21566.76
503.987	21767.66
504.356	21907.55
504.724	21891.5
505.093	22095.56
505.462	22237.93
505.83	22517.02
506.199	22613.29
506.567	22880.18
506.936	22828.43
507.304	23239.26
507.672	23216.21
508.041	23416.21
508.409	23533.72
508.777	23838.79
509.145	23963.76
509.514	23956.08
509.882	24172.34
510.25	24322.85
510.618	24575.95
510.986	24593.58
511.354	24880.8
511.722	24970.97
512.09	25269.72
512.458	25329.83
512.826	25559.88
513.193	25649.82
513.561	25880.1
513.929	26125.97
514.297	26322.34
514.664	26544.49
515.032	26605.5
515.4	26913.74
515.767	27141.76
516.135	27223.56
516.502	27055.88
516.869	27611.8
517.237	27678.69
517.604	27733.83
517.972	28040.04
518.339	28332.69
518.706	28386.92
519.073	28649.29
519.44	28790.53
519.808	29178.09
520.175	29226.45
520.542	29655.14
520.909	29663.5
521.276	29686.1
521.643	30147.78
522.009	30395.91
522.376	30727.43
522.743	30775.79
523.11	31053.29
523.477	31246.96
523.843	31527.18
524.21	31939.37
524.577	32060.05
524.943	32205.35
525.31	32381.17
525.676	32738.67
526.043	32941.83
526.409	33044.2
526.776	33415.27
527.142	33641.25
527.508	33802.6
527.874	34127.34
528.241	34277.16
528.607	34339.99
528.973	34767.55
529.339	34767.09
529.705	35116.01
530.071	35479.62
530.437	35596.45
530.803	35896.78
531.169	35948.76
531.535	36056.78
531.901	36196.44
532.267	36489.76
532.632	36600.72
532.998	36789.87
533.364	37049.75
533.73	37051.1
534.095	37499.9
534.461	37523.18
534.826	37811.99
535.192	37955.94
535.557	38254.46
535.923	38221.69
536.288	38429.37
536.653	38495.81
537.019	38487.9
537.384	38663.49
537.749	38897.61
538.114	38971.5
538.479	39178.73
538.845	39363.36
539.21	39237.03
539.575	39555.89
539.94	39709.79
540.305	40015.77
540.67	39889.9
541.034	40017.58
541.399	40362.88
541.764	40431.35
542.129	40553.61
542.494	40649.2
542.858	40768.97
543.223	40832.02
543.587	41171.45
543.952	41166.25
544.316	41271.1
544.681	41514.49
545.045	41597.2
545.41	41736.4
545.774	41893.69
546.138	41929.39
546.503	42141.82
546.867	42218.42
547.231	42523.5
547.595	42556.95
547.959	42750.39
548.324	42816.15
548.688	42940.89
549.052	43019.53
549.416	43099.53
549.779	43327.32
550.143	43391.05
550.507	43569.8
550.871	43857.02
551.235	43875.1
551.599	44170.01
551.962	44284.58
552.326	44403.68
552.689	44627.63
553.053	44582.2
553.417	44704.23
553.78	45163.66
554.143	45044.34
554.507	45294.73
554.87	45428.28
555.234	45918.67
555.597	45590.54
555.96	45904.88
556.323	46113.46
556.686	46004.09
557.05	46299.22
557.413	46495.15
557.776	46608.14
558.139	47001.8
558.502	46904.85
558.865	46993.67
559.228	47368.34
559.59	47398.17
559.953	47419.87
560.316	47945.28
560.679	47914.09
561.041	48066.41
561.404	48446.73
561.767	48620.29
562.129	48503.91
562.492	48885.82
562.854	48805.82
563.217	49132.59
563.579	49202.19
563.941	49453.49
564.304	49615.97
564.666	49868.17
565.028	49902.29
565.39	50025.68
565.753	50269.74
566.115	50374.59
566.477	50456.4
566.839	50521.71
567.201	50802.38
567.563	50841.93
567.925	51073.11
568.287	51263.61
568.648	51232.42
569.01	51418.63
569.372	51598.97
569.734	51562.36
570.095	51780.88
570.457	51904.04
570.819	52006.19
571.18	52010.03
571.542	52256.8
571.903	52271.27
572.265	52374.99
572.626	52445.5
572.987	52555.55
573.349	52642.1
573.71	52748.77
574.071	52779.73
574.432	52834.87
574.794	53125.26
575.155	53103.11
575.516	52972.27
575.877	53217.23
576.238	53250.45
576.599	53321.18
576.96	53397.79
577.32	53330.67
577.681	53554.4
578.042	53540.61
578.403	53659.25
578.763	53652.93
579.124	53701.29
579.485	53861.96
579.845	53859.7
580.206	53829.87
580.566	53857.89
580.927	53864.9
581.287	53978.79
581.648	53858.12
582.008	54026.7
582.368	53923.88
582.728	54030.32
583.089	53997.1
583.449	54045.68
583.809	54033.71
584.169	54122.97
584.529	54068.73
584.889	54324.32
585.249	54046.36
585.609	53968.85
585.969	54231.44
586.329	54080.03
586.688	54133.36
587.048	54181.95
587.408	54162.97
587.768	54151.22
588.127	54159.8
588.487	54093.14
588.846	54329.29
589.206	54187.83
589.565	54131.33
589.925	54313.7
590.284	54223.53
590.643	54291.55
591.003	54376.75
591.362	54338.78
591.721	54370.42
592.08	54305.79
592.44	54461.04
592.799	54460.14
593.158	54396.18
593.517	54387.37
593.876	54415.17
594.235	54388.95
594.593	54424.88
594.952	54584.65
595.311	54388.5
595.67	54507.82
596.029	54588.04
596.387	54534.94
596.746	54626.46
597.104	54513.47
597.463	54576.52
597.822	54703.52
598.18	54546.01
598.538	54628.49
598.897	54700.36
599.255	54504.88
599.613	54928.15
599.972	54699.68
600.33	54834.14
600.688	54716.63
601.046	54888.15
601.404	54984.87
601.762	54962.04
602.12	55039.56
602.478	54978.09
602.836	55040.91
603.194	54857.87
603.552	54941.71
603.91	54844.53
604.268	55028.71
604.625	54975.15
604.983	55123.17
605.341	55006.11
605.698	55221.02
606.056	55171.08
606.413	55171.98
606.771	55265.99
607.128	55249.27
607.485	55099.22
607.843	55125.2
608.2	55386.89
608.557	55411.52
608.914	55327.91
609.272	55405.42
609.629	55478.87
609.986	55625.75
610.343	55429.15
610.7	55701.91
611.057	55583.72
611.414	55628.69
611.771	55606.09
612.127	55650.16
612.484	55641.57
612.841	55802.7
613.198	55684.51
613.554	55788.46
613.911	55855.35
614.267	55861.68
614.624	55813.09
614.98	55889.25
615.337	55991.85
615.693	56016.93
616.05	55928.8
616.406	56096.25
616.762	55990.72
617.118	55984.16
617.475	56018.96
617.831	56063.26
618.187	56061.22
618.543	56046.31
618.899	56333.08
619.255	56253.31
619.611	56133.76
619.967	56230.48
620.323	56298.51
620.678	56283.36
621.034	56115.69
621.39	56277.49
621.746	56213.54
622.101	56481.33
622.457	56188.23
622.812	56192.52
623.168	56344.38
623.523	56352.06
623.879	56362.68
624.234	56201.56
624.589	56347.54
624.945	56432.29
625.3	56437.48
625.655	56315.23
626.01	56345.51
626.365	56305.74
626.72	56311.39
627.075	56235.91
627.43	56293.08
627.785	56173.54
628.14	56190.26
628.495	56219.19
628.85	56264.38
629.205	56099.64
629.559	56186.42
629.914	56182.58
630.269	56199.98
630.623	56118.62
630.978	56040.21
631.332	56146.65
631.687	56172.86
632.041	56076.36
632.396	56070.04
632.75	55939.87
633.104	56026.2
633.459	55904.84
633.813	55829.59
634.167	55906.65
634.521	55885.86
634.875	55881.34
635.229	55832.76
635.583	55665.98
635.937	55714.79
636.291	55668.92
636.645	55661.01
636.999	55576.72
637.352	55678.86
637.706	55552.54
638.06	55612.2
638.413	55526.32
638.767	55503.27
639.121	55480.22
639.474	55240.23
639.828	55271.87
640.181	55320
640.534	55423.5
640.888	55252.88
641.241	55194.81
641.594	55193.68
641.947	55295.59
642.301	55174.69
642.654	55230.51
643.007	55156.39
643.36	55112.55
643.713	55035.71
644.066	55094.92
644.419	54913.46
644.771	54659.68
645.124	54529.74
645.477	54435.73
645.83	54192.35
646.182	54099.69
646.535	54037.1
646.888	54061.95
647.24	53920.49
647.593	54068.73
647.945	53920.26
648.298	53788.74
648.65	53721.17
649.002	53645.69
649.355	53775.63
649.707	53745.35
650.059	53796.42
650.411	54199.58
650.763	54209.29
651.115	54449.51
651.467	54317.77
651.819	54263.98
652.171	54242.51
652.523	54208.39
652.875	54217.66
653.227	54036.19
653.578	54215.17
653.93	54146.7
654.282	53996.87
654.633	53984.44
654.985	54019.24
655.337	53988.74
655.688	53937.44
656.039	54069.86
656.391	53873.48
656.742	53880.49
657.094	53849.53
657.445	54025.57
657.796	53863.32
658.147	53847.72
658.498	53781.51
658.849	53877.55
659.2	53785.58
659.551	53749.19
659.902	53853.15
660.253	53809.76
660.604	53786.48
660.955	53704.22
661.306	53755.97
661.656	53633.04
662.007	53642.98
662.358	53668.97
662.708	53661.06
663.059	53480.73
663.409	53320.73
663.76	53595.07
664.11	53593.27
664.461	53636.65
664.811	53534.28
665.161	53560.95
665.511	53473.5
665.862	53496.09
666.212	53631.23
666.562	53639.14
666.912	53487.28
667.262	53494.06
667.612	53459.94
667.962	53569.09
668.312	53463.33
668.662	53529.31
669.011	53467.17
669.361	53352.14
669.711	53356.21
670.06	53362.09
670.41	53292.71
670.76	53246.61
671.109	53364.35
671.459	53253.39
671.808	53181.53
672.157	53292.71
672.507	53128.87
672.856	53092.71
673.205	53172.49
673.554	53262.65
673.904	53157.8
674.253	53196.67
674.602	53088.65
674.951	52657.92
675.3	52581.54
675.649	53004.35
675.998	52945.15
676.346	52991.47
676.695	53097.69
677.044	52833.06
677.393	53013.39
677.741	53084.58
678.09	52869.44
678.438	52800.29
678.787	52805.94
679.135	52830.8
679.484	52722.78
679.832	52758.71
680.181	52556.23
680.529	52628.55
680.877	52513.52
681.225	52589.45
681.573	52646.4
681.922	52450.92
682.27	52349.46
682.618	52314.2
682.966	52324.6
683.314	52309.46
683.661	52188.78
684.009	52169.12
684.357	51983.59
684.705	52005.06
685.053	51999.86
685.4	51952.63
685.748	51703.82
686.095	51714.22
686.443	51550.16
686.79	51498.18
687.138	51555.13
687.485	51681.68
687.832	51458.86
688.18	51541.12
688.527	51316.49
688.874	51288.02
689.221	51235.14
689.568	51100.9
689.915	50894.58
690.262	51062.71
690.609	50919.21
690.956	50780.46
691.303	50570.29
691.65	50550.63
691.997	50555.15
692.344	50315.39
692.69	50441.94
693.037	50464.53
693.383	50059.57
693.73	50264.09
694.077	49979.12
694.423	49919.69
694.769	49892.12
695.116	49816.64
695.462	49863.65
695.808	49725.35
696.155	49706.36
696.501	49387.27
696.847	49518.8
697.193	49126.49
697.539	49391.12
697.885	49140.73
698.231	48915.87
698.577	48941.86
698.923	48801.75
699.269	48615.54
699.614	48369.22
699.96	48310.24
700.306	48485.38
700.651	48432.05
700.997	48116.35
701.342	48035.67
701.688	48048.1
702.033	47906.41
702.379	47793.19
702.724	47708
703.069	47768.79
703.415	47342.13
703.76	47351.17
704.105	47282.02
704.45	47174.9
704.795	46909.6
705.14	46778.76
705.485	46931.07
705.83	46649.72
706.175	46763.62
706.52	46488.82
706.865	46326.79
707.209	46387.13
707.554	46191.2
707.899	46392.1
708.243	46222.61
708.588	46002.51
708.932	45711.89
709.277	45774.94
709.621	45849.06
709.966	45578.79
710.31	45692.23
710.654	45234.39
710.998	45483.65
711.342	45412.01
711.687	45184
712.031	45135.18
712.375	44877.56
712.719	45079.37
713.063	44828.52
713.407	44962.98
713.75	44603.9
714.094	44678.47
714.438	44558.25
714.782	44529.55
715.125	44358.03
715.469	44336.33
715.812	43978.6
716.156	43982.45
716.499	44030.13
716.843	44127.07
717.186	43717.59
717.53	43831.04
717.873	43843.01
718.216	43796.91
718.559	43615.9
718.902	43384.27
719.246	43603.25
719.589	43288.9
719.932	43232.63
720.275	43227.21
720.617	43222.69
720.96	43012.3
721.303	42936.37
721.646	43012.75
721.989	42758.07
722.331	42935.69
722.674	42611.41
723.016	42786.77
723.359	42627.68
723.701	42620.45
724.044	42396.95
724.386	42141.14
724.729	42328.03
725.071	42222.49
725.413	42073.34
725.755	42048.03
726.097	41929.39
726.439	41753.13
726.782	41840.58
727.124	41759.68
727.465	41782.73
727.807	41608.95
728.149	41543.19
728.491	41453.7
728.833	41631.32
729.175	41428.39
729.516	41401.27
729.858	41259.35
730.199	41224.78
730.541	41137.77
730.882	40957.89
731.224	41095.97
731.565	40946.14
731.906	40953.82
732.248	40848.74
732.589	40530.56
732.93	40507.51
733.271	40666.37
733.612	40684
733.953	40754.51
734.294	40499.37
734.635	40321.07
734.976	40364.46
735.317	40149.78
735.658	40217.8
735.999	40100.74
736.339	40087.41
736.68	40256.22
737.021	40013.06
737.361	39996.79
737.702	40006.5
738.042	39814.19
738.383	39827.75
738.723	39814.19
739.063	39679.96
739.404	39769
739.744	39490.59
740.084	39540.08
740.424	39543.69
740.764	39297.37
741.104	39296.47
741.444	39244.04
741.784	39012.63
742.124	38952.3
742.464	38976.7
742.804	39013.08
743.143	38908.68
743.483	38886.53
743.823	38668.46
744.162	38686.09
744.502	38798.17
744.841	38458.07
745.181	38617.16
745.52	38485.41
745.86	38512.98
746.199	38286.32
746.538	38341.69
746.877	38287
747.216	38270.28
747.556	38098.31
747.895	38036.84
748.234	37861.02
748.573	37964.3
748.911	37764.53
749.25	37762.27
749.589	37618.77
749.928	37588.04
750.267	37654.25
750.605	37552.33
750.944	37303.3
751.283	37366.57
751.621	37281.15
751.96	37107.6
752.298	37079.12
752.636	37159.12
752.975	36968.62
753.313	36884.78
753.651	36948.28
753.989	36657.67
754.327	36614.73
754.666	36434.17
755.004	36562.98
755.342	36433.27
755.679	36556.2
756.017	36381.74
756.355	36230.33
756.693	36109.21
757.031	36239.82
757.368	36016.55
757.706	35931.81
758.044	35687.75
758.381	35774.98
758.719	35683.91
759.056	35616.34
759.394	35530.01
759.731	35177.48
760.068	35280.98
760.405	35025.84
760.743	34881.89
761.08	35030.82
761.417	34799.64
761.754	34646.19
762.091	34615.91
762.428	34566.2
762.765	34317.61
763.102	34565.52
763.438	34254.57
763.775	34071.07
764.112	34088.24
764.449	34033.55
764.785	33836.95
765.122	33561.48
765.458	33533.91
765.795	33474.7
766.131	33517.18
766.467	33257.08
766.804	33121.49
767.14	32861.83
767.476	32853.47
767.812	32752.01
768.148	32801.5
768.485	32610.09
768.821	32459.13
769.157	32444.67
769.492	32321.06
769.828	32221.4
770.164	32015.98
770.5	32013.49
770.836	31971.01
771.171	31687.63
771.507	31686.5
771.842	31383.23
772.178	31510.68
772.513	31443.57
772.849	31369.44
773.184	31285.38
773.519	31126.06
773.855	30873.64
774.19	30792.74
774.525	30755
774.86	30722
775.195	30629.12
775.53	30390.03
775.865	30290.6
776.2	30176.48
776.535	29978.75
776.87	29917.28
777.205	29795.02
777.539	29716.15
777.874	29732.88
778.209	29459.66
778.543	29446.33
778.878	29335.15
779.212	29205.43
779.547	28983.52
779.881	29044.98
780.215	28887.7
780.55	28970.41
780.884	28692
781.218	28540.37
781.552	28582.4
781.886	28472.12
782.22	28304.21
782.554	28280.94
782.888	28035.29
783.222	27979.7
783.556	27861.29
783.889	27764.79
784.223	27584.91
784.557	27470.56
784.89	27560.96
785.224	27391.92
785.557	27168.65
785.891	27184.02
786.224	27018.6
786.558	27049.11
786.891	26745.61
787.224	26646.63
787.557	26717.14
787.891	26557.14
788.224	26549.91
788.557	26532.96
788.89	26323.7
789.223	26329.58
789.556	26143.37
789.888	26048.68
790.221	25991.51
790.554	25740.44
790.887	25735.24
791.219	25622.7
791.552	25597.84
791.884	25485.76
792.217	25346.78
792.549	25423.16
792.882	25104.98
793.214	25071.08
793.546	25165.99
793.879	24980.01
794.211	24733.91
794.543	24834.25
794.875	24736.85
795.207	24833.34
795.539	24601.94
795.871	24576.85
796.203	24343.19
796.535	24218.45
796.867	24151.78
797.198	24217.54
797.53	24086.7
797.862	23888.96
798.193	23964.89
798.525	23820.49
798.856	23906.14
799.188	23601.29
799.519	23449.2
799.85	23401.29
800.182	23423.44
800.513	23433.61
800.844	23195.42
801.175	23380.95
801.506	23284.91
801.837	23133.05
802.168	23107.29
802.499	22926.05
802.83	22789.1
803.161	22826.17
803.491	22753.62
803.822	22735.09
804.153	22539.85
804.483	22397.7
804.814	22401.09
805.145	22371.26
805.475	22292.39
805.805	22240.42
806.136	22302.34
806.466	22157.48
806.796	21996.13
807.126	21988.67
807.457	21968.11
807.787	21882.69
808.117	21783.25
808.447	21670.94
808.777	21731.5
809.107	21662.81
809.436	21621.45
809.766	21641.11
810.096	21514.11
810.426	21347.79
810.755	21444.73
811.085	21308.24
811.414	21188.47
811.744	21004.97
812.073	21108.7
812.403	21065.76
812.732	20900.34
813.061	20938.98
813.39	20868.02
813.719	20736.5
814.049	20823.28
814.378	20742.15
814.707	20570.86
815.036	20566.34
815.365	20505.55
815.693	20340.13
816.022	20291.32
816.351	20279.11
816.68	20209.96
817.008	20291.54
817.337	20172.68
817.665	19993.92
817.994	20132.22
818.322	20085.67
818.651	20022.4
818.979	19866.24
819.307	19962.29
819.636	19901.72
819.964	19805.45
820.292	19782.86
820.62	19750.31
820.948	19668.51
821.276	19800.71
821.604	19678.45
821.932	19762.07
822.259	19664.89
822.587	19608.4
822.915	19577.21
823.243	19679.81
823.57	19559.36
823.898	19586.48
824.225	19559.58
824.553	19471.45
824.88	19525.46
825.207	19673.93
825.535	19523.43
825.862	19596.87
826.189	19561.84
826.516	19633.03
826.843	19656.98
827.17	19704.21
827.497	19638
827.824	19637.55
828.151	19610.43
828.478	19568.62
828.805	19661.95
829.131	19528.17
829.458	19455.63
829.785	19398.91
830.111	19546.25
830.438	19656.53
830.764	19536.08
831.09	19549.64
831.417	19296.31
831.743	19485.91
832.069	19405.24
832.395	19324.34
832.722	19365.92
833.048	19358.69
833.374	19430.55
833.7	19228.29
834.026	19332.47
834.351	19298.12
834.677	19225.81
835.003	19350.55
835.329	19276.65
835.654	19246.82
835.98	19078.92
836.306	19164.34
836.631	18960.05
836.956	19057.68
837.282	19118.24
837.607	19116.21
837.932	19047.06
838.258	19041.18
838.583	18932.03
838.908	18804.12
839.233	18915.99
839.558	18928.41
839.883	18740.17
840.208	18810
840.533	18781.98
840.858	18704.01
841.182	18758.02
841.507	18623.79
841.832	18644.81
842.156	18603.45
842.481	18562.1
842.805	18437.81
843.13	18417.69
843.454	18382.67
843.778	18293.18
844.103	18277.13
844.427	18195.78
844.751	18149.9
845.075	18189.23
845.399	18168.43
845.723	17960.53
846.047	18075.78
846.371	17885.28
846.695	17866.75
847.019	17757.15
847.343	17636.02
847.666	17520.54
847.99	17458.62
848.313	17436.93
848.637	17343.82
848.96	17387.66
849.284	17257.95
849.607	17075.13
849.931	17007.56
850.254	16995.81
850.577	16976.38
850.9	16821.8
851.223	16675.82
851.546	16661.58
851.869	16541.13
852.192	16776.38
852.515	16590.62
852.838	16471.53
853.161	16468.37
853.483	16411.64
853.806	16384.07
854.129	16293
854.451	16208.71
854.774	16256.85
855.096	16046
855.419	16106.57
855.741	16017.76
856.063	15907.93
856.385	15896.18
856.708	15882.85
857.03	15775.05
857.352	15775.5
857.674	15655.51
857.996	15626.35
858.318	15549.52
858.64	15570.54
858.961	15544.1
859.283	15443.08
859.605	15359.24
859.926	15460.48
860.248	15293.03
860.57	15299.58
860.891	15332.8
861.212	15204.22
861.534	15141.4
861.855	15079.7
862.176	15052.13
862.498	15069.53
862.819	15189.76
863.14	15012.81
863.461	15033.15
863.782	14964
864.103	14975.98
864.424	14874.74
864.745	14926.26
865.065	14856.21
865.386	14841.74
865.707	14775.3
866.027	14738.69
866.348	14810.78
866.668	14785.47
866.989	14730.11
867.309	14596.33
867.63	14544.35
867.95	14646.27
868.27	14568.08
868.59	14539.83
868.91	14531.69
869.23	14517.91
869.55	14472.94
869.87	14553.16
870.19	14484.69
870.51	14417.57
870.83	14413.96
871.15	14292.83
871.469	14262.55
871.789	14261.64
872.109	14227.07
872.428	14231.14
872.748	14224.81
873.067	14134.42
873.386	14250.35
873.706	14082.67
874.025	14149.78
874.344	14104.36
874.663	14140.07
874.982	14091.25
875.301	14065.04
875.62	13914.31
875.939	13967.87
876.258	13977.58
876.577	13889
876.896	13973.29
877.214	13849
877.533	13883.8
877.852	13861.43
878.17	13834.99
878.489	13794.09
878.807	13800.41
879.125	13756.35
879.444	13639.29
879.762	13646.97
880.08	13691.04
880.398	13663.69
880.716	13641.55
881.034	13573.98
881.352	13624.6
881.67	13536.01
881.988	13554.77
882.306	13536.92
882.624	13491.04
882.941	13437.49
883.259	13344.61
883.577	13335.34
883.894	13330.82
884.212	13312.07
884.529	13208.11
884.846	13164.27
885.164	13027.55
885.481	13138.96
885.798	13155.46
886.115	13042.92
886.432	12979.87
886.75	12937.39
887.067	12931.96
887.383	12857.16
887.7	12959.31
888.017	12906.88
888.334	12918.86
888.651	12872.75
888.967	12837.05
889.284	12780.78
889.6	12771.97
889.917	12670.73
890.233	12707.34
890.55	12616.04
890.866	12643.83
891.182	12567.9
891.498	12530.16
891.815	12429.38
892.131	12369.72
892.447	12356.84
892.763	12341.7
893.079	12342.37
893.395	12179.21
893.71	12237.74
894.026	12238.65
894.342	12284.75
894.657	12072.78
894.973	12030.74
895.289	12113
895.604	12037.07
895.92	11979.67
896.235	11851.76
896.55	11837.98
896.865	11867.36
897.181	11826.45
897.496	11910.75
897.811	11758.21
898.126	11725.21
898.441	11706.01
898.756	11679.57
899.071	11590.98
899.386	11610.87
899.7	11448.39
900.015	11380.82
900.33	11423.98
900.644	11380.14
900.959	11338.78
901.273	11342.4
901.588	11284.32
901.902	11165.91
902.216	11151.44
902.531	11136.08
902.845	11081.84
903.159	11079.58
903.473	10987.15
903.787	10877.78
904.101	10868.97
904.415	10855.41
904.729	10750.32
905.042	10788.97
905.356	10675.52
905.67	10700.83
905.984	10695.86
906.297	10633.72
906.611	10607.05
906.924	10581.97
907.237	10559.14
907.551	10555.3
907.864	10476.21
908.177	10453.84
908.491	10407.51
908.804	10315.08
909.117	10226.04
909.43	10130
909.743	10134.52
910.056	10093.39
910.368	10123
910.681	10058.82
910.994	10048.65
911.307	9965.26
911.619	9863.34
911.932	9968.65
912.244	9809.11
912.557	9831.03
912.869	9739.5
913.181	9757.36
913.494	9688.21
913.806	9702.89
914.118	9633.29
914.43	9582.45
914.742	9571.37
915.054	9539.74
915.366	9468.78
915.678	9421.09
915.99	9422.22
916.302	9315.11
916.613	9263.36
916.925	9234.43
917.236	9278.72
917.548	9137.26
917.859	9171.38
918.171	9095.45
918.482	9047.32
918.794	8987.43
919.105	8965.51
919.416	8904.5
919.727	8874.89
920.038	8912.18
920.349	8873.54
920.66	8755.57
920.971	8725.52
921.282	8753.77
921.593	8689.59
921.903	8672.87
922.214	8563.72
922.525	8530.72
922.835	8484.85
923.146	8476.26
923.456	8482.59
923.767	8452.53
924.077	8408.69
924.387	8383.16
924.697	8212.54
925.008	8208.47
925.318	8256.15
925.628	8200.11
925.938	8148.81
926.248	8147.68
926.558	8107.91
926.867	8064.97
927.177	8034.01
927.487	7957.4
927.796	7865.2
928.106	7939.33
928.416	7868.82
928.725	7830.63
929.034	7737.97
929.344	7793.57
929.653	7765.32
929.962	7638.54
930.271	7629.05
930.581	7624.53
930.89	7577.98
931.199	7522.61
931.508	7517.19
931.817	7532.56
932.125	7517.19
932.434	7464.54
932.743	7361.26
933.051	7323.75
933.36	7336.4
933.669	7272
933.977	7332.56
934.286	7245.56
934.594	7217.08
934.902	7173.92
935.21	7053.02
935.519	7107.03
935.827	7028.39
936.135	7021.61
936.443	6996.3
936.751	6962.63
937.059	6888.51
937.367	6935.74
937.674	6904.78
937.982	6899.13
938.29	6854.83
938.597	6824.1
938.905	6776.87
939.213	6745.01
939.52	6695.97
939.827	6697.78
940.135	6674.95
940.442	6670.43
940.749	6625.69
941.056	6614.61
941.363	6544.33
941.67	6540.94
941.977	6462.75
942.284	6445.81
942.591	6424.34
942.898	6396.54
943.205	6410.33
943.511	6335.07
943.818	6312.02
944.125	6340.72
944.431	6239.48
944.738	6255.53
945.044	6190.67
945.35	6210.78
945.657	6197.68
945.963	6080.39
946.269	6094.63
946.575	6078.13
946.881	6064.57
947.187	6062.99
947.493	5950.45
947.799	5935.54
948.105	5963.33
948.41	5872.26
948.716	5901.86
949.022	5836.33
949.327	5752.26
949.633	5778.25
949.938	5790.46
950.244	5721.76
950.549	5682.21
950.854	5696.22
951.16	5657.58
951.465	5614.41
951.77	5613.06
952.075	5637.24
952.38	5538.03
952.685	5581.42
952.99	5563.34
953.294	5505.72
953.599	5465.72
953.904	5466.62
954.209	5408.09
954.513	5407.64
954.818	5415.78
955.122	5342.78
955.426	5350.69
955.731	5267.76
956.035	5307.3
956.339	5257.14
956.643	5207.87
956.948	5211.49
957.252	5177.59
957.556	5164.03
957.86	5152.05
958.163	5171.94
958.467	5078.38
958.771	5080.19
959.075	5079.29
959.378	4995.67
959.682	5056.01
959.985	5002.23
960.289	4932.4
960.592	4949.12
960.896	4891.72
961.199	4893.76
961.502	4841.33
961.805	4831.84
962.108	4853.3
962.411	4839.52
962.714	4807.88
963.017	4750.71
963.32	4748.22
963.623	4742.12
963.926	4731.73
964.228	4701.9
964.531	4687.21
964.833	4673.2
965.136	4651.95
965.438	4608.34
965.741	4633.65
966.043	4587.1
966.345	4580.54
966.648	4537.61
966.95	4562.69
967.252	4470.26
967.554	4472.98
967.856	4496.48
968.158	4439.08
968.46	4415.58
968.761	4420.55
969.063	4319.08
969.365	4370.15
969.666	4300.1
969.968	4299.19
970.269	4289.03
970.571	4237.73
970.872	4301.23
971.174	4218.07
971.475	4210.84
971.776	4148.01
972.077	4187.79
972.378	4171.51
972.679	4121.35
972.98	4118.18
973.281	4098.3
973.582	4098.07
973.883	4040.67
974.183	4073.66
974.484	4071.63
974.785	3989.6
975.085	3995.02
975.386	4028.47
975.686	3965.87
975.986	3937.85
976.287	3914.35
976.587	3921.35
976.887	3847.46
977.187	3837.29
977.487	3827.12
977.787	3852.2
978.087	3811.75
978.387	3811.07
978.687	3760.45
978.987	3776.72
979.286	3756.84
979.586	3738.76
979.885	3662.83
980.185	3682.04
980.484	3655.37
980.784	3697.4
981.083	3654.47
981.382	3628.93
981.682	3591.87
981.981	3615.15
982.28	3566.33
982.579	3595.71
982.878	3580.8
983.177	3544.19
983.475	3463.51
983.774	3471.87
984.073	3445.66
984.372	3471.42
984.67	3434.36
984.969	3440.23
985.267	3446.34
985.566	3360.24
985.864	3407.01
986.162	3383.06
986.461	3367.24
986.759	3346.23
987.057	3318.2
987.355	3274.82
987.653	3290.41
987.951	3259.9
988.249	3282.05
988.547	3238.88
988.844	3259.9
989.142	3233.23
989.44	3245.66
989.737	3177.87
990.035	3160.47
990.332	3199.56
990.63	3114.14
990.927	3146
991.224	3116.85
991.521	3118.66
991.819	3098.1
992.116	3083.41
992.413	3068.27
992.71	3061.26
993.006	3033.92
993.303	3015.39
993.6	2970.19
993.897	2973.35
994.193	2960.7
994.49	2961.38
994.787	2950.08
995.083	2918.44
995.379	2864.2
995.676	2876.41
995.972	2878.67
996.268	2883.86
996.565	2855.62
996.861	2844.77
997.157	2819.01
997.453	2802.29
997.749	2790.08
998.044	2743.08
998.34	2751.66
998.636	2690.65
998.932	2711.67
999.227	2715.28
999.523	2682.29
999.818	2654.04
1000.114	2668.28
1000.409	2639.13
1000.704	2638.22
1001	2630.76
1001.295	2602.29
1001.59	2595.06
1001.885	2623.31
1002.18	2568.17
1002.475	2550.09
1002.77	2546.7
1003.065	2540.6
1003.359	2473.25
1003.654	2538.11
1003.949	2500.37
1004.243	2460.6
1004.538	2476.87
1004.832	2413.14
1005.127	2380.15
1005.421	2381.73
1005.715	2388.96
1006.009	2386.25
1006.304	2354.61
1006.598	2370.21
1006.892	2357.33
1007.186	2341.28
1007.48	2352.13
1007.773	2299.02
1008.067	2299.93
1008.361	2272.81
1008.655	2263.77
1008.948	2250.21
1009.242	2246.59
1009.535	2238.23
1009.829	2208.4
1010.122	2192.13
1010.415	2194.84
1010.708	2184.45
1011.001	2168.86
1011.295	2112.59
1011.588	2120.72
1011.881	2139.48
1012.173	2112.81
1012.466	2068.52
1012.759	2108.52
1013.052	2052.7
1013.344	2042.08
1013.637	2072.13
1013.93	2032.14
1014.222	2005.47
1014.514	2020.16
1014.807	1966.83
1015.099	1945.81
1015.391	1970.22
1015.683	1950.33
1015.976	1956.88
1016.268	1934.74
1016.56	1913.95
1016.851	1939.03
1017.143	1902.42
1017.435	1868.3
1017.727	1889.31
1018.018	1876.66
1018.31	1845.93
1018.602	1831.24
1018.893	1848.41
1019.185	1813.16
1019.476	1770.9
1019.767	1782.88
1020.058	1769.32
1020.35	1765.25
1020.641	1765.48
1020.932	1758.7
1021.223	1722.31
1021.514	1716.66
1021.804	1678.92
1022.095	1690.68
1022.386	1683.9
1022.677	1673.05
1022.967	1638.7
1023.258	1639.6
1023.548	1663.11
1023.839	1626.72
1024.129	1623.11
1024.419	1605.48
1024.709	1585.37
1025	1564.13
1025.29	1577.68
1025.58	1559.15
1025.87	1549.21
1026.16	1530
1026.449	1550.34
1026.739	1540.62
1027.029	1518.03
1027.319	1487.29
1027.608	1475.77
1027.898	1480.29
1028.187	1479.61
1028.477	1453.17
1028.766	1455.2
1029.055	1416.56
1029.344	1424.69
1029.634	1420.63
1029.923	1437.35
1030.212	1376.11
1030.501	1427.63
1030.79	1361.64
1031.078	1370.68
1031.367	1358.03
1031.656	1352.61
1031.945	1347.41
1032.233	1353.74
1032.522	1336.33
1032.81	1341.31
1033.099	1328.88
1033.387	1268.99
1033.675	1275.32
1033.963	1301.08
1034.251	1287.97
1034.54	1251.59
1034.828	1254.76
1035.116	1261.76
1035.403	1250.91
1035.691	1186.51
1035.979	1242.33
1036.267	1200.52
1036.554	1215.66
1036.842	1207.07
1037.129	1197.58
1037.417	1160.75
1037.704	1157.58
1037.992	1154.42
1038.279	1153.74
1038.566	1135.66
1038.853	1135.66
1039.14	1135.66
