Data from plate_ceramic_FLMS001491_099.txt Node
Date: Tue Feb 07 11:17:35 GMT 2017
User: dcchb
Spectrometer: FLMS00149
Trigger mode: 0
Integration Time (sec): 2.000000E-2
Scans to average: 10
Electric dark correction enabled: true
Nonlinearity correction enabled: false
Boxcar width: 0
XAxis mode: Wavelengths
Number of Pixels in Spectrum: 2048
>>>>>Begin Spectral Data<<<<<
341.393	-14.82
341.776	-14.82
342.16	-14.82
342.543	-69.96
342.927	-73.12
343.31	-83.51
343.693	-81.03
344.077	-51.88
344.46	-66.57
344.843	-46.45
345.226	-44.42
345.61	-22.73
345.993	-23.4
346.376	-9.62
346.759	13.21
347.142	33.77
347.525	38.06
347.908	64.28
348.291	80.32
348.674	88.46
349.057	111.51
349.44	109.93
349.823	133.43
350.206	191.51
350.588	216.36
350.971	226.99
351.354	232.64
351.737	251.17
352.119	256.59
352.502	294.78
352.884	272.41
353.267	313.54
353.65	305.4
354.032	328.23
354.414	317.38
354.797	350.37
355.179	324.84
355.562	347.43
355.944	349.69
356.326	346.76
356.709	335.91
357.091	350.15
357.473	360.54
357.855	371.84
358.238	351.05
358.62	340.88
359.002	369.13
359.384	374.78
359.766	355.8
360.148	364.84
360.53	367.32
360.912	379.07
361.294	346.3
361.676	349.92
362.057	369.13
362.439	341.56
362.821	352.41
363.203	376.81
363.584	368.68
363.966	355.12
364.348	351.05
364.729	362.35
365.111	362.8
365.493	354.89
365.874	356.47
366.256	369.58
366.637	339.52
367.019	348.34
367.4	385.63
367.781	360.09
368.163	364.84
368.544	360.54
368.925	354.21
369.306	364.16
369.688	356.7
370.069	360.09
370.45	373.42
370.831	353.31
371.212	358.73
371.593	347.66
371.974	389.69
372.355	368.9
372.736	366.64
373.117	389.69
373.498	385.17
373.879	375
374.26	365.74
374.641	380.65
375.021	375.68
375.402	382.91
375.783	385.85
376.163	418.84
376.544	406.19
376.925	366.42
377.305	416.36
377.686	403.48
378.066	412.97
378.447	411.84
378.827	402.57
379.208	419.75
379.588	423.59
379.968	419.52
380.349	414.33
380.729	413.87
381.109	419.97
381.489	416.81
381.87	414.1
382.25	425.17
382.63	433.99
383.01	424.04
383.39	432.86
383.77	461.1
384.15	452.29
384.53	462.23
384.91	459.07
385.29	457.49
385.67	461.33
386.049	466.98
386.429	469.69
386.809	479.63
387.189	470.59
387.568	487.77
387.948	498.16
388.328	488
388.707	470.14
389.087	486.19
389.466	506.75
389.846	517.83
390.225	512.85
390.605	523.25
390.984	523.02
391.363	530.71
391.743	544.27
392.122	535.68
392.501	540.88
392.881	525.28
393.26	551.27
393.639	552.17
394.018	555.56
394.397	553.98
394.776	547.88
395.155	569.8
395.534	584.04
395.913	582.23
396.292	596.69
396.671	593.76
397.05	594.89
397.429	609.12
397.808	609.12
398.186	618.61
398.565	612.96
398.944	635.34
399.323	657.48
399.701	610.93
400.08	654.32
400.458	655.9
400.837	666.07
401.215	668.1
401.594	692.28
401.972	659.06
402.351	687.09
402.729	711.04
403.107	695.9
403.486	692.74
403.864	690.02
404.242	727.31
404.62	731.61
404.999	729.8
405.377	747.2
405.755	751.49
406.133	739.97
406.511	773.64
406.889	780.42
407.267	770.25
407.645	810.02
408.023	790.81
408.401	812.73
408.779	829.68
409.156	843.47
409.534	851.38
409.912	838.72
410.29	847.76
410.667	878.72
411.045	888.44
411.422	887.53
411.8	901.09
412.178	917.81
412.555	925.95
412.933	955.55
413.31	952.84
413.687	972.73
414.065	957.36
414.442	977.93
414.819	1017.7
415.197	1000.3
415.574	1029.22
415.951	1029
416.328	1061.31
416.705	1064.03
417.082	1076.45
417.46	1071.48
417.837	1076
418.214	1077.13
418.591	1094.08
418.967	1120.3
419.344	1134.53
419.721	1154.42
420.098	1151.03
420.475	1170.69
420.852	1159.84
421.228	1175.44
421.605	1226.96
421.982	1208.43
422.358	1209.11
422.735	1241.42
423.111	1224.25
423.488	1274.19
423.864	1282.55
424.241	1284.58
424.617	1306.73
424.994	1305.83
425.37	1309.44
425.746	1334.08
426.123	1355.32
426.499	1354.87
426.875	1384.47
427.251	1397.12
427.627	1413.4
428.003	1455.2
428.379	1468.99
428.756	1477.12
429.132	1477.57
429.507	1553.96
429.883	1500.4
430.259	1570.45
430.635	1588.53
431.011	1564.8
431.387	1623.11
431.763	1641.64
432.138	1624.46
432.514	1659.94
432.89	1693.16
433.265	1723.22
433.641	1729.77
434.016	1743.1
434.392	1800.05
434.767	1786.94
435.143	1800.5
435.518	1841.18
435.894	1870.56
436.269	1879.15
436.644	1900.16
437.02	1954.4
437.395	1954.17
437.77	1971.57
438.145	1988.52
438.52	2023.77
438.895	2034.17
439.271	2008.41
439.646	2050.89
440.021	2066.71
440.395	2089.99
440.77	2122.75
441.145	2112.59
441.52	2164.79
441.895	2160.72
442.27	2190.1
442.645	2198.91
443.019	2226.71
443.394	2191.23
443.769	2254.05
444.143	2249.08
444.518	2293.82
444.892	2277.33
445.267	2304.9
445.641	2317.78
446.016	2320.49
446.39	2364.1
446.764	2385.57
447.139	2399.36
447.513	2414.05
447.887	2442.07
448.262	2441.62
448.636	2465.8
449.01	2499.92
449.384	2533.14
449.758	2534.5
450.132	2537.43
450.506	2580.14
450.88	2581.5
451.254	2623.31
451.628	2623.53
452.002	2655.4
452.376	2682.29
452.75	2697.43
453.123	2743.76
453.497	2810.65
453.871	2799.12
454.244	2882.96
454.618	2860.59
454.992	2917.54
455.365	2925.9
455.739	3007.7
456.112	3030.08
456.486	3062.84
456.859	3101.71
457.232	3153.91
457.606	3127.93
457.979	3170.64
458.352	3265.1
458.725	3290.86
459.099	3296.74
459.472	3397.98
459.845	3397.98
460.218	3429.84
460.591	3473.23
460.964	3494.47
461.337	3587.12
461.71	3644.3
462.083	3678.19
462.456	3707.57
462.829	3729.94
463.201	3815.59
463.574	3797.51
463.947	3864.63
464.32	3899.66
464.692	3984.63
465.065	4051.07
465.438	3982.37
465.81	4104.85
466.183	4174.23
466.555	4254
466.928	4254.22
467.3	4309.59
467.672	4374.67
468.045	4473.2
468.417	4507.78
468.789	4515.91
469.161	4557.49
469.534	4659.41
469.906	4771.27
470.278	4789.8
470.65	4885.62
471.022	4982.79
471.394	5023.24
471.766	5077.48
472.138	5168.78
472.51	5242.9
472.882	5364.03
473.253	5433.4
473.625	5458.94
473.997	5583.68
474.369	5619.61
474.74	5723.79
475.112	5805.82
475.484	5869.55
475.855	5968.3
476.227	6032.26
476.598	6220.27
476.97	6314.28
477.341	6440.83
477.713	6544.79
478.084	6553.6
478.455	6695.52
478.827	6760.83
479.198	6977.99
479.569	6995.4
479.94	7223.19
480.311	7266.12
480.682	7477.87
481.053	7629.73
481.424	7720.8
481.795	7797.41
482.166	7977.74
482.537	8080.34
482.908	8222.71
483.279	8332.31
483.65	8484.4
484.021	8616.37
484.391	8711.28
484.762	8821.11
485.133	8906.76
485.503	9014.55
485.874	9222.91
486.244	9280.53
486.615	9436.46
486.985	9570.47
487.356	9804.59
487.726	9823.34
488.097	9998.93
488.467	10057.01
488.837	10311.92
489.207	10431.24
489.578	10518.24
489.948	10743.77
490.318	10798.91
490.688	10919.81
491.058	11052.92
491.428	11183.31
491.798	11345.34
492.168	11536.52
492.538	11601.38
492.908	11712.79
493.278	11913.68
493.648	11959.11
494.017	12120.01
494.387	12256.95
494.757	12323.16
495.126	12463.95
495.496	12526.1
495.866	12645.64
496.235	12793.89
496.605	12835.69
496.974	12983.71
497.344	13079.3
497.713	13185.97
498.082	13244.72
498.452	13409.69
498.821	13550.7
499.19	13581.66
499.559	13679.06
499.928	13811.04
500.298	13883.58
500.667	14101.87
501.036	14005.61
501.405	14238.14
501.774	14360.17
502.143	14385.26
502.512	14448.31
502.88	14582.99
503.249	14599.94
503.618	14768.75
503.987	14846.04
504.356	15024.79
504.724	15062.3
505.093	15069.99
505.462	15262.75
505.83	15400.37
506.199	15394.27
506.567	15694.15
506.936	15619.12
507.304	15922.62
507.672	15977.08
508.041	15998.32
508.409	16126.68
508.777	16381.36
509.145	16421.14
509.514	16453.68
509.882	16582.49
510.25	16633.33
510.618	16752.65
510.986	16856.15
511.354	17035.13
511.722	17208.23
512.09	17422.01
512.458	17392.18
512.826	17554.67
513.193	17702.01
513.561	17726.41
513.929	17949.01
514.297	18088.44
514.664	18226.74
515.032	18305.61
515.4	18452.5
515.767	18628.31
516.135	18733.17
516.502	18575.66
516.869	19011.8
517.237	18978.81
517.604	19161.4
517.972	19287.73
518.339	19437.1
518.706	19416.31
519.073	19594.84
519.44	19754.16
519.808	20052
520.175	20052.45
520.542	20358.43
520.909	20375.83
521.276	20480.69
521.643	20661.93
522.009	20848.59
522.376	21003.84
522.743	20979.43
523.11	21351.85
523.477	21589.81
523.843	21716.82
524.21	21963.36
524.577	22052.63
524.943	22135.79
525.31	22361.77
525.676	22496.23
526.043	22609
526.409	22792.27
526.776	22968.53
527.142	23198.36
527.508	23306.38
527.874	23615.07
528.241	23582.08
528.607	23747.72
528.973	23982.97
529.339	23991.56
529.705	24209.41
530.071	24449.63
530.437	24488.27
530.803	24820.92
531.169	24903.62
531.535	24916.73
531.901	25019.33
532.267	25151.98
532.632	25379.77
532.998	25530.73
533.364	25602.82
533.73	25649.82
534.095	26041.9
534.461	25972.07
534.826	26041.45
535.192	26254.78
535.557	26454.77
535.923	26439.4
536.288	26586.97
536.653	26723.69
537.019	26701.32
537.384	26857.7
537.749	26940.18
538.114	27131.36
538.479	27160.06
538.845	27220.17
539.21	27289.55
539.575	27454.74
539.94	27543.78
540.305	27687.73
540.67	27603.21
541.034	27906.48
541.399	28066.03
541.764	28150.55
542.129	28265.12
542.494	28261.5
542.858	28382.86
543.223	28390.76
543.587	28557.09
543.952	28690.64
544.316	28779.46
544.681	28856.74
545.045	28942.39
545.41	29190.74
545.774	29229.61
546.138	29259.22
546.503	29425.77
546.867	29447.69
547.231	29609.72
547.595	29723.61
547.959	29812.65
548.324	29738.53
548.688	29941.68
549.052	30082.7
549.416	30197.27
549.779	30482.46
550.143	30442.01
550.507	30648.11
550.871	30693.53
551.235	30685.85
551.599	31001.32
551.962	30951.6
552.326	31140.52
552.689	31347.07
553.053	31228.66
553.417	31580.29
553.78	31852.82
554.143	31712.71
554.507	31915.64
554.87	31941.18
555.234	32309.98
555.597	32210.78
555.96	32280.15
556.323	32509.53
556.686	32573.48
557.05	32830.65
557.413	32821.38
557.776	33019.12
558.139	33167.59
558.502	33334.14
558.865	33488.94
559.228	33627.46
559.59	33880.11
559.953	33892.09
560.316	34347.67
560.679	34217.96
561.041	34426.76
561.404	34565.52
561.767	34895.45
562.129	34747.66
562.492	35100.19
562.854	35088.22
563.217	35288.89
563.579	35501.09
563.941	35598.26
564.304	35824.92
564.666	36088.87
565.028	36099.04
565.39	36100.84
565.753	36469.2
566.115	36474.85
566.477	36765.46
566.839	36861.73
567.201	37071.44
567.563	37150.76
567.925	37317.54
568.287	37451.54
568.648	37491.77
569.01	37686.79
569.372	37916.84
569.734	37847.24
570.095	38128.36
570.457	38310.96
570.819	38293.56
571.18	38397.06
571.542	38564.51
571.903	38712.08
572.265	38893.09
572.626	38993.2
572.987	39119.07
573.349	39146.87
573.71	39333.08
574.071	39283.81
574.432	39482.22
574.794	39683.8
575.155	39687.19
575.516	39664.82
575.877	39737.59
576.238	40022.55
576.599	40005.6
576.96	40152.72
577.32	40095.99
577.681	40413.73
578.042	40501.63
578.403	40473.61
578.763	40486.49
579.124	40691.23
579.485	40763.77
579.845	40846.48
580.206	40777.56
580.566	40828.63
580.927	40837.67
581.287	41055.06
581.648	40732.59
582.008	41123.76
582.368	41006.48
582.728	41073.37
583.089	40919.93
583.449	41068.85
583.809	41053.03
584.169	41357.66
584.529	41057.1
584.889	41426.13
585.249	41190.65
585.609	40956.76
585.969	41343.64
586.329	41155.4
586.688	41238.79
587.048	41266.13
587.408	41194.95
587.768	41121.96
588.127	41332.8
588.487	41201.05
588.846	41479.46
589.206	41387.49
589.565	41319.01
589.925	41428.61
590.284	41323.53
590.643	41503.19
591.003	41635.61
591.362	41627.03
591.721	41549.29
592.08	41603.3
592.44	41793.35
592.799	41734.82
593.158	41624.09
593.517	41636.07
593.876	41783.63
594.235	41643.75
594.593	41761.26
594.952	41879.45
595.311	41700.47
595.67	41824.31
596.029	41937.3
596.387	41835.61
596.746	42062.72
597.104	41948.83
597.463	41925.78
597.822	42054.81
598.18	41924.65
598.538	41899.34
598.897	42182.04
599.255	41940.01
599.613	42403.5
599.972	42198.99
600.33	42249.84
600.688	42089.61
601.046	42235.82
601.404	42384.07
601.762	42277.41
602.12	42517.62
602.478	42544.06
602.836	42432.43
603.194	42272.66
603.552	42557.4
603.91	42307.24
604.268	42539.09
604.625	42523.95
604.983	42749.48
605.341	42569.6
605.698	42801.46
606.056	42839.42
606.413	42706.55
606.771	42803.72
607.128	42984.28
607.485	42849.82
607.843	42955.58
608.2	42989.03
608.557	43150.38
608.914	42937.95
609.272	43184.05
609.629	43268.34
609.986	43374.1
610.343	43186.76
610.7	43536.13
611.057	43464.27
611.414	43386.3
611.771	43429.92
612.127	43604.6
612.484	43579.07
612.841	43861.32
613.198	43610.93
613.554	43615.68
613.911	43898.15
614.267	43859.28
614.624	43821.77
614.98	43904.26
615.337	43965.04
615.693	44023.35
616.05	43981.99
616.406	44210.46
616.762	43944.25
617.118	44121.2
617.475	44040.52
617.831	44076.23
618.187	44182.89
618.543	44224.25
618.899	44430.8
619.255	44389.67
619.611	44342.89
619.967	44537.91
620.323	44630.11
620.678	44310.57
621.034	44377.24
621.39	44487.97
621.746	44285.26
622.101	44735.87
622.457	44441.42
622.812	44425.37
623.168	44655.65
623.523	44396.67
623.879	44596.89
624.234	44487.06
624.589	44499.72
624.945	44487.97
625.3	44553.5
625.655	44381.76
626.01	44555.54
626.365	44735.42
626.72	44582.66
627.075	44584.01
627.43	44673.5
627.785	44460.85
628.14	44544.46
628.495	44640.06
628.85	44360.74
629.205	44343.11
629.559	44493.84
629.914	44245.04
630.269	44403.45
630.623	44393.51
630.978	44196.68
631.332	44572.49
631.687	44557.35
632.041	44229.9
632.396	44216.79
632.75	43993.07
633.104	44144.93
633.459	43913.97
633.813	43901.09
634.167	43915.1
634.521	43737.03
634.875	43975.89
635.229	43949.68
635.583	43699.97
635.937	43659.74
636.291	43581.78
636.645	43611.83
636.999	43527.32
637.352	43559.41
637.706	43410.03
638.06	43548.11
638.413	43428.11
638.767	43392.86
639.121	43398.28
639.474	43163.03
639.828	43194.67
640.181	43123.48
640.534	43262.46
640.888	43011.4
641.241	42853.66
641.594	42985.41
641.947	43098.85
642.301	42915.35
642.654	42906.32
643.007	42842.59
643.36	42962.13
643.713	42876.49
644.066	42956.26
644.419	42602.37
644.771	42331.19
645.124	41897.53
645.477	41899.34
645.83	41677.2
646.182	41370.99
646.535	41303.42
646.888	41433.81
647.24	41370.08
647.593	41622.28
647.945	41487.82
648.298	41403.3
648.65	41153.14
649.002	41043.09
649.355	41130.32
649.707	41048.29
650.059	41286.02
650.411	41807.36
650.763	41763.97
651.115	42017.3
651.467	41890.07
651.819	41946.34
652.171	41828.15
652.523	41712.22
652.875	41668.83
653.227	41531.44
653.578	41850.3
653.93	41529.85
654.282	41507.03
654.633	41328.96
654.985	41567.37
655.337	41491.66
655.688	41486.69
656.039	41650.76
656.391	41229.3
656.742	41253.7
657.094	41336.41
657.445	41514.94
657.796	41364.21
658.147	41333.25
658.498	41162.18
658.849	41182.74
659.2	41253.25
659.551	41063.65
659.902	41208.73
660.253	40899.14
660.604	41121.28
660.955	40846.71
661.306	41040.15
661.656	41020.72
662.007	41009.64
662.358	40848.97
662.708	41059.81
663.059	40928.74
663.409	40631.8
663.76	40886.93
664.11	40721.97
664.461	40877.44
664.811	40912.24
665.161	40952.69
665.511	40786.6
665.862	40833.83
666.212	40881.06
666.562	40891.45
666.912	40714.06
667.262	40746.15
667.612	40833.6
667.962	40732.81
668.312	40696.66
668.662	40897.1
669.011	40648.07
669.361	40700.72
669.711	40633.83
670.06	40649.88
670.41	40555.64
670.76	40358.81
671.109	40521.75
671.459	40528.52
671.808	40492.37
672.157	40553.38
672.507	40368.75
672.856	40458.47
673.205	40429.32
673.554	40523.55
673.904	40187.29
674.253	40326.27
674.602	40384.57
674.951	39801.31
675.3	39579.62
675.649	40106.39
675.998	40026.84
676.346	39977.13
676.695	40176.9
677.044	39910.01
677.393	40042.66
677.741	40074.07
678.09	40059.61
678.438	39879.5
678.787	39987.52
679.135	39977.35
679.484	39710.47
679.832	39863.01
680.181	39790.01
680.529	39798.83
680.877	39616.91
681.225	39536.91
681.573	39698.04
681.922	39401.1
682.27	39499.85
682.618	39423.24
682.966	39341.89
683.314	39406.29
683.661	39287.65
684.009	38971.96
684.357	38947.32
684.705	38984.61
685.053	38999.75
685.4	39034.33
685.748	38844.28
686.095	38765.63
686.443	38529.48
686.79	38440.67
687.138	38451.07
687.485	38495.13
687.832	38463.49
688.18	38411.07
688.527	38284.52
688.874	38157.29
689.221	38042.49
689.568	37986.67
689.915	37815.6
690.262	37785.77
690.609	37785.32
690.956	37781.25
691.303	37637.08
691.65	37452
691.997	37419
692.344	37330.87
692.69	37329.96
693.037	37368.38
693.383	37020.82
693.73	37072.57
694.077	36888.17
694.423	36948.28
694.769	36965.91
695.116	36898.56
695.462	36835.97
695.808	36552.58
696.155	36531.57
696.501	36248.41
696.847	36322.99
697.193	36027.63
697.539	36133.39
697.885	35958.93
698.231	35935.2
698.577	35881.64
698.923	35789.44
699.269	35617.02
699.614	35277.14
699.96	35238.27
700.306	35461.31
700.651	35227.65
700.997	35191.94
701.342	34964.38
701.688	34921.44
702.033	34858.17
702.379	34938.39
702.724	34644.16
703.069	34836.92
703.415	34357.84
703.76	34390.61
704.105	34366.2
704.45	34184.06
704.795	34002.82
705.14	33957.85
705.485	33888.7
705.83	33896.38
706.175	33797.18
706.52	33774.58
706.865	33680.12
707.209	33693
707.554	33471.99
707.899	33556.96
708.243	33359
708.588	33335.95
708.932	33122.17
709.277	33082.84
709.621	33119.91
709.966	32869.97
710.31	32998.33
710.654	32773.47
710.998	32840.14
711.342	32838.11
711.687	32818.44
712.031	32680.14
712.375	32531.22
712.719	32455.06
713.063	32514.72
713.407	32502.07
713.75	32293.26
714.094	32220.04
714.438	32074.51
714.782	32201.96
715.125	31976.89
715.469	32083.55
715.812	31938.24
716.156	31862.76
716.499	31652.6
716.843	31719.49
717.186	31470.01
717.53	31576.67
717.873	31728.53
718.216	31600.85
718.559	31480.4
718.902	31313.4
719.246	31312.04
719.589	31319.95
719.932	31009
720.275	31165.38
720.617	30902.79
720.96	30959.06
721.303	31040.64
721.646	31016.23
721.989	30799.74
722.331	30899.17
722.674	30713.87
723.016	30782.57
723.359	30616.02
723.701	30740.31
724.044	30417.6
724.386	30289.02
724.729	30526.3
725.071	30274.11
725.413	30355.46
725.755	30160.44
726.097	30165.18
726.439	30009.03
726.782	30004.28
727.124	30172.86
727.465	30046.99
727.807	29966.54
728.149	29809.48
728.491	29814.23
728.833	29903.49
729.175	29709.6
729.516	29581.02
729.858	29578.53
730.199	29734.01
730.541	29540.57
730.882	29479.78
731.224	29611.3
731.565	29406.11
731.906	29421.47
732.248	29396.16
732.589	29237.97
732.93	29175.83
733.271	29170.63
733.612	29101.25
733.953	29203.62
734.294	29159.78
734.635	29065.55
734.976	29115.72
735.317	28993.01
735.658	28846.35
735.999	28879.79
736.339	28907.59
736.68	28916.4
737.021	28755.95
737.361	28671.44
737.702	28705.78
738.042	28646.8
738.383	28575.84
738.723	28663.07
739.063	28464.66
739.404	28497.43
739.744	28384.44
740.084	28301.28
740.424	28507.15
740.764	28209.98
741.104	28425.79
741.444	28147.38
741.784	28078.91
742.124	28164.33
742.464	28071.45
742.804	27967.73
743.143	27965.92
743.483	27974.96
743.823	27931.57
744.162	27732.25
744.502	27860.61
744.841	27730.22
745.181	27773.38
745.52	27619.49
745.86	27707.17
746.199	27619.03
746.538	27504.01
746.877	27458.13
747.216	27482.54
747.556	27430.56
747.895	27484.35
748.234	27381.98
748.573	27188.76
748.911	27235.09
749.25	27142.44
749.589	26975.89
749.928	26921.42
750.267	27089.1
750.605	26887.98
750.944	26922.1
751.283	26788.1
751.621	26927.3
751.96	26680.98
752.298	26678.49
752.636	26648.89
752.975	26526.18
753.313	26417.48
753.651	26537.03
753.989	26392.4
754.327	26297.71
754.666	26283.25
755.004	26303.81
755.342	26236.25
755.679	26218.84
756.017	26071.28
756.355	26077.83
756.693	25885.52
757.031	25886.88
757.368	25730.04
757.706	25761.68
758.044	25590.61
758.381	25773.66
758.719	25603.49
759.056	25549.71
759.394	25480.33
759.731	25247.12
760.068	25221.13
760.405	25139.55
760.743	25053.68
761.08	25170.28
761.417	24941.36
761.754	24910.63
762.091	24832.21
762.428	24838.32
762.765	24682.84
763.102	24761.26
763.438	24608.49
763.775	24479.68
764.112	24394.71
764.449	24444.65
764.785	24189.97
765.122	24022.07
765.458	23895.74
765.795	23909.75
766.131	24037.43
766.467	23815.74
766.804	23629.76
767.14	23580.72
767.476	23592.25
767.812	23492.36
768.148	23580.04
768.485	23335.76
768.821	23195.65
769.157	23326.27
769.492	23178.25
769.828	23116.33
770.164	22999.27
770.5	22988.42
770.836	22902.32
771.171	22718.82
771.507	22714.53
771.842	22514.08
772.178	22572.16
772.513	22505.04
772.849	22369
773.184	22241.77
773.519	22211.49
773.855	22201.55
774.19	22053.53
774.525	22070.7
774.86	21922.46
775.195	21802.92
775.53	21809.02
775.865	21636.82
776.2	21529.7
776.535	21374.68
776.87	21402.7
777.205	21416.71
777.539	21196.6
777.874	21296.26
778.209	21095.36
778.543	21043.39
778.878	21055.82
779.212	20881.81
779.547	20770.85
779.881	20880.68
780.215	20663.06
780.55	20672.1
780.884	20546.23
781.218	20424.65
781.552	20562.95
781.886	20344.2
782.22	20271.88
782.554	20079.8
782.888	20035.73
783.222	19925.45
783.556	19881.38
783.889	19745.57
784.223	19761.84
784.557	19601.39
784.89	19605.91
785.224	19514.84
785.557	19353.26
785.891	19362.3
786.224	19363.21
786.558	19411.79
786.891	19129.09
787.224	18997.79
787.557	19030.56
787.891	19005.93
788.224	19107.39
788.557	18955.76
788.89	18891.13
789.223	18816.33
789.556	18591.25
789.888	18666.27
790.221	18538.59
790.554	18497.47
790.887	18411.82
791.219	18341.76
791.552	18311.48
791.884	18191.03
792.217	18125.72
792.549	18042.34
792.882	17972.96
793.214	17922.34
793.546	17982.22
793.879	17753.08
794.211	17668.33
794.543	17759.41
794.875	17698.39
795.207	17706.07
795.539	17610.71
795.871	17673.08
796.203	17393.09
796.535	17278.74
796.867	17314.67
797.198	17173.66
797.53	17283.49
797.862	17121.68
798.193	17202.36
798.525	17089.14
798.856	17117.61
799.188	16884.85
799.519	16846.21
799.85	16739.32
800.182	16731.64
800.513	16765.31
800.844	16662.71
801.175	16682.37
801.506	16631.53
801.837	16507.69
802.168	16471.53
802.499	16428.82
802.83	16352.66
803.161	16276.73
803.491	16260.24
803.822	16174.36
804.153	16130.3
804.483	16007.59
804.814	15981.37
805.145	16021.82
805.475	15982.28
805.805	15881.72
806.136	15968.49
806.466	15964.2
806.796	15909.51
807.126	15744.32
807.457	15673.36
807.787	15663.87
808.117	15657.31
808.447	15546.36
808.777	15473.59
809.107	15407.15
809.436	15429.98
809.766	15419.13
810.096	15311.79
810.426	15212.35
810.755	15248.51
811.085	15194.05
811.414	15184.78
811.744	14988.63
812.073	15076.76
812.403	15010.33
812.732	14966.94
813.061	14869.09
813.39	14702.99
813.719	14962.42
814.049	14942.3
814.378	14787.51
814.707	14724.91
815.036	14700.5
815.365	14629.09
815.693	14561.52
816.022	14483.79
816.351	14587.51
816.68	14394.97
817.008	14515.2
817.337	14339.61
817.665	14349.78
817.994	14431.58
818.322	14383.22
818.651	14270.46
818.979	14191.82
819.307	14187.52
819.636	14198.6
819.964	14077.02
820.292	14131.93
820.62	14034.98
820.948	14071.59
821.276	14107.75
821.604	13997.47
821.932	14054.64
822.259	14088.77
822.587	14087.19
822.915	14088.09
823.243	14083.57
823.57	13988.88
823.898	14021.2
824.225	13914.08
824.553	13872.95
824.88	13935.1
825.207	14030.01
825.535	13881.99
825.862	13981.43
826.189	13991.37
826.516	14064.81
826.843	14026.85
827.17	14033.63
827.497	14118.6
827.824	14125.83
828.151	13982.1
828.478	13973.29
828.805	13988.43
829.131	13931.71
829.458	13895.78
829.785	13837.25
830.111	13918.38
830.438	13947.08
830.764	13991.82
831.09	13894.42
831.417	13848.32
831.743	13922.67
832.069	13850.81
832.395	13894.2
832.722	13829.79
833.048	13834.54
833.374	13755.9
833.7	13774.43
834.026	13788.44
834.351	13825.5
834.677	13768.32
835.003	13806.74
835.329	13778.27
835.654	13731.94
835.98	13632.73
836.306	13698.5
836.631	13656.46
836.956	13730.59
837.282	13607.2
837.607	13654.2
837.932	13567.65
838.258	13520.65
838.583	13520.87
838.908	13463.25
839.233	13467.99
839.558	13416.02
839.883	13374.44
840.208	13395.9
840.533	13370.59
840.858	13403.36
841.182	13402.23
841.507	13374.21
841.832	13326.98
842.156	13232.07
842.481	13273.65
842.805	13215.34
843.13	13196.59
843.454	13212.18
843.778	13049.25
844.103	13053.09
844.427	13071.39
844.751	13092.18
845.075	13028.23
845.399	13047.21
845.723	12902.81
846.047	12921.79
846.371	12818.07
846.695	12806.99
847.019	12644.96
847.343	12636.38
847.666	12527.45
847.99	12505.53
848.313	12437.74
848.637	12447.23
848.96	12402.03
849.284	12367.91
849.607	12286.56
849.931	12196.84
850.254	12137.41
850.577	12059.89
850.9	11954.36
851.223	12006.79
851.546	11945.77
851.869	11866.91
852.192	12015.6
852.515	11838.66
852.838	11806.34
853.161	11744.65
853.483	11715.5
853.806	11626.91
854.129	11694.93
854.451	11581.26
854.774	11548.95
855.096	11487.03
855.419	11512.34
855.741	11421.04
856.063	11316.41
856.385	11381.27
856.708	11306.24
857.03	11238.22
857.352	11263.08
857.674	11223.08
857.996	11202.29
858.318	11070.54
858.64	11104.21
858.961	11101.5
859.283	11075.29
859.605	10906.48
859.926	11070.54
860.248	10952.35
860.57	10951.45
860.891	10943.99
861.212	10908.29
861.534	10867.61
861.855	10819.02
862.176	10890.21
862.498	10825.8
862.819	10887.04
863.14	10770.66
863.461	10760.04
863.782	10709.42
864.103	10727.95
864.424	10644.11
864.745	10663.32
865.065	10678.91
865.386	10586.04
865.707	10584.23
866.027	10590.55
866.348	10492.7
866.668	10550.1
866.989	10540.61
867.309	10466.26
867.63	10490.9
867.95	10473.95
868.27	10428.98
868.59	10433.04
868.91	10311.92
869.23	10348.75
869.55	10440.28
869.87	10412.25
870.19	10385.14
870.51	10352.14
870.83	10345.14
871.15	10313.73
871.469	10278.92
871.789	10195.54
872.109	10217.91
872.428	10106.73
872.748	10229.43
873.067	10137.46
873.386	10143.79
873.706	10089.1
874.025	10119.38
874.344	10100.85
874.663	10045.03
874.982	10033.96
875.301	10056.11
875.62	9974.07
875.939	10019.04
876.258	9981.08
876.577	9947.86
876.896	9922.55
877.214	9893.85
877.533	9888.65
877.852	9883.91
878.17	9912.15
878.489	9882.78
878.807	9879.16
879.125	9862.44
879.444	9787.41
879.762	9828.99
880.08	9789.67
880.398	9739.5
880.716	9704.93
881.034	9672.61
881.352	9725.49
881.67	9722.1
881.988	9718.26
882.306	9697.02
882.624	9593.97
882.941	9608.89
883.259	9509.91
883.577	9553.75
883.894	9562.56
884.212	9531.15
884.529	9589.9
884.846	9576.57
885.164	9436.01
885.481	9457.93
885.798	9436.01
886.115	9336.35
886.432	9334.99
886.75	9282.11
887.067	9331.83
887.383	9293.41
887.7	9285.96
888.017	9267.65
888.334	9290.25
888.651	9240.08
888.967	9202.57
889.284	9155.11
889.6	9141.78
889.917	9005.51
890.233	9122.57
890.55	9045.28
890.866	9088.45
891.182	8913.31
891.498	8924.16
891.815	8877.15
892.131	8847.1
892.447	8901.56
892.763	8822.92
893.079	8922.58
893.395	8854.1
893.71	8817.72
894.026	8761
894.342	8724.84
894.657	8663.15
894.973	8686.42
895.289	8680.1
895.604	8595.35
895.92	8600.55
896.235	8521.91
896.55	8567.78
896.865	8454.11
897.181	8490.27
897.496	8487.33
897.811	8454.34
898.126	8424.28
898.441	8409.37
898.756	8381.57
899.071	8282.59
899.386	8264.29
899.7	8256.6
900.015	8214.57
900.33	8144.07
900.644	8186.78
900.959	8154.23
901.273	8104.29
901.588	8068.59
901.902	8053.22
902.216	7998.08
902.531	7966.9
902.845	8003.96
903.159	7903.17
903.473	7855.71
903.787	7790.18
904.101	7771.65
904.415	7782.04
904.729	7791.76
905.042	7733.68
905.356	7731.65
905.67	7689.39
905.984	7647.13
906.297	7641.48
906.611	7561.26
906.924	7572.1
907.237	7551.99
907.551	7538.66
907.864	7469.96
908.177	7503.18
908.491	7499.79
908.804	7350.19
909.117	7311.55
909.43	7338.66
909.743	7265.9
910.056	7267.7
910.368	7278.1
910.681	7173.24
910.994	7228.38
911.307	7100.93
911.619	7108.84
911.932	7085.56
912.244	7017.54
912.557	6991.78
912.869	6973.25
913.181	6978.22
913.494	6962.85
913.806	6930.99
914.118	6934.61
914.43	6874.95
914.742	6811.67
915.054	6774.61
915.366	6800.37
915.678	6723.54
915.99	6744.78
916.302	6715.63
916.613	6653.71
916.925	6690.54
917.236	6637.66
917.548	6627.27
917.859	6627.27
918.171	6526.48
918.482	6542.07
918.794	6487.16
919.105	6485.58
919.416	6491.23
919.727	6406.48
920.038	6378.24
920.349	6332.14
920.66	6265.92
920.971	6310.67
921.282	6307.96
921.593	6277
921.903	6261.18
922.214	6155.87
922.525	6180.73
922.835	6118.36
923.146	6115.42
923.456	6089.66
923.767	6040.17
924.077	5992.48
924.387	5993.84
924.697	5927.17
925.008	5984.57
925.318	5894.86
925.628	5865.71
925.938	5867.74
926.248	5839.72
926.558	5825.71
926.867	5825.71
927.177	5780.29
927.487	5715.2
927.796	5691.93
928.106	5673.4
928.416	5672.49
928.725	5618.71
929.034	5627.3
929.344	5575.55
929.653	5550.69
929.962	5526.96
930.271	5565.38
930.581	5504.13
930.89	5486.96
931.199	5452.61
931.508	5476.57
931.817	5378.26
932.125	5376.23
932.434	5375.78
932.743	5334.87
933.051	5302.56
933.36	5333.97
933.669	5260.53
933.977	5259.85
934.286	5182.11
934.594	5171.94
934.902	5157.7
935.21	5151.38
935.519	5133.07
935.827	5135.78
936.135	5097.14
936.443	5058.72
936.751	5025.05
937.059	5021.21
937.367	5001.1
937.674	4995.45
937.982	4944.83
938.29	4974.43
938.597	4930.36
938.905	4900.31
939.213	4908.44
939.52	4897.6
939.827	4873.19
940.135	4820.99
940.442	4772.63
940.749	4782.12
941.056	4786.87
941.363	4700.99
941.67	4720.43
941.977	4686.53
942.284	4612.41
942.591	4637.94
942.898	4622.35
943.205	4643.37
943.511	4576.7
943.818	4557.27
944.125	4530.83
944.431	4542.58
944.738	4523.82
945.044	4513.43
945.35	4501.68
945.657	4451.73
945.963	4408.57
946.269	4415.58
946.575	4344.84
946.881	4385.29
947.187	4338.29
947.493	4314.34
947.799	4289.48
948.105	4275.92
948.41	4312.53
948.716	4280.66
949.022	4256.26
949.327	4219.42
949.633	4248.57
949.938	4226.65
950.244	4238.86
950.549	4160.89
950.854	4191.63
951.16	4143.49
951.465	4141.91
951.77	4117.73
952.075	4081.57
952.38	4051.74
952.685	4084.51
952.99	4021.91
953.294	3975.81
953.599	4024.63
953.904	3939.88
954.209	3941.46
954.513	3954.35
954.818	3896.95
955.122	3927.23
955.426	3922.03
955.731	3862.82
956.035	3877.96
956.339	3882.93
956.643	3812.2
956.948	3758.19
957.252	3736.5
957.556	3791.41
957.86	3743.28
958.163	3775.37
958.467	3730.85
958.771	3688.14
959.075	3690.62
959.378	3644.97
959.682	3680
959.985	3652.88
960.289	3623.28
960.592	3618.31
960.896	3595.94
961.199	3562.27
961.502	3577.86
961.805	3566.33
962.108	3517.97
962.411	3510.29
962.714	3498.31
963.017	3501.7
963.32	3469.84
963.623	3449.95
963.926	3459.89
964.228	3437.75
964.531	3402.5
964.833	3421.03
965.136	3397.98
965.438	3370.86
965.741	3378.77
966.043	3361.82
966.345	3339.67
966.648	3305.55
966.95	3280.01
967.252	3281.59
967.554	3242.5
967.856	3248.83
968.158	3213.8
968.46	3204.76
968.761	3212.22
969.063	3221.03
969.365	3185.78
969.666	3172.44
969.968	3149.17
970.269	3146.23
970.571	3105.78
970.872	3083.86
971.174	3080.7
971.475	3110.53
971.776	3061.26
972.077	3067.59
972.378	3062.84
972.679	3049.51
972.98	3024.65
973.281	3014.71
973.582	2976.74
973.883	2995.5
974.183	2955.28
974.484	2971.77
974.785	2952.34
975.085	2964.31
975.386	2946.01
975.686	2915.73
975.986	2905.33
976.287	2898.55
976.587	2880.48
976.887	2850.42
977.187	2852.23
977.487	2814.26
977.787	2824.88
978.087	2824.21
978.387	2814.04
978.687	2782.4
978.987	2755.05
979.286	2725.9
979.586	2745.79
979.885	2713.47
980.185	2735.85
980.484	2694.04
980.784	2704.89
981.083	2697.88
981.382	2675.51
981.682	2656.3
981.981	2642.74
982.28	2660.37
982.579	2630.76
982.878	2634.15
983.177	2638.22
983.475	2619.92
983.774	2565.23
984.073	2581.5
984.372	2545.34
984.67	2565
984.969	2542.63
985.267	2548.73
985.566	2544.66
985.864	2470.99
986.162	2478.23
986.461	2505.8
986.759	2429.41
987.057	2421.05
987.355	2441.16
987.653	2406.82
987.951	2417.66
988.249	2393.48
988.547	2412.24
988.844	2418.79
989.142	2357.78
989.44	2371.56
989.737	2351.68
990.035	2348.06
990.332	2309.87
990.63	2332.47
990.927	2334.95
991.224	2302.64
991.521	2296.99
991.819	2268.29
992.116	2257.21
992.413	2258.8
992.71	2248.18
993.006	2216.99
993.303	2209.76
993.6	2192.81
993.897	2185.35
994.193	2188.06
994.49	2207.27
994.787	2188.74
995.083	2186.26
995.379	2161.17
995.676	2155.07
995.972	2142.42
996.268	2120.95
996.565	2125.47
996.861	2106.48
997.157	2078.01
997.453	2065.58
997.749	2078.24
998.044	2054.96
998.34	2078.46
998.636	2050.44
998.932	2046.82
999.227	1989.43
999.523	2047.05
999.818	1970.89
1000.114	1992.59
1000.409	1981.97
1000.704	1969.76
1001	1959.37
1001.295	1936.09
1001.59	1944.91
1001.885	1953.49
1002.18	1932.03
1002.475	1933.16
1002.77	1893.38
1003.065	1894.06
1003.359	1873.27
1003.654	1882.08
1003.949	1883.21
1004.243	1857.9
1004.538	1817
1004.832	1827.62
1005.127	1823.1
1005.421	1783.1
1005.715	1801.63
1006.009	1787.4
1006.304	1830.56
1006.598	1771.35
1006.892	1798.02
1007.186	1746.72
1007.48	1761.18
1007.773	1758.47
1008.067	1734.74
1008.361	1721.64
1008.655	1680.51
1008.948	1700.39
1009.242	1699.49
1009.535	1688.64
1009.829	1649.55
1010.122	1633.05
1010.415	1634.86
1010.708	1639.38
1011.001	1641.64
1011.295	1657.91
1011.588	1599.6
1011.881	1602.77
1012.173	1602.99
1012.466	1600.96
1012.759	1587.85
1013.052	1561.19
1013.344	1572.26
1013.637	1529.32
1013.93	1529.32
1014.222	1510.34
1014.514	1523
1014.807	1492.71
1015.099	1508.08
1015.391	1482.55
1015.683	1493.39
1015.976	1497.91
1016.268	1471.92
1016.56	1461.76
1016.851	1473.51
1017.143	1418.59
1017.435	1459.04
1017.727	1441.87
1018.018	1385.37
1018.31	1417.91
1018.602	1402.77
1018.893	1398.03
1019.185	1376.79
1019.476	1377.01
1019.767	1363
1020.058	1334.98
1020.35	1349.44
1020.641	1359.16
1020.932	1316.22
1021.223	1336.11
1021.514	1298.14
1021.804	1296.11
1022.095	1295.66
1022.386	1285.26
1022.677	1278.94
1022.967	1280.52
1023.258	1288.2
1023.548	1266.05
1023.839	1250.24
1024.129	1251.59
1024.419	1219.28
1024.709	1214.98
1025	1200.29
1025.29	1192.38
1025.58	1188.77
1025.87	1192.38
1026.16	1189.9
1026.449	1191.71
1026.739	1152.16
1027.029	1168.66
1027.319	1155.55
1027.608	1153.29
1027.898	1150.35
1028.187	1144.7
1028.477	1137.92
1028.766	1120.75
1029.055	1119.17
1029.344	1085.49
1029.634	1098.6
1029.923	1080.97
1030.212	1097.92
1030.501	1074.87
1030.79	1061.09
1031.078	1054.53
1031.367	1055.66
1031.656	1052.95
1031.945	1030.58
1032.233	1051.6
1032.522	1044.37
1032.81	1030.35
1033.099	1034.2
1033.387	1006.17
1033.675	995.33
1033.963	970.24
1034.251	1019.51
1034.54	973.63
1034.828	985.38
1035.116	996
1035.403	946.74
1035.691	962.33
1035.979	927.53
1036.267	945.84
1036.554	947.19
1036.842	906.06
1037.129	914.88
1037.417	936.57
1037.704	925.5
1037.992	913.97
1038.279	898.61
1038.566	904.48
1038.853	904.48
1039.14	904.48
