Data from plate_porcelain_FLMS001491_070.txt Node
Date: Tue Feb 07 11:19:42 GMT 2017
User: dcchb
Spectrometer: FLMS00149
Trigger mode: 0
Integration Time (sec): 2.000000E-2
Scans to average: 10
Electric dark correction enabled: true
Nonlinearity correction enabled: false
Boxcar width: 0
XAxis mode: Wavelengths
Number of Pixels in Spectrum: 2048
>>>>>Begin Spectral Data<<<<<
341.393	-11.2
341.776	-11.2
342.16	-11.2
342.543	-61.59
342.927	-60.46
343.31	-67.92
343.693	-56.85
344.077	-30.41
344.46	-87.36
344.843	-43.29
345.226	-29.73
345.61	-40.58
345.993	-11.88
346.376	-11.65
346.759	1.23
347.142	8.69
347.525	45.75
347.908	54.33
348.291	73.54
348.674	81
349.057	115.12
349.44	124.62
349.823	148.57
350.206	164.39
350.588	230.83
350.971	246.65
351.354	282.13
351.737	300.43
352.119	292.75
352.502	286.87
352.884	312.86
353.267	302.92
353.65	339.75
354.032	351.5
354.414	360.09
354.797	346.76
355.179	346.08
355.562	361.45
355.944	371.16
356.326	370.48
356.709	398.96
357.091	392.86
357.473	386.3
357.855	368.9
358.238	385.4
358.62	390.6
359.002	377.49
359.384	390.15
359.766	384.04
360.148	416.36
360.53	385.17
360.912	387.66
361.294	391.73
361.676	398.96
362.057	386.98
362.439	372.74
362.821	398.96
363.203	417.04
363.584	382.46
363.966	398.73
364.348	385.17
364.729	365.29
365.111	387.89
365.493	391.05
365.874	381.56
366.256	393.53
366.637	391.73
367.019	382.69
367.4	396.92
367.781	398.96
368.163	419.3
368.544	410.94
368.925	404.61
369.306	409.13
369.688	386.76
370.069	412.52
370.45	403.48
370.831	401.9
371.212	400.54
371.593	401.67
371.974	393.53
372.355	400.77
372.736	422.01
373.117	412.74
373.498	429.01
373.879	431.27
374.26	448
374.641	436.02
375.021	431.5
375.402	422.91
375.783	468.56
376.163	473.76
376.544	471.05
376.925	453.87
377.305	463.59
377.686	469.01
378.066	468.11
378.447	475.79
378.827	470.37
379.208	479.86
379.588	459.52
379.968	472.4
380.349	487.09
380.729	504.72
381.109	509.92
381.489	500.2
381.87	500.65
382.25	512.85
382.63	506.75
383.01	512.85
383.39	515.57
383.77	539.07
384.15	523.02
384.53	542.68
384.91	563.47
385.29	543.14
385.67	550.37
386.049	561.21
386.429	564.83
386.809	547.43
387.189	574.55
387.568	596.24
387.948	586.75
388.328	607.77
388.707	590.37
389.087	604.38
389.466	620.65
389.846	615.22
390.225	622.46
390.605	634.88
390.984	643.92
391.363	653.64
391.743	636.47
392.122	700.42
392.501	667.43
392.881	683.02
393.26	670.36
393.639	711.27
394.018	705.62
394.397	713.75
394.776	743.13
395.155	746.07
395.534	730.25
395.913	732.06
396.292	764.82
396.671	765.5
397.05	767.08
397.429	766.63
397.808	751.49
398.186	773.41
398.565	800.98
398.944	788.1
399.323	792.17
399.701	793.75
400.08	814.77
400.458	812.73
400.837	835.56
401.215	840.75
401.594	846.4
401.972	876.46
402.351	869.68
402.729	889.12
403.107	893.41
403.486	916.91
403.864	932.28
404.242	916.91
404.62	945.84
404.999	957.36
405.377	928.21
405.755	959.62
406.133	995.78
406.511	1014.31
406.889	995.33
407.267	1028.32
407.645	1021.77
408.023	1040.07
408.401	1049.11
408.779	1066.51
409.156	1101.31
409.534	1126.17
409.912	1122.1
410.29	1134.31
410.667	1168.88
411.045	1174.08
411.422	1179.95
411.8	1184.93
412.178	1236
412.555	1229.45
412.933	1253.4
413.31	1271.7
413.687	1276
414.065	1295.66
414.442	1308.09
414.819	1322.78
415.197	1342.44
415.574	1375.88
415.951	1388.31
416.328	1376.33
416.705	1388.54
417.082	1418.37
417.46	1444.35
417.837	1493.62
418.214	1478.93
418.591	1501.08
418.967	1485.48
419.344	1508.76
419.721	1529.1
420.098	1522.09
420.475	1549.44
420.852	1572.71
421.228	1599.38
421.605	1590.11
421.982	1633.05
422.358	1635.99
422.735	1651.81
423.111	1658.59
423.488	1680.73
423.864	1710.79
424.241	1737
424.617	1758.7
424.994	1766.38
425.37	1807.73
425.746	1786.04
426.123	1825.36
426.499	1843.21
426.875	1860.61
427.251	1929.99
427.627	1951.69
428.003	1982.42
428.379	2002.31
428.756	2010.44
429.132	2010.22
429.507	2047.95
429.883	2090.89
430.259	2141.29
430.635	2146.94
431.011	2153.49
431.387	2214.05
431.763	2280.72
432.138	2291.34
432.514	2305.35
432.89	2326.14
433.265	2402.75
433.641	2387.15
434.016	2398
434.392	2480.71
434.767	2529.52
435.143	2484.55
435.518	2524.55
435.894	2575.85
436.269	2622.63
436.644	2651.78
437.02	2665.79
437.395	2685
437.77	2727.71
438.145	2771.1
438.52	2817.65
438.895	2825.79
439.271	2891.1
439.646	2916.18
440.021	2910.76
440.395	2972.22
440.77	2907.59
441.145	2938.1
441.52	3004.09
441.895	3049.06
442.27	3091.99
442.645	3069.17
443.019	3118.21
443.394	3161.82
443.769	3152.11
444.143	3107.59
444.518	3229.17
444.892	3221.94
445.267	3236.62
445.641	3261.93
446.016	3298.54
446.39	3368.6
446.764	3369.28
447.139	3312.55
447.513	3420.35
447.887	3400.24
448.262	3434.58
448.636	3494.02
449.01	3478.43
449.384	3538.31
449.758	3596.61
450.132	3629.83
450.506	3656.27
450.88	3634.35
451.254	3666.9
451.628	3746.22
452.002	3807.23
452.376	3839.32
452.75	3850.39
453.123	3868.25
453.497	3922.93
453.871	3940.56
454.244	4053.1
454.618	4117.96
454.992	4177.84
455.365	4175.81
455.739	4290.83
456.112	4326.09
456.486	4329.93
456.859	4416.25
457.232	4485.4
457.606	4472.07
457.979	4530.15
458.352	4667.09
458.725	4695.57
459.099	4702.12
459.472	4797.26
459.845	4898.05
460.218	4938.05
460.591	4988.67
460.964	5019.85
461.337	5097.82
461.71	5206.74
462.083	5259.4
462.456	5277.7
462.829	5300.52
463.201	5428.2
463.574	5441.09
463.947	5537.35
464.32	5658.26
464.692	5754.52
465.065	5769.66
465.438	5839.72
465.81	5878.14
466.183	5962.88
466.555	6136.43
466.928	6147.06
467.3	6162.87
467.672	6311.8
468.045	6451.45
468.417	6455.52
468.789	6476.54
469.161	6578.23
469.534	6766.25
469.906	6874.27
470.278	6917.88
470.65	7025
471.022	7152.23
471.394	7286.91
471.766	7307.7
472.138	7409.62
472.51	7602.16
472.882	7671.08
473.253	7817.75
473.625	7891.64
473.997	8111.75
474.369	8140.22
474.74	8250.05
475.112	8384.96
475.484	8507.22
475.855	8667.89
476.227	8664.96
476.598	9009.35
476.97	9117.83
477.341	9320.76
477.713	9506.06
478.084	9509.45
478.455	9800.75
478.827	9864.47
479.198	10145.82
479.569	10168.65
479.94	10465.13
480.311	10580.84
480.682	10821.28
481.053	11109.41
481.424	11312.34
481.795	11325.22
482.166	11480.93
482.537	11709.85
482.908	11924.31
483.279	12064.19
483.65	12247.91
484.021	12598.86
484.391	12679.77
484.762	12770.84
485.133	12957.72
485.503	13084.5
485.874	13521.1
486.244	13528.1
486.615	13813.97
486.985	14005.15
487.356	14173.74
487.726	14420.96
488.097	14688.07
488.467	14732.14
488.837	15008.97
489.207	15266.82
489.578	15422.29
489.948	15643.53
490.318	15723.53
490.688	15890.53
491.058	16150.86
491.428	16461.81
491.798	16572.54
492.168	16952.2
492.538	16915.81
492.908	17189.25
493.278	17398.96
493.648	17425.4
494.017	17718.5
494.387	17880.76
494.757	18015.9
495.126	18099.06
495.496	18245.72
495.866	18492.72
496.235	18625.15
496.605	18829.66
496.974	18983.1
497.344	19163.21
497.713	19239.82
498.082	19429.64
498.452	19647.72
498.821	19800.71
499.19	19859.69
499.559	20058.55
499.928	20313.69
500.298	20360.69
500.667	20586.45
501.036	20496.51
501.405	20771.76
501.774	20797.97
502.143	21071.64
502.512	21151.63
502.88	21330.84
503.249	21386.2
503.618	21621.9
503.987	21782.58
504.356	21863.93
504.724	21985.96
505.093	22140.53
505.462	22227.99
505.83	22417.81
506.199	22700.52
506.567	22967.18
506.936	22855.09
507.304	23064.58
507.672	23299.37
508.041	23405.13
508.409	23638.12
508.777	23746.37
509.145	23987.94
509.514	24040.37
509.882	24196.52
510.25	24332.34
510.618	24579.57
510.986	24599.23
511.354	24848.71
511.722	25145.43
512.09	25361.47
512.458	25391.07
512.826	25519.65
513.193	25699.76
513.561	25843.71
513.929	26072.86
514.297	26324.38
514.664	26486.41
515.032	26623.81
515.4	26913.97
515.767	27044.36
516.135	27275.77
516.502	27068.31
516.869	27629.2
517.237	27676.43
517.604	27764.79
517.972	28104.67
518.339	28340.6
518.706	28341.5
519.073	28599.12
519.44	28773.35
519.808	29122.05
520.175	29244.75
520.542	29701.46
520.909	29588.47
521.276	29607.68
521.643	30095.8
522.009	30307.55
522.376	30572.85
522.743	30714.77
523.11	31097.13
523.477	31253.29
523.843	31534.86
524.21	31909.54
524.577	32116.09
524.943	32251.91
525.31	32319.93
525.676	32644.66
526.043	32811.89
526.409	32994.26
526.776	33489.39
527.142	33544.53
527.508	33706.11
527.874	34110.39
528.241	34271.51
528.607	34416.14
528.973	34744.95
529.339	34753.99
529.705	35195.33
530.071	35475.78
530.437	35525.72
530.803	35788.76
531.169	36055.2
531.535	36075.76
531.901	36245.25
532.267	36414.73
532.632	36666.25
532.998	36771.34
533.364	37145.34
533.73	37131.55
534.095	37561.15
534.461	37533.58
534.826	37701.25
535.192	37925.88
535.557	38213.78
535.923	38070.51
536.288	38350.05
536.653	38643.15
537.019	38458.75
537.384	38755.46
537.749	38850.15
538.114	38947.78
538.479	39146.41
538.845	39312.06
539.21	39393.87
539.575	39533.52
539.94	39775.78
540.305	39929.67
540.67	39819.84
541.034	40209.21
541.399	40370.79
541.764	40389.32
542.129	40617.56
542.494	40682.87
542.858	40854.84
543.223	40860.95
543.587	41185.46
543.952	41108.17
544.316	41255.29
544.681	41376.19
545.045	41594.03
545.41	41886.46
545.774	41915.38
546.138	41975.94
546.503	41968.71
546.867	42249.84
547.231	42665.19
547.595	42547.91
547.959	42620.45
548.324	42794.23
548.688	42918.97
549.052	43144.73
549.416	43066.99
549.779	43264.05
550.143	43366.42
550.507	43621.32
550.871	43862
551.235	43934.08
551.599	44136.34
551.962	44152.38
552.326	44376.56
552.689	44622.65
553.053	44541.75
553.417	44771.58
553.78	45182.19
554.143	44969.31
554.507	45297.44
554.87	45498.56
555.234	45837.09
555.597	45666.02
555.96	45910.3
556.323	45996.86
556.686	46110.07
557.05	46414.7
557.413	46414.47
557.776	46624.18
558.139	46974.46
558.502	47004.74
558.865	47042.03
559.228	47346.2
559.59	47480.21
559.953	47704.38
560.316	47967.2
560.679	47979.85
561.041	48246.74
561.404	48288.55
561.767	48709.78
562.129	48484.7
562.492	48894.41
562.854	48858.02
563.217	48981.41
563.579	49249.2
563.941	49399.03
564.304	49591.79
564.666	49836.3
565.028	50038.11
565.39	49980.71
565.753	50293.69
566.115	50334.37
566.477	50476.06
566.839	50543.18
567.201	50846.9
567.563	50898.2
567.925	51059.77
568.287	51194.68
568.648	51239.2
569.01	51333.44
569.372	51567.1
569.734	51482.14
570.095	51792.41
570.457	51889.13
570.819	52012.29
571.18	51965.29
571.542	52184.04
571.903	52211.61
572.265	52287.31
572.626	52420.87
572.987	52516.23
573.349	52602.78
573.71	52719.62
574.071	52776.79
574.432	52939.27
574.794	53125.03
575.155	53041.42
575.516	53014.3
575.877	53218.59
576.238	53235.99
576.599	53317.34
576.96	53342.65
577.32	53457.22
577.681	53475.08
578.042	53544.23
578.403	53619.71
578.763	53604.11
579.124	53779.25
579.485	53786.03
579.845	53804.33
580.206	53872.81
580.566	53854.95
580.927	53896.99
581.287	54031.67
581.648	53856.76
582.008	54087.04
582.368	54040.49
582.728	54043.88
583.089	53998.91
583.449	54032.12
583.809	54098.11
584.169	54133.59
584.529	54070.77
584.889	54295.39
585.249	54021.96
585.609	54011.79
585.969	54210.2
586.329	54116.42
586.688	54312.12
587.048	54193.93
587.408	54216.98
587.768	54213.81
588.127	54187.15
588.487	54061.73
588.846	54306.02
589.206	54093.37
589.565	54155.06
589.925	54334.72
590.284	54274.6
590.643	54268.05
591.003	54314.6
591.362	54336.52
591.721	54280.25
592.08	54261.27
592.44	54417.43
592.799	54335.62
593.158	54410.42
593.517	54424.2
593.876	54443.19
594.235	54367.48
594.593	54454.03
594.952	54529.74
595.311	54435.96
595.67	54494.71
596.029	54568.16
596.387	54580.13
596.746	54586.23
597.104	54473.92
597.463	54535.84
597.822	54660.13
598.18	54574.03
598.538	54602.96
598.897	54693.58
599.255	54522.06
599.613	54881.37
599.972	54725.44
600.33	54819.45
600.688	54785.78
601.046	54812.67
601.404	54973.12
601.762	54881.82
602.12	55026
602.478	54968.6
602.836	54995.49
603.194	54828.71
603.552	54926.11
603.91	54832.1
604.268	55046.34
604.625	54994.13
604.983	55129.72
605.341	54947.81
605.698	55124.75
606.056	55133.34
606.413	55092.21
606.771	55199.1
607.128	55244.75
607.485	55137.18
607.843	55166.78
608.2	55325.65
608.557	55458.3
608.914	55314.8
609.272	55509.15
609.629	55474.12
609.986	55568.81
610.343	55424.18
610.7	55688.8
611.057	55606.09
611.414	55596.83
611.771	55700.1
612.127	55738.97
612.484	55676.6
612.841	55804.96
613.198	55759.54
613.554	55711.63
613.911	55942.13
614.267	55731.74
614.624	55801.34
614.98	55905.75
615.337	56119.53
615.693	55974.45
616.05	55854
616.406	56102.8
616.762	55959.08
617.118	56024.84
617.475	55994.56
617.831	56039.3
618.187	56104.84
618.543	56017.61
618.899	56295.79
619.255	56200.66
619.611	56190.26
619.967	56224.61
620.323	56277.72
620.678	56226.42
621.034	56177.83
621.39	56169.7
621.746	56163.82
622.101	56402.01
622.457	56166.53
622.812	56248.79
623.168	56324.04
623.523	56308.22
623.879	56350.48
624.234	56248.56
624.589	56316.36
624.945	56319.52
625.3	56359.52
625.655	56302.57
626.01	56310.93
626.365	56310.03
626.72	56317.49
627.075	56319.97
627.43	56336.7
627.785	56227.1
628.14	56326.08
628.495	56287.43
628.85	56185.06
629.205	56087.21
629.559	56238.39
629.914	56094.9
630.269	56152.75
630.623	56027.55
630.978	56097.38
631.332	56112.3
631.687	56164.5
632.041	56023.03
632.396	56044.73
632.75	55974.9
633.104	55968.12
633.459	55844.28
633.813	55920.44
634.167	55823.49
634.521	55888.35
634.875	55865.3
635.229	55807.45
635.583	55673.66
635.937	55696.04
636.291	55698.07
636.645	55641.57
636.999	55545.08
637.352	55622.37
637.706	55499.43
638.06	55583.27
638.413	55518.87
638.767	55412.65
639.121	55535.59
639.474	55273.22
639.828	55324.52
640.181	55319.1
640.534	55430.73
640.888	55261.24
641.241	55155.03
641.594	55232.77
641.947	55244.75
642.301	55180.34
642.654	55129.95
643.007	55181.25
643.36	55141.7
643.713	55031.19
644.066	55127.69
644.419	54926.11
644.771	54760.24
645.124	54493.81
645.477	54402.51
645.83	54237.54
646.182	54116.64
646.535	53896.08
646.888	54045.46
647.24	53868.29
647.593	53974.72
647.945	53954.84
648.298	53797.33
648.65	53756.43
649.002	53562.08
649.355	53784
649.707	53620.61
650.059	53895.63
650.411	54189.63
650.763	54151.67
651.115	54487.93
651.467	54322.96
651.819	54386.69
652.171	54236.86
652.523	54248.39
652.875	54233.02
653.227	54010.2
653.578	54242.06
653.93	54059.92
654.282	53941.51
654.633	53962.97
654.985	53991.67
655.337	54059.69
655.688	54009.75
656.039	54033.03
656.391	53838.68
656.742	53828.29
657.094	53899.02
657.445	53983.54
657.796	53926.36
658.147	53811.34
658.498	53832.81
658.849	53853.37
659.2	53797.55
659.551	53762.75
659.902	53917.1
660.253	53825.12
660.604	53795.75
660.955	53694.28
661.306	53749.19
661.656	53643.43
662.007	53650.21
662.358	53582.64
662.708	53617.22
663.059	53640.95
663.409	53405.93
663.76	53584
664.11	53519.14
664.461	53734.51
664.811	53560.5
665.161	53570.44
665.511	53550.78
665.862	53580.16
666.212	53628.75
666.562	53560.05
666.912	53590.33
667.262	53535.41
667.612	53544
667.962	53526.83
668.312	53379.49
668.662	53607.73
669.011	53458.58
669.361	53433.72
669.711	53330.45
670.06	53307.4
670.41	53218.59
670.76	53198.47
671.109	53349.2
671.459	53239.15
671.808	53209.77
672.157	53294.97
672.507	53183.33
672.856	53096.33
673.205	53131.13
673.554	53209.77
673.904	53110.57
674.253	53198.93
674.602	53148.31
674.951	52643.91
675.3	52650.24
675.649	53036.22
675.998	53032.83
676.346	52899.05
676.695	53046.84
677.044	52849.78
677.393	52947.18
677.741	52967.97
678.09	52851.14
678.438	52774.3
678.787	52785.83
679.135	52863.12
679.484	52538.38
679.832	52725.49
680.181	52616.79
680.529	52661.31
680.877	52576.57
681.225	52482.56
681.573	52746.51
681.922	52411.38
682.27	52513.52
682.618	52430.13
682.966	52217.03
683.314	52403.24
683.661	52237.14
684.009	52073.53
684.357	51984.95
684.705	51976.13
685.053	52017.94
685.4	52016.58
685.748	51790.38
686.095	51719.64
686.443	51614.11
686.79	51555.58
687.138	51531.4
687.485	51640.55
687.832	51507.9
688.18	51561.23
688.527	51300.22
688.874	51418.86
689.221	51176.38
689.568	51063.39
689.915	50940.91
690.262	50942.49
690.609	50844.41
690.956	50741.82
691.303	50694.36
691.65	50561.71
691.997	50521.48
692.344	50398.1
692.69	50452.56
693.037	50422.28
693.383	50149.74
693.73	50267.25
694.077	49964.66
694.423	49994.04
694.769	49867.49
695.116	49752.69
695.462	49819.13
695.808	49632.69
696.155	49713.59
696.501	49470.44
696.847	49437.67
697.193	49155.87
697.539	49345.02
697.885	49042.2
698.231	48887.18
698.577	49058.02
698.923	48885.14
699.269	48601.98
699.614	48478.15
699.96	48370.58
700.306	48445.6
700.651	48297.36
700.997	48013.07
701.342	48129
701.688	48010.81
702.033	47862.12
702.379	47866.64
702.724	47619.19
703.069	47833.87
703.415	47346.88
703.76	47338.74
704.105	47331.51
704.45	47073.89
704.795	46877.51
705.14	46817.17
705.485	46691.3
705.83	46640.45
706.175	46749.15
706.52	46531.98
706.865	46407.92
707.209	46401.59
707.554	46258.09
707.899	46296.73
708.243	46289.5
708.588	45997.53
708.932	45765
709.277	45759.35
709.621	45803.64
709.966	45570.2
710.31	45679.58
710.654	45323.43
710.998	45398.23
711.342	45401.16
711.687	45266.93
712.031	45191.23
712.375	44838.47
712.719	45045.69
713.063	44915.3
713.407	44951.91
713.75	44601.64
714.094	44748.98
714.438	44558.7
714.782	44685.03
715.125	44398.03
715.469	44254.75
715.812	44190.58
716.156	43932.28
716.499	43930.92
716.843	44069.9
717.186	43716.46
717.53	43952.39
717.873	43906.06
718.216	43780.42
718.559	43673.75
718.902	43413.19
719.246	43418.17
719.589	43337.72
719.932	43178.62
720.275	43089.36
720.617	43175.69
720.96	43002.36
721.303	43021.57
721.646	43070.15
721.989	42730.73
722.331	42777.05
722.674	42740.44
723.016	42815.92
723.359	42610.5
723.701	42543.39
724.044	42333.22
724.386	42275.15
724.729	42358.08
725.071	42229.72
725.413	42142.04
725.755	42043.97
726.097	41921.93
726.439	41765.55
726.782	41922.84
727.124	41859.56
727.465	41672.22
727.807	41655.27
728.149	41629.96
728.491	41560.59
728.833	41509.97
729.175	41416.64
729.516	41356.75
729.858	41236.53
730.199	41182.97
730.541	41133.25
730.882	41133.25
731.224	41038.12
731.565	40901.62
731.906	40954.95
732.248	40967.16
732.589	40720.38
732.93	40571.01
733.271	40627.73
733.612	40642.65
733.953	40647.17
734.294	40522.88
734.635	40371.92
734.976	40451.69
735.317	40284.24
735.658	40160.4
735.999	40187.52
736.339	40064.81
736.68	40286.5
737.021	39989.56
737.361	39841.31
737.702	40047.41
738.042	39866.4
738.383	39699.62
738.723	39835.66
739.063	39679.28
739.404	39736.23
739.744	39559.74
740.084	39371.27
740.424	39462.79
740.764	39320.65
741.104	39440.87
741.444	39099.86
741.784	39091.95
742.124	39096.02
742.464	39045.17
742.804	39095.12
743.143	38928.34
743.483	38953.42
743.823	38575.58
744.162	38672.08
744.502	38782.36
744.841	38501.46
745.181	38595.69
745.52	38512.76
745.86	38522.7
746.199	38311.18
746.538	38366.1
746.877	38263.95
747.216	38223.95
747.556	38105.09
747.895	38108.93
748.234	37774.92
748.573	37800.69
748.911	37899.22
749.25	37726.56
749.589	37669.62
749.928	37753.68
750.267	37625.32
750.605	37537.64
750.944	37336.97
751.283	37223.75
751.621	37472.11
751.96	37100.82
752.298	37162.06
752.636	37093.36
752.975	36904.67
753.313	36774.27
753.651	36919.58
753.989	36638.01
754.327	36798
754.666	36427.62
755.004	36502.87
755.342	36630.1
755.679	36492.02
756.017	36296.32
756.355	36324.57
756.693	36062.43
757.031	36129.32
757.368	36079.6
757.706	35914.63
758.044	35706.73
758.381	35846.84
758.719	35590.35
759.056	35662.89
759.394	35534.76
759.731	35217.93
760.068	35329.79
760.405	35052.74
760.743	34876.92
761.08	34985.17
761.417	34805.06
761.754	34725.74
762.091	34612.3
762.428	34643.71
762.765	34313.09
763.102	34564.84
763.438	34228.35
763.775	34084.63
764.112	34050.05
764.449	33959.21
764.785	33725.31
765.122	33639.44
765.458	33638.54
765.795	33532.32
766.131	33385.21
766.467	33282.39
766.804	33095.05
767.14	32934.83
767.476	32913.58
767.812	32782.74
768.148	32812.12
768.485	32628.17
768.821	32431.79
769.157	32506.59
769.492	32318.35
769.828	32349.98
770.164	31977.56
770.5	31980.73
770.836	31880.84
771.171	31615.31
771.507	31652.6
771.842	31394.3
772.178	31445.6
772.513	31392.49
772.849	31247.41
773.184	31214.65
773.519	31076.12
773.855	31017.14
774.19	30705.51
774.525	30696.92
774.86	30635.68
775.195	30634.32
775.53	30385.06
775.865	30280.21
776.2	30160.89
776.535	29924.74
776.87	29955.24
777.205	29951.4
777.539	29720.22
777.874	29762.03
778.209	29607
778.543	29427.8
778.878	29289.72
779.212	29184.64
779.547	29052.67
779.881	29155.26
780.215	28853.13
780.55	28963.41
780.884	28700.36
781.218	28690.19
781.552	28695.62
781.886	28454.49
782.22	28249.75
782.554	28296.98
782.888	27923.43
783.222	27923.21
783.556	27690.44
783.889	27756.88
784.223	27537.91
784.557	27520.51
784.89	27520.05
785.224	27280.51
785.557	27140.18
785.891	27031.25
786.224	27043
786.558	26901.76
786.891	26786.29
787.224	26666.74
787.557	26560.53
787.891	26594.88
788.224	26509.01
788.557	26499.52
788.89	26379.74
789.223	26283.25
789.556	26081.45
789.888	26087.55
790.221	25918.51
790.554	25759.2
790.887	25784.28
791.219	25795.35
791.552	25540.44
791.884	25432.2
792.217	25444.85
792.549	25241.7
792.882	25169.83
793.214	25075.37
793.546	25109.72
793.879	24876.05
794.211	24794.48
794.543	24754.93
794.875	24722.61
795.207	24829.5
795.539	24587.93
795.871	24562.16
796.203	24432.9
796.535	24157.43
796.867	24203.76
797.198	24173.7
797.53	24131.44
797.862	23876.08
798.193	23947.94
798.525	23812.13
798.856	23773.49
799.188	23689.42
799.519	23518.35
799.85	23505.02
800.182	23457.34
800.513	23415.3
800.844	23322.42
801.175	23359.03
801.506	23293.72
801.837	23196.33
802.168	23134.18
802.499	22928.08
802.83	22921.76
803.161	22778.26
803.491	22712.95
803.822	22787.07
804.153	22622.78
804.483	22334.2
804.814	22313.86
805.145	22268.89
805.475	22340.53
805.805	22196.35
806.136	22192.96
806.466	22222.79
806.796	22139.63
807.126	21972.4
807.457	21948.67
807.787	21940.76
808.117	21799.75
808.447	21645.41
808.777	21716.14
809.107	21592.3
809.436	21603.82
809.766	21690.38
810.096	21497.61
810.426	21459.65
810.755	21350.95
811.085	21303.95
811.414	21266.88
811.744	21065.31
812.073	21039.55
812.403	21064.86
812.732	20943.73
813.061	20896.27
813.39	20859.66
813.719	20761.81
814.049	20809.72
814.378	20807.24
814.707	20634.36
815.036	20611.99
815.365	20389.17
815.693	20263.97
816.022	20366.12
816.351	20295.16
816.68	20258.1
817.008	20328.15
817.337	20091.55
817.665	20010.87
817.994	20095.84
818.322	20094.26
818.651	19907.6
818.979	19961.16
819.307	19985.11
819.636	19922.29
819.964	19777.66
820.292	19733.82
820.62	19725.23
820.948	19617.44
821.276	19813.14
821.604	19561.62
821.932	19641.16
822.259	19684.78
822.587	19724.33
822.915	19621.96
823.243	19756.87
823.57	19674.16
823.898	19582.41
824.225	19510.55
824.553	19624.22
824.88	19642.97
825.207	19659.69
825.535	19528.17
825.862	19639.58
826.189	19599.13
826.516	19713.25
826.843	19619.24
827.17	19685.46
827.497	19669.19
827.824	19552.58
828.151	19618.79
828.478	19490.89
828.805	19661.95
829.131	19508.96
829.458	19551.68
829.785	19299.93
830.111	19513.03
830.438	19621.5
830.764	19569.3
831.09	19574.5
831.417	19293.6
831.743	19411.79
832.069	19511.9
832.395	19331.12
832.722	19393.26
833.048	19321.4
833.374	19305.35
833.7	19298.35
834.026	19313.04
834.351	19303.09
834.677	19365.24
835.003	19240.04
835.329	19318.23
835.654	19147.84
835.98	19143.55
836.306	19137.67
836.631	19065.13
836.956	19180.61
837.282	19052.25
837.607	19092.7
837.932	19021.07
838.258	18985.81
838.583	19050.67
838.908	18898.81
839.233	18885.7
839.558	18763.9
839.883	18719.61
840.208	18723.9
840.533	18687.07
840.858	18778.81
841.182	18748.76
841.507	18725.93
841.832	18616.11
842.156	18639.38
842.481	18616.78
842.805	18474.19
843.13	18419.73
843.454	18421.99
843.778	18261.77
844.103	18315.1
844.427	18273.52
844.751	18240.52
845.075	18151.94
845.399	18126.63
845.723	17984.71
846.047	18020.19
846.371	17877.82
846.695	17943.81
847.019	17692.52
847.343	17684.15
847.666	17535.91
847.99	17485.29
848.313	17399.87
848.637	17441.9
848.96	17353.77
849.284	17294.11
849.607	17098.63
849.931	17133.66
850.254	17069.93
850.577	16887.79
850.9	16851.18
851.223	16771.86
851.546	16721.69
851.869	16579.1
852.192	16694.35
852.515	16519.89
852.838	16442.15
853.161	16458.65
853.483	16311.31
853.806	16313.12
854.129	16417.75
854.451	16200.12
854.774	16181.14
855.096	16135.49
855.419	16086.46
855.741	16044.42
856.063	15934.14
856.385	15896.18
856.708	15848.5
857.03	15750.19
857.352	15745.67
857.674	15673.59
857.996	15596.52
858.318	15519.46
858.64	15595.4
858.961	15560.82
859.283	15458.45
859.605	15368.96
859.926	15390.43
860.248	15367.6
860.57	15246.93
860.891	15347.27
861.212	15188.63
861.534	15105.24
861.855	15137.78
862.176	15156.99
862.498	15189.53
862.819	15157.89
863.14	15067.05
863.461	15070.89
863.782	14898.92
864.103	14973.72
864.424	14891.01
864.745	14867.05
865.065	14870.67
865.386	14773.27
865.707	14848.97
866.027	14805.59
866.348	14708.86
866.668	14774.85
866.989	14684.01
867.309	14649.66
867.63	14628.87
867.95	14674.29
868.27	14520.85
868.59	14511.13
868.91	14543.67
869.23	14508.64
869.55	14499.83
869.87	14531.92
870.19	14449.44
870.51	14501.19
870.83	14536.21
871.15	14272.04
871.469	14351.81
871.789	14304.13
872.109	14307.97
872.428	14265.26
872.748	14265.94
873.067	14198.6
873.386	14231.82
873.706	14143.46
874.025	14096.9
874.344	14079.73
874.663	14121.31
874.982	14043.35
875.301	14102.78
875.62	13951.6
875.939	13940.52
876.258	14045.38
876.577	13912.95
876.896	13880.41
877.214	13873.18
877.533	13818.94
877.852	13896.46
878.17	13895.55
878.489	13785.27
878.807	13822.79
879.125	13744.6
879.444	13783.47
879.762	13688.55
880.08	13784.14
880.398	13603.81
880.716	13706.41
881.034	13674.77
881.352	13628.44
881.67	13545.96
881.988	13593.64
882.306	13499.4
882.624	13438.16
882.941	13386.64
883.259	13291.05
883.577	13340.09
883.894	13274.78
884.212	13252.63
884.529	13239.52
884.846	13115.01
885.164	13061.68
885.481	13129.47
885.798	13089.92
886.115	12995.92
886.432	13103.94
886.75	13003.6
887.067	13015.12
887.383	13006.08
887.7	12987.1
888.017	12944.39
888.334	12860.55
888.651	12868.46
888.967	12767.9
889.284	12785.98
889.6	12770.61
889.917	12689.03
890.233	12693.55
890.55	12571.97
890.866	12589.37
891.182	12511.86
891.498	12539.2
891.815	12331.75
892.131	12355.71
892.447	12348.93
892.763	12259.44
893.079	12323.16
893.395	12228.7
893.71	12248.82
894.026	12299.21
894.342	12117.07
894.657	12044.75
894.973	12086.79
895.289	12091.53
895.604	12017.18
895.92	11969.73
896.235	11884.98
896.55	11848.15
896.865	11863.06
897.181	11820.13
897.496	11826
897.811	11699.45
898.126	11737.64
898.441	11665.1
898.756	11664.88
899.071	11581.94
899.386	11544.65
899.7	11485.9
900.015	11433.47
900.33	11347.15
900.644	11361.83
900.959	11380.59
901.273	11375.17
901.588	11310.76
901.902	11174.95
902.216	11201.39
902.531	11084.1
902.845	11103.08
903.159	11025.35
903.473	10951.68
903.787	10890.21
904.101	10862.86
904.415	10756.88
904.729	10802.98
905.042	10698.8
905.356	10753.26
905.67	10800.49
905.984	10710.1
906.297	10657.22
906.611	10585.58
906.924	10563.21
907.237	10510.11
907.551	10496.77
907.864	10439.6
908.177	10397.11
908.491	10373.16
908.804	10284.12
909.117	10267.17
909.43	10210.23
909.743	10166.61
910.056	10178.59
910.368	10104.24
910.681	10102.88
910.994	9999.61
911.307	9977.69
911.619	9965.94
911.932	9870.12
912.244	9822.67
912.557	9876.68
912.869	9749.45
913.181	9707.64
913.494	9778.6
913.806	9670.35
914.118	9641.65
914.43	9581.54
914.742	9516.46
915.054	9486.4
915.366	9514.2
915.678	9423.13
915.99	9380.42
916.302	9370.93
916.613	9256.8
916.925	9244.6
917.236	9271.04
917.548	9185.85
917.859	9170.48
918.171	9104.04
918.482	9111.27
918.794	9105.62
919.105	9074.66
919.416	8866.53
919.727	8909.7
920.038	8896.36
920.349	8821.11
920.66	8760.09
920.971	8793.54
921.282	8757.38
921.593	8640.1
921.903	8664.05
922.214	8635.8
922.525	8578.18
922.835	8475.13
923.146	8434.68
923.456	8467.67
923.767	8396.04
924.077	8417.96
924.387	8365.08
924.697	8312.2
925.008	8248.24
925.318	8183.39
925.628	8236.94
925.938	8196.49
926.248	8116.27
926.558	8000.11
926.867	8069.72
927.177	8067.91
927.487	7943.39
927.796	7878.54
928.106	7894.13
928.416	7890.74
928.725	7804.41
929.034	7772.55
929.344	7798.76
929.653	7744.98
929.962	7689.39
930.271	7664.76
930.581	7663.17
930.89	7574.59
931.199	7519
931.508	7524.65
931.817	7484.87
932.125	7503.18
932.434	7417.08
932.743	7348.38
933.051	7283.3
933.36	7312
933.669	7273.35
933.977	7264.54
934.286	7226.35
934.594	7184.54
934.902	7086.69
935.21	7105.67
935.519	7120.82
935.827	7110.42
936.135	7041.95
936.443	6951.1
936.751	6945.9
937.059	6960.59
937.367	6845.57
937.674	6922.85
937.982	6951.55
938.29	6860.71
938.597	6828.62
938.905	6730.32
939.213	6780.94
939.52	6746.14
939.827	6708.85
940.135	6705.69
940.442	6698.68
940.749	6635.63
941.056	6542.98
941.363	6538.91
941.67	6501.85
941.977	6475.41
942.284	6449.19
942.591	6444
942.898	6361.06
943.205	6376.2
943.511	6369.65
943.818	6328.97
944.125	6262.76
944.431	6203.78
944.738	6251.23
945.044	6244.23
945.35	6160.16
945.657	6138.47
945.963	6139.82
946.269	6052.6
946.575	6090.56
946.881	6033.61
947.187	6044.23
947.493	6007.17
947.799	6022.54
948.105	5908.42
948.41	5855.31
948.716	5885.82
949.022	5838.36
949.327	5827.74
949.633	5760.4
949.938	5732.6
950.244	5777.8
950.549	5731.93
950.854	5689.89
951.16	5638.82
951.465	5662.77
951.77	5590.01
952.075	5624.58
952.38	5548.2
952.685	5563.34
952.99	5538.94
953.294	5499.62
953.599	5437.7
953.904	5470.92
954.209	5365.61
954.513	5390.92
954.818	5376.45
955.122	5368.55
955.426	5311.37
955.731	5276.8
956.035	5249.23
956.339	5228.66
956.643	5219.4
956.948	5188.44
957.252	5194.09
957.556	5169.45
957.86	5133.3
958.163	5186.86
958.467	5095.11
958.771	5109.34
959.075	5058.27
959.378	5040.42
959.682	5017.14
959.985	5033.41
960.289	4950.93
960.592	4971.04
960.896	4916.35
961.199	4874.77
961.502	4863.7
961.805	4847.66
962.108	4812.18
962.411	4840.42
962.714	4764.72
963.017	4779.18
963.32	4738.51
963.623	4700.31
963.926	4705.29
964.228	4691.73
964.531	4707.77
964.833	4696.02
965.136	4659.64
965.438	4578.06
965.741	4637.49
966.043	4536.48
966.345	4573.99
966.648	4561.33
966.95	4534.22
967.252	4511.62
967.554	4484.05
967.856	4486.08
968.158	4386.65
968.46	4428.91
968.761	4409.25
969.063	4378.51
969.365	4284.05
969.666	4302.81
969.968	4295.35
970.269	4322.02
970.571	4232.98
970.872	4233.43
971.174	4201.34
971.475	4171.51
971.776	4178.97
972.077	4157.28
972.378	4142.59
972.679	4109.14
972.98	4081.8
973.281	4087.9
973.582	4110.27
973.883	4089.48
974.183	4073.21
974.484	4039.54
974.785	4018.3
975.085	4029.37
975.386	4010.39
975.686	3952.99
975.986	3917.96
976.287	3936.04
976.587	3884.29
976.887	3893.33
977.187	3876.38
977.487	3835.03
977.787	3846.33
978.087	3801.13
978.387	3796.84
978.687	3807.68
978.987	3772.66
979.286	3716.84
979.586	3720.23
979.885	3711.64
980.185	3674.35
980.484	3666.44
980.784	3640
981.083	3655.37
981.382	3644.97
981.682	3607.24
981.981	3636.84
982.28	3543.28
982.579	3563.62
982.878	3545.99
983.177	3526.79
983.475	3511.19
983.774	3491.98
984.073	3506
984.372	3475.26
984.67	3482.27
984.969	3488.59
985.267	3450.18
985.566	3401.59
985.864	3444.08
986.162	3386.9
986.461	3303.06
986.759	3330.18
987.057	3289.96
987.355	3317.75
987.653	3304.42
987.951	3260.8
988.249	3280.24
988.547	3236.17
988.844	3213.12
989.142	3262.16
989.44	3212.22
989.737	3207.02
990.035	3175.16
990.332	3174.48
990.63	3123.18
990.927	3138.77
991.224	3131.09
991.521	3109.85
991.819	3071.88
992.116	3061.49
992.413	3066.91
992.71	3032.34
993.006	3021.49
993.303	3002.96
993.6	3002.28
993.897	2979.23
994.193	2968.61
994.49	2918.67
994.787	2893.13
995.083	2892.23
995.379	2929.97
995.676	2912.56
995.972	2835.73
996.268	2896.07
996.565	2825.56
996.861	2805.22
997.157	2812
997.453	2799.35
997.749	2748.95
998.044	2774.94
998.34	2757.09
998.636	2759.35
998.932	2755.73
999.227	2699.91
999.523	2698.11
999.818	2676.41
1000.114	2656.53
1000.409	2649.29
1000.704	2667.6
1001	2621.05
1001.295	2584.66
1001.59	2608.39
1001.885	2575.4
1002.18	2569.07
1002.475	2576.3
1002.77	2508.96
1003.065	2520.48
1003.359	2519.13
1003.654	2492.69
1003.949	2452.01
1004.243	2443.2
1004.538	2447.49
1004.832	2430.54
1005.127	2460.6
1005.421	2395.29
1005.715	2411.56
1006.009	2398.45
1006.304	2373.14
1006.598	2384.22
1006.892	2371.56
1007.186	2335.18
1007.48	2342.86
1007.773	2297.44
1008.067	2288.4
1008.361	2258.57
1008.655	2242.53
1008.948	2228.29
1009.242	2277.1
1009.535	2208.18
1009.829	2238.01
1010.122	2208.85
1010.415	2173.83
1010.708	2179.93
1011.001	2151.45
1011.295	2139.48
1011.588	2151.23
1011.881	2126.37
1012.173	2101.29
1012.466	2128.63
1012.759	2083.66
1013.052	2095.64
1013.344	2069.87
1013.637	2049.31
1013.93	2037.33
1014.222	2015.87
1014.514	2010.67
1014.807	2007.05
1015.099	2033.72
1015.391	1979.26
1015.683	1986.49
1015.976	1937.22
1016.268	1958.69
1016.56	1949.43
1016.851	1935.42
1017.143	1881.41
1017.435	1865.36
1017.727	1879.82
1018.018	1858.81
1018.31	1847.51
1018.602	1815.87
1018.893	1803.44
1019.185	1829.88
1019.476	1799.15
1019.767	1775.87
1020.058	1752.82
1020.35	1777.23
1020.641	1757.57
1020.932	1772.93
1021.223	1718.47
1021.514	1729.09
1021.804	1692.48
1022.095	1715.08
1022.386	1669.89
1022.677	1659.94
1022.967	1654.29
1023.258	1647.51
1023.548	1624.01
1023.839	1619.94
1024.129	1614.97
1024.419	1594.63
1024.709	1573.16
1025	1573.62
1025.29	1600.73
1025.58	1543.56
1025.87	1544.92
1026.16	1522.77
1026.449	1528.42
1026.739	1542.43
1027.029	1483.68
1027.319	1484.13
1027.608	1474.86
1027.898	1490.68
1028.187	1465.82
1028.477	1448.42
1028.766	1459.04
1029.055	1424.24
1029.344	1424.47
1029.634	1418.14
1029.923	1398.25
1030.212	1385.83
1030.501	1390.8
1030.79	1390.34
1031.078	1348.54
1031.367	1355.77
1031.656	1386.5
1031.945	1336.33
1032.233	1341.76
1032.522	1320.97
1032.81	1326.84
1033.099	1310.12
1033.387	1300.18
1033.675	1311.7
1033.963	1274.42
1034.251	1284.36
1034.54	1243.23
1034.828	1233.74
1035.116	1263.79
1035.403	1254.76
1035.691	1249.78
1035.979	1229.67
1036.267	1213.4
1036.554	1193.06
1036.842	1174.53
1037.129	1202.1
1037.417	1171.82
1037.704	1206.62
1037.992	1171.37
1038.279	1148.54
1038.566	1130.01
1038.853	1130.01
1039.14	1130.01
