Data from plate_ceramic_FLMS001491_043.txt Node
Date: Tue Feb 07 11:16:49 GMT 2017
User: dcchb
Spectrometer: FLMS00149
Trigger mode: 0
Integration Time (sec): 2.000000E-2
Scans to average: 10
Electric dark correction enabled: true
Nonlinearity correction enabled: false
Boxcar width: 0
XAxis mode: Wavelengths
Number of Pixels in Spectrum: 2048
>>>>>Begin Spectral Data<<<<<
341.393	-14.83
341.776	-14.83
342.16	-14.83
342.543	-55.96
342.927	-64.09
343.31	-71.1
343.693	-72.68
344.077	-74.72
344.46	-53.93
344.843	-62.51
345.226	-31.78
345.61	-33.36
345.993	-32.68
346.376	6.64
346.759	19.07
347.142	19.29
347.525	46.19
347.908	66.98
348.291	76.01
348.674	99.29
349.057	99.29
349.44	141.78
349.823	148.33
350.206	175.45
350.588	204.6
350.971	222
351.354	236.91
351.737	259.06
352.119	264.48
352.502	276.91
352.884	284.37
353.267	285.95
353.65	298.83
354.032	316.23
354.414	327.31
354.797	322.79
355.179	329.12
355.562	358.95
355.944	346.06
356.326	337.7
356.709	357.36
357.091	354.65
357.473	362.34
357.855	340.64
358.238	343.8
358.62	348.32
359.002	344.03
359.384	356.23
359.766	347.19
360.148	357.36
360.53	340.41
360.912	366.85
361.294	371.15
361.676	357.82
362.057	363.24
362.439	351.49
362.821	365.05
363.203	347.19
363.584	346.97
363.966	337.25
364.348	334.31
364.729	337.7
365.111	339.28
365.493	328.21
365.874	343.35
366.256	359.85
366.637	343.13
367.019	346.29
367.4	326.18
367.781	339.74
368.163	345.16
368.544	331.6
368.925	333.18
369.306	356.46
369.688	332.96
370.069	356.01
370.45	359.85
370.831	342.45
371.212	350.81
371.593	361.43
371.974	357.59
372.355	363.69
372.736	359.17
373.117	338.83
373.498	360.98
373.879	341.54
374.26	365.95
374.641	358.27
375.021	352.62
375.402	361.88
375.783	362.34
376.163	380.87
376.544	382.22
376.925	355.78
377.305	379.51
377.686	375.67
378.066	395.1
378.447	387.65
378.827	378.61
379.208	404.14
379.588	382.67
379.968	391.71
380.349	409.79
380.729	381.77
381.109	400.07
381.489	408.89
381.87	419.51
382.25	395.55
382.63	426.29
383.01	396.91
383.39	414.76
383.77	428.1
384.15	412.28
384.53	395.78
384.91	422.22
385.29	426.97
385.67	429.45
386.049	446.4
386.429	445.27
386.809	448.89
387.189	436.46
387.568	454.76
387.948	449.79
388.328	456.12
388.707	464.93
389.087	464.25
389.466	455.44
389.846	474.2
390.225	465.84
390.605	489.11
390.984	483.91
391.363	477.81
391.743	472.16
392.122	485.95
392.501	495.44
392.881	515.33
393.26	520.75
393.639	501.09
394.018	535.44
394.397	522.33
394.776	527.3
395.155	533.86
395.534	529.79
395.913	530.24
396.292	550.58
396.671	540.41
397.05	549
397.429	547.41
397.808	549
398.186	561.65
398.565	567.08
398.944	597.81
399.323	569.79
399.701	577.02
400.08	594.19
400.458	585.61
400.837	593.52
401.215	606.85
401.594	601.65
401.972	609.11
402.351	623.57
402.729	631.25
403.107	610.69
403.486	643.01
403.864	661.54
404.242	665.15
404.62	658.6
404.999	670.12
405.377	664.25
405.755	664.93
406.133	695.66
406.511	690.24
406.889	685.49
407.267	699.28
407.645	708.31
408.023	712.38
408.401	726.39
408.779	754.87
409.156	769.56
409.534	746.28
409.912	773.17
410.29	766.84
410.667	777.47
411.045	775.88
411.422	816.11
411.8	794.64
412.178	830.8
412.555	824.7
412.933	838.25
413.31	838.48
413.687	876.45
414.065	848.88
414.442	880.74
414.819	883.45
415.197	896.11
415.574	880.97
415.951	901.3
416.328	928.65
416.705	938.37
417.082	926.16
417.46	951.25
417.837	948.31
418.214	969.32
418.591	978.14
418.967	974.07
419.344	981.75
419.721	971.36
420.098	1017.01
420.475	1037.57
420.852	1015.65
421.228	1052.94
421.605	1048.19
421.982	1059.72
422.358	1061.98
422.735	1084.58
423.111	1095.88
423.488	1075.99
423.864	1124.35
424.241	1126.16
424.617	1131.81
424.994	1118.25
425.37	1171.13
425.746	1166.61
426.123	1152.14
426.499	1178.58
426.875	1198.47
427.251	1237.57
427.627	1237.34
428.003	1290.9
428.379	1308.52
428.756	1292.48
429.132	1287.28
429.507	1311.46
429.883	1328.19
430.259	1336.32
430.635	1369.09
431.011	1352.14
431.387	1383.1
431.763	1413.83
432.138	1431.01
432.514	1449.99
432.89	1448.86
433.265	1473.27
433.641	1498.58
434.016	1526.82
434.392	1534.51
434.767	1549.65
435.143	1551
435.518	1560.27
435.894	1603.66
436.269	1612.92
436.644	1651.57
437.02	1671.91
437.395	1647.5
437.77	1700.61
438.145	1732.92
438.52	1726.82
438.895	1743.54
439.271	1764.11
439.646	1765.24
440.021	1785.35
440.395	1790.55
440.77	1827.38
441.145	1795.97
441.52	1872.8
441.895	1866.93
442.27	1860.6
442.645	1882.3
443.019	1896.08
443.394	1904.44
443.769	1910.54
444.143	1905.8
444.518	1966.13
444.892	1956.64
445.267	1974.27
445.641	1952.8
446.016	1976.3
446.39	2021.73
446.764	2026.02
447.139	2061.5
447.513	2043.87
447.887	2056.98
448.262	2072.57
448.636	2088.84
449.01	2137.2
449.384	2157.09
449.758	2175.85
450.132	2147.15
450.506	2165
450.88	2191.67
451.254	2191.89
451.628	2219.24
452.002	2267.82
452.376	2289.52
452.75	2308.5
453.123	2300.14
453.497	2368.16
453.871	2368.61
454.244	2414.71
454.618	2439.79
454.992	2464.2
455.365	2465.78
455.739	2537.87
456.112	2553.46
456.486	2592.78
456.859	2623.97
457.232	2692.22
457.606	2644.53
457.979	2696.74
458.352	2750.29
458.725	2775.83
459.099	2780.12
459.472	2842.5
459.845	2884.98
460.218	2879.78
460.591	2944.19
460.964	2985.09
461.337	3031.19
461.71	3054.92
462.083	3134.92
462.456	3131.53
462.829	3144.63
463.201	3202.94
463.574	3199.55
463.947	3220.34
464.32	3325.87
464.692	3350.05
465.065	3349.83
465.438	3397.51
465.81	3452.88
466.183	3491.52
466.555	3574
466.928	3584.85
467.3	3615.13
467.672	3679.08
468.045	3755.24
468.417	3751.62
468.789	3789.82
469.161	3883.15
469.534	3923.6
469.906	4009.92
470.278	4047.66
470.65	4072.75
471.022	4191.39
471.394	4246.53
471.766	4213.99
472.138	4275.45
472.51	4413.98
472.882	4470.02
473.253	4482.45
473.625	4599.06
473.997	4693.07
474.369	4741.88
474.74	4695.78
475.112	4843.8
475.484	4909.11
475.855	5064.13
476.227	5116.33
476.598	5163.34
476.97	5263.22
477.341	5343.22
477.713	5443.33
478.084	5458.47
478.455	5650.56
478.827	5651.91
479.198	5844.68
479.569	5866.6
479.94	6048.51
480.311	6065.01
480.682	6227.49
481.053	6352.23
481.424	6380.93
481.795	6525.34
482.166	6544.32
482.537	6638.55
482.908	6869.06
483.279	6947.02
483.65	7032.22
484.021	7195.38
484.391	7248.26
484.762	7335.71
485.133	7391.75
485.503	7509.94
485.874	7690.5
486.244	7756.72
486.615	7844.85
486.985	7991.06
487.356	8164.62
487.726	8281.45
488.097	8404.16
488.467	8384.72
488.837	8565.06
489.207	8705.39
489.578	8825.62
489.948	8896.57
490.318	9117.13
490.688	9085.5
491.058	9237.13
491.428	9318.71
491.798	9496.78
492.168	9601.19
492.538	9656.1
492.908	9741.98
493.278	9900.16
493.648	9970.44
494.017	10057.22
494.387	10140.61
494.757	10257.44
495.126	10358.23
495.496	10414.05
495.866	10461.28
496.235	10593.7
496.605	10748.73
496.974	10796.86
497.344	10888.16
497.713	11041.38
498.082	11121.83
498.452	11165.44
498.821	11329.05
499.19	11312.1
499.559	11408.6
499.928	11476.85
500.298	11487.47
500.667	11639.78
501.036	11644.3
501.405	11746.44
501.774	11787.12
502.143	11995.02
502.512	12060.33
502.88	12238.41
503.249	12153.44
503.618	12267.33
503.987	12406.09
504.356	12416.03
504.724	12476.37
505.093	12622.35
505.462	12716.36
505.83	12816.24
506.199	12933.98
506.567	13046.75
506.936	12997.94
507.304	13158.16
507.672	13239.51
508.041	13366.06
508.409	13395.44
508.777	13561.08
509.145	13685.83
509.514	13678.82
509.882	13845.14
510.25	13821.19
510.618	14089.43
510.986	14002.2
511.354	14191.12
511.722	14302.99
512.09	14529.42
512.458	14415.52
512.826	14521.51
513.193	14668.4
513.561	14778.23
513.929	14847.15
514.297	14972.57
514.664	15104.32
515.032	15097.09
515.4	15400.36
515.767	15426.8
516.135	15570.07
516.502	15352
516.869	15738.65
517.237	15832.66
517.604	15885.77
517.972	16021.58
518.339	16163.5
518.706	16264.74
519.073	16377.73
519.44	16411.18
519.808	16643.49
520.175	16643.49
520.542	16935.91
520.909	16993.31
521.276	17005.51
521.643	17232.85
522.009	17261.78
522.376	17512.39
522.743	17571.83
523.11	17687.3
523.477	17868.32
523.843	17992.61
524.21	18304.91
524.577	18413.16
524.943	18512.14
525.31	18552.37
525.676	18765.69
526.043	18897.21
526.409	18920.72
526.776	19249.97
527.142	19218.56
527.508	19494.26
527.874	19511.44
528.241	19693.58
528.607	19670.08
528.973	19934.48
529.339	19868.94
529.705	20080.01
530.071	20231.42
530.437	20353.22
530.803	20544.63
531.169	20674.57
531.535	20658.75
531.901	20792.31
532.267	21018.97
532.632	21102.13
532.998	21018.97
533.364	21300.54
533.73	21327.89
534.095	21511.84
534.461	21642
534.826	21718.61
535.192	21774.88
535.557	21960.19
535.923	21947.76
536.288	22116.11
536.653	22195.66
537.019	22166.28
537.384	22230.46
537.749	22421.64
538.114	22526.05
538.479	22491.02
538.845	22599.72
539.21	22670.45
539.575	22752.93
539.94	22935.53
540.305	23083.32
540.67	23066.6
541.034	23110.21
541.399	23250.55
541.764	23245.8
542.129	23417.55
542.494	23429.3
542.858	23680.59
543.223	23647.37
543.587	23750.87
543.952	23829.97
544.316	23962.39
544.681	23829.51
545.045	24182.27
545.41	24168.04
545.774	24221.37
546.138	24398.99
546.503	24304.3
546.867	24336.17
547.231	24616.16
547.595	24848.02
547.959	24775.93
548.324	24761.69
548.688	24890.28
549.052	25073.1
549.416	25068.35
549.779	25088.01
550.143	25284.39
550.507	25373.2
550.871	25494.1
551.235	25509.24
551.599	25710.82
551.962	25778.16
552.326	25772.51
552.689	25968.22
553.053	25912.85
553.417	26043.24
553.78	26399.84
554.143	26238.72
554.507	26478.26
554.87	26473.96
555.234	26860.62
555.597	26595.09
555.96	26747.86
556.323	26997.34
556.686	27024.23
557.05	27194.62
557.413	27337.45
557.776	27323.89
558.139	27547.16
558.502	27652.01
558.865	27810.2
559.228	27945.34
559.59	28016.52
559.953	28056.97
560.316	28422.61
560.679	28388.72
561.041	28585.1
561.404	28721.59
561.767	28898.31
562.129	28861.25
562.492	29076.61
562.854	29242.71
563.217	29224.63
563.579	29377.17
563.941	29481.34
564.304	29718.85
564.666	29880.66
565.028	29849.47
565.39	30120.65
565.753	30293.53
566.115	30227.99
566.477	30447.65
566.839	30506.85
567.201	30801.99
567.563	30715.89
567.925	30909.1
568.287	31054.18
568.648	31082.88
569.01	31429.99
569.372	31506.83
569.734	31492.82
570.095	31631.34
570.457	31729.65
570.819	31945.91
571.18	31978
571.542	32116.75
571.903	32286.24
572.265	32285.11
572.626	32340.03
572.987	32406.69
573.349	32564.65
573.71	32733.46
574.071	32766.45
574.432	32861.37
574.794	32961.48
575.155	33138.2
575.516	33047.13
575.877	33023.85
576.238	33151.3
576.599	33345.65
576.96	33318.3
577.32	33396.04
577.681	33614.57
578.042	33628.81
578.403	33709.48
578.763	33747.22
579.124	33766.88
579.485	33876.48
579.845	33968.91
580.206	33875.58
580.566	33972.98
580.927	33946.99
581.287	34045.07
581.648	34016.14
582.008	34219.75
582.368	33993.99
582.728	34223.59
583.089	34178.4
583.449	34234.66
583.809	34208.45
584.169	34296.13
584.529	34175.23
584.889	34522.79
585.249	34237.6
585.609	34346.75
585.969	34446.64
586.329	34431.04
586.688	34388.11
587.048	34412.06
587.408	34424.26
587.768	34436.02
588.127	34413.42
588.487	34419.74
588.846	34652.05
589.206	34378.84
589.565	34406.19
589.925	34499.29
590.284	34431.27
590.643	34510.82
591.003	34738.83
591.362	34656.12
591.721	34610.93
592.08	34583.81
592.44	34718.49
592.799	34725.73
593.158	34670.13
593.517	34628.1
593.876	34692.73
594.235	34617.03
594.593	34636.24
594.952	34712.17
595.311	34654.99
595.67	34766.63
596.029	35036.45
596.387	34932.5
596.746	34941.99
597.104	34981.54
597.463	34836.68
597.822	34886.85
598.18	34912.16
598.538	34793.07
598.897	35170.69
599.255	34925.04
599.613	35313.73
599.972	35111.48
600.33	35270.57
600.688	35196.9
601.046	35301.76
601.404	35455.42
601.762	35372.26
602.12	35414.07
602.478	35533.61
602.836	35581.07
603.194	35276.45
603.552	35365.26
603.91	35358.48
604.268	35398.02
604.625	35355.54
604.983	35564.57
605.341	35345.6
605.698	35633.95
606.056	35701.97
606.413	35653.16
606.771	35709.88
607.128	35766.6
607.485	35663.33
607.843	35714.85
608.2	35911.23
608.557	36001.17
608.914	35831.91
609.272	35951.68
609.629	36016.31
609.986	36200.49
610.343	36000.04
610.7	36220.15
611.057	36303.99
611.414	36272.8
611.771	36301.73
612.127	36376.08
612.484	36332.91
612.841	36362.07
613.198	36220.15
613.554	36324.1
613.911	36469.63
614.267	36453.59
614.624	36576.3
614.98	36586.24
615.337	36825.11
615.693	36729.06
616.05	36696.97
616.406	36882.05
616.762	36800.47
617.118	36682.74
617.475	36736.97
617.831	36964.76
618.187	37037.75
618.543	36940.13
618.899	37082.95
619.255	37034.82
619.611	36927.7
619.967	37115.72
620.323	37108.26
620.678	37080.01
621.034	36920.24
621.39	36937.19
621.746	37051.31
622.101	37221.48
622.457	37054.48
622.812	37187.81
623.168	37123.18
623.523	37183.74
623.879	37298.09
624.234	37115.04
624.589	37162.95
624.945	37247.69
625.3	37137.64
625.655	37186.23
626.01	37234.13
626.365	37179.45
626.72	37211.08
627.075	37104.87
627.43	37167.24
627.785	37080.47
628.14	37156.85
628.495	37286.79
628.85	37153.68
629.205	36967.47
629.559	37129.73
629.914	36912.79
630.269	36957.08
630.623	36921.15
630.978	36746.01
631.332	36891.77
631.687	37072.56
632.041	36843.86
632.396	36748.95
632.75	36694.94
633.104	36687.03
633.459	36498.79
633.813	36501.27
634.167	36481.16
634.521	36501.27
634.875	36570.87
635.229	36494.04
635.583	36397.32
635.937	36259.47
636.291	36312.58
636.645	36284.33
636.999	36226.02
637.352	36347.83
637.706	36086.37
638.06	36220.6
638.413	36028.29
638.767	36114.39
639.121	36090.21
639.474	35895.19
639.828	35889.54
640.181	35916.43
640.534	36011.57
640.888	35784.45
641.241	35720.95
641.594	35754.85
641.947	35805.02
642.301	35604.35
642.654	35725.7
643.007	35667.17
643.36	35570.22
643.713	35421.53
644.066	35547.4
644.419	35396.67
644.771	35041.42
645.124	34625.61
645.477	34684.82
645.83	34540.65
646.182	34272.63
646.535	34257.72
646.888	34411.16
647.24	34189.69
647.593	34464.94
647.945	34314.44
648.298	34127.32
648.65	34071.73
649.002	33916.26
649.355	34120.32
649.707	33978.63
650.059	34098.62
650.411	34387.2
650.763	34520.76
651.115	34868.09
651.467	34713.75
651.819	34762.56
652.171	34556.01
652.523	34574.54
652.875	34583.36
653.227	34355.79
653.578	34605.73
653.93	34622.9
654.282	34279.41
654.633	34285.51
654.985	34336.58
655.337	34393.08
655.688	34369.8
656.039	34492.29
656.391	34200.32
656.742	34109.02
657.094	34215
657.445	34411.38
657.796	34256.13
658.147	34258.84
658.498	34119.64
658.849	34292.29
659.2	34080.77
659.551	34039.87
659.902	34144.5
660.253	33898.4
660.604	34055.01
660.955	33831.06
661.306	34051.62
661.656	33770.72
662.007	33909.25
662.358	33846.2
662.708	33942.02
663.059	33759.42
663.409	33616.15
663.76	33816.37
664.11	33787.44
664.461	33758.75
664.811	33748.58
665.161	33750.16
665.511	33751.29
665.862	33821.12
666.212	33833.55
666.562	33872.19
666.912	33601.01
667.262	33591.74
667.612	33681.46
667.962	33508.13
668.312	33469.26
668.662	33774.34
669.011	33683.72
669.361	33584.29
669.711	33544.51
670.06	33508.13
670.41	33443.27
670.76	33343.16
671.109	33455.48
671.459	33371.86
671.808	33391.3
672.157	33457.51
672.507	33243.5
672.856	33113.11
673.205	33284.86
673.554	33260.45
673.904	33229.72
674.253	33387.91
674.602	33271.53
674.951	32767.58
675.3	32706.57
675.649	33189.49
675.998	33048.71
676.346	33118.54
676.695	33254.58
677.044	32795.83
677.393	33079.67
677.741	33180.91
678.09	32986.34
678.438	32917.86
678.787	32917.86
679.135	32989.95
679.484	32706.34
679.832	32930.07
680.181	32716.06
680.529	32605.56
680.877	32606.69
681.225	32568.49
681.573	32738.66
681.922	32453.02
682.27	32458.67
682.618	32335.73
682.966	32495.73
683.314	32474.49
683.661	32227.94
684.009	32059.58
684.357	32021.84
684.705	32047.83
685.053	32059.35
685.4	31986.14
685.748	32000.83
686.095	31909.3
686.443	31774.16
686.79	31730.32
687.138	31720.38
687.485	31709.53
687.832	31549.09
688.18	31697.78
688.527	31406.04
688.874	31328.3
689.221	31213.95
689.568	31166.27
689.915	31210.56
690.262	31171.47
690.609	31072.04
690.956	31020.74
691.303	30889.44
691.65	30787.52
691.997	30834.3
692.344	30634.53
692.69	30705.49
693.037	30682.67
693.383	30459.4
693.73	30566.96
694.077	30452.62
694.423	30572.16
694.769	30393.41
695.116	30224.83
695.462	30136.24
695.808	29968.11
696.155	30052.4
696.501	29717.5
696.847	29751.39
697.193	29524.05
697.539	29568.8
697.885	29305.98
698.231	29419.2
698.577	29260.78
698.923	29208.36
699.269	29073.44
699.614	29070.73
699.96	28925.88
700.306	29087.46
700.651	28726.79
700.997	28775.6
701.342	28752.55
701.688	28773.11
702.033	28602.95
702.379	28633.46
702.724	28449.96
703.069	28571.31
703.415	28237.53
703.76	28184.43
704.105	28183.07
704.45	28122.51
704.795	27966.36
705.14	27856.08
705.485	27823.31
705.83	27635.06
706.175	27760.94
706.52	27701.96
706.865	27609.75
707.209	27548.96
707.554	27424
707.899	27411.34
708.243	27340.83
708.588	27324.79
708.932	27078.24
709.277	27170.22
709.621	27074.18
709.966	26919.38
710.31	26984.23
710.654	26808.42
710.998	26811.13
711.342	26842.99
711.687	26728.87
712.031	26607.97
712.375	26526.62
712.719	26618.37
713.063	26502.44
713.407	26553.96
713.75	26302.44
714.094	26292.95
714.438	26353.74
714.782	26275.55
715.125	26235.33
715.469	26271.94
715.812	26048.44
716.156	26000.98
716.499	25963.7
716.843	25959.85
717.186	25780.88
717.53	25903.36
717.873	25884.38
718.216	25840.31
718.559	25651.16
718.902	25529.13
719.246	25593.08
719.589	25464.5
719.932	25295.69
720.275	25437.83
720.617	25240.78
720.96	25323.94
721.303	25272.64
721.646	25269.7
721.989	25097.28
722.331	25224.51
722.674	25068.58
723.016	25157.84
723.359	25036.94
723.701	25071.29
724.044	24827
724.386	24833.78
724.729	24909.26
725.071	24892.76
725.413	24724.86
725.755	24725.99
726.097	24628.59
726.439	24524.64
726.782	24550.4
727.124	24596.5
727.465	24395.15
727.807	24472.89
728.149	24394.92
728.491	24327.81
728.833	24299.33
729.175	24249.84
729.516	24175.04
729.858	24173.23
730.199	24259.33
730.541	24159.45
730.882	24148.6
731.224	24131.88
731.565	24018.44
731.906	24011.88
732.248	23934.14
732.589	23797.2
732.93	23765.34
733.271	23827.93
733.612	23863.64
733.953	23830.42
734.294	23707.71
734.635	23659.12
734.976	23721.27
735.317	23586.58
735.658	23547.49
735.999	23601.72
736.339	23500.03
736.68	23522.63
737.021	23371.67
737.361	23316.99
737.702	23443.54
738.042	23321.73
738.383	23293.26
738.723	23291.68
739.063	23124
739.404	23211.9
739.744	23212.36
740.084	23029.76
740.424	23084.9
740.764	23008.29
741.104	23152.92
741.444	22954.96
741.784	22868.64
742.124	22841.74
742.464	22916.32
742.804	22794.51
743.143	22825.25
743.483	22802.88
743.823	22574.18
744.162	22564.46
744.502	22579.83
744.841	22490.79
745.181	22555.88
745.52	22502.77
745.86	22420.96
746.199	22535.99
746.538	22430.91
746.877	22402.21
747.216	22348.65
747.556	22345.94
747.895	22359.27
748.234	22086.51
748.573	22138.49
748.911	22129.9
749.25	22131.48
749.589	21938.26
749.928	22034.08
750.267	21971.03
750.605	21992.95
750.944	21833.63
751.283	21917.93
751.621	21846.29
751.96	21717.71
752.298	21788.66
752.636	21680.42
752.975	21623.25
753.313	21478.16
753.651	21591.38
753.989	21472.97
754.327	21340.77
754.666	21341.67
755.004	21411.95
755.342	21372.63
755.679	21350.94
756.017	21129.92
756.355	21173.99
756.693	21018.06
757.031	21130.83
757.368	20911.17
757.706	20927.9
758.044	20972.19
758.381	20894.68
758.719	20763.15
759.056	20798.86
759.394	20646.55
759.731	20497.17
760.068	20527.45
760.405	20455.59
760.743	20310.96
761.08	20403.62
761.417	20227.12
761.754	20211.98
762.091	20245.2
762.428	20079.56
762.765	20001.59
763.102	20096.96
763.438	19957.98
763.775	19874.59
764.112	19810.86
764.449	19787.59
764.785	19724.09
765.122	19559.57
765.458	19486.13
765.795	19442.06
766.131	19399.57
766.467	19419.91
766.804	19253.36
767.14	19282.52
767.476	19132.92
767.812	19143.76
768.148	19184.21
768.485	19011.56
768.821	18939.47
769.157	18852.02
769.492	18891.57
769.828	18798.01
770.164	18652.02
770.5	18648.18
770.836	18639.14
771.171	18416.78
771.507	18413.61
771.842	18335.42
772.178	18319.15
772.513	18238.7
772.849	18197.57
773.184	18079.16
773.519	18101.76
773.855	17963.23
774.19	17841.65
774.525	17817.47
774.86	17803.46
775.195	17760.3
775.53	17705.16
775.865	17557.82
776.2	17477.59
776.535	17414.32
776.87	17363.02
777.205	17368.22
777.539	17131.16
777.874	17204.83
778.209	17049.81
778.543	17037.15
778.878	16959.19
779.212	16944.72
779.547	16801.9
779.881	16855.23
780.215	16712.87
780.55	16786.54
780.884	16544.28
781.218	16521.91
781.552	16532.76
781.886	16432.2
782.22	16397.17
782.554	16276.72
782.888	16142.26
783.222	16120.11
783.556	16095.25
783.889	16078.53
784.223	15963.51
784.557	15870.85
784.89	15975.03
785.224	15794.47
785.557	15675.38
785.891	15675.6
786.224	15629.73
786.558	15636.51
786.891	15443.97
787.224	15458.21
787.557	15455.05
787.891	15363.75
788.224	15326.69
788.557	15262.73
788.89	15230.19
789.223	15169.4
789.556	15105.68
789.888	15100.03
790.221	15013.25
790.554	14837.21
790.887	14878.11
791.219	14777.55
791.552	14832.92
791.884	14758.79
792.217	14689.42
792.549	14588.18
792.882	14441.06
793.214	14455.98
793.546	14427.05
793.879	14352.25
794.211	14304.57
794.543	14316.77
794.875	14210.11
795.207	14234.51
795.539	14154.29
795.871	14185.25
796.203	14013.5
796.535	13950
796.867	13872.04
797.198	13881.75
797.53	13870.23
797.862	13817.57
798.193	13847.4
798.525	13735.09
798.856	13755.43
799.188	13583
799.519	13587.52
799.85	13516.34
800.182	13429.79
800.513	13498.71
800.844	13434.08
801.175	13393.4
801.506	13360.19
801.837	13337.59
802.168	13227.99
802.499	13248.55
802.83	13089.23
803.161	13141.43
803.491	13113.86
803.822	13062.79
804.153	13075.9
804.483	12925.62
804.814	12834.78
805.145	12826.19
805.475	12894.21
805.805	12774.44
806.136	12746.19
806.466	12731.5
806.796	12739.86
807.126	12646.53
807.457	12580.54
807.787	12505.74
808.117	12520.89
808.447	12511.62
808.777	12440.21
809.107	12447.89
809.436	12418.29
809.766	12419.65
810.096	12337.61
810.426	12258.97
810.755	12323.38
811.085	12272.98
811.414	12280.44
811.744	12135.13
812.073	12102.14
812.403	12063.27
812.732	11981.92
813.061	12019.43
813.39	11995.7
813.719	11889.94
814.049	11915.93
814.378	11912.77
814.707	11805.88
815.036	11807.23
815.365	11765.2
815.693	11708.03
816.022	11672.55
816.351	11701.25
816.68	11609.5
817.008	11650.63
817.337	11621.02
817.665	11564.75
817.994	11564.98
818.322	11514.36
818.651	11472.55
818.979	11473.46
819.307	11482.72
819.636	11355.04
819.964	11348.03
820.292	11386.45
820.62	11323.4
820.948	11276.4
821.276	11276.62
821.604	11274.59
821.932	11273.46
822.259	11280.47
822.587	11217.64
822.915	11294.93
823.243	11287.47
823.57	11182.84
823.898	11227.81
824.225	11258.32
824.553	11296.28
824.88	11218.32
825.207	11214.48
825.535	11219.68
825.862	11258.09
826.189	11184.65
826.516	11197.08
826.843	11271.65
827.17	11257.42
827.497	11263.97
827.824	11191.2
828.151	11216.74
828.478	11253.12
828.805	11203.86
829.131	11173.35
829.458	11141.71
829.785	11060.13
830.111	11124.54
830.438	11271.88
830.764	11101.26
831.09	11228.94
831.417	11049.06
831.743	11118.44
832.069	11164.99
832.395	11081.83
832.722	11152.56
833.048	11075.95
833.374	11119.79
833.7	11065.1
834.026	11066.91
834.351	11139.68
834.677	11028.5
835.003	11040.25
835.329	11043.41
835.654	11015.39
835.98	10927.71
836.306	10960.25
836.631	10899.46
836.956	10925.9
837.282	10922.74
837.607	10883.87
837.932	10895.17
838.258	10832.34
838.583	10861.72
838.908	10793.93
839.233	10828.95
839.558	10805.9
839.883	10665.34
840.208	10693.14
840.533	10662.4
840.858	10702.4
841.182	10731.55
841.507	10646.13
841.832	10663.31
842.156	10621.27
842.481	10637.55
842.805	10533.14
843.13	10534.5
843.454	10493.37
843.778	10438.45
844.103	10454.95
844.427	10424.22
844.751	10387.38
845.075	10347.84
845.399	10377.21
845.723	10316.2
846.047	10228.97
846.371	10192.13
846.695	10241.85
847.019	10095.86
847.343	10123.89
847.666	10037.56
847.99	9969.54
848.313	10003.89
848.637	9914.4
848.96	9911.46
849.284	9904.46
849.607	9760.28
849.931	9769.77
850.254	9687.51
850.577	9696.55
850.9	9586.5
851.223	9575.88
851.546	9590.79
851.869	9497.69
852.192	9521.19
852.515	9411.81
852.838	9433.74
853.161	9412.72
853.483	9349.22
853.806	9386.73
854.129	9284.13
854.451	9243.23
854.774	9244.14
855.096	9220.86
855.419	9183.8
855.741	9164.82
856.063	9089.34
856.385	9057.93
856.708	9069.68
857.03	9014.76
857.352	9049.34
857.674	8979.74
857.996	8931.6
858.318	8935.89
858.64	8876.69
858.961	8834.88
859.283	8827.88
859.605	8823.81
859.926	8757.59
860.248	8746.07
860.57	8683.92
860.891	8751.95
861.212	8670.37
861.534	8686.18
861.855	8650.48
862.176	8667.88
862.498	8706.97
862.819	8639.63
863.14	8593.76
863.461	8544.27
863.782	8607.09
864.103	8580.65
864.424	8568
864.745	8523.25
865.065	8473.53
865.386	8435.57
865.707	8458.17
866.027	8353.76
866.348	8400.77
866.668	8410.26
866.989	8376.36
867.309	8323.03
867.63	8308.79
867.95	8370.26
868.27	8240.09
868.59	8305.86
868.91	8268.12
869.23	8260.43
869.55	8205.52
869.87	8274.67
870.19	8234.44
870.51	8241.22
870.83	8258.4
871.15	8148.57
871.469	8266.31
871.789	8177.27
872.109	8184.28
872.428	8150.38
872.748	8111.06
873.067	8133.2
873.386	8106.99
873.706	8030.16
874.025	8018.86
874.344	8030.61
874.663	8025.86
874.982	8044.39
875.301	8004.17
875.62	7963.94
875.939	7941.12
876.258	7928.92
876.577	7945.19
876.896	7955.81
877.214	7896.6
877.533	7882.36
877.852	7879.65
878.17	7913.55
878.489	7885.75
878.807	7888.92
879.125	7835.36
879.444	7801.69
879.762	7849.6
880.08	7829.94
880.398	7773.44
880.716	7783.83
881.034	7725.53
881.352	7763.04
881.67	7703.16
881.988	7719.88
882.306	7634.46
882.624	7676.27
882.941	7617.74
883.259	7618.64
883.577	7591.07
883.894	7575.7
884.212	7530.96
884.529	7524.41
884.846	7524.18
885.164	7505.2
885.481	7510.62
885.798	7523.28
886.115	7426.33
886.432	7409.61
886.75	7405.99
887.067	7377.52
887.383	7359.21
887.7	7381.36
888.017	7288.03
888.334	7352.66
888.651	7330.29
888.967	7265.2
889.284	7196.96
889.6	7183.4
889.917	7180.91
890.233	7204.42
890.55	7168.03
890.866	7198.99
891.182	7191.76
891.498	7119.22
891.815	7125.32
892.131	7052.55
892.447	7110.63
892.763	7097.75
893.079	7001.71
893.395	6961.03
893.71	6990.86
894.026	6949.51
894.342	6905.89
894.657	6923.07
894.973	6886.23
895.289	6827.7
895.604	6891.2
895.92	6785.22
896.235	6759
896.55	6734.82
896.865	6707.03
897.181	6715.61
897.496	6714.03
897.811	6699.57
898.126	6661.6
898.441	6635.84
898.756	6615.96
899.071	6570.31
899.386	6537.77
899.7	6542.29
900.015	6531.66
900.33	6449.18
900.644	6472.46
900.959	6517.2
901.273	6416.19
901.588	6396.3
901.902	6359.69
902.216	6385.91
902.531	6283.54
902.845	6306.13
903.159	6262.97
903.473	6289.64
903.787	6240.37
904.101	6183.42
904.415	6187.04
904.729	6232.01
905.042	6198.57
905.356	6079.92
905.67	6085.8
905.984	6116.99
906.297	6128.29
906.611	6020.27
906.924	5995.63
907.237	5966.48
907.551	5980.27
907.864	5890.55
908.177	5917.67
908.491	5940.04
908.804	5862.76
909.117	5833.6
909.43	5805.36
909.743	5787.73
910.056	5795.64
910.368	5744.79
910.681	5775.98
910.994	5712.02
911.307	5707.51
911.619	5598.36
911.932	5680.61
912.244	5620.73
912.557	5623.67
912.869	5598.81
913.181	5535.76
913.494	5546.61
913.806	5460.96
914.118	5535.31
914.43	5455.08
914.742	5455.99
915.054	5416.89
915.366	5436.33
915.678	5370.57
915.99	5384.8
916.302	5293.05
916.613	5304.8
916.925	5300.28
917.236	5283.56
917.548	5270
917.859	5253.28
918.171	5219.16
918.482	5186.39
918.794	5149.55
919.105	5143.45
919.416	5100.06
919.727	5139.84
920.038	5083.34
920.349	5031.14
920.66	5022.78
920.971	5012.83
921.282	5011.7
921.593	4946.85
921.903	4916.57
922.214	4953.4
922.525	4877.24
922.835	4919.28
923.146	4841.54
923.456	4830.01
923.767	4765.16
924.077	4806.29
924.387	4811.71
924.697	4785.5
925.008	4777.13
925.318	4713.63
925.628	4730.58
925.938	4650.58
926.248	4640.87
926.558	4596.8
926.867	4572.17
927.177	4599.51
927.487	4559.96
927.796	4538.72
928.106	4567.2
928.416	4520.64
928.725	4516.12
929.034	4496.69
929.344	4468.22
929.653	4488.1
929.962	4394.32
930.271	4409.23
930.581	4411.27
930.89	4409.46
931.199	4358.61
931.508	4339.41
931.817	4307.99
932.125	4292.85
932.434	4284.94
932.743	4237.26
933.051	4251.27
933.36	4220.09
933.669	4161.11
933.977	4150.71
934.286	4178.73
934.594	4143.7
934.902	4105.51
935.21	4092.63
935.519	4088.56
935.827	4093.54
936.135	4050.15
936.443	4048.34
936.751	3976.7
937.059	3994.33
937.367	3986.42
937.674	4018.74
937.982	3966.53
938.29	3950.72
938.597	3938.74
938.905	3914.78
939.213	3875.46
939.52	3884.05
939.827	3894.67
940.135	3856.03
940.442	3832.07
940.749	3801.34
941.056	3814
941.363	3793.21
941.67	3759.99
941.977	3724.05
942.284	3704.39
942.591	3735.81
942.898	3737.84
943.205	3725.64
943.511	3698.29
943.818	3685.19
944.125	3644.73
944.431	3637.5
944.738	3636.37
945.044	3599.09
945.35	3568.35
945.657	3610.61
945.963	3566.77
946.269	3540.33
946.575	3536.04
946.881	3544.4
947.187	3503.72
947.493	3459.2
947.799	3438.19
948.105	3427.79
948.41	3408.58
948.716	3439.99
949.022	3394.57
949.327	3409.49
949.633	3349.38
949.938	3359.09
950.244	3346.44
950.549	3329.94
950.854	3328.81
951.16	3324.97
951.465	3280.9
951.77	3289.94
952.075	3240.68
952.38	3263.73
952.685	3237.29
952.99	3184.63
953.294	3204.52
953.599	3173.56
953.904	3158.42
954.209	3139.89
954.513	3161.13
954.818	3162.04
955.122	3108.25
955.426	3126.33
955.731	3064.18
956.035	3071.19
956.339	3074.58
956.643	3071.87
956.948	3021.25
957.252	3003.4
957.556	3005.66
957.86	2998.2
958.163	2952.55
958.467	2977.63
958.771	2976.5
959.075	2970.4
959.378	2929.5
959.682	2940.12
959.985	2927.92
960.289	2891.76
960.592	2867.35
960.896	2852.44
961.199	2833.23
961.502	2863.74
961.805	2824.42
962.108	2823.97
962.411	2835.94
962.714	2801.37
963.017	2788.49
963.32	2762.05
963.623	2755.04
963.926	2748.71
964.228	2742.84
964.531	2729.5
964.833	2739.22
965.136	2717.3
965.438	2685.66
965.741	2683.63
966.043	2675.49
966.345	2660.58
966.648	2676.62
966.95	2662.84
967.252	2627.81
967.554	2660.81
967.856	2609.06
968.158	2584.42
968.46	2573.12
968.761	2553.92
969.063	2548.49
969.365	2562.73
969.666	2535.84
969.968	2557.98
970.269	2561.15
970.571	2494.93
970.872	2528.15
971.174	2469.4
971.475	2503.97
971.776	2478.89
972.077	2481.38
972.378	2446.12
972.679	2442.28
972.98	2407.93
973.281	2417.87
973.582	2436.63
973.883	2379.01
974.183	2380.14
974.484	2370.64
974.785	2370.64
975.085	2338.55
975.386	2381.04
975.686	2320.25
975.986	2344.43
976.287	2316.86
976.587	2275.28
976.887	2322.96
977.187	2306.69
977.487	2288.84
977.787	2262.62
978.087	2253.58
978.387	2201.61
978.687	2243.87
978.987	2254.04
979.286	2181.72
979.586	2189.18
979.885	2216.3
980.185	2192.34
980.484	2166.36
980.784	2176.52
981.083	2176.3
981.382	2192.8
981.682	2141.95
981.981	2111.67
982.28	2141.72
982.579	2125.68
982.878	2113.02
983.177	2117.32
983.475	2094.27
983.774	2106.02
984.073	2089.07
984.372	2085.23
984.67	2060.37
984.969	2033.03
985.267	2039.58
985.566	2000.94
985.864	2028.96
986.162	1993.25
986.461	2016.08
986.759	1996.19
987.057	1965.91
987.355	1971.11
987.653	1985.8
987.951	1965.46
988.249	1939.69
988.547	1968.39
988.844	1937.21
989.142	1917.32
989.44	1927.27
989.737	1891.11
990.035	1906.25
990.332	1903.09
990.63	1900.37
990.927	1882.07
991.224	1863.54
991.521	1845.01
991.819	1889.75
992.116	1842.97
992.413	1824.67
992.71	1842.97
993.006	1839.81
993.303	1825.8
993.6	1800.04
993.897	1780.15
994.193	1792.13
994.49	1748.29
994.787	1784.67
995.083	1722.75
995.379	1736.31
995.676	1733.15
995.972	1730.66
996.268	1726.14
996.565	1705.58
996.861	1738.12
997.157	1713.26
997.453	1695.18
997.749	1694.28
998.044	1662.19
998.34	1667.39
998.636	1668.97
998.932	1621.29
999.227	1621.51
999.523	1605.47
999.818	1644.11
1000.114	1620.38
1000.409	1559.37
1000.704	1589.42
1001	1583.09
1001.295	1588.74
1001.59	1579.48
1001.885	1551.91
1002.18	1556.65
1002.475	1577.67
1002.77	1551.91
1003.065	1556.2
1003.359	1528.41
1003.654	1539.71
1003.949	1512.36
1004.243	1521.4
1004.538	1506.49
1004.832	1493.15
1005.127	1497.45
1005.421	1508.97
1005.715	1438.47
1006.009	1475.53
1006.304	1414.51
1006.598	1471.91
1006.892	1422.87
1007.186	1461.74
1007.48	1411.35
1007.773	1427.39
1008.067	1390.78
1008.361	1408.86
1008.655	1394.85
1008.948	1411.12
1009.242	1369.99
1009.535	1370.44
1009.829	1370.44
1010.122	1357.34
1010.415	1359.15
1010.708	1341.74
1011.001	1349.88
1011.295	1327.28
1011.588	1306.72
1011.881	1326.38
1012.173	1300.84
1012.466	1293.84
1012.759	1290.9
1013.052	1294.06
1013.344	1292.03
1013.637	1301.97
1013.93	1272.82
1014.222	1261.97
1014.514	1253.39
1014.807	1261.29
1015.099	1225.82
1015.391	1233.95
1015.683	1225.82
1015.976	1207.74
1016.268	1203.67
1016.56	1213.61
1016.851	1217.68
1017.143	1201.18
1017.435	1176.33
1017.727	1185.36
1018.018	1139.72
1018.31	1170.68
1018.602	1141.07
1018.893	1150.11
1019.185	1139.72
1019.476	1145.82
1019.767	1112.37
1020.058	1134.29
1020.35	1118.7
1020.641	1112.6
1020.932	1104.46
1021.223	1076.44
1021.514	1101.07
1021.804	1082.54
1022.095	1095.88
1022.386	1066.27
1022.677	1053.62
1022.967	1043.22
1023.258	1027.85
1023.548	1040.74
1023.839	1054.29
1024.129	1013.17
1024.419	1044.58
1024.709	1025.37
1025	1027.85
1025.29	1004.35
1025.58	1023.11
1025.87	1000.96
1026.16	1004.58
1026.449	991.7
1026.739	981.75
1027.029	959.38
1027.319	978.14
1027.608	977.01
1027.898	978.82
1028.187	945.82
1028.477	945.14
1028.766	934.3
1029.055	946.95
1029.344	936.78
1029.634	897.24
1029.923	889.78
1030.212	913.28
1030.501	911.47
1030.79	914.19
1031.078	902.66
1031.367	898.37
1031.656	880.97
1031.945	898.59
1032.233	887.52
1032.522	873.06
1032.81	874.86
1033.099	876.22
1033.387	852.04
1033.675	843
1033.963	859.05
1034.251	830.8
1034.54	822.89
1034.828	823.34
1035.116	835.99
1035.403	810.23
1035.691	825.6
1035.979	806.84
1036.267	788.09
1036.554	804.13
1036.842	787.18
1037.129	779.73
1037.417	794.87
1037.704	801.42
1037.992	784.02
1038.279	763
1038.566	757.13
1038.853	757.13
1039.14	757.13
