Data from plate_porcelain_FLMS001491_084.txt Node
Date: Tue Feb 07 11:20:02 GMT 2017
User: dcchb
Spectrometer: FLMS00149
Trigger mode: 0
Integration Time (sec): 2.000000E-2
Scans to average: 10
Electric dark correction enabled: true
Nonlinearity correction enabled: false
Boxcar width: 0
XAxis mode: Wavelengths
Number of Pixels in Spectrum: 2048
>>>>>Begin Spectral Data<<<<<
341.393	-3.8
341.776	-3.8
342.16	-3.8
342.543	-74.53
342.927	-64.36
343.31	-57.13
343.693	-66.4
344.077	-67.53
344.46	-58.26
344.843	-60.3
345.226	-56
345.61	-26.4
345.993	-27.53
346.376	7.73
346.759	21.74
347.142	28.97
347.525	43.43
347.908	47.27
348.291	74.16
348.674	91.34
349.057	104.9
349.44	121.17
349.823	157.55
350.206	163.43
350.588	208.4
350.971	240.26
351.354	252.92
351.737	266.93
352.119	273.48
352.502	296.98
352.884	280.94
353.267	323.88
353.65	311.22
354.032	318
354.414	331.56
354.797	348.06
355.179	360.94
355.562	356.19
355.944	361.61
356.326	367.72
356.709	368.85
357.091	372.46
357.473	370.88
357.855	370.65
358.238	373.14
358.62	379.92
359.002	388.28
359.384	387.38
359.766	388.73
360.148	397.09
360.53	388.96
360.912	376.76
361.294	382.86
361.676	395.74
362.057	389.41
362.439	381.95
362.821	395.06
363.203	366.36
363.584	378.79
363.966	385.79
364.348	372.46
364.729	378.79
365.111	368.85
365.493	399.13
365.874	390.54
366.256	386.02
366.637	389.41
367.019	380.6
367.4	383.31
367.781	385.79
368.163	367.72
368.544	383.08
368.925	391.22
369.306	385.34
369.688	395.74
370.069	398.68
370.45	395.96
370.831	396.87
371.212	398.45
371.593	400.94
371.974	385.57
372.355	404.78
372.736	412.46
373.117	409.98
373.498	416.53
373.879	421.73
374.26	409.98
374.641	408.62
375.021	416.08
375.402	442.06
375.783	447.94
376.163	456.98
376.544	445
376.925	439.13
377.305	455.62
377.686	448.84
378.066	433.48
378.447	442.74
378.827	435.06
379.208	464.44
379.588	472.12
379.968	462.4
380.349	468.28
380.729	480.03
381.109	482.52
381.489	490.88
381.87	488.62
382.25	503.31
382.63	513.02
383.01	496.98
383.39	491.55
383.77	504.89
384.15	545.56
384.53	523.64
384.91	531.78
385.29	518.22
385.67	530.65
386.049	525.9
386.429	553.47
386.809	557.99
387.189	578.33
387.568	571.55
387.948	548.73
388.328	572
388.707	577.43
389.087	578.33
389.466	585.11
389.846	597.09
390.225	614.72
390.605	585.34
390.984	618.78
391.363	614.49
391.743	643.64
392.122	638.22
392.501	645.22
392.881	652.68
393.26	661.49
393.639	685.45
394.018	681.83
394.397	680.7
394.776	693.81
395.155	690.87
395.534	674.83
395.913	722.28
396.292	702.17
396.671	751.66
397.05	741.72
397.429	711.66
397.808	741.27
398.186	738.33
398.565	747.37
398.944	767.71
399.323	772.45
399.701	770.87
400.08	773.81
400.458	792.79
400.837	814.94
401.215	786.01
401.594	826.91
401.972	823.98
402.351	856.74
402.729	831.88
403.107	882.96
403.486	884.54
403.864	880.02
404.242	897.65
404.62	885.44
404.999	938.77
405.377	907.14
405.755	913.46
406.133	961.37
406.511	941.26
406.889	959.11
407.267	980.13
407.645	974.25
408.023	1013.8
408.401	1004.54
408.779	1009.73
409.156	1035.27
409.534	1041.82
409.912	1066.91
410.29	1113.23
410.667	1117.98
411.045	1131.76
411.422	1124.31
411.8	1145.1
412.178	1143.29
412.555	1184.87
412.933	1211.76
413.31	1218.99
413.687	1233.46
414.065	1238.88
414.442	1253.79
414.819	1274.81
415.197	1256.05
415.574	1307.35
415.951	1344.19
416.328	1319.33
416.705	1340.57
417.082	1394.13
417.46	1379.67
417.837	1380.12
418.214	1386.9
418.591	1433.9
418.967	1408.59
419.344	1446.56
419.721	1451.53
420.098	1481.59
420.475	1516.61
420.852	1492.43
421.228	1522.49
421.605	1530.17
421.982	1555.03
422.358	1548.48
422.735	1601.36
423.111	1620.11
423.488	1632.09
423.864	1652.65
424.241	1682.48
424.617	1688.59
424.994	1687.46
425.37	1712.31
425.746	1728.13
426.123	1774.23
426.499	1748.7
426.875	1788.47
427.251	1803.38
427.627	1854
428.003	1858.52
428.379	1930.16
428.756	1901.01
429.132	1937.39
429.507	2005.64
429.883	2007.67
430.259	2049.93
430.635	2068.01
431.011	2082.93
431.387	2096.26
431.763	2188.46
432.138	2173.32
432.514	2197.95
432.89	2233.66
433.265	2282.02
433.641	2306.42
434.016	2326.08
434.392	2385.52
434.767	2402.92
435.143	2430.94
435.518	2475.68
435.894	2518.39
436.269	2513.87
436.644	2549.35
437.02	2587.54
437.395	2602.23
437.77	2631.84
438.145	2632.74
438.52	2676.13
438.895	2730.82
439.271	2726.52
439.646	2787.09
440.021	2809.23
440.395	2837.48
440.77	2817.14
441.145	2837.93
441.52	2958.83
441.895	2935.56
442.27	2943.02
442.645	2949.57
443.019	2996.35
443.394	2999.29
443.769	3005.39
444.143	3062.79
444.518	3091.26
444.892	3085.61
445.267	3133.07
445.641	3179.39
446.016	3171.26
446.39	3187.3
446.764	3223.23
447.139	3218.04
447.513	3275.66
447.887	3303.68
448.262	3305.49
448.636	3342.1
449.01	3433.85
449.384	3478.59
449.758	3474.53
450.132	3507.75
450.506	3486.28
450.88	3522.89
451.254	3561.76
451.628	3625.94
452.002	3688.31
452.376	3705.26
452.75	3760.17
453.123	3735.76
453.497	3849.21
453.871	3858.47
454.244	3952.71
454.618	3987.28
454.992	4019.37
455.365	4044.91
455.739	4162.42
456.112	4141.85
456.486	4199.48
456.859	4244.9
457.232	4301.4
457.606	4373.71
457.979	4406.71
458.352	4485.57
458.725	4559.02
459.099	4595.63
459.472	4678.56
459.845	4762.4
460.218	4748.84
460.591	4801.5
460.964	4835.62
461.337	4943.64
461.71	5042.4
462.083	5065.45
462.456	5119
462.829	5114.26
463.201	5228.38
463.574	5280.81
463.947	5361.48
464.32	5550.63
464.692	5508.6
465.065	5561.25
465.438	5643.28
465.81	5760.12
466.183	5768.93
466.555	5906.1
466.928	6027.91
467.3	5956.04
467.672	6083.05
468.045	6269.26
468.417	6263.83
468.789	6314.9
469.161	6430.16
469.534	6492.53
469.906	6583.82
470.278	6691.17
470.65	6781.33
471.022	6924.15
471.394	7107.88
471.766	7108.1
472.138	7217.03
472.51	7391.03
472.882	7429
473.253	7569.11
473.625	7739.05
473.997	7848.2
474.369	7902.43
474.74	7992.37
475.112	8166.83
475.484	8268.3
475.855	8407.28
476.227	8535.41
476.598	8762.3
476.97	8864.89
477.341	9075.96
477.713	9207.03
478.084	9278.44
478.455	9505.1
478.827	9607.93
479.198	9904.87
479.569	9865.55
479.94	10186.89
480.311	10319.77
480.682	10522.03
481.053	10683.6
481.424	10971.51
481.795	10990.49
482.166	11212.63
482.537	11359.97
482.908	11621.21
483.279	11652.62
483.65	11899.62
484.021	12157.46
484.391	12318.59
484.762	12437.68
485.133	12549.99
485.503	12752.7
485.874	13110.66
486.244	13145.01
486.615	13487.82
486.985	13589.29
487.356	13836.51
487.726	13937.53
488.097	14249.61
488.467	14424.52
488.837	14607.34
489.207	14846.21
489.578	15058.63
489.948	15121.23
490.318	15412.74
490.688	15431.73
491.058	15654.09
491.428	15908.1
491.798	16121.2
492.168	16458.14
492.538	16454.52
492.908	16730.68
493.278	16985.58
493.648	16989.2
494.017	17135.41
494.387	17397.33
494.757	17545.12
495.126	17786.24
495.496	17837.31
495.866	18034.37
496.235	18082.28
496.605	18355.72
496.974	18466.45
497.344	18628.71
497.713	18783.28
498.082	18875.93
498.452	19063.27
498.821	19186.2
499.19	19228.01
499.559	19522.24
499.928	19654.44
500.298	19782.12
500.667	20007.65
501.036	19989.8
501.405	20253.97
501.774	20314.08
502.143	20508.66
502.512	20498.94
502.88	20812.6
503.249	20792.26
503.618	20994.52
503.987	21062.31
504.356	21341.85
504.724	21424.11
505.093	21512.7
505.462	21776.19
505.83	21865.23
506.199	22006.7
506.567	22258.67
506.936	22267.25
507.304	22530.98
507.672	22650.07
508.041	22739.33
508.409	23036.27
508.777	23171.86
509.145	23321.92
509.514	23338.64
509.882	23526.2
510.25	23639.65
510.618	23889.58
510.986	23888.23
511.354	24300.19
511.722	24528.44
512.09	24580.86
512.458	24593.29
512.826	24976.33
513.193	25011.14
513.561	25150.57
513.929	25408.64
514.297	25661.29
514.664	25863.09
515.032	25984.67
515.4	26211.33
515.767	26312.12
516.135	26520.25
516.502	26434.15
516.869	26920.69
517.237	26987.36
517.604	27026.22
517.972	27253.11
518.339	27552.76
518.706	27554.57
519.073	27793.21
519.44	27994.11
519.808	28321.78
520.175	28369.24
520.542	28906.63
520.909	28955.21
521.276	28828.21
521.643	29294.64
522.009	29465.71
522.376	29659.6
522.743	29952.02
523.11	30225.91
523.477	30523.08
523.843	30786.8
524.21	31072.67
524.577	31226.79
524.943	31387.92
525.31	31638.76
525.676	31877.17
526.043	32124.62
526.409	32188.12
526.776	32656.81
527.142	32676.25
527.508	32974.32
527.874	33195.33
528.241	33340.86
528.607	33485.26
528.973	33850.23
529.339	33876.89
529.705	34244.34
530.071	34515.07
530.437	34579.25
530.803	34919.12
531.169	34999.35
531.535	35043.41
531.901	35374.48
532.267	35466.91
532.632	35754.13
532.998	35886.1
533.364	36138.53
533.73	36217.85
534.095	36410.38
534.461	36607.67
534.826	36812.63
535.192	36913.65
535.557	37257.14
535.923	37208.33
536.288	37421.21
536.653	37690.12
537.019	37491.49
537.384	37693.51
537.749	37799.5
538.114	38032.49
538.479	38197
538.845	38362.88
539.21	38295.31
539.575	38604.68
539.94	38773.03
540.305	38938.45
540.67	38902.75
541.034	39148.84
541.399	39324.66
541.764	39465.22
542.129	39476.07
542.494	39592.67
542.858	39811.42
543.223	40001.02
543.587	40114.24
543.952	40048.03
544.316	40374.12
544.681	40374.57
545.045	40562.82
545.41	40771.17
545.774	40681.46
546.138	40937.27
546.503	41076.93
546.867	41107.44
547.231	41629.46
547.595	41372.51
547.959	41596.46
548.324	41760.3
548.688	41819.73
549.052	41986.51
549.416	42050.24
549.779	42173.62
550.143	42323.45
550.507	42524.57
550.871	42862.64
551.235	42652.71
551.599	43101.28
551.962	43239.81
552.326	43146.7
552.689	43385.57
553.053	43488.62
553.417	43510.54
553.78	44040.01
554.143	43876.18
554.507	44184.87
554.87	44394.13
555.234	44777.85
555.597	44534.01
555.96	44774.01
556.323	44885.87
556.686	44983.94
557.05	45277.5
557.413	45365.86
557.776	45485.85
558.139	45742.34
558.502	45836.35
558.865	46016.23
559.228	46338.94
559.59	46366.73
559.953	46541.42
560.316	46907.28
560.679	46951.58
561.041	47160.16
561.404	47427.5
561.767	47555.85
562.129	47552.92
562.492	47944.54
562.854	47882.4
563.217	47922.85
563.579	48182.96
563.941	48414.36
564.304	48614.81
564.666	48809.38
565.028	48850.28
565.39	48947.91
565.753	49169.6
566.115	49448.91
566.477	49444.17
566.839	49486.42
567.201	49890.71
567.563	49934.32
567.925	50069.23
568.287	50128.67
568.648	50208.44
569.01	50469.22
569.372	50603.46
569.734	50708.31
570.095	50833.51
570.457	51043.67
570.819	51053.84
571.18	51115.31
571.542	51307.39
571.903	51303.55
572.265	51370.44
572.626	51529.53
572.987	51566.37
573.349	51701.73
573.71	51833.26
574.071	51799.13
574.432	52031.22
574.794	52120.71
575.155	52168.39
575.516	52140.37
575.877	52282.28
576.238	52303.53
576.599	52398.44
576.96	52463.3
577.32	52550.75
577.681	52626.91
578.042	52734.02
578.403	52778.77
578.763	52822.38
579.124	52770.86
579.485	52871.65
579.845	53065.09
580.206	52967.92
580.566	53008.59
580.927	52998.65
581.287	53162.03
581.648	53122.26
582.008	53263.73
582.368	53191.86
582.728	53195.03
583.089	53179.21
583.449	53094.92
583.809	53213.78
584.169	53341.92
584.529	53089.72
584.889	53404.97
585.249	53251.52
585.609	53142.83
585.969	53328.36
586.329	53270.28
586.688	53291.97
587.048	53400.45
587.408	53306.89
587.768	53313.89
588.127	53288.13
588.487	53316.15
588.846	53521.8
589.206	53357.06
589.565	53440.67
589.925	53473.66
590.284	53416.94
590.643	53490.61
591.003	53467.11
591.362	53558.18
591.721	53484.06
592.08	53504.17
592.44	53572.65
592.799	53613.1
593.158	53574.68
593.517	53589.37
593.876	53587.11
594.235	53549.14
594.593	53623.94
594.952	53668.91
595.311	53600.44
595.67	53625.98
596.029	53754.34
596.387	53760.21
596.746	53855.35
597.104	53731.74
597.463	53684.28
597.822	53822.58
598.18	53700.1
598.538	53696.94
598.897	54006.53
599.255	53667.11
599.613	54128.56
599.972	53873.88
600.33	54004.05
600.688	53859.64
601.046	54061.9
601.404	54178.96
601.762	54068.45
602.12	54220.76
602.478	54231.16
602.836	54214.66
603.194	54067.1
603.552	54113.65
603.91	54067.32
604.268	54245.62
604.625	54203.59
604.983	54360.65
605.341	54211.95
605.698	54437.71
606.056	54462.79
606.413	54406.75
606.771	54548.21
607.128	54525.61
607.485	54362.91
607.843	54378.5
608.2	54531.72
608.557	54650.36
608.914	54459.18
609.272	54711.82
609.629	54664.37
609.986	54656.01
610.343	54685.84
610.7	54890.12
611.057	54851.93
611.414	54856.45
611.771	54858.26
612.127	54985.26
612.484	54972.61
612.841	55060.29
613.198	54996.79
613.554	54944.13
613.911	55163.79
614.267	55051.7
614.624	55104.81
614.98	55185.94
615.337	55233.39
615.693	55253.05
616.05	55225.03
616.406	55365.82
616.762	55197.91
617.118	55275.65
617.475	55299.83
617.831	55361.52
618.187	55368.76
618.543	55438.36
618.899	55593.38
619.255	55448.3
619.611	55489.43
619.967	55528.07
620.323	55527.62
620.678	55394.74
621.034	55419.83
621.39	55555.19
621.746	55452.14
622.101	55755.19
622.457	55482.65
622.812	55576.89
623.168	55563.78
623.523	55594.51
623.879	55643.1
624.234	55533.5
624.589	55632.48
624.945	55570.11
625.3	55552.93
625.655	55646.49
626.01	55645.13
626.365	55663.44
626.72	55622.08
627.075	55659.14
627.43	55575.08
627.785	55474.97
628.14	55511.58
628.495	55513.84
628.85	55514.74
629.205	55418.7
629.559	55604.91
629.914	55424.12
630.269	55506.15
630.623	55395.65
630.978	55255.76
631.332	55418.02
631.687	55459.15
632.041	55382.54
632.396	55424.57
632.75	55237.69
633.104	55299.38
633.459	55183.68
633.813	55186.39
634.167	55164.92
634.521	55116.33
634.875	55147.97
635.229	55133.28
635.583	54980.97
635.937	55027.97
636.291	54944.81
636.645	55016
636.999	54877.02
637.352	54990.46
637.706	54780.75
638.06	54930.8
638.413	54848.32
638.767	54792.05
639.121	54885.83
639.474	54619.4
639.828	54610.36
640.181	54646.97
640.534	54623.69
640.888	54494.43
641.241	54440.64
641.594	54503.69
641.947	54499.17
642.301	54401.32
642.654	54461.44
643.007	54470.02
643.36	54393.87
643.713	54320.65
644.066	54442.45
644.419	54168.79
644.771	53990.94
645.124	53697.16
645.477	53681.12
645.83	53480.67
646.182	53322.26
646.535	53263.27
646.888	53245.42
647.24	53204.29
647.593	53373.55
647.945	53229.6
648.298	53084.07
648.65	52966.11
649.002	52924.98
649.355	53060.57
649.707	52987.35
650.059	53148.48
650.411	53466.43
650.763	53472.76
651.115	53799.98
651.467	53719.99
651.819	53600.44
652.171	53518.64
652.523	53418.52
652.875	53539.88
653.227	53287.68
653.578	53516.83
653.93	53369.71
654.282	53244.07
654.633	53164.52
654.985	53235.7
655.337	53202.71
655.688	53224.86
656.039	53326.55
656.391	53098.99
656.742	53126.33
657.094	53187.8
657.445	53294.01
657.796	53187.57
658.147	53083.84
658.498	53083.39
658.849	53085.43
659.2	52987.58
659.551	52999.1
659.902	53168.14
660.253	53047.24
660.604	53036.39
660.955	52927.92
661.306	53007.69
661.656	52919.55
662.007	52880.23
662.358	52914.13
662.708	52882.04
663.059	52854.47
663.409	52665.1
663.76	52908.48
664.11	52841.82
664.461	52888.14
664.811	52832.1
665.161	52907.8
665.511	52739.67
665.862	52824.42
666.212	52836.17
666.562	52851.08
666.912	52755.72
667.262	52743.74
667.612	52720.92
667.962	52774.7
668.312	52706.68
668.662	52845.43
669.011	52691.31
669.361	52649.28
669.711	52600.92
670.06	52694.7
670.41	52469.62
670.76	52534.25
671.109	52681.14
671.459	52525.89
671.808	52478.66
672.157	52586.91
672.507	52333.13
672.856	52432.56
673.205	52457.65
673.554	52462.39
673.904	52330.64
674.253	52479.79
674.602	52359.34
674.951	51941.95
675.3	51778.57
675.649	52270.76
675.998	52240.93
676.346	52172.91
676.695	52327.48
677.044	52068.28
677.393	52220.14
677.741	52181.5
678.09	52176.07
678.438	52046.81
678.787	52118.9
679.135	52081.16
679.484	51856.76
679.832	52080.25
680.181	51871.45
680.529	51843.65
680.877	51707.16
681.225	51730.66
681.573	51912.58
681.922	51704.45
682.27	51666.03
682.618	51624.45
682.966	51482.76
683.314	51602.3
683.661	51408.18
684.009	51244.57
684.357	51267.62
684.705	51219.94
685.053	51195.31
685.4	51220.84
685.748	50933.17
686.095	51014.52
686.443	50766.84
686.79	50766.62
687.138	50854.52
687.485	50807.07
687.832	50651.37
688.18	50650.46
688.527	50503.35
688.874	50376.8
689.221	50328.89
689.568	50257.25
689.915	50178.61
690.262	50286.86
690.609	50106.97
690.956	49946.3
691.303	49890.48
691.65	49756.47
691.997	49750.82
692.344	49478.74
692.69	49508.8
693.037	49639.19
693.383	49194
693.73	49414.79
694.077	49218.86
694.423	49234.23
694.769	48948.36
695.116	48907.68
695.462	48953.33
695.808	48733.9
696.155	48803.28
696.501	48520.12
696.847	48540.91
697.193	48266.12
697.539	48490.29
697.885	48072.45
698.231	48003.07
698.577	48029.06
698.923	47926.47
699.269	47815.51
699.614	47633.37
699.96	47453.26
700.306	47565.35
700.651	47324.45
700.997	47253.94
701.342	47207.39
701.688	47061.86
702.033	46891.92
702.379	46910.9
702.724	46738.47
703.069	46828.87
703.415	46352.04
703.76	46481.53
704.105	46437.01
704.45	46299.84
704.795	45888.33
705.14	45919.74
705.485	46017.59
705.83	45729.46
706.175	45817.37
706.52	45644.49
706.865	45521.11
707.209	45535.34
707.554	45398.17
707.899	45524.5
708.243	45214.45
708.588	45155.47
708.932	44949.37
709.277	44906.88
709.621	44881.57
709.966	44751.86
710.31	44687
710.654	44353.45
710.998	44583.5
711.342	44496.27
711.687	44196.39
712.031	44115.27
712.375	44060.13
712.719	44041.14
713.063	43964.31
713.407	43979.68
713.75	43759.57
714.094	43697.65
714.438	43642.74
714.782	43722.73
715.125	43402.29
715.469	43554.83
715.812	43296.53
716.156	43018.12
716.499	43038.23
716.843	43028.74
717.186	42743.78
717.53	43059.25
717.873	42931.57
718.216	42856.54
718.559	42881.85
718.902	42352.83
719.246	42672.14
719.589	42471.69
719.932	42246.16
720.275	42273.51
720.617	42152.15
720.96	42187.86
721.303	42177.92
721.646	42154.41
721.989	41889.34
722.331	41996.9
722.674	41751.94
723.016	41886.62
723.359	41835.78
723.701	41834.42
724.044	41528.44
724.386	41245.74
724.729	41443.02
725.071	41348.33
725.413	41294.32
725.755	41203.7
726.097	41115.12
726.439	40871.51
726.782	40928.68
727.124	41073.99
727.465	40822.02
727.807	40875.8
728.149	40713.55
728.491	40633.1
728.833	40666.77
729.175	40496.15
729.516	40435.82
729.858	40493.67
730.199	40486.89
730.541	40302.26
730.882	40189.95
731.224	40343.61
731.565	40018.65
731.906	40006.9
732.248	40186.56
732.589	39887.13
732.93	39816.62
733.271	39789.96
733.612	39787.92
733.953	39829.28
734.294	39580.24
734.635	39580.92
734.976	39547.7
735.317	39454.82
735.658	39498.89
735.999	39244.21
736.339	39225.45
736.68	39335.05
737.021	39146.36
737.361	38908.4
737.702	39161.27
738.042	39022.97
738.383	38949.98
738.723	39078.34
739.063	38791.56
739.404	38849.64
739.744	38630.21
740.084	38561.74
740.424	38629.08
740.764	38556.09
741.104	38619.82
741.444	38243.56
741.784	38173.05
742.124	38253.5
742.464	38275.19
742.804	38129.44
743.143	38077.46
743.483	38184.12
743.823	37980.29
744.162	38006.95
744.502	37945.49
744.841	37729.9
745.181	37917.01
745.52	37702.55
745.86	37748.2
746.199	37659.39
746.538	37620.3
746.877	37557.02
747.216	37458.27
747.556	37384.6
747.895	37304.82
748.234	37289.91
748.573	37022.57
748.911	36974.44
749.25	37060.54
749.589	36792.07
749.928	36924.72
750.267	36869.81
750.605	36858.96
750.944	36772.63
751.283	36628.23
751.621	36689.7
751.96	36418.52
752.298	36411.29
752.636	36513.88
752.975	36175.59
753.313	36062.15
753.651	36114.8
753.989	35972.43
754.327	36000.9
754.666	35764.07
755.004	35974.92
755.342	35809.72
755.679	35780.12
756.017	35522.72
756.355	35570.63
756.693	35386
757.031	35477.08
757.368	35184.65
757.706	35178.78
758.044	35034.6
758.381	35108.95
758.719	34916.86
759.056	34924.1
759.394	34684.55
759.731	34525.69
760.068	34624.22
760.405	34277.79
760.743	34318.46
761.08	34300.16
761.417	34086.6
761.754	34059.49
762.091	33979.71
762.428	33785.59
762.765	33619.5
763.102	33804.58
763.438	33526.62
763.775	33407.53
764.112	33305.38
764.449	33436.45
764.785	33134.99
765.122	32889.35
765.458	32811.38
765.795	32798.5
766.131	32872.17
766.467	32647.09
766.804	32450.71
767.14	32349.25
767.476	32266.09
767.812	32132.53
768.148	32020.67
768.485	31939.09
768.821	31756.5
769.157	31874.91
769.492	31756.95
769.828	31709.94
770.164	31378.43
770.5	31389.27
770.836	31240.35
771.171	31096.63
771.507	31036.74
771.842	30864.54
772.178	30836.75
772.513	30855.95
772.849	30796.07
773.184	30618.67
773.519	30547.94
773.855	30341.62
774.19	30080.83
774.525	30091.91
774.86	30028.63
775.195	29994.28
775.53	29642.65
775.865	29605.37
776.2	29433.39
776.535	29225.71
776.87	29356.56
777.205	29258.93
777.539	29099.16
777.874	29157.92
778.209	28871.6
778.543	28703.24
778.878	28703.47
779.212	28623.24
779.547	28521.78
779.881	28594.54
780.215	28222.8
780.55	28305.06
780.884	28209.24
781.218	28017.61
781.552	27947.78
781.886	27781.01
782.22	27713.44
782.554	27689.48
782.888	27406.78
783.222	27456.27
783.556	27277.52
783.889	27158.88
784.223	27018.77
784.557	27021.25
784.89	26984.64
785.224	26829.85
785.557	26680.92
785.891	26576.52
786.224	26525.67
786.558	26376.07
786.891	26119.36
787.224	26124.55
787.557	26033.71
787.891	26132.46
788.224	25996.42
788.557	26027.83
788.89	25949.42
789.223	25773.15
789.556	25522.99
789.888	25528.18
790.221	25440.73
790.554	25151.47
790.887	25221.75
791.219	25116.44
791.552	25137.01
791.884	24952.15
792.217	24897.69
792.549	24837.36
792.882	24732.5
793.214	24482.56
793.546	24709.9
793.879	24372.51
794.211	24334.54
794.543	24335.9
794.875	24134.32
795.207	24171.61
795.539	24039.41
795.871	24139.07
796.203	23913.09
796.535	23761.23
796.867	23707.89
797.198	23738.18
797.53	23714.45
797.862	23391.97
798.193	23521.68
798.525	23375.47
798.856	23326.89
799.188	23047.35
799.519	23000.57
799.85	22949.95
800.182	22968.48
800.513	23045.54
800.844	22765.55
801.175	22900.91
801.506	22790.18
801.837	22669.95
802.168	22504.31
802.499	22550.64
802.83	22427.93
803.161	22344.09
803.491	22317.65
803.822	22321.49
804.153	22126.01
804.483	21966.92
804.814	21978.45
805.145	21890.09
805.475	21911.78
805.805	21784.33
806.136	21733.26
806.466	21767.38
806.796	21652.58
807.126	21477.44
807.457	21632.69
807.787	21414.39
808.117	21397.45
808.447	21220.05
808.777	21387.05
809.107	21171.24
809.436	21183.89
809.766	21200.39
810.096	20960.17
810.426	20983.67
810.755	21035.2
811.085	20852.6
811.414	20829.55
811.744	20698.26
812.073	20716.79
812.403	20677.01
812.732	20517.47
813.061	20416.91
813.39	20250.36
813.719	20409.68
814.049	20420.97
814.378	20245.39
814.707	20097.59
815.036	20155.44
815.365	20059.18
815.693	19964.26
816.022	19931.95
816.351	19896.69
816.68	19794.32
817.008	19918.16
817.337	19738.28
817.665	19708.9
817.994	19701.9
818.322	19618.96
818.651	19569.7
818.979	19558.17
819.307	19613.31
819.636	19423.03
819.964	19337.84
820.292	19334.9
820.62	19365.41
820.948	19344.84
821.276	19356.37
821.604	19282.7
821.932	19270.27
822.259	19339.87
822.587	19318.86
822.915	19290.83
823.243	19317.73
823.57	19172.65
823.898	19301.68
824.225	19089.94
824.553	19191.63
824.88	19226.66
825.207	19245.41
825.535	19246.54
825.862	19263.72
826.189	19203.15
826.516	19240.89
826.843	19361.57
827.17	19188.01
827.497	19288.12
827.824	19058.75
828.151	19204.28
828.478	19190.72
828.805	19298.07
829.131	19188.69
829.458	19129.26
829.785	18983.5
830.111	18996.38
830.438	19151.63
830.764	19116.15
831.09	19101.91
831.417	18997.51
831.743	19166.54
832.069	19176.94
832.395	19037.28
832.722	19065.08
833.048	19007.9
833.374	18967.45
833.7	18764.52
834.026	18911.86
834.351	18886.55
834.677	18883.39
835.003	18910.73
835.329	18975.81
835.654	18854.01
835.98	18755.48
836.306	18797.51
836.631	18779.21
836.956	18856.95
837.282	18797.06
837.607	18835.03
837.932	18626.22
838.258	18667.35
838.583	18629.61
838.908	18485.66
839.233	18546
839.558	18565.88
839.883	18452.21
840.208	18392.78
840.533	18382.16
840.858	18477.75
841.182	18397.52
841.507	18364.31
841.832	18237.3
842.156	18235.27
842.481	18190.07
842.805	18231.88
843.13	18123.18
843.454	18042.28
843.778	17935.62
844.103	17952.79
844.427	17929.06
844.751	17877.76
845.075	17796.86
845.399	17804.32
845.723	17691.55
846.047	17779.01
846.371	17588.05
846.695	17581.5
847.019	17413.82
847.343	17365.46
847.666	17288.4
847.99	17087.73
848.313	17140.16
848.637	17033.94
848.96	16971.8
849.284	16949.65
849.607	16750.11
849.931	16831.24
850.254	16566.39
850.577	16521.64
850.9	16484.35
851.223	16442.55
851.546	16427.86
851.869	16285.72
852.192	16250.46
852.515	16165.49
852.838	16088.21
853.161	16192.38
853.483	16063.12
853.806	16020.19
854.129	16016.34
854.451	15904.03
854.774	15821.77
855.096	15812.73
855.419	15786.07
855.741	15668.33
856.063	15669.46
856.385	15585.85
856.708	15510.14
857.03	15552.18
857.352	15471.73
857.674	15439.86
857.996	15330.49
858.318	15252.97
858.64	15202.58
858.961	15170.49
859.283	15105.18
859.605	15082.36
859.926	15179.76
860.248	15000.1
860.57	14910.16
860.891	15015.01
861.212	14913.77
861.534	14804.17
861.855	14820.44
862.176	14915.13
862.498	14843.95
862.819	14884.4
863.14	14741.8
863.461	14695.7
863.782	14709.26
864.103	14670.62
864.424	14576.61
864.745	14733.44
865.065	14500.23
865.386	14456.16
865.707	14485.99
866.027	14567.79
866.348	14511.3
866.668	14525.76
866.989	14443.73
867.309	14238.09
867.63	14343.62
867.95	14330.74
868.27	14172.78
868.59	14253.9
868.91	14213.23
869.23	14186.79
869.55	14162.38
869.87	14224.53
870.19	14187.47
870.51	14125.32
870.83	14208.71
871.15	13982.27
871.469	14086.23
871.789	14082.16
872.109	14052.55
872.428	13945.66
872.748	13991.31
873.067	13982.73
873.386	13944.99
873.706	13895.72
874.025	13859.79
874.344	13806.01
874.663	13810.75
874.982	13807.59
875.301	13792.45
875.62	13731.43
875.939	13681.49
876.258	13643.98
876.577	13595.39
876.896	13611.89
877.214	13596.3
877.533	13644.43
877.852	13653.92
878.17	13596.97
878.489	13576.86
878.807	13527.82
879.125	13540.7
879.444	13470.87
879.762	13448.73
880.08	13539.35
880.398	13454.38
880.716	13472
881.034	13316.3
881.352	13363.98
881.67	13281.05
881.988	13317.88
882.306	13247.6
882.624	13194.5
882.941	13218.23
883.259	13100.94
883.577	13144.1
883.894	13041.06
884.212	12980.27
884.529	13000.6
884.846	12973.71
885.164	12905.69
885.481	12870.89
885.798	12863.43
886.115	12840.16
886.432	12774.62
886.75	12714.28
887.067	12756.32
887.383	12680.16
887.7	12691.46
888.017	12711.8
888.334	12685.36
888.651	12592.03
888.967	12615.98
889.284	12480.39
889.6	12531.46
889.917	12452.37
890.233	12478.58
890.55	12484.91
890.866	12385.71
891.182	12189.1
891.498	12286.95
891.815	12177.8
892.131	12099.61
892.447	12103.68
892.763	12134.86
893.079	12082.44
893.395	12022.33
893.71	11985.72
894.026	11951.59
894.342	11930.12
894.657	11820.52
894.973	11924.93
895.289	11836.34
895.604	11736.23
895.92	11610.58
896.235	11647.42
896.55	11703.24
896.865	11676.12
897.181	11609.68
897.496	11656.69
897.811	11536.24
898.126	11452.62
898.441	11430.7
898.756	11485.39
899.071	11321.78
899.386	11345.96
899.7	11279.29
900.015	11283.81
900.33	11080.88
900.644	11175.34
900.959	11112.74
901.273	11130.15
901.588	11040.88
901.902	11012.63
902.216	10922.02
902.531	10893.99
902.845	10864.62
903.159	10798.85
903.473	10783.49
903.787	10694
904.101	10664.85
904.415	10627.56
904.729	10546.88
905.042	10516.6
905.356	10538.52
905.67	10517.96
905.984	10473.67
906.297	10493.55
906.611	10420.11
906.924	10402.48
907.237	10277.96
907.551	10301.69
907.864	10203.84
908.177	10200
908.491	10110.29
908.804	10104.41
909.117	10052.89
909.43	9995.26
909.743	9980.57
910.056	9960.68
910.368	9912.32
910.681	9812.89
910.994	9808.82
911.307	9853.79
911.619	9700.35
911.932	9817.19
912.244	9637.76
912.557	9669.84
912.869	9595.72
913.181	9557.08
913.494	9555.27
913.806	9534.93
914.118	9471.88
914.43	9404.54
914.742	9371.32
915.054	9332.9
915.366	9353.69
915.678	9278.44
915.99	9175.62
916.302	9219.46
916.613	9132.91
916.925	9033.93
917.236	9043.19
917.548	8993.25
917.859	9009.97
918.171	8917.55
918.482	8865.8
918.794	8796.42
919.105	8804.78
919.416	8787.83
919.727	8744.22
920.038	8699.7
920.349	8635.97
920.66	8608.86
920.971	8609.31
921.282	8590.78
921.593	8527.28
921.903	8457.45
922.214	8459.25
922.525	8382.42
922.835	8393.04
923.146	8357.34
923.456	8310.33
923.767	8238.24
924.077	8288.19
924.387	8202.31
924.697	8167.51
925.008	8110.56
925.318	8093.39
925.628	8060.62
925.938	8046.16
926.248	7971.13
926.558	7926.39
926.867	7959.83
927.177	7925.71
927.487	7903.79
927.796	7774.3
928.106	7741.31
928.416	7771.82
928.725	7691.59
929.034	7701.99
929.344	7666.06
929.653	7605.04
929.962	7539.05
930.271	7549
930.581	7513.29
930.89	7516.23
931.199	7488.66
931.508	7406.63
931.817	7386.97
932.125	7349.91
932.434	7318.95
932.743	7299.96
933.051	7234.43
933.36	7249.57
933.669	7150.14
933.977	7154.88
934.286	7125.73
934.594	7074.88
934.902	7011.38
935.21	6969.35
935.519	7027.2
935.827	6905.17
936.135	6949.92
936.443	6813.2
936.751	6809.58
937.059	6845.51
937.367	6755.12
937.674	6794.21
937.982	6755.8
938.29	6681.9
938.597	6690.94
938.905	6638.51
939.213	6605.52
939.52	6605.29
939.827	6608
940.135	6571.4
940.442	6519.42
940.749	6507.44
941.056	6505.63
941.363	6392.42
941.67	6406.43
941.977	6351.51
942.284	6341.34
942.591	6285.07
942.898	6315.36
943.205	6272.19
943.511	6238.3
943.818	6193.33
944.125	6168.69
944.431	6100.22
944.738	6151.07
945.044	6074.01
945.35	6052.09
945.657	6006.44
945.963	5993.11
946.269	5956.72
946.575	5949.49
946.881	5908.81
947.187	5930.28
947.493	5882.6
947.799	5858.65
948.105	5824.97
948.41	5756.05
948.716	5797.4
949.022	5767.57
949.327	5734.35
949.633	5729.16
949.938	5701.14
950.244	5676.5
950.549	5631.53
950.854	5601.7
951.16	5538.65
951.465	5517.41
951.77	5575.26
952.075	5533.23
952.38	5471.08
952.685	5494.14
952.99	5408.71
953.294	5359.9
953.599	5412.1
953.904	5339.79
954.209	5275.84
954.513	5309.73
954.818	5261.37
955.122	5200.36
955.426	5223.18
955.731	5196.74
956.035	5187.25
956.339	5136.18
956.643	5119.46
956.948	5120.36
957.252	5071.1
957.556	5087.82
957.86	5043.98
958.163	5012.11
958.467	4989.06
958.771	5010.08
959.075	4943.42
959.378	4952.45
959.682	4909.52
959.985	4897.09
960.289	4838.56
960.592	4823.19
960.896	4846.47
961.199	4819.58
961.502	4786.58
961.805	4765.11
962.108	4715.17
962.411	4718.11
962.714	4688.73
963.017	4666.81
963.32	4714.95
963.623	4659.35
963.926	4654.84
964.228	4643.54
964.531	4600.15
964.833	4603.09
965.136	4557.89
965.438	4528.74
965.741	4480.83
966.043	4491.68
966.345	4476.53
966.648	4430.89
966.95	4428.4
967.252	4403.54
967.554	4418.46
967.856	4440.6
968.158	4348.85
968.46	4349.76
968.761	4338.01
969.063	4274.05
969.365	4267.95
969.666	4282.42
969.968	4222.3
970.269	4263.89
970.571	4183.21
970.872	4155.41
971.174	4139.59
971.475	4158.35
971.776	4130.33
972.077	4101.18
972.378	4081.97
972.679	4049.43
972.98	4042.65
973.281	4003.78
973.582	4006.72
973.883	4007.85
974.183	3962.65
974.484	3945.25
974.785	3956.55
975.085	3948.41
975.386	3966.04
975.686	3890.79
975.986	3866.16
976.287	3856.66
976.587	3849.21
976.887	3793.84
977.187	3798.13
977.487	3785.25
977.787	3722.43
978.087	3777.12
978.387	3747.51
978.687	3734.63
978.987	3698.48
979.286	3656.9
979.586	3665.26
979.885	3610.34
980.185	3663.45
980.484	3625.71
980.784	3610.79
981.083	3554.3
981.382	3569.44
981.682	3532.83
981.981	3561.53
982.28	3552.72
982.579	3478.37
982.878	3518.14
983.177	3496.9
983.475	3457.13
983.774	3475.43
984.073	3401.31
984.372	3416
984.67	3395.43
984.969	3367.86
985.267	3350.91
985.566	3332.84
985.864	3364.25
986.162	3346.62
986.461	3313.85
986.759	3281.09
987.057	3262.1
987.355	3257.81
987.653	3230.01
987.951	3239.96
988.249	3214.65
988.547	3206.29
988.844	3190.47
989.142	3185.27
989.44	3131.26
989.737	3135.1
990.035	3109.11
990.332	3120.64
990.63	3086.29
990.927	3074.31
991.224	3078.38
991.521	3018.72
991.819	3047.65
992.116	2999.06
992.413	2973.98
992.71	3004.94
993.006	2921.1
993.303	2925.62
993.6	2942.34
993.897	2939.63
994.193	2929.23
994.49	2893.07
994.787	2886.52
995.083	2858.05
995.379	2844.04
995.676	2780.08
995.972	2784.6
996.268	2835
996.565	2760.87
996.861	2781.21
997.157	2747.99
997.453	2720.42
997.749	2727.43
998.044	2719.74
998.34	2709.12
998.636	2732.85
998.932	2675.68
999.227	2631.16
999.523	2650.14
999.818	2617.83
1000.114	2617.6
1000.409	2623.7
1000.704	2591.61
1001	2602.91
1001.295	2540.77
1001.59	2562.91
1001.885	2522.24
1002.18	2497.38
1002.475	2526.76
1002.77	2508.9
1003.065	2477.04
1003.359	2469.36
1003.654	2460.32
1003.949	2462.12
1004.243	2419.87
1004.538	2418.28
1004.832	2434.78
1005.127	2362.47
1005.421	2362.24
1005.715	2345.07
1006.009	2359.75
1006.304	2341.68
1006.598	2284.28
1006.892	2314.33
1007.186	2335.35
1007.48	2263.26
1007.773	2234.79
1008.067	2265.52
1008.361	2217.16
1008.655	2225.97
1008.948	2218.74
1009.242	2199.53
1009.535	2171.74
1009.829	2162.7
1010.122	2174.22
1010.415	2133.32
1010.708	2124.51
1011.001	2130.16
1011.295	2107.78
1011.588	2089.03
1011.881	2086.77
1012.173	2097.39
1012.466	2051.97
1012.759	2038.63
1013.052	2035.92
1013.344	2006.54
1013.637	1999.99
1013.93	2014.68
1014.222	1987.33
1014.514	1992.53
1014.807	1959.31
1015.099	1984.85
1015.391	1942.36
1015.683	1965.19
1015.976	1960.22
1016.268	1902.37
1016.56	1876.6
1016.851	1866.21
1017.143	1867.34
1017.435	1844.74
1017.727	1847.9
1018.018	1836.15
1018.31	1842.71
1018.602	1823.72
1018.893	1790.28
1019.185	1779.66
1019.476	1785.31
1019.767	1766.1
1020.058	1753.89
1020.35	1724.29
1020.641	1726.78
1020.932	1695.59
1021.223	1722.26
1021.514	1686.1
1021.804	1682.26
1022.095	1669.6
1022.386	1634.58
1022.677	1644.97
1022.967	1631.19
1023.258	1598.64
1023.548	1588.93
1023.839	1602.03
1024.129	1582.15
1024.419	1583.73
1024.709	1587.57
1025	1561.36
1025.29	1547.35
1025.58	1534.24
1025.87	1520.45
1026.16	1499.44
1026.449	1535.82
1026.739	1501.92
1027.029	1478.42
1027.319	1463.51
1027.608	1467.8
1027.898	1444.98
1028.187	1426.67
1028.477	1434.81
1028.766	1421.93
1029.055	1414.47
1029.344	1398.88
1029.634	1385.99
1029.923	1369.95
1030.212	1371.98
1030.501	1359.78
1030.79	1357.52
1031.078	1349.16
1031.367	1316.17
1031.656	1319.1
1031.945	1308.48
1032.233	1314.13
1032.522	1270.97
1032.81	1305.09
1033.099	1295.38
1033.387	1309.16
1033.675	1285.43
1033.963	1273.46
1034.251	1266.9
1034.54	1225.09
1034.828	1213.57
1035.116	1204.08
1035.403	1195.49
1035.691	1196.17
1035.979	1205.66
1036.267	1188.94
1036.554	1175.83
1036.842	1168.83
1037.129	1182.61
1037.417	1163.63
1037.704	1152.33
1037.992	1128.15
1038.279	1140.35
1038.566	1107.58
1038.853	1107.58
1039.14	1107.58
