Data from plate_ceramic_FLMS001491_072.txt Node
Date: Tue Feb 07 11:17:15 GMT 2017
User: dcchb
Spectrometer: FLMS00149
Trigger mode: 0
Integration Time (sec): 2.000000E-2
Scans to average: 10
Electric dark correction enabled: true
Nonlinearity correction enabled: false
Boxcar width: 0
XAxis mode: Wavelengths
Number of Pixels in Spectrum: 2048
>>>>>Begin Spectral Data<<<<<
341.393	1.55
341.776	1.55
342.16	1.55
342.543	-70.31
342.927	-44.09
343.31	-72.79
343.693	-89.07
344.077	-69.63
344.46	-47.03
344.843	-49.97
345.226	-49.52
345.61	-28.28
345.993	-23.76
346.376	9.24
346.759	11.95
347.142	28.9
347.525	30.93
347.908	73.64
348.291	60.54
348.674	101.21
349.057	113.64
349.44	124.71
349.823	162.45
350.206	164.94
350.588	223.69
350.971	230.7
351.354	224.82
351.737	264.15
352.119	251.26
352.502	284.26
352.884	305.73
353.267	294.65
353.65	307.76
354.032	305.5
354.414	334.2
354.797	331.94
355.179	340.53
355.562	343.01
355.944	375.78
356.326	352.05
356.709	363.58
357.091	348.89
357.473	345.27
357.855	378.04
358.238	371.94
358.62	359.28
359.002	362.22
359.384	370.81
359.766	373.75
360.148	372.84
360.53	356.12
360.912	386.4
361.294	372.62
361.676	361.77
362.057	349.12
362.439	366.06
362.821	354.76
363.203	345.73
363.584	373.75
363.966	347.99
364.348	359.06
364.729	347.99
365.111	346.18
365.493	347.99
365.874	358.15
366.256	340.53
366.637	342.79
367.019	358.15
367.4	350.92
367.781	346.18
368.163	356.8
368.544	357.93
368.925	341.66
369.306	338.27
369.688	356.57
370.069	358.38
370.45	352.96
370.831	359.74
371.212	385.5
371.593	369.23
371.974	348.21
372.355	372.17
372.736	366.06
373.117	378.94
373.498	376.23
373.879	358.38
374.26	356.57
374.641	382.79
375.021	399.51
375.402	370.81
375.783	400.19
376.163	385.05
376.544	395.67
376.925	381.88
377.305	405.16
377.686	392.5
378.066	397.48
378.447	394.31
378.827	395.89
379.208	409.23
379.588	405.61
379.968	399.28
380.349	399.51
380.729	413.07
381.109	411.49
381.489	418.72
381.87	402
382.25	442.67
382.63	415.33
383.01	434.31
383.39	445.38
383.77	419.4
384.15	454.65
384.53	444.48
384.91	446.74
385.29	444.71
385.67	460.98
386.049	462.56
386.429	472.28
386.809	445.84
387.189	458.26
387.568	463.01
387.948	468.43
388.328	474.08
388.707	466.85
389.087	492.61
389.466	503.69
389.846	506.63
390.225	507.53
390.605	515.89
390.984	515.21
391.363	528.77
391.743	539.84
392.122	542.56
392.501	550.24
392.881	550.24
393.26	564.02
393.639	568.32
394.018	561.76
394.397	550.69
394.776	574.65
395.155	549.56
395.534	589.33
395.913	598.83
396.292	576.45
396.671	599.96
397.05	589.33
397.429	606.96
397.808	589.79
398.186	627.07
398.565	617.58
398.944	604.93
399.323	629.79
399.701	631.14
400.08	628.43
400.458	647.64
400.837	652.61
401.215	656.45
401.594	670.24
401.972	665.49
402.351	678.37
402.729	667.07
403.107	687.19
403.486	685.38
403.864	690.12
404.242	734.42
404.62	718.6
404.999	713.17
405.377	723.34
405.755	751.14
406.133	740.29
406.511	756.11
406.889	774.19
407.267	805.37
407.645	786.62
408.023	778.93
408.401	790.23
408.779	815.32
409.156	841.53
409.534	847.63
409.912	872.94
410.29	861.87
410.667	866.84
411.045	871.14
411.422	905.03
411.8	883.56
412.178	939.83
412.555	917.91
412.933	916.56
413.31	960.62
413.687	950
414.065	949.78
414.442	992.71
414.819	999.27
415.197	1008.53
415.574	1026.16
415.951	1041.75
416.328	1072.94
416.705	1048.08
417.082	1045.37
417.46	1077.01
417.837	1106.16
418.214	1119.49
418.591	1085.82
418.967	1083.79
419.344	1091.69
419.721	1127.63
420.098	1137.79
420.475	1166.27
420.852	1171.01
421.228	1162.65
421.605	1191.13
421.982	1207.85
422.358	1190
422.735	1239.94
423.111	1218.24
423.488	1254.4
423.864	1280.16
424.241	1279.26
424.617	1289.88
424.994	1279.03
425.37	1316.77
425.746	1330.78
426.123	1348.18
426.499	1323.1
426.875	1392.93
427.251	1400.16
427.627	1397.9
428.003	1443.55
428.379	1446.26
428.756	1476.32
429.132	1476.77
429.507	1535.98
429.883	1534.17
430.259	1556.09
430.635	1525.81
431.011	1555.41
431.387	1615.52
431.763	1605.35
432.138	1647.61
432.514	1663.88
432.89	1683.09
433.265	1730.1
433.641	1735.29
434.016	1750.43
434.392	1757.44
434.767	1821.17
435.143	1817.78
435.518	1856.87
435.894	1858
436.269	1836.08
436.644	1923.76
437.02	1931.22
437.395	1924.89
437.77	1950.65
438.145	1991.56
438.52	1994.95
438.895	2031.1
439.271	2014.16
439.646	2123.31
440.021	2077.88
440.395	2085.11
440.77	2088.28
441.145	2102.29
441.52	2172.57
441.895	2139.8
442.27	2179.58
442.645	2168.05
443.019	2260.03
443.394	2174.6
443.769	2265
444.143	2239.46
444.518	2287.82
444.892	2238.78
445.267	2269.52
445.641	2342.96
446.016	2288.73
446.39	2356.07
446.764	2377.99
447.139	2357.65
447.513	2385.22
447.887	2404.2
448.262	2435.16
448.636	2396.97
449.01	2465.44
449.384	2473.81
449.758	2535.5
450.132	2561.94
450.506	2549.74
450.88	2560.58
451.254	2575.5
451.628	2580.47
452.002	2607.36
452.376	2714.93
452.75	2704.08
453.123	2744.98
453.497	2769.62
453.871	2754.48
454.244	2821.59
454.618	2848.71
454.992	2917.41
455.365	2914.7
455.739	2966.22
456.112	2971.42
456.486	3060.23
456.859	3042.83
457.232	3103.17
457.606	3115.82
457.979	3120.79
458.352	3239.21
458.725	3266.1
459.099	3289.38
459.472	3365.53
459.845	3386.32
460.218	3405.53
460.591	3464.74
460.964	3473.78
461.337	3584.96
461.71	3603.27
462.083	3647.79
462.456	3650.95
462.829	3705.86
463.201	3767.1
463.574	3805.75
463.947	3834.22
464.32	3899.98
464.692	3961.22
465.065	3950.15
465.438	4094.33
465.81	4114.89
466.183	4136.81
466.555	4255.91
466.928	4265.17
467.3	4219.75
467.672	4345.17
468.045	4420.42
468.417	4486.41
468.789	4545.84
469.161	4525.95
469.534	4623.35
469.906	4762.78
470.278	4758.94
470.65	4804.59
471.022	4931.14
471.394	5004.36
471.766	5024.47
472.138	5122.32
472.51	5181.53
472.882	5307.63
473.253	5352.15
473.625	5463.56
473.997	5559.37
474.369	5560.28
474.74	5649.09
475.112	5779.25
475.484	5924.79
475.855	5974.5
476.227	6056.31
476.598	6181.73
476.97	6219.24
477.341	6374.04
477.713	6387.37
478.084	6505.34
478.455	6686.35
478.827	6745.33
479.198	6946.68
479.569	6952.78
479.94	7148.71
480.311	7195.94
480.682	7405.65
481.053	7530.62
481.424	7677.96
481.795	7724.29
482.166	7877.05
482.537	7935.13
482.908	8194.11
483.279	8257.38
483.65	8354.55
484.021	8535.57
484.391	8682
484.762	8714.32
485.133	8855.33
485.503	9014.65
485.874	9195.44
486.244	9265.94
486.615	9436.33
486.985	9492.83
487.356	9728.98
487.726	9765.59
488.097	10028.18
488.467	10087.39
488.837	10226.82
489.207	10412.58
489.578	10497.77
489.948	10598.34
490.318	10810.08
490.688	10761.5
491.058	10986.8
491.428	11129.62
491.798	11217.98
492.168	11497.52
492.538	11506.56
492.908	11655.48
493.278	11805.76
493.648	11867
494.017	12094.57
494.387	12104.51
494.757	12263.38
495.126	12445.97
495.496	12452.98
495.866	12578.62
496.235	12752.63
496.605	12800.77
496.974	12930.71
497.344	13021.1
497.713	13111.72
498.082	13156.01
498.452	13399.39
498.821	13408.43
499.19	13470.8
499.559	13702.44
499.928	13695.2
500.298	13768.42
500.667	13871.47
501.036	13910.34
501.405	14122.76
501.774	14105.82
502.143	14305.13
502.512	14355.07
502.88	14449.99
503.249	14446.15
503.618	14702.64
503.987	14750.32
504.356	14791.9
504.724	14907.6
505.093	15014.49
505.462	15075.06
505.83	15219.23
506.199	15368.16
506.567	15583.97
506.936	15538.09
507.304	15656.51
507.672	15748.71
508.041	15932.21
508.409	15853.57
508.777	16142.15
509.145	16279.54
509.514	16242.48
509.882	16408.13
510.25	16556.82
510.618	16690.83
510.986	16673.88
511.354	16925.4
511.722	16933.09
512.09	17107.77
512.458	17195.68
512.826	17371.27
513.193	17441.32
513.561	17535.33
513.929	17709.79
514.297	17853.06
514.664	17985.71
515.032	18023
515.4	18270.9
515.767	18248.53
516.135	18387.96
516.502	18369.43
516.869	18663.44
517.237	18985.24
517.604	18861.85
517.972	19121.73
518.339	19152.91
518.706	19394.94
519.073	19457.77
519.44	19520.36
519.808	19802.61
520.175	19827.47
520.542	20100.46
520.909	20118.76
521.276	20185.43
521.643	20486.21
522.009	20566.44
522.376	20734.57
522.743	20789.03
523.11	21127.78
523.477	21203.93
523.843	21302.46
524.21	21542.46
524.577	21822.45
524.943	21901.99
525.31	21972.73
525.676	22120.07
526.043	22332.72
526.409	22573.16
526.776	22639.83
527.142	22790.33
527.508	23008.86
527.874	23165.24
528.241	23252.47
528.607	23364.33
528.973	23624.66
529.339	23542.18
529.705	23821.72
530.071	23980.36
530.437	24169.96
530.803	24341.25
531.169	24491.76
531.535	24399.33
531.901	24654.01
532.267	24671.87
532.632	24927.23
532.998	25079.09
533.364	25154.79
533.73	25304.17
534.095	25523.59
534.461	25606.08
534.826	25644.27
535.192	25816.69
535.557	26036.58
535.923	25973.98
536.288	26152.96
536.653	26306.62
537.019	26313.86
537.384	26491.25
537.749	26570.8
538.114	26588.88
538.479	26624.58
538.845	26886.5
539.21	26695.77
539.575	26856.67
539.94	27100.5
540.305	27244.91
540.67	27141.18
541.034	27300.95
541.399	27505.69
541.764	27554.28
542.129	27693.71
542.494	27743.42
542.858	27894.83
543.223	27858.67
543.587	28189.06
543.952	28011.44
544.316	28237.2
544.681	28380.69
545.045	28336.18
545.41	28453.46
545.774	28622.5
546.138	28610.29
546.503	28731.65
546.867	28796.95
547.231	29017.06
547.595	29088.47
547.959	29109.26
548.324	29211.18
548.688	29394
549.052	29450.95
549.416	29624.73
549.779	29771.17
550.143	29905.4
550.507	30012.52
550.871	30078.73
551.235	30093.87
551.599	30291.38
551.962	30354.65
552.326	30335.9
552.689	30753.74
553.053	30458.83
553.417	30706.96
553.78	31155.08
554.143	31082.09
554.507	31170.68
554.87	31309.21
555.234	31508.97
555.597	31492.03
555.96	31445.7
556.323	31666.94
556.686	31876.87
557.05	32112.35
557.413	32128.17
557.776	32285.68
558.139	32518.44
558.502	32699
558.865	32706.46
559.228	32888.82
559.59	32986.9
559.953	33131.3
560.316	33522.25
560.679	33429.83
561.041	33496.04
561.404	33830.27
561.767	34036.36
562.129	33959.53
562.492	34329.69
562.854	34336.47
563.217	34428.9
563.579	34658.27
563.941	34834.54
564.304	34855.1
564.666	35232.04
565.028	35285.6
565.39	35308.42
565.753	35491.47
566.115	35652.37
566.477	35741.63
566.839	35804.45
567.201	36135.97
567.563	36209.42
567.925	36554.26
568.287	36541.84
568.648	36500.48
569.01	36771.21
569.372	36872.22
569.734	36992.67
570.095	37179.56
570.457	37299.56
570.819	37368.71
571.18	37468.37
571.542	37647.12
571.903	37650.28
572.265	37895.25
572.626	38096.15
572.987	38170.49
573.349	38235.58
573.71	38260.89
574.071	38488
574.432	38457.27
574.794	38841.44
575.155	38779.74
575.516	38717.37
575.877	38877.37
576.238	39076.23
576.599	39050.92
576.96	39123.24
577.32	39085.72
577.681	39310.8
578.042	39375.66
578.403	39455.21
578.763	39508.76
579.124	39757.34
579.485	39781.3
579.845	39889.32
580.206	39776.55
580.566	39917.11
580.927	39824.24
581.287	39761.41
581.648	39786.95
582.008	39916.66
582.368	39946.49
582.728	39985.36
583.089	39967.28
583.449	40121.4
583.809	40099.71
584.169	40275.75
584.529	40080.05
584.889	40427.16
585.249	40137.45
585.609	40154.17
585.969	40422.41
586.329	40267.39
586.688	40433.48
587.048	40225.81
587.408	40244.34
587.768	40186.26
588.127	40224
588.487	40249.31
588.846	40544.22
589.206	40230.33
589.565	40329.08
589.925	40412.02
590.284	40229.87
590.643	40445.24
591.003	40505.35
591.362	40546.02
591.721	40605.23
592.08	40522.3
592.44	40699.92
592.799	40746.47
593.158	40749.86
593.517	40553.26
593.876	40742.86
594.235	40656.98
594.593	40633.25
594.952	40839.8
595.311	40653.14
595.67	40894.04
596.029	40896.3
596.387	41018.78
596.746	40970.87
597.104	40822.63
597.463	40716.64
597.822	41069.17
598.18	40665.8
598.538	40835.73
598.897	41204.76
599.255	40986.46
599.613	41432.33
599.972	41272.11
600.33	41250.86
600.688	41119.34
601.046	41295.16
601.404	41444.31
601.762	41352.33
602.12	41424.42
602.478	41422.84
602.836	41519.33
603.194	41305.55
603.552	41480.24
603.91	41332.44
604.268	41616.73
604.625	41418.32
604.983	41674.58
605.341	41481.37
605.698	41676.62
606.056	41744.64
606.413	41772.88
606.771	41985.53
607.128	41850.17
607.485	41813.34
607.843	41807.91
608.2	42160.45
608.557	42136.26
608.914	41883.84
609.272	42240.89
609.629	42150.73
609.986	42375.13
610.343	42155.25
610.7	42519.08
611.057	42338.07
611.414	42358.41
611.771	42452.64
612.127	42627.55
612.484	42409.93
612.841	42581.68
613.198	42608.12
613.554	42565.63
613.911	42884.95
614.267	42787.77
614.624	42775.8
614.98	42819.18
615.337	43139.18
615.693	43084.71
616.05	42849.01
616.406	43183.92
616.762	43019.63
617.118	43037.26
617.475	42947.32
617.831	43237.93
618.187	43109.35
618.543	43191.38
618.899	43279.51
619.255	43215.11
619.611	43232.96
619.967	43328.1
620.323	43471.15
620.678	43259.4
621.034	43171.49
621.39	43357.93
621.746	43280.87
622.101	43747.97
622.457	43269.12
622.812	43389.11
623.168	43504.36
623.523	43460.07
623.879	43543.46
624.234	43281.32
624.589	43509.56
624.945	43579.84
625.3	43581.2
625.655	43523.57
626.01	43630.01
626.365	43650.12
626.72	43514.53
627.075	43501.43
627.43	43458.94
627.785	43489
628.14	43502.1
628.495	43484.93
628.85	43383.69
629.205	43170.36
629.559	43493.52
629.914	43372.39
630.269	43329
630.623	43216.01
630.978	43191.38
631.332	43319.06
631.687	43419.4
632.041	43023.02
632.396	43149.12
632.75	42888.34
633.104	42968.33
633.459	42805.85
633.813	42843.37
634.167	42691.28
634.521	42850.6
634.875	42792.52
635.229	42741.67
635.583	42504.16
635.937	42532.64
636.291	42487.44
636.645	42560.43
636.999	42476.37
637.352	42655.8
637.706	42315.02
638.06	42590.26
638.413	42307.33
638.767	42240.67
639.121	42236.38
639.474	41999.09
639.828	42078.87
640.181	41952.09
640.534	42274.79
640.888	42010.39
641.241	41929.26
641.594	41878.19
641.947	42075.02
642.301	41825.99
642.654	41898.98
643.007	41880.9
643.36	41712.32
643.713	41671.87
644.066	41809.49
644.419	41649.05
644.771	41108.5
645.124	40779.01
645.477	40747.6
645.83	40542.41
646.182	40471.9
646.535	40396.65
646.888	40484.56
647.24	40221.51
647.593	40546.02
647.945	40287.95
648.298	40099.03
648.65	40051.35
649.002	39909.88
649.355	40035.98
649.707	39906.04
650.059	40074.4
650.411	40429.87
650.763	40509.64
651.115	40958.89
651.467	40899.24
651.819	40841.16
652.171	40779.69
652.523	40775.4
652.875	40593.93
653.227	40477.55
653.578	40795.28
653.93	40606.36
654.282	40402.07
654.633	40515.74
654.985	40606.59
655.337	40490.66
655.688	40491.34
656.039	40574.5
656.391	40137.22
656.742	40252.47
657.094	40172.02
657.445	40310.78
657.796	40210.67
658.147	40090.67
658.498	40115.08
658.849	40193.04
659.2	40236.2
659.551	39977.68
659.902	40224
660.253	40091.35
660.604	40169.54
660.955	39953.72
661.306	40026.26
661.656	39930.22
662.007	39949.88
662.358	40038.24
662.708	39855.19
663.059	39850.9
663.409	39745.14
663.76	39950.33
664.11	40029.43
664.461	39765.71
664.811	39833.95
665.161	39771.81
665.511	39640.96
665.862	39845.03
666.212	39845.93
666.562	39840.05
666.912	39631.25
667.262	39661.53
667.612	39578.59
667.962	39666.27
668.312	39532.04
668.662	39744.69
669.011	39617.69
669.361	39531.14
669.711	39544.24
670.06	39513.96
670.41	39388.54
670.76	39452.72
671.109	39467.41
671.459	39360.29
671.808	39404.81
672.157	39333.63
672.507	39039.85
672.856	39097.93
673.205	39173.41
673.554	39339.05
673.904	39065.84
674.253	39301.99
674.602	39181.99
674.951	38726.86
675.3	38594.21
675.649	39191.71
675.998	39029.45
676.346	39132.5
676.695	39066.52
677.044	38842.11
677.393	38967.53
677.741	38912.39
678.09	38823.81
678.438	38873.98
678.787	38811.83
679.135	38985.16
679.484	38758.05
679.832	38760.76
680.181	38476.02
680.529	38618.39
680.877	38471.73
681.225	38510.82
681.573	38661.78
681.922	38353.77
682.27	38283.71
682.618	38307.44
682.966	38282.58
683.314	38252.98
683.661	38158.97
684.009	37937.73
684.357	37873.1
684.705	37857.51
685.053	37902.03
685.4	37807.57
685.748	37783.84
686.095	37677.4
686.443	37547.46
686.79	37477.18
687.138	37486.44
687.485	37527.8
687.832	37336.84
688.18	37397.18
688.527	37264.98
688.874	37010.3
689.221	37028.83
689.568	36881.04
689.915	37006.46
690.262	36857.08
690.609	36824.31
690.956	36617.54
691.303	36687.82
691.65	36513.59
691.997	36318.56
692.344	36305.68
692.69	36401.5
693.037	36352.69
693.383	36145.24
693.73	36213.03
694.077	35895.53
694.423	35824.57
694.769	35826.83
695.116	35699.82
695.462	35721.97
695.808	35536.21
696.155	35479.72
696.501	35205.83
696.847	35303.22
697.193	35054.87
697.539	35204.02
697.885	34800.19
698.231	34648.1
698.577	34794.54
698.923	34724.03
699.269	34473.64
699.614	34324.49
699.96	34263.48
700.306	34328.79
700.651	34146.87
700.997	34223.93
701.342	34088.79
701.688	33989.59
702.033	33959.76
702.379	33973.32
702.724	33786.88
703.069	33816.26
703.415	33300.11
703.76	33410.39
704.105	33466.89
704.45	33310.73
704.795	33105.32
705.14	32933.12
705.485	32983.29
705.83	32884.76
706.175	32999.1
706.52	32816.74
706.865	32706.23
707.209	32685.89
707.554	32648.83
707.899	32757.53
708.243	32454.94
708.588	32404.54
708.932	32172.46
709.277	32162.97
709.621	32261.27
709.966	32014.95
710.31	32185.34
710.654	31875.29
710.998	31863.99
711.342	31726.82
711.687	31649.54
712.031	31705.8
712.375	31518.01
712.719	31696.09
713.063	31391.24
713.407	31546.49
713.75	31287.51
714.094	31402.54
714.438	31201.64
714.782	31258.13
715.125	31161.64
715.469	31195.08
715.812	30927.29
716.156	30803.23
716.499	30850.69
716.843	30876.22
717.186	30732.95
717.53	30843
717.873	30692.5
718.216	30646.62
718.559	30530.92
718.902	30445.72
719.246	30378.83
719.589	30323.92
719.932	30138.16
720.275	30184.26
720.617	29932.52
720.96	30016.58
721.303	29997.15
721.646	30011.16
721.989	29758.51
722.331	29857.94
722.674	29848.9
723.016	29801.67
723.359	29766.19
723.701	29700.66
724.044	29528.46
724.386	29462.02
724.729	29568.01
725.071	29476.48
725.413	29412.53
725.755	29380.67
726.097	29235.36
726.439	29054.8
726.782	29159.88
727.124	29165.98
727.465	29035.14
727.807	29001.7
728.149	28885.31
728.491	28821.59
728.833	29038.98
729.175	28812.55
729.516	28849.16
729.858	28788.59
730.199	28834.24
730.541	28664.98
730.882	28628.6
731.224	28766
731.565	28543.4
731.906	28581.59
732.248	28581.82
732.589	28399
732.93	28359.45
733.271	28392.9
733.612	28325.55
733.953	28290.75
734.294	28153.36
734.635	28170.98
734.976	28316.06
735.317	28020.7
735.658	28156.75
735.999	27992.46
736.339	27839.24
736.68	27989.97
737.021	27901.39
737.361	27655.52
737.702	27829.97
738.042	27688.28
738.383	27740.94
738.723	27710.2
739.063	27698.9
739.404	27639.7
739.744	27606.93
740.084	27531.9
740.424	27477.67
740.764	27345.92
741.104	27496.65
741.444	27426.82
741.784	27272.25
742.124	27351.34
742.464	27312.47
742.804	27254.4
743.143	27113.84
743.483	27081.07
743.823	26943.9
744.162	26938.7
744.502	27078.13
744.841	26815.09
745.181	27056.21
745.52	26787.52
745.86	26866.38
746.199	26763.79
746.538	26796.1
746.877	26836.55
747.216	26740.06
747.556	26547.97
747.895	26564.25
748.234	26445.83
748.573	26295.55
748.911	26279.96
749.25	26366.96
749.589	26195.89
749.928	26309.56
750.267	26239.73
750.605	26145.27
750.944	25999.51
751.283	25857.14
751.621	25945.05
751.96	25845.17
752.298	25850.37
752.636	25848.56
752.975	25630.71
753.313	25666.19
753.651	25698.51
753.989	25469.81
754.327	25518.62
754.666	25432.52
755.004	25428.23
755.342	25364.73
755.679	25372.64
756.017	25240.89
756.355	25254.67
756.693	25169.93
757.031	25178.07
757.368	24996.83
757.706	24891.97
758.044	24850.17
758.381	24819.43
758.719	24748.25
759.056	24742.6
759.394	24672.32
759.731	24571.3
760.068	24583.28
760.405	24421.48
760.743	24413.34
761.08	24412.21
761.417	24240.01
761.754	24251.54
762.091	24074.82
762.428	23937.2
762.765	23894.03
763.102	23928.83
763.438	23760.25
763.775	23721.38
764.112	23801.83
764.449	23717.09
764.785	23604.77
765.122	23343.31
765.458	23375.18
765.795	23308.74
766.131	23275.52
766.467	23237.1
766.804	23117.1
767.14	22899.26
767.476	22968.41
767.812	22979.48
768.148	22981.51
768.485	22592.37
768.821	22614.07
769.157	22601.64
769.492	22519.15
769.828	22454.3
770.164	22306.96
770.5	22275.32
770.836	22217.69
771.171	22140.18
771.507	22110.8
771.842	21915.33
772.178	21930.92
772.513	21707.88
772.849	21781.09
773.184	21718.04
773.519	21605.96
773.855	21410.93
774.19	21421.56
774.525	21336.81
774.86	21342.24
775.195	21233.31
775.53	21063.15
775.865	21019.76
776.2	20955.8
776.535	20720.33
776.87	20748.58
777.205	20565.76
777.539	20585.87
777.874	20597.4
778.209	20476.72
778.543	20436.27
778.878	20296.61
779.212	20351.3
779.547	20119.44
779.881	20174.81
780.215	20079.22
780.55	20071.53
780.884	19875.16
781.218	19848.26
781.552	19770.53
781.886	19691.66
782.22	19535.5
782.554	19570.08
782.888	19401.5
783.222	19369.41
783.556	19265.23
783.889	19164.21
784.223	19082.63
784.557	19096.64
784.89	19011.9
785.224	18922.86
785.557	18873.37
785.891	18702.08
786.224	18759.7
786.558	18687.39
786.891	18501.41
787.224	18516.1
787.557	18450.33
787.891	18573.72
788.224	18464.35
788.557	18416.89
788.89	18321.98
789.223	18194.52
789.556	18072.49
789.888	18054.19
790.221	17989.78
790.554	17911.37
790.887	17836.79
791.219	17780.07
791.552	17732.39
791.884	17669.34
792.217	17670.69
792.549	17544.82
792.882	17506.18
793.214	17293.08
793.546	17376.92
793.879	17254.21
794.211	17065.51
794.543	17119.75
794.875	17055.34
795.207	17144.61
795.539	16990.71
795.871	17062.8
796.203	16816.48
796.535	16785.29
796.867	16678.18
797.198	16695.13
797.53	16689.48
797.862	16563.15
798.193	16532.64
798.525	16482.93
798.856	16525.41
799.188	16361.12
799.519	16269.15
799.85	16203.16
800.182	16178.76
800.513	16179.89
800.844	16071.41
801.175	16146.89
801.506	16027.57
801.837	16043.17
802.168	15908.48
802.499	15945.09
802.83	15806.56
803.161	15775.38
803.491	15800.46
803.822	15687.69
804.153	15626
804.483	15468.04
804.814	15393.24
805.145	15425.1
805.475	15440.47
805.805	15294.71
806.136	15295.39
806.466	15291.32
806.796	15422.17
807.126	15256.29
807.457	15131.33
807.787	15086.58
808.117	15079.35
808.447	14961.39
808.777	14997.77
809.107	14832.58
809.436	14902.18
809.766	14927.49
810.096	14835.29
810.426	14787.83
810.755	14713.48
811.085	14646.14
811.414	14635.07
811.744	14611.56
812.073	14532.92
812.403	14516.65
812.732	14409.31
813.061	14407.05
813.39	14328.86
813.719	14358.24
814.049	14493.38
814.378	14350.33
814.707	14294.96
815.036	14244.12
815.365	14252.25
815.693	14082.09
816.022	14165.93
816.351	14043.22
816.68	13975.88
817.008	13964.35
817.337	13945.59
817.665	13890
817.994	13922.77
818.322	13925.03
818.651	13866.5
818.979	13733.85
819.307	13808.87
819.636	13798.7
819.964	13698.14
820.292	13689.1
820.62	13676
820.948	13692.04
821.276	13714.64
821.604	13689.56
821.932	13677.13
822.259	13677.8
822.587	13616.11
822.915	13518.94
823.243	13591.7
823.57	13535.44
823.898	13564.13
824.225	13484.59
824.553	13471.93
824.88	13501.76
825.207	13540.18
825.535	13456.34
825.862	13621.53
826.189	13449.79
826.516	13467.41
826.843	13541.08
827.17	13543.34
827.497	13579.95
827.824	13490.69
828.151	13525.94
828.478	13426.96
828.805	13504.93
829.131	13349.45
829.458	13372.73
829.785	13363.24
830.111	13352.62
830.438	13494.76
830.764	13410.69
831.09	13415.89
831.417	13386.51
831.743	13488.88
832.069	13343.58
832.395	13438.49
832.722	13360.98
833.048	13337.25
833.374	13355.78
833.7	13286.4
834.026	13349.45
834.351	13402.33
834.677	13303.8
835.003	13395.78
835.329	13335.67
835.654	13275.1
835.98	13202.79
836.306	13191.49
836.631	13212.51
836.956	13300.41
837.282	13263.13
837.607	13121.21
837.932	13102.68
838.258	13132.51
838.583	13066.29
838.908	13072.4
839.233	13026.3
839.558	13032.62
839.883	13032.62
840.208	12930.03
840.533	12868.56
840.858	12958.5
841.182	12926.86
841.507	12891.16
841.832	12848.9
842.156	12770.26
842.481	12881.44
842.805	12681.22
843.13	12640.32
843.454	12670.6
843.778	12721.45
844.103	12555.35
844.427	12632.86
844.751	12615.46
845.075	12535.24
845.399	12541.34
845.723	12379.31
846.047	12441.45
846.371	12293.21
846.695	12388.35
847.019	12218.63
847.343	12087.56
847.666	12075.36
847.99	12054.57
848.313	12097.51
848.637	11980.9
848.96	12008.7
849.284	11891.18
849.607	11835.59
849.931	11805.54
850.254	11802.15
850.577	11717.18
850.9	11606.22
851.223	11613.45
851.546	11551.31
851.869	11484.87
852.192	11558.99
852.515	11468.6
852.838	11356.51
853.161	11350.63
853.483	11314.25
853.806	11274.48
854.129	11252.78
854.451	11203.52
854.774	11188.83
855.096	11076.97
855.419	11042.62
855.741	11056.18
856.063	10981.83
856.385	11009.4
856.708	10982.28
857.03	10929.4
857.352	10936.41
857.674	10805.79
857.996	10792.68
858.318	10636.08
858.64	10696.87
858.961	10629.3
859.283	10633.82
859.605	10568.51
859.926	10568.96
860.248	10573.03
860.57	10602.18
860.891	10581.84
861.212	10538.45
861.534	10514.27
861.855	10423.65
862.176	10424.78
862.498	10442.86
862.819	10481.5
863.14	10442.64
863.461	10425.46
863.782	10304.33
864.103	10405.35
864.424	10317.44
864.745	10253.26
865.065	10238.8
865.386	10243.77
865.707	10198.8
866.027	10217.56
866.348	10245.35
866.668	10208.74
866.989	10112.7
867.309	10053.94
867.63	10155.18
867.95	10020.5
868.27	9945.47
868.59	10004.23
868.91	10052.81
869.23	10032.7
869.55	9921.29
869.87	10006.26
870.19	10001.06
870.51	9970.78
870.83	9886.94
871.15	9946.38
871.469	9983.21
871.789	9863.89
872.109	9844.23
872.428	9817.79
872.748	9794.52
873.067	9827.28
873.386	9799.04
873.706	9743.67
874.025	9717
874.344	9761.52
874.663	9790
874.982	9687.17
875.301	9691.69
875.62	9655.09
875.939	9619.15
876.258	9686.72
876.577	9602.88
876.896	9536.22
877.214	9545.26
877.533	9558.59
877.852	9515.88
878.17	9604.46
878.489	9535.09
878.807	9560.17
879.125	9460.29
879.444	9530.79
879.762	9406.28
880.08	9407.63
880.398	9385.04
880.716	9351.14
881.034	9348.65
881.352	9355.88
881.67	9347.52
881.988	9308.43
882.306	9305.94
882.624	9329.9
882.941	9282.89
883.259	9185.49
883.577	9179.84
883.894	9166.74
884.212	9152.05
884.529	9106.4
884.846	9124.93
885.164	9102.33
885.481	9054.87
885.798	9090.13
886.115	9012.84
886.432	8929
886.75	8981.88
887.067	8999.96
887.383	8940.3
887.7	8942.79
888.017	8933.97
888.334	8857.14
888.651	8863.24
888.967	8830.25
889.284	8785.73
889.6	8766.52
889.917	8705.73
890.233	8827.31
890.55	8738.05
890.866	8720.87
891.182	8707.31
891.498	8653.3
891.815	8652.4
892.131	8597.03
892.447	8506.19
892.763	8520.65
893.079	8504.83
893.395	8463.03
893.71	8422.35
894.026	8482.91
894.342	8487.21
894.657	8443.14
894.973	8357.49
895.289	8304.61
895.604	8355.68
895.92	8256.03
896.235	8267.55
896.55	8280.66
896.865	8162.92
897.181	8110.72
897.496	8117.95
897.811	8048.12
898.126	8109.59
898.441	8079.31
898.756	8068.46
899.071	8001.34
899.386	8058.52
899.7	7958.63
900.015	7881.57
900.33	7840.22
900.644	7865.98
900.959	7921.57
901.273	7796.38
901.588	7791.18
901.902	7779.2
902.216	7727.45
902.531	7692.88
902.845	7664.85
903.159	7592.77
903.473	7606.33
903.787	7526.33
904.101	7551.19
904.415	7459.44
904.729	7512.77
905.042	7412.66
905.356	7398.65
905.67	7476.61
905.984	7468.25
906.297	7320.68
906.611	7324.3
906.924	7269.16
907.237	7219.44
907.551	7186
907.864	7170.4
908.177	7190.07
908.491	7190.29
908.804	7179.22
909.117	7106.68
909.43	7024.87
909.743	6964.53
910.056	6969.51
910.368	6970.64
910.681	6923.18
910.994	6941.03
911.307	6901.26
911.619	6799.57
911.932	6797.99
912.244	6808.38
912.557	6772.45
912.869	6744.43
913.181	6722.05
913.494	6731.77
913.806	6649.29
914.118	6656.29
914.43	6629.18
914.742	6529.07
915.054	6534.72
915.366	6547.6
915.678	6513.7
915.99	6452.68
916.302	6436.64
916.613	6459.69
916.925	6332.01
917.236	6413.14
917.548	6330.65
917.859	6273.93
918.171	6292.69
918.482	6296.3
918.794	6221.28
919.105	6261.05
919.416	6156.42
919.727	6144.89
920.038	6165.46
920.349	6061.51
920.66	6037.78
920.971	6090.66
921.282	6011.79
921.593	6016.76
921.903	5939.93
922.214	5935.63
922.525	5908.74
922.835	5892.7
923.146	5899.03
923.456	5856.54
923.767	5826.03
924.077	5845.92
924.387	5852.02
924.697	5751.23
925.008	5720.95
925.318	5687.28
925.628	5698.8
925.938	5656.55
926.248	5576.77
926.558	5562.99
926.867	5541.52
927.177	5605.93
927.487	5521.41
927.796	5504.91
928.106	5453.16
928.416	5479.15
928.725	5454.29
929.034	5432.6
929.344	5445.48
929.653	5325.48
929.962	5361.41
930.271	5326.84
930.581	5277.12
930.89	5277.12
931.199	5260.17
931.508	5261.75
931.817	5226.5
932.125	5217.46
932.434	5152.6
932.743	5160.97
933.051	5169.55
933.36	5114.87
933.669	5103.11
933.977	5052.49
934.286	4995.32
934.594	5004.81
934.902	4996.68
935.21	4953.97
935.519	4991.25
935.827	4920.07
936.135	4921.88
936.443	4845.27
936.751	4863.57
937.059	4823.8
937.367	4834.87
937.674	4746.51
937.982	4784.03
938.29	4756.23
938.597	4761.65
938.905	4716.23
939.213	4716.23
939.52	4673.07
939.827	4656.8
940.135	4622.68
940.442	4585.84
940.749	4549.23
941.056	4603.24
941.363	4542.23
941.67	4556.69
941.977	4526.41
942.284	4509.91
942.591	4474.43
942.898	4446.18
943.205	4455.67
943.511	4419.06
943.818	4393.3
944.125	4348.11
944.431	4359.86
944.738	4361.66
945.044	4337.26
945.35	4299.52
945.657	4255
945.963	4266.98
946.269	4238.73
946.575	4275.57
946.881	4249.58
947.187	4209.35
947.493	4212.06
947.799	4168.22
948.105	4155.34
948.41	4069.92
948.716	4124.84
949.022	4080.77
949.327	4083.25
949.633	4060.88
949.938	4019.53
950.244	4046.42
950.549	4012.75
950.854	4011.84
951.16	3977.04
951.465	3963.03
951.77	3964.84
952.075	3953.77
952.38	3911.51
952.685	3883.26
952.99	3857.5
953.294	3857.05
953.599	3833.09
953.904	3800.32
954.209	3808.69
954.513	3769.59
954.818	3765.75
955.122	3752.19
955.426	3742.47
955.731	3711.74
956.035	3719.2
956.339	3729.14
956.643	3714.68
956.948	3644.17
957.252	3608.92
957.556	3634
957.86	3591.29
958.163	3597.84
958.467	3566.21
958.771	3545.64
959.075	3531.86
959.378	3564.17
959.682	3541.35
959.985	3483.72
960.289	3488.02
960.592	3481.46
960.896	3489.82
961.199	3425.87
961.502	3403.72
961.805	3393.1
962.108	3389.94
962.411	3373.44
962.714	3398.98
963.017	3349.49
963.32	3339.09
963.623	3317.62
963.926	3340.22
964.228	3281.69
964.531	3280.11
964.833	3282.6
965.136	3241.24
965.438	3266.55
965.741	3215.48
966.043	3208.02
966.345	3209.83
966.648	3163.73
966.95	3180
967.252	3108.59
967.554	3165.99
967.856	3118.99
968.158	3100.23
968.46	3099.78
968.761	3087.35
969.063	3102.49
969.365	3052.77
969.666	3060.68
969.968	3000.34
970.269	2972.32
970.571	3029.95
970.872	3018.42
971.174	2951.53
971.475	2971.65
971.776	2943.62
972.077	2961.48
972.378	2929.61
972.679	2897.52
972.98	2898.43
973.281	2892.55
973.582	2884.64
973.883	2870.18
974.183	2831.31
974.484	2834.47
974.785	2821.59
975.085	2783.63
975.386	2809.16
975.686	2750.86
975.986	2787.02
976.287	2807.36
976.587	2796.96
976.887	2742.72
977.187	2747.7
977.487	2745.44
977.787	2721.03
978.087	2708.83
978.387	2654.82
978.687	2655.95
978.987	2687.13
979.286	2631.09
979.586	2631.31
979.885	2627.47
980.185	2602.39
980.484	2581.15
980.784	2601.49
981.083	2563.29
981.382	2566.68
981.682	2567.59
981.981	2557.42
982.28	2519.23
982.579	2537.76
982.878	2540.7
983.177	2489.62
983.475	2492.34
983.774	2469.74
984.073	2472
984.372	2476.52
984.67	2436.74
984.969	2417.08
985.267	2444.88
985.566	2425.9
985.864	2393.58
986.162	2407.14
986.461	2382.96
986.759	2383.19
987.057	2328.27
987.355	2335.73
987.653	2331.21
987.951	2356.29
988.249	2327.82
988.547	2329.63
988.844	2299.35
989.142	2307.48
989.44	2299.35
989.737	2280.14
990.035	2243.08
990.332	2262.74
990.63	2259.57
990.927	2206.69
991.224	2229.74
991.521	2207.82
991.819	2208.95
992.116	2186.35
992.413	2152.91
992.71	2156.75
993.006	2170.99
993.303	2143.42
993.6	2147.71
993.897	2128.73
994.193	2119.92
994.49	2101.84
994.787	2073.59
995.083	2074.04
995.379	2088.73
995.676	2065.68
995.972	2039.92
996.268	2061.39
996.565	2021.16
996.861	2040.82
997.157	2022.97
997.453	1984.55
997.749	1991.11
998.044	1989.07
998.34	1980.71
998.636	1970.77
998.932	1965.57
999.227	1969.19
999.523	1947.72
999.818	1939.58
1000.114	1942.29
1000.409	1902.75
1000.704	1892.58
1001	1894.61
1001.295	1902.52
1001.59	1864.33
1001.885	1898
1002.18	1875.18
1002.475	1866.59
1002.77	1824.1
1003.065	1815.97
1003.359	1802.64
1003.654	1825.69
1003.949	1795.4
1004.243	1766.93
1004.538	1760.6
1004.832	1759.02
1005.127	1758.8
1005.421	1758.8
1005.715	1736.88
1006.009	1726.25
1006.304	1712.92
1006.598	1698.46
1006.892	1697.1
1007.186	1665.69
1007.48	1676.31
1007.773	1648.29
1008.067	1684.45
1008.361	1666.37
1008.655	1635.18
1008.948	1633.15
1009.242	1615.3
1009.535	1630.44
1009.829	1622.98
1010.122	1617.56
1010.415	1571
1010.708	1581.63
1011.001	1584.79
1011.295	1581.85
1011.588	1587.95
1011.881	1516.54
1012.173	1558.57
1012.466	1543.21
1012.759	1557.9
1013.052	1522.42
1013.344	1507.73
1013.637	1514.96
1013.93	1495.3
1014.222	1458.69
1014.514	1470.22
1014.807	1468.18
1015.099	1469.09
1015.391	1447.17
1015.683	1446.04
1015.976	1448.97
1016.268	1427.28
1016.56	1415.3
1016.851	1421.4
1017.143	1372.59
1017.435	1397.9
1017.727	1377.79
1018.018	1357.45
1018.31	1380.05
1018.602	1336.89
1018.893	1339.37
1019.185	1369.43
1019.476	1328.52
1019.767	1325.13
1020.058	1313.16
1020.35	1289.2
1020.641	1292.59
1020.932	1285.59
1021.223	1284.23
1021.514	1283.78
1021.804	1260.28
1022.095	1247.62
1022.386	1263.22
1022.677	1239.94
1022.967	1229.54
1023.258	1212.37
1023.548	1215.08
1023.839	1212.14
1024.129	1189.09
1024.419	1189.09
1024.709	1184.12
1025	1201.75
1025.29	1164.46
1025.58	1145.25
1025.87	1185.93
1026.16	1139.83
1026.449	1137.57
1026.739	1148.64
1027.029	1130.11
1027.319	1112.48
1027.608	1103.9
1027.898	1101.41
1028.187	1123.33
1028.477	1073.16
1028.766	1085.59
1029.055	1075.42
1029.344	1076.33
1029.634	1081.53
1029.923	1085.37
1030.212	1031.36
1030.501	1055.76
1030.79	1025.93
1031.078	1037.01
1031.367	1034.75
1031.656	1003.79
1031.945	1005.37
1032.233	1002.21
1032.522	1008.76
1032.81	995.43
1033.099	992.49
1033.387	994.3
1033.675	978.93
1033.963	975.54
1034.251	970.79
1034.54	967.4
1034.828	939.83
1035.116	940.29
1035.403	942.55
1035.691	913.62
1035.979	925.37
1036.267	930.79
1036.554	914.3
1036.842	925.37
1037.129	907.97
1037.417	901.64
1037.704	886.28
1037.992	874.75
1038.279	882.89
1038.566	873.85
1038.853	873.85
1039.14	873.85
