Data from plate_porcelain_FLMS001491_076.txt Node
Date: Tue Feb 07 11:19:52 GMT 2017
User: dcchb
Spectrometer: FLMS00149
Trigger mode: 0
Integration Time (sec): 2.000000E-2
Scans to average: 10
Electric dark correction enabled: true
Nonlinearity correction enabled: false
Boxcar width: 0
XAxis mode: Wavelengths
Number of Pixels in Spectrum: 2048
>>>>>Begin Spectral Data<<<<<
341.393	2.63
341.776	2.63
342.16	2.63
342.543	-47.99
342.927	-73.76
343.31	-63.81
343.693	-61.55
344.077	-76.24
344.46	-56.13
344.843	-53.42
345.226	-44.6
345.61	-11.84
345.993	-23.36
346.376	3.53
346.759	-5.06
347.142	4.21
347.525	46.02
347.908	56.41
348.291	75.85
348.674	93.02
349.057	116.97
349.44	128.95
349.823	152.45
350.206	168.72
350.588	227.03
350.971	264.54
351.354	262.73
351.737	279.91
352.119	297.99
352.502	317.65
352.884	312.9
353.267	332.34
353.65	331.43
354.032	352.67
354.414	345.67
354.797	374.59
355.179	380.7
355.562	384.31
355.944	362.62
356.326	379.34
356.709	373.69
357.091	383.86
357.473	394.71
357.855	415.72
358.238	387.25
358.62	382.28
359.002	400.13
359.384	404.65
359.766	399.23
360.148	415.05
360.53	418.66
360.912	401.26
361.294	395.16
361.676	421.37
362.057	407.14
362.439	389.28
362.821	411.2
363.203	408.94
363.584	408.27
363.966	413.01
364.348	409.4
364.729	396.51
365.111	388.15
365.493	397.42
365.874	398.32
366.256	359
366.637	407.14
367.019	413.01
367.4	413.46
367.781	421.15
368.163	403.52
368.544	415.95
368.925	439.45
369.306	443.75
369.688	424.99
370.069	433.58
370.45	428.6
370.831	427.7
371.212	445.1
371.593	425.44
371.974	419.11
372.355	440.81
372.736	453.46
373.117	445.33
373.498	455.72
373.879	434.71
374.26	451.65
374.641	425.21
375.021	440.13
375.402	463.18
375.783	494.37
376.163	499.56
376.544	498.21
376.925	476.74
377.305	502.95
377.686	488.26
378.066	476.96
378.447	477.42
378.827	503.4
379.208	518.09
379.588	502.5
379.968	498.21
380.349	516.29
380.729	522.39
381.109	546.12
381.489	524.87
381.87	525.78
382.25	558.09
382.63	560.58
383.01	554.93
383.39	546.57
383.77	547.7
384.15	557.87
384.53	582.5
384.91	598.77
385.29	596.28
385.67	608.26
386.049	603.06
386.429	606.9
386.809	632.67
387.189	622.27
387.568	644.19
387.948	657.07
388.328	623.63
388.707	667.69
389.087	656.85
389.466	664.08
389.846	680.8
390.225	684.64
390.605	699.56
390.984	691.65
391.363	725.77
391.743	733.91
392.122	730.29
392.501	731.65
392.881	754.25
393.26	732.33
393.639	759.9
394.018	772.1
394.397	771.42
394.776	773.23
395.155	787.01
395.534	787.24
395.913	800.35
396.292	812.78
396.671	843.96
397.05	847.12
397.429	836.96
397.808	872.66
398.186	860.68
398.565	856.39
398.944	864.98
399.323	884.64
399.701	896.84
400.08	918.99
400.458	934.13
400.837	939.78
401.215	955.14
401.594	960.34
401.972	968.03
402.351	974.35
402.729	973.45
403.107	988.82
403.486	1035.59
403.864	1005.76
404.242	1012.09
404.62	1045.54
404.999	1047.57
405.377	1059.77
405.755	1076.95
406.133	1104.07
406.511	1116.04
406.889	1138.64
407.267	1140.45
407.645	1154.01
408.023	1188.58
408.401	1192.2
408.779	1196.27
409.156	1222.26
409.534	1225.42
409.912	1257.06
410.29	1279.88
410.667	1312.88
411.045	1324.4
411.422	1318.98
411.8	1344.51
412.178	1399.2
412.555	1403.72
412.933	1425.19
413.31	1422.25
413.687	1463.38
414.065	1462.02
414.442	1467.67
414.819	1518.97
415.197	1505.41
415.574	1546.09
415.951	1577.95
416.328	1574.56
416.705	1567.33
417.082	1581.34
417.46	1611.62
417.837	1658.63
418.214	1638.29
418.591	1673.09
418.967	1677.61
419.344	1739.3
419.721	1722.81
420.098	1768.68
420.475	1790.6
420.852	1762.58
421.228	1829.02
421.605	1803.94
421.982	1847.78
422.358	1885.06
422.735	1883.71
423.111	1903.82
423.488	1952.63
423.864	1979.52
424.241	2021.11
424.617	2003.7
424.994	2004.61
425.37	2073.99
425.746	2084.61
426.123	2071.05
426.499	2104.94
426.875	2121.22
427.251	2194.89
427.627	2230.37
428.003	2264.04
428.379	2301.78
428.756	2307.2
429.132	2378.38
429.507	2369.57
429.883	2415.22
430.259	2459.51
430.635	2496.8
431.011	2511.94
431.387	2534.31
431.763	2607.76
432.138	2612.95
432.514	2660.18
432.89	2658.15
433.265	2766.4
433.641	2753.97
434.016	2796.9
434.392	2861.53
434.767	2909.22
435.143	2875.09
435.518	2965.94
435.894	2983.79
436.269	3046.84
436.644	3060.63
437.02	3092.04
437.395	3101.98
437.77	3139.95
438.145	3222.66
438.52	3233.73
438.895	3250.45
439.271	3282.77
439.646	3362.54
440.021	3399.6
440.395	3411.8
440.77	3401.41
441.145	3407.28
441.52	3517.56
441.895	3522.99
442.27	3564.79
442.645	3556.43
443.019	3612.93
443.394	3574.28
443.769	3682.76
444.143	3660.61
444.518	3738.8
444.892	3667.62
445.267	3762.98
445.641	3778.57
446.016	3795.07
446.39	3857.67
446.764	3899.47
447.139	3894.05
447.513	3967.04
447.887	3986.48
448.262	3986.93
448.636	4026.93
449.01	4069.19
449.384	4099.92
449.758	4116.64
450.132	4207.94
450.506	4218.11
450.88	4252.23
451.254	4259.46
451.628	4348.5
452.002	4388.5
452.376	4434.6
452.75	4483.19
453.123	4546.69
453.497	4626.23
453.871	4622.39
454.244	4736.74
454.618	4777.19
454.992	4804.31
455.365	4830.75
455.739	4990.29
456.112	5047.47
456.486	5083.17
456.859	5075.94
457.232	5204.52
457.606	5171.53
457.979	5272.09
458.352	5445.87
458.725	5442.03
459.099	5503.73
459.472	5612.2
459.845	5707.34
460.218	5745.3
460.591	5776.03
460.964	5886.54
461.337	5972.41
461.71	6111.62
462.083	6186.65
462.456	6124.95
462.829	6241.79
463.201	6334.66
463.574	6415.79
463.947	6535.79
464.32	6605.17
464.692	6656.92
465.065	6695.33
465.438	6805.16
465.81	6892.39
466.183	7017.81
466.555	7174.19
466.928	7173.96
467.3	7233.17
467.672	7345.48
468.045	7579.15
468.417	7613.73
468.789	7622.77
469.161	7797.22
469.534	7869.99
469.906	8092.36
470.278	8169.42
470.65	8258.68
471.022	8409.41
471.394	8580.48
471.766	8550.2
472.138	8735.5
472.51	8907.25
472.882	9051.88
473.253	9113.12
473.625	9351.99
473.997	9479.67
474.369	9554.47
474.74	9734.8
475.112	9832.65
475.484	10079.2
475.855	10235.8
476.227	10324.16
476.598	10583.37
476.97	10693.42
477.341	10946.07
477.713	11078.27
478.084	11166.4
478.455	11567.97
478.827	11588.54
479.198	11937.68
479.569	11939.04
479.94	12359.59
480.311	12500.38
480.682	12747.83
481.053	12971.55
481.424	13241.15
481.795	13328.6
482.166	13556.17
482.537	13781.7
482.908	14029.6
483.279	14277.28
483.65	14425.52
484.021	14779.19
484.391	14916.59
484.762	15011.95
485.133	15233.86
485.503	15468.66
485.874	15711.37
486.244	15995.88
486.615	16311.12
486.985	16413.27
487.356	16729.42
487.726	16900.49
488.097	17215.96
488.467	17431.1
488.837	17726
489.207	17957.64
489.578	18213.9
489.948	18403.73
490.318	18723.94
490.688	18718.75
491.058	19058.62
491.428	19339.07
491.798	19396.02
492.168	19834.42
492.538	19973.63
492.908	20287.74
493.278	20521.64
493.648	20525.48
494.017	20876.65
494.387	21084.33
494.757	21094.73
495.126	21423.31
495.496	21428.28
495.866	21727.03
496.235	21944.87
496.605	22212.66
496.974	22258.31
497.344	22533.33
497.713	22700.11
498.082	22866.66
498.452	23176.26
498.821	23376.7
499.19	23281.34
499.559	23575.57
499.928	23742.57
500.298	23790.48
500.667	24199.28
501.036	24172.16
501.405	24387.52
501.774	24370.57
502.143	24652.6
502.512	24788.19
502.88	25054.62
503.249	25146.82
503.618	25323.77
503.987	25433.14
504.356	25547.94
504.724	25827.48
505.093	25923.3
505.462	26187.02
505.83	26340.01
506.199	26411.65
506.567	26980.9
506.936	26907.46
507.304	27233.55
507.672	27346.54
508.041	27373.66
508.409	27658.4
508.777	27993.08
509.145	28146.52
509.514	28177.48
509.882	28427.42
510.25	28616.79
510.618	28706.05
510.986	28950.57
511.354	29216.32
511.722	29433.94
512.09	29723.88
512.458	29678.23
512.826	30044.32
513.193	30142.85
513.561	30279.57
513.929	30530.86
514.297	30970.4
514.664	31168.81
515.032	31166.55
515.4	31598.18
515.767	31724.05
516.135	31905.07
516.502	31752.98
516.869	32448.33
517.237	32577.36
517.604	32480.87
517.972	32931.7
518.339	33290.34
518.706	33186.84
519.073	33562.87
519.44	33792.02
519.808	34010.77
520.175	34236.98
520.542	34641.04
520.909	34791.32
521.276	34862.5
521.643	35291.64
522.009	35397.85
522.376	35708.58
522.743	35910.38
523.11	36235.8
523.477	36730.93
523.843	36748.33
524.21	37325.71
524.577	37482.77
524.943	37674.86
525.31	37779.71
525.676	38280.49
526.043	38467.6
526.409	38645.68
526.776	39136.29
527.142	39155.04
527.508	39534.02
527.874	39879.32
528.241	39950.05
528.607	40105.53
528.973	40525.63
529.339	40542.8
529.705	40906.86
530.071	41439.05
530.437	41396.57
530.803	41852.6
531.169	41964.69
531.535	41946.16
531.901	42053.27
532.267	42328.29
532.632	42634.27
532.998	42798.11
533.364	43058.67
533.73	43170.98
534.095	43542.5
534.461	43665.43
534.826	43764.64
535.192	43998.98
535.557	44380.22
535.923	44294.12
536.288	44416.15
536.653	44798.74
537.019	44751.05
537.384	44958.73
537.749	45012.29
538.114	45049.8
538.479	45429
538.845	45599.17
539.21	45559.17
539.575	45779.28
539.94	45899.95
540.305	46192.6
540.67	46178.14
541.034	46448.19
541.399	46626.71
541.764	46578.58
542.129	46867.16
542.494	46856.08
542.858	47019.7
543.223	47173.14
543.587	47391.21
543.952	47421.95
544.316	47561.83
544.681	47617.87
545.045	47843.85
545.41	48023.96
545.774	48130.63
546.138	48153
546.503	48328.14
546.867	48304.18
547.231	48743.27
547.595	48773.55
547.959	48703.27
548.324	48902.58
548.688	49093.31
549.052	49178.06
549.416	49411.5
549.779	49398.16
550.143	49507.54
550.507	49761.77
550.871	49859.17
551.235	49932.84
551.599	50197.24
551.962	50278.14
552.326	50439.49
552.689	50572.14
553.053	50545.03
553.417	50634.06
553.78	51101.85
554.143	50882.87
554.507	51181.17
554.87	51251.22
555.234	51563.08
555.597	51420.94
555.96	51614.6
556.323	51749.97
556.686	51904.09
557.05	52084.87
557.413	52158.77
557.776	52269.28
558.139	52490.51
558.502	52478.76
558.865	52656.84
559.228	52834.91
559.59	52945.42
559.953	53029.26
560.316	53366.42
560.679	53348.12
561.041	53575
561.404	53636.02
561.767	53852.28
562.129	53776.13
562.492	54116.46
562.854	54083.01
563.217	54126.18
563.579	54288.21
563.941	54513.51
564.304	54665.14
564.666	54844.8
565.028	54875.76
565.39	54946.72
565.753	55167.96
566.115	55211.57
566.477	55303.55
566.839	55439.81
567.201	55583.76
567.563	55623.31
567.925	55743.76
568.287	55813.36
568.648	55858.11
569.01	56061.27
569.372	56204.54
569.734	56193.69
570.095	56366.12
570.457	56474.14
570.819	56523.17
571.18	56525.43
571.542	56695.15
571.903	56665.54
572.265	56828.7
572.626	56939.44
572.987	56904.63
573.349	57044.52
573.71	57115.93
574.071	57184.63
574.432	57206.09
574.794	57399.54
575.155	57365.64
575.516	57315.02
575.877	57547.33
576.238	57549.81
576.599	57639.08
576.96	57644.95
577.32	57702.35
577.681	57779.64
578.042	57878.62
578.403	57910.26
578.763	57957.04
579.124	57988
579.485	58056.92
579.845	58098.05
580.206	58012.63
580.566	58049.91
580.927	58065.96
581.287	58230.7
581.648	58038.62
582.008	58225.73
582.368	58217.59
582.728	58362.22
583.089	58179.18
583.449	58182.57
583.809	58302.34
584.169	58338.27
584.529	58291.94
584.889	58404.48
585.249	58237.48
585.609	58201.55
585.969	58418.04
586.329	58255.78
586.688	58342.79
587.048	58342.11
587.408	58297.59
587.768	58406.74
588.127	58246.07
588.487	58384.82
588.846	58521.54
589.206	58271.83
589.565	58340.75
589.925	58486.06
590.284	58417.14
590.643	58443.8
591.003	58497.13
591.362	58524.93
591.721	58439.96
592.08	58455.55
592.44	58543.69
592.799	58563.12
593.158	58523.8
593.517	58477.7
593.876	58550.47
594.235	58494.2
594.593	58509.11
594.952	58611.93
595.311	58491.48
595.67	58556.12
596.029	58747.75
596.387	58706.39
596.746	58747.52
597.104	58606.96
597.463	58679.95
597.822	58782.1
598.18	58703
598.538	58687.86
598.897	58808.76
599.255	58588.66
599.613	58957.91
599.972	58787.75
600.33	58812.38
600.688	58815.54
601.046	58942.77
601.404	58966.27
601.762	58923.79
602.12	58995.43
602.478	59028.42
602.836	59093.73
603.194	58937.35
603.552	59046.72
603.91	58894.64
604.268	59067.29
604.625	59118.81
604.983	59148.64
605.341	59032.04
605.698	59169.43
606.056	59177.12
606.413	59130.11
606.771	59272.71
607.128	59300.28
607.485	59142.31
607.843	59206.49
608.2	59329.65
608.557	59411.46
608.914	59289.88
609.272	59457.79
609.629	59423.89
609.986	59493.49
610.343	59422.53
610.7	59545.69
611.057	59544.56
611.414	59562.64
611.771	59612.81
612.127	59670.21
612.484	59649.87
612.841	59696.2
613.198	59631.12
613.554	59674.05
613.911	59919.02
614.267	59763.09
614.624	59752.47
614.98	59834.73
615.337	59963.76
615.693	59932.8
616.05	59829.08
616.406	59986.59
616.762	59839.25
617.118	59949.07
617.475	59925.12
617.831	59944.55
618.187	59969.64
618.543	59992.01
618.899	60070.43
619.255	60070.43
619.611	60064.32
619.967	60070.88
620.323	60144.55
620.678	60063.87
621.034	60062.06
621.39	60086.47
621.746	60072.69
622.101	60354.26
622.457	60116.75
622.812	60150.65
623.168	60179.8
623.523	60138.22
623.879	60278.56
624.234	60113.14
624.589	60219.12
624.945	60220.25
625.3	60225.9
625.655	60182.97
626.01	60251.44
626.365	60208.28
626.72	60215.73
627.075	60196.52
627.43	60168.5
627.785	60097.09
628.14	60083.08
628.495	60141.84
628.85	60122.63
629.205	60008.28
629.559	60134.83
629.914	60046.25
630.269	60040.6
630.623	59990.2
630.978	59914.95
631.332	60068.84
631.687	60079.01
632.041	59945.46
632.396	59943.42
632.75	59879.7
633.104	59931.9
633.459	59802.86
633.813	59789.3
634.167	59787.95
634.521	59753.82
634.875	59855.06
635.229	59763.54
635.583	59623.66
635.937	59667.72
636.291	59558.35
636.645	59571.68
636.999	59595.64
637.352	59625.92
637.706	59422.76
638.06	59505.24
638.413	59522.19
638.767	59428.86
639.121	59455.53
639.474	59268.87
639.828	59242.65
640.181	59297.34
640.534	59370.33
640.888	59238.81
641.241	59177.34
641.594	59197.68
641.947	59226.83
642.301	59082.2
642.654	59141.86
643.007	59122.65
643.36	59078.81
643.713	59042.43
644.066	59155.2
644.419	58964.47
644.771	58770.8
645.124	58590.47
645.477	58477.47
645.83	58343.47
646.182	58206.29
646.535	58104.15
646.888	58247.65
647.24	58102.34
647.593	58232.28
647.945	58146.41
648.298	57976.7
648.65	57997.03
649.002	57906.64
649.355	57993.64
649.707	57951.84
650.059	58070.7
650.411	58315.67
650.763	58395.22
651.115	58661.42
651.467	58459.17
651.819	58455.55
652.171	58323.58
652.523	58380.08
652.875	58324.71
653.227	58199.06
653.578	58360.87
653.93	58225.5
654.282	58174.88
654.633	58078.61
654.985	58135.56
655.337	58179.63
655.688	58126.07
656.039	58214.2
656.391	58015.11
656.742	58041.78
657.094	58006.53
657.445	58172.62
657.796	58069.12
658.147	58093.3
658.498	57985.51
658.849	58041.1
659.2	57921.1
659.551	57944.15
659.902	58072.96
660.253	57937.15
660.604	57960.43
660.955	57884.04
661.306	58013.76
661.656	57836.59
662.007	57885.85
662.358	57822.58
662.708	57841.33
663.059	57906.64
663.409	57612.64
663.76	57750.04
664.11	57816.93
664.461	57798.62
664.811	57787.32
665.161	57813.99
665.511	57682.92
665.862	57808.79
666.212	57802.01
666.562	57792.52
666.912	57722.92
667.262	57694.22
667.612	57695.57
667.962	57743.48
668.312	57694.9
668.662	57775.8
669.011	57727.66
669.361	57607.67
669.711	57618.06
670.06	57637.5
670.41	57526.54
670.76	57489.25
671.109	57550.94
671.459	57543.94
671.808	57487.67
672.157	57621.45
672.507	57374.68
672.856	57389.14
673.205	57434.11
673.554	57491.28
673.904	57324.96
674.253	57545.97
674.602	57410.61
674.951	56987.34
675.3	56937.18
675.649	57350.27
675.998	57280.22
676.346	57286.54
676.695	57331.97
677.044	57108.7
677.393	57227.56
677.741	57310.95
678.09	57283.38
678.438	57106.89
678.787	57169.03
679.135	57184.85
679.484	57034.35
679.832	57141.69
680.181	57007.68
680.529	57085.65
680.877	56897.4
681.225	56886.33
681.573	57030.96
681.922	56857.63
682.27	56774.47
682.618	56826.22
682.966	56695.6
683.314	56708.03
683.661	56615.15
684.009	56475.04
684.357	56418.32
684.705	56432.78
685.053	56496.96
685.4	56420.13
685.748	56257.87
686.095	56278.89
686.443	56146.91
686.79	56076.41
687.138	56104.65
687.485	56137.2
687.832	56039.8
688.18	56125.45
688.527	55883.64
688.874	55881.38
689.221	55712.57
689.568	55659.24
689.915	55651.79
690.262	55560.26
690.609	55604.78
690.956	55435.52
691.303	55460.83
691.65	55281.4
691.997	55207.28
692.344	55131.12
692.69	55119.37
693.037	55173.38
693.383	54866.95
693.73	54979.26
694.077	54820.62
694.423	54802.54
694.769	54637.12
695.116	54589.67
695.462	54638.25
695.808	54514.87
696.155	54559.61
696.501	54342.44
696.847	54352.84
697.193	54182.45
697.539	54147.87
697.885	53967.99
698.231	53964.15
698.577	53897.26
698.923	53895.22
699.269	53739.07
699.614	53480.77
699.96	53510.82
700.306	53570.48
700.651	53433.31
700.997	53301.11
701.342	53279.19
701.688	53222.92
702.033	53064.73
702.379	53042.36
702.724	52882.37
703.069	53041.23
703.415	52638.08
703.76	52634.46
704.105	52671.07
704.45	52530.51
704.795	52303.62
705.14	52308.14
705.485	52260.24
705.83	52171.88
706.175	52214.59
706.52	52174.59
706.865	51996.51
707.209	52002.62
707.554	51885.1
707.899	51847.37
708.243	51762.4
708.588	51639.01
708.932	51460.26
709.277	51442.18
709.621	51431.11
709.966	51332.12
710.31	51297.55
710.654	51014.39
710.998	51158.8
711.342	51093.26
711.687	50860.27
712.031	50786.15
712.375	50637.45
712.719	50604.01
713.063	50580.51
713.407	50706.38
713.75	50475.2
714.094	50525.59
714.438	50364.92
714.782	50412.38
715.125	50197.01
715.469	50297.12
715.812	50041.99
716.156	49844.93
716.499	49778.95
716.843	49887.42
717.186	49573.08
717.53	49844.48
717.873	49812.16
718.216	49583.47
718.559	49596.35
718.902	49341.67
719.246	49484.49
719.589	49347.77
719.932	49242.01
720.275	49210.6
720.617	49138.74
720.96	49054.44
721.303	48929.93
721.646	48953.2
721.989	48770.61
722.331	48957.5
722.674	48739.65
723.016	48803.83
723.359	48671.63
723.701	48643.83
724.044	48343.95
724.386	48156.62
724.729	48264.86
725.071	48241.58
725.413	48162.26
725.755	48099.67
726.097	47917.53
726.439	47679.79
726.782	47828.94
727.124	47907.13
727.465	47684.09
727.807	47621.49
728.149	47487.48
728.491	47453.36
728.833	47550.98
729.175	47485.22
729.516	47357.54
729.858	47244.1
730.199	47307.6
730.541	47174.72
730.882	47086.59
731.224	47218.79
731.565	46858.8
731.906	47020.6
732.248	46973.6
732.589	46762.08
732.93	46639.59
733.271	46663.1
733.612	46683.21
733.953	46647.73
734.294	46355.53
734.635	46407.06
734.976	46511.69
735.317	46270.56
735.658	46230.11
735.999	46260.85
736.339	46174.75
736.68	46179.27
737.021	45948.76
737.361	45810.91
737.702	46082.55
738.042	45872.61
738.383	45745.15
738.723	45819.73
739.063	45637.36
739.404	45664.93
739.744	45553.07
740.084	45373.86
740.424	45431.26
740.764	45368.44
741.104	45452.73
741.444	45041.67
741.784	45200.53
742.124	45067.88
742.464	45012.29
742.804	45021.33
743.143	44842.13
743.483	45031.73
743.823	44631.28
744.162	44686.65
744.502	44653.2
744.841	44416.6
745.181	44610.04
745.52	44290.73
745.86	44436.26
746.199	44249.15
746.538	44209.83
746.877	44327.34
747.216	44124.18
747.556	43957.4
747.895	43933
748.234	43837.41
748.573	43767.35
748.911	43630.18
749.25	43742.95
749.589	43429.73
749.928	43438.55
750.267	43485.78
750.605	43360.13
750.944	43147.48
751.283	43034.04
751.621	43155.62
751.96	43007.15
752.298	42904.78
752.636	42959.24
752.975	42836.08
753.313	42656.87
753.651	42781.62
753.989	42514.28
754.327	42326.71
754.666	42296.66
755.004	42391.12
755.342	42423.21
755.679	42234.28
756.017	41969.89
756.355	41968.3
756.693	41835.43
757.031	41820.51
757.368	41578.26
757.706	41475.21
758.044	41443.12
758.381	41484.7
758.719	41277.02
759.056	41241.32
759.394	41144.14
759.731	40863.7
760.068	40773.53
760.405	40697.15
760.743	40438.63
761.08	40595.68
761.417	40332.19
761.754	40276.37
762.091	40228.24
762.428	40136.26
762.765	39933.33
763.102	40111.63
763.438	39771.3
763.775	39487.69
764.112	39357.07
764.449	39451.53
764.785	39200.01
765.122	38919.8
765.458	38950.98
765.795	38910.76
766.131	38755.05
766.467	38717.54
766.804	38366.82
767.14	38271.9
767.476	38382.86
767.812	37981.97
768.148	38051.8
768.485	37816.32
768.821	37659.04
769.157	37667.4
769.492	37444.13
769.828	37562.77
770.164	37261.08
770.5	37092.5
770.836	37243.68
771.171	36875.56
771.507	36789.46
771.842	36393.08
772.178	36530.03
772.513	36384.04
772.849	36441.44
773.184	36261.79
773.519	36245.74
773.855	35938.86
774.19	35889.59
774.525	35645.76
774.86	35628.36
775.195	35448.93
775.53	35353.34
775.865	35151.08
776.2	34982.5
776.535	34768.72
776.87	34718.1
777.205	34626.12
777.539	34528.5
777.874	34559.68
778.209	34209.86
778.543	34164.67
778.878	34044.67
779.212	33978.46
779.547	33919.48
779.881	33881.74
780.215	33663.89
780.55	33647.84
780.884	33418.47
781.218	33389.09
781.552	33270
781.886	33004.7
782.22	32893.29
782.554	32789.34
782.888	32595.44
783.222	32386.18
783.556	32334.66
783.889	32351.16
784.223	32064.83
784.557	31993.65
784.89	31881.11
785.224	31815.12
785.557	31557.28
785.891	31709.14
786.224	31467.56
786.558	31486.32
786.891	31126.78
787.224	31054.92
787.557	30887.46
787.891	30909.61
788.224	30821.93
788.557	30936.28
788.89	30708.94
789.223	30675.27
789.556	30500.13
789.888	30270.31
790.221	30206.58
790.554	29957.77
790.887	30000.71
791.219	29828.28
791.552	29741.28
791.884	29741.96
792.217	29613.83
792.549	29480.72
792.882	29370.44
793.214	29117.79
793.546	29175.42
793.879	28901.08
794.211	28738.59
794.543	28888.42
794.875	28727.52
795.207	28766.62
795.539	28550.13
795.871	28656.11
796.203	28423.35
796.535	28211.15
796.867	28114.2
797.198	28187.2
797.53	28021.55
797.862	27892.74
798.193	27811.61
798.525	27657.27
798.856	27737.72
799.188	27357.39
799.519	27304.51
799.85	27279.2
800.182	27293.43
800.513	27243.94
800.844	27000.34
801.175	27184.74
801.506	27006.89
801.837	26819.32
802.168	26757.4
802.499	26846.44
802.83	26526.68
803.161	26598.31
803.491	26534.81
803.822	26417.53
804.153	26330.75
804.483	26015.5
804.814	25927.37
805.145	26027.93
805.475	25995.39
805.805	26035.16
806.136	25888.27
806.466	25773.47
806.796	25830.2
807.126	25595.63
807.457	25400.38
807.787	25391.11
808.117	25428.17
808.447	25215.52
808.777	25253.94
809.107	25184.79
809.436	25129.2
809.766	25098.69
810.096	24989.99
810.426	24889.88
810.755	24874.74
811.085	24702.99
811.414	24612.38
811.744	24473.17
812.073	24491.47
812.403	24565.82
812.732	24304.36
813.061	24376.22
813.39	24219.62
813.719	24140.07
814.049	24271.82
814.378	24078.38
814.707	23950.92
815.036	23929.23
815.365	23904.82
815.693	23594.55
816.022	23687.88
816.351	23564.95
816.68	23489.24
817.008	23553.65
817.337	23440.43
817.665	23254.9
817.994	23405.4
818.322	23296.25
818.651	23186.42
818.979	23091.74
819.307	23192.3
819.636	23129.02
819.964	22896.04
820.292	23073.88
820.62	22918.86
820.948	22896.04
821.276	23031.4
821.604	22956.15
821.932	22905.98
822.259	22956.37
822.587	22881.35
822.915	22725.19
823.243	22966.77
823.57	22828.02
823.898	22787.34
824.225	22704.18
824.553	22821.01
824.88	22754.57
825.207	22863.27
825.535	22705.98
825.862	22898.75
826.189	22805.42
826.516	22931.97
826.843	22843.38
827.17	22903.49
827.497	22788.69
827.824	22840.22
828.151	22889.93
828.478	22780.56
828.805	22736.94
829.131	22691.97
829.458	22630.51
829.785	22610.85
830.111	22678.41
830.438	22765.64
830.764	22704.63
831.09	22722.93
831.417	22605.2
831.743	22635.25
832.069	22604.07
832.395	22559.1
832.722	22574.69
833.048	22528.36
833.374	22559.1
833.7	22378.76
834.026	22562.03
834.351	22539.66
834.677	22407.24
835.003	22473.22
835.329	22483.62
835.654	22426.22
835.98	22212.21
836.306	22342.15
836.631	22230.52
836.956	22260.35
837.282	22343.06
837.607	22277.52
837.932	22076.17
838.258	22228.03
838.583	22161.37
838.908	21938.32
839.233	21947.59
839.558	21986
839.883	21775.39
840.208	21669.4
840.533	21842.28
840.858	21789.62
841.182	21833.92
841.507	21701.27
841.832	21638.89
842.156	21655.39
842.481	21581.04
842.805	21551.66
843.13	21475.51
843.454	21368.62
843.778	21241.16
844.103	21249.98
844.427	21182.41
844.751	21214.05
845.075	21174.95
845.399	21152.35
845.723	20962.75
846.047	21053.15
846.371	20876.65
846.695	20742.65
847.019	20597.79
847.343	20546.72
847.666	20465.14
847.99	20394.86
848.313	20273.51
848.637	20218.82
848.96	20276.9
849.284	20161.87
849.607	19883.46
849.931	19889.79
850.254	19798.94
850.577	19739.28
850.9	19631.72
851.223	19599.63
851.546	19415.22
851.869	19314.89
852.192	19471.27
852.515	19231.95
852.838	19168
853.161	19131.16
853.483	19066.31
853.806	19050.04
854.129	19003.26
854.451	18833.09
854.774	18833.09
855.096	18780.21
855.419	18648.46
855.741	18675.36
856.063	18533.89
856.385	18537.05
856.708	18438.53
857.03	18383.16
857.352	18281.24
857.674	18186.78
857.996	18110.85
858.318	18105.88
858.64	18137.07
858.961	18061.59
859.283	17929.16
859.605	17829.5
859.926	17982.49
860.248	17845.32
860.57	17764.87
860.891	17737.53
861.212	17726.23
861.534	17641.71
861.855	17502.51
862.176	17558.78
862.498	17574.59
862.819	17606.01
863.14	17526.01
863.461	17420.02
863.782	17469.06
864.103	17462.51
864.424	17320.82
864.745	17336.18
865.065	17279.01
865.386	17176.64
865.707	17253.92
866.027	17266.13
866.348	17238.56
866.668	17168.73
866.989	17094.83
867.309	16980.26
867.63	17020.71
867.95	17058.68
868.27	16852.81
868.59	16902.07
868.91	16871.11
869.23	16902.97
869.55	16905.69
869.87	16925.35
870.19	16729.87
870.51	16762.64
870.83	16751.34
871.15	16568.97
871.469	16612.81
871.789	16525.36
872.109	16525.36
872.428	16465.7
872.748	16543.89
873.067	16454.62
873.386	16421.4
873.706	16505.24
874.025	16382.08
874.344	16347.51
874.663	16460.5
874.982	16342.76
875.301	16443.1
875.62	16193.84
875.939	16178.25
876.258	16234.74
876.577	16176.44
876.896	16167.4
877.214	16172.37
877.533	16135.99
877.852	16095.99
878.17	16105.03
878.489	16176.21
878.807	15980.74
879.125	15956.11
879.444	15953.85
879.762	15861.42
880.08	15971.92
880.398	15827.97
880.716	15886.05
881.034	15812.83
881.352	15922.66
881.67	15681.08
881.988	15692.38
882.306	15741.42
882.624	15653.51
882.941	15662.1
883.259	15586.62
883.577	15415.56
883.894	15434.76
884.212	15352.96
884.529	15374.43
884.846	15370.13
885.164	15219.63
885.481	15232.28
885.798	15184.83
886.115	15126.75
886.432	15118.84
886.75	15039.29
887.067	15101.67
887.383	15051.72
887.7	15026.86
888.017	14904.61
888.334	14983.93
888.651	14880.88
888.967	14951.84
889.284	14832.29
889.6	14768.57
889.917	14727.44
890.233	14683.37
890.55	14669.81
890.866	14665.07
891.182	14563.37
891.498	14485.18
891.815	14441.34
892.131	14333.78
892.447	14325.41
892.763	14350.5
893.079	14278.41
893.395	14372.64
893.71	14265.08
894.026	14217.39
894.342	14213.78
894.657	14092.65
894.973	13947.8
895.289	14025.08
895.604	14017.4
895.92	13818.76
896.235	13745.09
896.55	13799.33
896.865	13712.1
897.181	13678.65
897.496	13797.97
897.811	13666.22
898.126	13567.47
898.441	13483.85
898.756	13481.82
899.071	13438.88
899.386	13440.01
899.7	13287.93
900.015	13294.48
900.33	13188.72
900.644	13225.56
900.959	13185.33
901.273	13096.07
901.588	13035.5
901.902	12947.37
902.216	12850.65
902.531	12832.12
902.845	12816.3
903.159	12730.88
903.473	12728.62
903.787	12674.61
904.101	12528.17
904.415	12545.8
904.729	12554.61
905.042	12531.79
905.356	12464.45
905.67	12378.12
905.984	12403.2
906.297	12334.28
906.611	12247.95
906.924	12229.65
907.237	12201.4
907.551	12222.19
907.864	12119.82
908.177	12044.12
908.491	11986.04
908.804	11985.59
909.117	11888.64
909.43	11831.24
909.743	11786.95
910.056	11684.35
910.368	11747.18
910.681	11661.53
910.994	11595.09
911.307	11505.15
911.619	11440.52
911.932	11508.09
912.244	11413.63
912.557	11455.43
912.869	11298.6
913.181	11236.46
913.494	11217.93
913.806	11151.49
914.118	11072.39
914.43	11054.31
914.742	11109.45
915.054	11005.5
915.366	10964.15
915.678	10923.24
915.99	10914.2
916.302	10772.06
916.613	10755.34
916.925	10778.61
917.236	10694.55
917.548	10623.36
917.859	10590.37
918.171	10551.95
918.482	10426.53
918.794	10450.26
919.105	10420.43
919.416	10309.93
919.727	10376.14
920.038	10235.35
920.349	10130.72
920.66	10167.33
920.971	10161.23
921.282	10119.65
921.593	10057.73
921.903	9901.8
922.214	9909.71
922.525	9921.24
922.835	9842.14
923.146	9795.14
923.456	9801.24
923.767	9782.93
924.077	9708.13
924.387	9672.66
924.697	9561.7
925.008	9540.91
925.318	9516.95
925.628	9495.94
925.938	9512.21
926.248	9356.73
926.558	9273.12
926.867	9295.04
927.177	9243.97
927.487	9247.81
927.796	9215.27
928.106	9154.02
928.416	9143.18
928.725	9099.56
929.034	9048.72
929.344	9043.97
929.653	8904.31
929.962	8896.86
930.271	8871.09
930.581	8775.05
930.89	8776.63
931.199	8736.86
931.508	8694.38
931.817	8729.4
932.125	8595.4
932.434	8637.43
932.743	8559.69
933.051	8497.32
933.36	8552.23
933.669	8437.21
933.977	8419.13
934.286	8390.43
934.594	8359.02
934.902	8225.46
935.21	8228.85
935.519	8220.49
935.827	8148.18
936.135	8204.45
936.443	8057.33
936.751	8102.53
937.059	7966.26
937.367	7977.33
937.674	8018.91
937.982	7923.1
938.29	7908.86
938.597	7954.06
938.905	7770.33
939.213	7853.49
939.52	7785.93
939.827	7818.24
940.135	7733.95
940.442	7632.93
940.749	7646.49
941.056	7613.95
941.363	7509.55
941.67	7552.26
941.977	7581.18
942.284	7424.35
942.591	7425.93
942.898	7352.72
943.205	7360.4
943.511	7318.37
943.818	7266.39
944.125	7242.89
944.431	7151.59
944.738	7178.94
945.044	7196.11
945.35	7164.92
945.657	7110.01
945.963	7036.11
946.269	7073.85
946.575	7046.28
946.881	6961.99
947.187	6985.04
947.493	6885.84
947.799	6891.94
948.105	6825.27
948.41	6765.84
948.716	6725.16
949.022	6765.39
949.327	6693.52
949.633	6640.64
949.938	6633.87
950.244	6651.72
950.549	6597.48
950.854	6573.53
951.16	6503.93
951.465	6513.64
951.77	6482
952.075	6424.15
952.38	6410.14
952.685	6416.7
952.99	6343.25
953.294	6313.2
953.599	6260.32
953.904	6300.31
954.209	6221.9
954.513	6215.57
954.818	6209.02
955.122	6134.9
955.426	6130.6
955.731	6091.51
956.035	6073.2
956.339	6044.28
956.643	6054.22
956.948	5989.81
957.252	5999.76
957.556	5964.96
957.86	5872.53
958.163	5932.87
958.467	5847.45
958.771	5873.66
959.075	5830.95
959.378	5776.03
959.682	5820.1
959.985	5749.82
960.289	5735.58
960.592	5617.17
960.896	5626.21
961.199	5618.07
961.502	5593.21
961.805	5573.1
962.108	5552.99
962.411	5515.48
962.714	5481.35
963.017	5489.71
963.32	5497.62
963.623	5427.12
963.926	5385.99
964.228	5386.44
964.531	5344.41
964.833	5368.59
965.136	5283.17
965.438	5324.97
965.741	5340.34
966.043	5285.88
966.345	5292.88
966.648	5208.82
966.95	5213.79
967.252	5129.5
967.554	5132.89
967.856	5073.45
968.158	5070.29
968.46	5125.2
968.761	5040.91
969.063	5024.64
969.365	4999.78
969.666	4940.58
969.968	4929.5
970.269	4918.88
970.571	4908.26
970.872	4849.28
971.174	4834.36
971.475	4815.61
971.776	4839.56
972.077	4760.69
972.378	4727.47
972.679	4749.39
972.98	4647.7
973.281	4692
973.582	4691.77
973.883	4649.28
974.183	4653.58
974.484	4637.08
974.785	4608.38
975.085	4603.41
975.386	4550.08
975.686	4563.19
975.986	4511.44
976.287	4506.24
976.587	4519.12
976.887	4419.01
977.187	4431.89
977.487	4397.54
977.787	4360.7
978.087	4390.08
978.387	4346.92
978.687	4338.56
978.987	4265.34
979.286	4266.92
979.586	4254.94
979.885	4230.76
980.185	4191.44
980.484	4196.42
980.784	4230.54
981.083	4190.77
981.382	4153.03
981.682	4153.25
981.981	4119.58
982.28	4108.51
982.579	4047.72
982.878	4086.36
983.177	4076.64
983.475	4013.82
983.774	4006.59
984.073	3954.84
984.372	3939.92
984.67	3941.05
984.969	3951.68
985.267	3911.45
985.566	3877.55
985.864	3869.87
986.162	3866.25
986.461	3838.46
986.759	3845.92
987.057	3776.09
987.355	3786.93
987.653	3766.14
987.951	3780.38
988.249	3781.74
988.547	3709.2
988.844	3705.58
989.142	3677.11
989.44	3652.7
989.737	3618.8
990.035	3599.14
990.332	3639.14
990.63	3599.37
990.927	3590.78
991.224	3587.84
991.521	3547.62
991.819	3505.13
992.116	3486.83
992.413	3468.98
992.71	3469.43
993.006	3494.06
993.303	3426.94
993.6	3442.99
993.897	3388.07
994.193	3414.51
994.49	3377.45
994.787	3334.06
995.083	3306.72
995.379	3298.36
995.676	3294.74
995.972	3309.88
996.268	3271.47
996.565	3261.3
996.861	3213.16
997.157	3224.46
997.453	3151.02
997.749	3191.7
998.044	3161.41
998.34	3122.09
998.636	3110.79
998.932	3092.94
999.227	3075.77
999.523	3048.65
999.818	3025.15
1000.114	3028.99
1000.409	3017.24
1000.704	3006.39
1001	2986.28
1001.295	2942.21
1001.59	2943.57
1001.885	2967.75
1002.18	2910.8
1002.475	2911.7
1002.77	2889.33
1003.065	2874.19
1003.359	2855.21
1003.654	2877.35
1003.949	2815.43
1004.243	2824.25
1004.538	2796.23
1004.832	2780.18
1005.127	2767.07
1005.421	2729.34
1005.715	2714.87
1006.009	2723.91
1006.304	2677.13
1006.598	2645.27
1006.892	2683.23
1007.186	2680.97
1007.48	2631.26
1007.773	2604.37
1008.067	2586.74
1008.361	2559.62
1008.655	2543.13
1008.948	2570.24
1009.242	2522.33
1009.535	2514.88
1009.829	2507.19
1010.122	2514.2
1010.415	2490.47
1010.708	2447.31
1011.001	2457.25
1011.295	2412.73
1011.588	2448.21
1011.881	2409.12
1012.173	2376.35
1012.466	2417.03
1012.759	2383.13
1013.052	2359.85
1013.344	2326.86
1013.637	2336.13
1013.93	2271.27
1014.222	2242.57
1014.514	2274.66
1014.807	2252.06
1015.099	2263.36
1015.391	2232.62
1015.683	2243.92
1015.976	2188.33
1016.268	2205.51
1016.56	2175.9
1016.851	2150.14
1017.143	2179.74
1017.435	2128.9
1017.727	2120.31
1018.018	2105.85
1018.31	2060.88
1018.602	2072.18
1018.893	2068.79
1019.185	2050.93
1019.476	2022.46
1019.767	2036.92
1020.058	2000.54
1020.35	1964.38
1020.641	1976.81
1020.932	1979.3
1021.223	1975
1021.514	1922.35
1021.804	1904.27
1022.095	1892.97
1022.386	1889.81
1022.677	1865.4
1022.967	1836.7
1023.258	1873.31
1023.548	1836.48
1023.839	1836.48
1024.129	1807.55
1024.419	1816.36
1024.709	1777.04
1025	1796.93
1025.29	1776.37
1025.58	1752.41
1025.87	1754.67
1026.16	1716.93
1026.449	1739.08
1026.739	1716.93
1027.029	1698.18
1027.319	1669.25
1027.608	1667.67
1027.898	1648.23
1028.187	1660.21
1028.477	1636.93
1028.766	1609.59
1029.055	1576.6
1029.344	1599.42
1029.634	1596.71
1029.923	1560.78
1030.212	1571.4
1030.501	1565.07
1030.79	1548.8
1031.078	1551.06
1031.367	1508.12
1031.656	1496.83
1031.945	1476.94
1032.233	1472.42
1032.522	1483.27
1032.81	1468.35
1033.099	1457.96
1033.387	1441.69
1033.675	1436.26
1033.963	1423.83
1034.251	1395.13
1034.54	1397.17
1034.828	1404.85
1035.116	1395.13
1035.403	1358.3
1035.691	1387.68
1035.979	1361.69
1036.267	1333.44
1036.554	1327.56
1036.842	1313.1
1037.129	1319.2
1037.417	1313.1
1037.704	1304.06
1037.992	1312.65
1038.279	1288.69
1038.566	1282.37
1038.853	1282.37
1039.14	1282.37
