Data from plate_ceramic_FLMS001491_029.txt Node
Date: Tue Feb 07 11:16:32 GMT 2017
User: dcchb
Spectrometer: FLMS00149
Trigger mode: 0
Integration Time (sec): 2.000000E-2
Scans to average: 10
Electric dark correction enabled: true
Nonlinearity correction enabled: false
Boxcar width: 0
XAxis mode: Wavelengths
Number of Pixels in Spectrum: 2048
>>>>>Begin Spectral Data<<<<<
341.393	-14.8
341.776	-14.8
342.16	-14.8
342.543	-65.42
342.927	-77.63
343.31	-61.81
343.693	-63.39
344.077	-65.65
344.46	-49.38
344.843	-48.47
345.226	-31.07
345.61	-24.07
345.993	-23.16
346.376	-18.42
346.759	10.96
347.142	10.96
347.525	29.72
347.908	64.29
348.291	73.33
348.674	83.27
349.057	112.88
349.44	148.58
349.823	137.28
350.206	149.26
350.588	209.15
350.971	199.43
351.354	232.65
351.737	243.95
352.119	262.48
352.502	279.65
352.884	289.6
353.267	296.15
353.65	289.14
354.032	319.2
354.414	330.5
354.797	309.26
355.179	337.96
355.562	345.64
355.944	345.19
356.326	320.1
356.709	342.7
357.091	361.01
357.473	360.1
357.855	354.68
358.238	349.71
358.62	350.61
359.002	351.29
359.384	360.56
359.766	352.87
360.148	355.81
360.53	362.36
360.912	368.01
361.294	351.29
361.676	358.3
362.057	330.5
362.439	368.24
362.821	363.04
363.203	364.17
363.584	340.67
363.966	342.93
364.348	329.82
364.729	328.47
365.111	333.89
365.493	342.25
365.874	330.27
366.256	355.58
366.637	327.34
367.019	335.47
367.4	318.97
367.781	335.92
368.163	334.57
368.544	330.05
368.925	331.86
369.306	374.57
369.688	338.18
370.069	336.38
370.45	340.89
370.831	359.65
371.212	343.83
371.593	338.41
371.974	352.65
372.355	351.97
372.736	356.26
373.117	362.59
373.498	349.03
373.879	355.58
374.26	332.76
374.641	346.77
375.021	349.03
375.402	357.39
375.783	360.78
376.163	353.1
376.544	378.41
376.925	354.23
377.305	367.11
377.686	352.87
378.066	359.43
378.447	363.95
378.827	367.33
379.208	388.58
379.588	398.07
379.968	397.16
380.349	393.55
380.729	372.53
381.109	393.55
381.489	399.2
381.87	403.04
382.25	398.97
382.63	410.95
383.01	393.32
383.39	411.63
383.77	395.36
384.15	390.61
384.53	395.13
384.91	429.71
385.29	422.47
385.67	432.19
386.049	421.12
386.429	437.84
386.809	449.37
387.189	443.49
387.568	434.68
387.948	441.01
388.328	452.53
388.707	438.52
389.087	453.21
389.466	450.27
389.846	475.81
390.225	449.59
390.605	468.35
390.984	472.42
391.363	474.9
391.743	458.41
392.122	461.8
392.501	476.03
392.881	502.47
393.26	495.47
393.639	486.65
394.018	481
394.397	509.48
394.776	512.64
395.155	507.22
395.534	532.75
395.913	530.27
396.292	532.75
396.671	517.16
397.05	546.31
397.429	528.91
397.808	533.88
398.186	572.53
398.565	554.67
398.944	541.57
399.323	558.52
399.701	555.13
400.08	569.14
400.458	573.43
400.837	577.95
401.215	576.14
401.594	582.47
401.972	588.8
402.351	619.08
402.729	589.48
403.107	618.18
403.486	622.47
403.864	610.49
404.242	639.19
404.62	624.5
404.999	649.81
405.377	627.22
405.755	657.95
406.133	684.84
406.511	680.77
406.889	682.58
407.267	710.6
407.645	680.77
408.023	691.62
408.401	683.03
408.779	736.36
409.156	694.56
409.534	726.2
409.912	735.01
410.29	768.45
410.667	749.02
411.045	741.56
411.422	761.22
411.8	795.8
412.178	786.76
412.555	808
412.933	814.78
413.31	817.72
413.687	812.52
414.065	845.74
414.442	831.96
414.819	859.98
415.197	845.51
415.574	885.06
415.951	882.8
416.328	879.19
416.705	881.9
417.082	891.84
417.46	923.25
417.837	930.94
418.214	916.25
418.591	939.52
418.967	940.88
419.344	946.3
419.721	965.96
420.098	942.24
420.475	966.42
420.852	991.95
421.228	980.43
421.605	1021.78
421.982	999.41
422.358	1033.53
422.735	1052.06
423.111	1020.65
423.488	1075.11
423.864	1082.8
424.241	1084.15
424.617	1093.19
424.994	1071.27
425.37	1090.25
425.746	1085.96
426.123	1123.02
426.499	1152.63
426.875	1145.39
427.251	1155.79
427.627	1186.75
428.003	1171.83
428.379	1206.41
428.756	1188.56
429.132	1210.7
429.507	1227.88
429.883	1278.5
430.259	1283.47
430.635	1285.28
431.011	1300.87
431.387	1311.72
431.763	1320.76
432.138	1383.58
432.514	1392.84
432.89	1385.84
433.265	1408.66
433.641	1429.45
434.016	1445.5
434.392	1458.38
434.767	1501.54
435.143	1492.73
435.518	1520.3
435.894	1529.79
436.269	1545.16
436.644	1557.59
437.02	1571.15
437.395	1608.66
437.77	1591.71
438.145	1644.82
438.52	1638.94
438.895	1659.73
439.271	1707.86
439.646	1711.93
440.021	1681.65
440.395	1708.99
440.77	1716.45
441.145	1732.04
441.52	1744.93
441.895	1755.55
442.27	1788.99
442.645	1786.28
443.019	1780.63
443.394	1815.88
443.769	1819.73
444.143	1840.29
444.518	1862.21
444.892	1837.13
445.267	1831.25
445.641	1871.02
446.016	1911.25
446.39	1900.18
446.764	1900.63
447.139	1889.55
447.513	1951.02
447.887	1931.59
448.262	1977.24
448.636	1961.87
449.01	1995.54
449.384	2012.94
449.758	1994.41
450.132	2052.71
450.506	2059.72
450.88	2072.6
451.254	2101.07
451.628	2106.95
452.002	2134.29
452.376	2159.6
452.75	2131.36
453.123	2183.78
453.497	2221.52
453.871	2249.77
454.244	2297.45
454.618	2328.87
454.992	2343.33
455.365	2363.89
455.739	2385.36
456.112	2411.12
456.486	2462.87
456.859	2457.45
457.232	2511.46
457.606	2480.95
457.979	2507.17
458.352	2585.13
458.725	2636.65
459.099	2647.28
459.472	2688.86
459.845	2699.48
460.218	2755.07
460.591	2767.72
460.964	2781.51
461.337	2859.47
461.71	2922.07
462.083	2922.97
462.456	2957.55
462.829	2986.02
463.201	3005.68
463.574	3024.21
463.947	3076.19
464.32	3132.23
464.692	3163.87
465.065	3174.49
465.438	3230.76
465.81	3272.34
466.183	3316.64
466.555	3380.82
466.928	3401.38
467.3	3377.65
467.672	3454.71
468.045	3568.83
468.417	3579.45
468.789	3593.46
469.161	3600.7
469.534	3713.01
469.906	3786.91
470.278	3791.65
470.65	3844.53
471.022	3914.81
471.394	3951.65
471.766	4036.84
472.138	4086.11
472.51	4124.75
472.882	4207.91
473.253	4267.35
473.625	4305.08
473.997	4405.42
474.369	4463.95
474.74	4470.5
475.112	4560.22
475.484	4691.06
475.855	4744.17
476.227	4797.05
476.598	4946.65
476.97	4932.86
477.341	5009.02
477.713	5136.02
478.084	5116.81
478.455	5292.86
478.827	5393.42
479.198	5534.43
479.569	5499.18
479.94	5687.42
480.311	5702.56
480.682	5831.37
481.053	5975.78
481.424	6050.58
481.795	6102.55
482.166	6232.27
482.537	6309.55
482.908	6454.18
483.279	6507.29
483.65	6676.32
484.021	6686.72
484.391	6839.26
484.762	6943.43
485.133	6926.71
485.503	7088.74
485.874	7255.97
486.244	7258.68
486.615	7387.94
486.985	7571.67
487.356	7664.09
487.726	7731.66
488.097	7855.95
488.467	7887.36
488.837	8055.49
489.207	8176.17
489.578	8343.4
489.948	8396.73
490.318	8573.67
490.688	8566.22
491.058	8710.39
491.428	8728.25
491.798	8937.05
492.168	9040.1
492.538	9053.21
492.908	9137.95
493.278	9338.17
493.648	9385.63
494.017	9464.5
494.387	9582.46
494.757	9638.28
495.126	9759.63
495.496	9818.61
495.866	9829.23
496.235	10021.54
496.605	10024.26
496.974	10130.69
497.344	10245.95
497.713	10338.82
498.082	10440.06
498.452	10555.54
498.821	10595.09
499.19	10625.37
499.559	10802.99
499.928	10866.95
500.298	10854.74
500.667	10950.33
501.036	11005.25
501.405	11088.41
501.774	11139.48
502.143	11236.2
502.512	11285.01
502.88	11417.21
503.249	11433.03
503.618	11588.73
503.987	11662.41
504.356	11603.65
504.724	11824.43
505.093	11873.7
505.462	11861.72
505.83	12041.38
506.199	12127.93
506.567	12295.83
506.936	12336.51
507.304	12405.21
507.672	12508.94
508.041	12590.29
508.409	12654.02
508.777	12793.45
509.145	12850.85
509.514	12951.64
509.882	12979.88
510.25	13025.76
510.618	13218.75
510.986	13198.64
511.354	13388.46
511.722	13471.4
512.09	13560.21
512.458	13539.87
512.826	13679.08
513.193	13818.28
513.561	13993.42
513.929	14005.62
514.297	14177.14
514.664	14280.19
515.032	14326.06
515.4	14457.36
515.767	14481.31
516.135	14667.98
516.502	14559.05
516.869	14997.01
517.237	14864.58
517.604	14963.11
517.972	15157
518.339	15331.24
518.706	15241.75
519.073	15339.37
519.44	15499.14
519.808	15637.67
520.175	15623.21
520.542	15932.8
520.909	16065.45
521.276	16042.18
521.643	16200.14
522.009	16399
522.376	16434.48
522.743	16547.25
523.11	16750.86
523.477	16879.22
523.843	16996.28
524.21	17195.82
524.577	17329.37
524.943	17415.7
525.31	17544.51
525.676	17682.81
526.043	17863.6
526.409	17915.35
526.776	18193.31
527.142	18163.48
527.508	18218.62
527.874	18463.36
528.241	18529.34
528.607	18599.17
528.973	18771.37
529.339	18800.07
529.705	18973.4
530.071	19116.45
530.437	19203.68
530.803	19412.94
531.169	19519.83
531.535	19426.95
531.901	19518.02
532.267	19753.49
532.632	19855.41
532.998	19937.22
533.364	20129.53
533.73	20071.9
534.095	20276.19
534.461	20350.54
534.826	20514.15
535.192	20541.27
535.557	20742.62
535.923	20793.01
536.288	20924.99
536.653	20986.23
537.019	20968.38
537.384	21029.62
537.749	21124.08
538.114	21150.07
538.479	21256.05
538.845	21437.06
539.21	21370.62
539.575	21623.95
539.94	21598.42
540.305	21672.76
540.67	21669.6
541.034	21942.36
541.399	22057.84
541.764	21963.83
542.129	22130.15
542.494	22262.58
542.858	22310.26
543.223	22294.44
543.587	22457.15
543.952	22533.76
544.316	22623.25
544.681	22583.93
545.045	22683.36
545.41	22879.74
545.774	22992.95
546.138	22975.78
546.503	22994.31
546.867	23097.58
547.231	23258.71
547.595	23326.05
547.959	23484.24
548.324	23517.46
548.688	23523.11
549.052	23681.3
549.416	23704.8
549.779	23799.26
550.143	23935.08
550.507	24085.36
550.871	24209.87
551.235	24086.49
551.599	24406.02
551.962	24394.73
552.326	24409.19
552.689	24613.93
553.053	24555.4
553.417	24739.12
553.78	24959.91
554.143	24752
554.507	25029.74
554.87	25164.42
555.234	25395.6
555.597	25237.42
555.96	25407.58
556.323	25454.13
556.686	25669.49
557.05	25770.28
557.413	25803.5
557.776	25820
558.139	26117.17
558.502	26088.01
558.865	26370.27
559.228	26440.1
559.59	26514.44
559.953	26615.91
560.316	26887.09
560.679	26934.55
561.041	27087.54
561.404	27214.31
561.767	27333.41
562.129	27223.35
562.492	27591.25
562.854	27603.23
563.217	27767.97
563.579	27762.32
563.941	27979.94
564.304	28149.66
564.666	28355.98
565.028	28278.92
565.39	28558.01
565.753	28804.78
566.115	28745.8
566.477	28788.73
566.839	28936.08
567.201	29090.2
567.563	29170.19
567.925	29372.22
568.287	29382.84
568.648	29459
569.01	29738.77
569.372	29900.34
569.734	29727.01
570.095	29963.84
570.457	30017.4
570.819	30103.28
571.18	30292.2
571.542	30440.22
571.903	30450.16
572.265	30630.04
572.626	30792.3
572.987	30706.88
573.349	30807.66
573.71	30973.31
574.071	31051.5
574.432	31182.8
574.794	31378.95
575.155	31416.69
575.516	31387.76
575.877	31440.64
576.238	31578.72
576.599	31670.69
576.96	31622.33
577.32	31850.57
577.681	31876.34
578.042	31925.15
578.403	31987.07
578.763	31885.6
579.124	32074.07
579.485	32193.39
579.845	32246.72
580.206	32196.1
580.566	32241.07
580.927	32326.04
581.287	32483.78
581.648	32326.27
582.008	32352.03
582.368	32516.32
582.728	32458.24
583.089	32448.07
583.449	32425.7
583.809	32549.09
584.169	32558.58
584.529	32593.15
584.889	32763.55
585.249	32511.57
585.609	32576.43
585.969	32735.98
586.329	32608.52
586.688	32793.6
587.048	32719.93
587.408	32752.92
587.768	32745.01
588.127	32614.4
588.487	32558.58
588.846	32917.89
589.206	32679.71
589.565	32579.37
589.925	32968.96
590.284	32795.18
590.643	32734.62
591.003	32898.01
591.362	32913.37
591.721	32944.33
592.08	32897.55
592.44	32943.2
592.799	33053.93
593.158	32872.47
593.517	32956.53
593.876	33049.64
594.235	33057.1
594.593	33005.57
594.952	33171.9
595.311	32931
595.67	33112.69
596.029	33310.65
596.387	33380.03
596.746	33232.46
597.104	33078.34
597.463	33105.23
597.822	33323.53
598.18	33156.53
598.538	33158.34
598.897	33402.62
599.255	33181.39
599.613	33620.92
599.972	33543.19
600.33	33492.11
600.688	33396.07
601.046	33433.58
601.404	33715.61
601.762	33638.32
602.12	33744.08
602.478	33814.59
602.836	33679
603.194	33500.7
603.552	33736.18
603.91	33649.85
604.268	33717.42
604.625	33669.28
604.983	33730.75
605.341	33615.95
605.698	33860.69
606.056	34054.36
606.413	33932.1
606.771	33997.86
607.128	34066.11
607.485	33999.45
607.843	34028.6
608.2	34383.16
608.557	34393.11
608.914	34196.05
609.272	34132.77
609.629	34294.8
609.986	34492.31
610.343	34298.42
610.7	34481.01
611.057	34433.78
611.414	34514.69
611.771	34461.35
612.127	34611.86
612.484	34609.37
612.841	34770.27
613.198	34616.38
613.554	34723.95
613.911	34862.02
614.267	34746.09
614.624	34725.3
614.98	34991.74
615.337	35053.2
615.693	34938.4
616.05	34977.5
616.406	35125.07
616.762	35036.25
617.118	35053.2
617.475	35147.44
617.831	35173.2
618.187	35295.23
618.543	35269.69
618.899	35358.51
619.255	35247.77
619.611	35391.5
619.967	35389.01
620.323	35471.95
620.678	35368.9
621.034	35360.54
621.39	35361.22
621.746	35244.38
622.101	35720.3
622.457	35299.98
622.812	35335.23
623.168	35383.82
623.523	35410.48
623.879	35509.01
624.234	35249.36
624.589	35404.15
624.945	35441.22
625.3	35496.35
625.655	35422.91
626.01	35575
626.365	35669.01
626.72	35413.87
627.075	35483.93
627.43	35519.86
627.785	35415
628.14	35460.88
628.495	35286.87
628.85	35481.21
629.205	35181.56
629.559	35329.13
629.914	35286.87
630.269	35259.98
630.623	35162.58
630.978	35104.5
631.332	35312.4
631.687	35250.03
632.041	35128.91
632.396	35090.26
632.75	35022.02
633.104	35021.34
633.459	34953.54
633.813	34909.48
634.167	34833.55
634.521	34873.77
634.875	34854.56
635.229	34829.03
635.583	34685.08
635.937	34801.01
636.291	34685.98
636.645	34671.52
636.999	34661.35
637.352	34716.71
637.706	34383.84
638.06	34534.12
638.413	34502.03
638.767	34409.83
639.121	34416.84
639.474	34276.5
639.828	34309.72
640.181	34405.76
640.534	34249.38
640.888	34158.76
641.241	34033.79
641.594	34086.9
641.947	34156.28
642.301	33883.74
642.654	34058.65
643.007	34026.34
643.36	34009.84
643.713	33962.84
644.066	34011.2
644.419	33671.09
644.771	33377.31
645.124	33032.46
645.477	33132.58
645.83	32889.42
646.182	32764.45
646.535	32719.93
646.888	32793.6
647.24	32666.82
647.593	32955.4
647.945	32684.23
648.298	32496.89
648.65	32454.4
649.002	32365.82
649.355	32535.53
649.707	32441.52
650.059	32502.31
650.411	32935.07
650.763	32956.76
651.115	33244.89
651.467	33076.76
651.819	33084.21
652.171	33140.71
652.523	33009.64
652.875	32980.71
653.227	32930.09
653.578	33138
653.93	33003.99
654.282	32854.39
654.633	32809.65
654.985	32876.08
655.337	32777.1
655.688	32820.04
656.039	32849.42
656.391	32698.24
656.742	32658.46
657.094	32726.71
657.445	32861.4
657.796	32760.83
658.147	32607.62
658.498	32545.7
658.849	32646.03
659.2	32653.04
659.551	32592.25
659.902	32740.27
660.253	32548.64
660.604	32577.34
660.955	32467.06
661.306	32422.31
661.656	32504.34
662.007	32280.62
662.358	32210.11
662.708	32416.89
663.059	32321.07
663.409	32097.8
663.76	32412.82
664.11	32279.72
664.461	32419.37
664.811	32456.89
665.161	32331.92
665.511	32221.86
665.862	32228.64
666.212	32411.24
666.562	32269.55
666.912	32270.22
667.262	32124.47
667.612	32089.44
667.962	32238.36
668.312	32061.64
668.662	32236.33
669.011	32181.19
669.361	32067.29
669.711	32089.44
670.06	32003.57
670.41	31889.67
670.76	31994.07
671.109	32099.83
671.459	32011.47
671.808	31994.53
672.157	31908.2
672.507	31731.48
672.856	31791.14
673.205	31851.48
673.554	31898.03
673.904	31938.48
674.253	31957.46
674.602	31857.81
674.951	31428.21
675.3	31227.54
675.649	31773.51
675.998	31607.42
676.346	31725.83
676.695	31802.44
677.044	31456.24
677.393	31498.04
677.741	31674.31
678.09	31507.99
678.438	31505.73
678.787	31453.3
679.135	31450.36
679.484	31253.53
679.832	31424.37
680.181	31269.57
680.529	31296.47
680.877	31271.38
681.225	31097.37
681.573	31296.01
681.922	31147.09
682.27	31002.69
682.618	31122.46
682.966	30961.11
683.314	31119.07
683.661	30999.75
684.009	30871.84
684.357	30688.57
684.705	30665.3
685.053	30648.8
685.4	30567.67
685.748	30507.11
686.095	30497.39
686.443	30371.74
686.79	30282.93
687.138	30382.14
687.485	30385.3
687.832	30231.63
688.18	30192.77
688.527	30051.07
688.874	30066.22
689.221	29868.25
689.568	29979.89
689.915	29769.05
690.262	29870.51
690.609	29864.41
690.956	29573.35
691.303	29718.43
691.65	29607.7
691.997	29432.79
692.344	29395.5
692.69	29303.98
693.037	29417.87
693.383	29182.17
693.73	29333.58
694.077	29211.32
694.423	29203.86
694.769	29003.64
695.116	28940.37
695.462	28895.4
695.808	28712.58
696.155	28760.71
696.501	28536.31
696.847	28472.58
697.193	28326.37
697.539	28415.41
697.885	28215.87
698.231	28136.55
698.577	28169.77
698.923	27944.01
699.269	27978.13
699.614	27755.77
699.96	27742.43
700.306	27797.35
700.651	27659.05
700.997	27626.51
701.342	27562.55
701.688	27449.33
702.033	27454.31
702.379	27353.97
702.724	27351.94
703.069	27356.91
703.415	27057.03
703.76	27031.04
704.105	26978.61
704.45	26906.07
704.795	26676.02
705.14	26770.26
705.485	26737.04
705.83	26587.89
706.175	26661.78
706.52	26630.6
706.865	26415.46
707.209	26449.59
707.554	26337.05
707.899	26393.09
708.243	26153.1
708.588	26256.37
708.932	26055.7
709.277	25964.18
709.621	25929.83
709.966	25870.85
710.31	25905.65
710.654	25767.35
710.998	25639.66
711.342	25684.41
711.687	25675.37
712.031	25599.89
712.375	25488.93
712.719	25460.69
713.063	25439.9
713.407	25447.58
713.75	25325.55
714.094	25263.4
714.438	25185.67
714.782	25276.51
715.125	25126.01
715.469	25207.36
715.812	25062.5
716.156	24891.44
716.499	24871.55
716.843	24918.78
717.186	24763.08
717.53	24793.13
717.873	24806.01
718.216	24770.76
718.559	24611.22
718.902	24495.97
719.246	24469.75
719.589	24342.98
719.932	24279.93
720.275	24341.62
720.617	24390.88
720.96	24267.72
721.303	24237.22
721.646	24139.82
721.989	24064.34
722.331	24064.79
722.674	23945.7
723.016	24082.19
723.359	24063.44
723.701	23913.16
724.044	23860.28
724.386	23666.84
724.729	23867.06
725.071	23802.65
725.413	23740.28
725.755	23674.52
726.097	23662.54
726.439	23508.2
726.782	23587.74
727.124	23675.2
727.465	23476.56
727.807	23498.03
728.149	23401.53
728.491	23350.01
728.833	23448.54
729.175	23324.92
729.516	23244.25
729.858	23234.53
730.199	23183.91
730.541	23052.39
730.882	23010.13
731.224	23085.61
731.565	22945.5
731.906	23077.7
732.248	23136.23
732.589	22908.66
732.93	22789.34
733.271	22881.77
733.612	22807.2
733.953	22852.62
734.294	22766.52
734.635	22688.33
734.976	22832.96
735.317	22765.84
735.658	22595
735.999	22594.32
736.339	22561.1
736.68	22571.95
737.021	22451.95
737.361	22322.46
737.702	22494.44
738.042	22419.64
738.383	22252.41
738.723	22365.85
739.063	22254.67
739.404	22333.31
739.744	22309.13
740.084	22156.59
740.424	22202.02
740.764	22156.82
741.104	22222.58
741.444	22020.32
741.784	21967.44
742.124	21963.38
742.464	21960.89
742.804	21912.08
743.143	21841.12
743.483	21883.83
743.823	21758.64
744.162	21745.98
744.502	21772.2
744.841	21689.94
745.181	21727.68
745.52	21588.92
745.86	21637.51
746.199	21562.26
746.538	21580.11
746.877	21589.15
747.216	21529.72
747.556	21455.82
747.895	21349.83
748.234	21383.05
748.573	21305.77
748.911	21192.78
749.25	21211.76
749.589	21052.44
749.928	21099.9
750.267	21120.24
750.605	21025.77
750.944	20975.61
751.283	20859
751.621	20963.4
751.96	20850.19
752.298	20737.19
752.636	20849.96
752.975	20833.24
753.313	20621.49
753.651	20748.04
753.989	20575.17
754.327	20542.4
754.666	20410.42
755.004	20404.55
755.342	20488.39
755.679	20326.13
756.017	20261.73
756.355	20317.54
756.693	20230.54
757.031	20239.81
757.368	20021.96
757.706	20095.18
758.044	19989.64
758.381	20014.05
758.719	19910.1
759.056	19911
759.394	19992.58
759.731	19777.9
760.068	19760.05
760.405	19625.13
760.743	19536.32
761.08	19686.15
761.417	19504.23
761.754	19459.94
762.091	19344.24
762.428	19286.16
762.765	19130.23
763.102	19220.17
763.438	19150.8
763.775	19036.9
764.112	18988.77
764.449	19064.7
764.785	18977.69
765.122	18827.87
765.458	18761.88
765.795	18702.67
766.131	18643.01
766.467	18601.21
766.804	18497.03
767.14	18429.23
767.476	18520.3
767.812	18398.73
768.148	18426.07
768.485	18277.37
768.821	18201.44
769.157	18150.6
769.492	18139.98
769.828	18064.5
770.164	17897.72
770.5	17905.4
770.836	17871.51
771.171	17654.56
771.507	17617.73
771.842	17541.12
772.178	17615.92
772.513	17493.44
772.849	17439.65
773.184	17458.86
773.519	17353.33
773.855	17346.32
774.19	17253.9
774.525	17093
774.86	17130.96
775.195	17021.81
775.53	17015.26
775.865	16832.89
776.2	16679.67
776.535	16675.61
776.87	16768.94
777.205	16577.76
777.539	16565.33
777.874	16523.07
778.209	16364.43
778.543	16443.07
778.878	16253.02
779.212	16172.34
779.547	16117.88
779.881	16205.34
780.215	16051.89
780.55	16089.86
780.884	15902.97
781.218	15922.18
781.552	15915.4
781.886	15794.95
782.22	15753.15
782.554	15703.88
782.888	15601.06
783.222	15425.92
783.556	15437
783.889	15397.9
784.223	15310.22
784.557	15358.13
784.89	15244.01
785.224	15228.19
785.557	15058.7
785.891	15153.39
786.224	15109.55
786.558	14982.77
786.891	14947.74
787.224	14823
787.557	14900.74
787.891	14787.07
788.224	14729.67
788.557	14811.02
788.89	14696.22
789.223	14626.62
789.556	14541.2
789.888	14500.07
790.221	14444.93
790.554	14229.34
790.887	14306.4
791.219	14278.83
791.552	14246.52
791.884	14120.19
792.217	14123.81
792.549	14046.07
792.882	13909.13
793.214	13932.18
793.546	13937.15
793.879	13877.26
794.211	13795.46
794.543	13769.69
794.875	13722.46
795.207	13767.66
795.539	13739.19
795.871	13637.95
796.203	13467.78
796.535	13440.66
796.867	13484.96
797.198	13358.41
797.53	13409.48
797.862	13281.12
798.193	13265.53
798.525	13169.26
798.856	13265.3
799.188	13106.66
799.519	13052.88
799.85	12919.77
800.182	13015.36
800.513	13052.88
800.844	12830.96
801.175	12904.41
801.506	12945.54
801.837	12894.46
802.168	12786.44
802.499	12673.9
802.83	12680.23
803.161	12654.7
803.491	12604.75
803.822	12617.86
804.153	12574.92
804.483	12475.72
804.814	12384.87
805.145	12457.19
805.475	12387.36
805.805	12266.23
806.136	12303.07
806.466	12310.07
806.796	12269.85
807.126	12144.65
807.457	12073.92
807.787	12097.42
808.117	12010.42
808.447	11949.4
808.777	12063.75
809.107	12037.99
809.436	11995.28
809.766	12016.97
810.096	11930.65
810.426	11923.19
810.755	11876.41
811.085	11805.9
811.414	11778.11
811.744	11647.04
812.073	11661.05
812.403	11682.74
812.732	11543.99
813.061	11617.21
813.39	11544.22
813.719	11428.06
814.049	11582.18
814.378	11507.83
814.707	11418.8
815.036	11385.35
815.365	11340.38
815.693	11297.67
816.022	11251.57
816.351	11222.42
816.68	11161.18
817.008	11200.95
817.337	11165.24
817.665	11128.18
817.994	11165.02
818.322	11134.74
818.651	11086.38
818.979	11037.79
819.307	11051.35
819.636	11019.03
819.964	10905.14
820.292	10873.5
820.62	10954.18
820.948	10856.1
821.276	10947.85
821.604	10894.97
821.932	10949.66
822.259	10930.67
822.587	10902.2
822.915	10796.67
823.243	10892.93
823.57	10784.01
823.898	10862.65
824.225	10748.76
824.553	10814.52
824.88	10796.67
825.207	10793.28
825.535	10706.05
825.862	10794.18
826.189	10759.83
826.516	10829.88
826.843	10861.75
827.17	10835.31
827.497	10903.1
827.824	10833.05
828.151	10846.16
828.478	10797.34
828.805	10876.21
829.131	10760.96
829.458	10771.81
829.785	10740.17
830.111	10739.04
830.438	10789.21
830.764	10712.37
831.09	10746.95
831.417	10741.07
831.743	10709.21
832.069	10678.7
832.395	10682.09
832.722	10705.82
833.048	10678.48
833.374	10662.88
833.7	10653.39
834.026	10677.12
834.351	10675.09
834.677	10562.1
835.003	10682.54
835.329	10660.62
835.654	10549.89
835.98	10548.76
836.306	10584.02
836.631	10566.39
836.956	10626.27
837.282	10571.36
837.607	10604.81
837.932	10494.07
838.258	10476
838.583	10475.54
838.908	10356.45
839.233	10453.17
839.558	10374.76
839.883	10344.47
840.208	10299.73
840.533	10243.23
840.858	10369.56
841.182	10370.91
841.507	10256.11
841.832	10252.5
842.156	10254.31
842.481	10245.27
842.805	10210.47
843.13	10199.17
843.454	10154.65
843.778	10139.28
844.103	10090.92
844.427	10077.59
844.751	10060.41
845.075	10023.13
845.399	9997.59
845.723	9992.62
846.047	9952.62
846.371	9861.77
846.695	9827.65
847.019	9753.3
847.343	9732.51
847.666	9694.77
847.99	9695.9
848.313	9641.22
848.637	9547.66
848.96	9570.48
849.284	9506.76
849.607	9445.29
849.931	9472.86
850.254	9416.81
850.577	9294.11
850.9	9249.36
851.223	9308.57
851.546	9183.37
851.869	9199.19
852.192	9264.95
852.515	9088.69
852.838	9072.87
853.161	9149.25
853.483	9035.13
853.806	9024.06
854.129	8982.02
854.451	8958.52
854.774	8935.92
855.096	8877.62
855.419	8828.81
855.741	8901.8
856.063	8834.91
856.385	8790.16
856.708	8748.58
857.03	8685.99
857.352	8724.86
857.674	8642.37
857.996	8648.7
858.318	8584.07
858.64	8553.56
858.961	8511.53
859.283	8479.66
859.605	8531.64
859.926	8518.99
860.248	8429.27
860.57	8410.97
860.891	8415.26
861.212	8427.01
861.534	8353.11
861.855	8373.23
862.176	8429.27
862.498	8359.22
862.819	8325.54
863.14	8355.37
863.461	8241.93
863.782	8244.42
864.103	8248.71
864.424	8213
864.745	8193.8
865.065	8174.59
865.386	8214.81
865.707	8189.05
866.027	8114.02
866.348	8168.03
866.668	8133.01
866.989	8142.05
867.309	8024.08
867.63	8042.39
867.95	8042.61
868.27	8039.68
868.59	8013.91
868.91	7965.55
869.23	7969.17
869.55	7952.67
869.87	8009.17
870.19	7945.44
870.51	8011.88
870.83	7988.83
871.15	7891.88
871.469	7912.22
871.789	7932.56
872.109	7910.41
872.428	7806.01
872.748	7871.77
873.067	7854.82
873.386	7742.51
873.706	7756.75
874.025	7781.15
874.344	7742.96
874.663	7769.63
874.982	7800.13
875.301	7768.72
875.62	7743.64
875.939	7718.1
876.258	7669.97
876.577	7648.05
876.896	7684.2
877.214	7577.09
877.533	7628.84
877.852	7637.43
878.17	7614.6
878.489	7557.65
878.807	7560.37
879.125	7560.14
879.444	7518.11
879.762	7568.95
880.08	7593.59
880.398	7507.94
880.716	7515.17
881.034	7465.23
881.352	7460.71
881.67	7382.74
881.988	7419.58
882.306	7437.66
882.624	7355.63
882.941	7337.55
883.259	7357.89
883.577	7407.15
883.894	7319.24
884.212	7358.79
884.529	7305.46
884.846	7234.5
885.164	7307.04
885.481	7193.82
885.798	7247.61
886.115	7164.44
886.432	7163.54
886.75	7175.52
887.067	7154.28
887.383	7163.09
887.7	7103.2
888.017	7092.81
888.334	7106.14
888.651	7013.26
888.967	7100.04
889.284	7000.15
889.6	6945.92
889.917	6901.85
890.233	6984.56
890.55	6922.42
890.866	6916.77
891.182	6902.98
891.498	6957.67
891.815	6872.47
892.131	6759.94
892.447	6827.96
892.763	6758.81
893.079	6738.69
893.395	6718.58
893.71	6709.32
894.026	6739.6
894.342	6685.59
894.657	6686.04
894.973	6672.93
895.289	6647.62
895.604	6620.05
895.92	6617.79
896.235	6533.05
896.55	6570.79
896.865	6536.21
897.181	6526.72
897.496	6498.93
897.811	6486.72
898.126	6424.58
898.441	6362.43
898.756	6411.24
899.071	6347.29
899.386	6357.01
899.7	6339.61
900.015	6288.76
900.33	6286.5
900.644	6223.45
900.959	6278.82
901.273	6229.1
901.588	6195.88
901.902	6201.76
902.216	6140.52
902.531	6163.57
902.845	6129.22
903.159	6082.89
903.473	6064.59
903.787	6015.1
904.101	6015.32
904.415	6004.47
904.729	5963.57
905.042	5901.88
905.356	5959.28
905.67	5938.04
905.984	5938.04
906.297	5893.74
906.611	5855.55
906.924	5853.74
907.237	5816.01
907.551	5780.75
907.864	5752.73
908.177	5723.8
908.491	5731.94
908.804	5629.12
909.117	5623.47
909.43	5626.41
909.743	5644.48
910.056	5611.94
910.368	5586.41
910.681	5511.61
910.994	5546.86
911.307	5508.22
911.619	5432.74
911.932	5404.72
912.244	5437.26
912.557	5425.28
912.869	5382.12
913.181	5352.29
913.494	5383.25
913.806	5277.94
914.118	5333.31
914.43	5269.8
914.742	5273.42
915.054	5231.61
915.366	5193.65
915.678	5210.6
915.99	5157.49
916.302	5148.68
916.613	5153.88
916.925	5091.28
917.236	5102.13
917.548	5113.2
917.859	5082.01
918.171	5006.54
918.482	4973.32
918.794	4999.98
919.105	4949.14
919.416	4975.58
919.727	4962.69
920.038	4896.71
920.349	4849.7
920.66	4873.43
920.971	4793.66
921.282	4844.73
921.593	4855.13
921.903	4744.4
922.214	4791.63
922.525	4775.58
922.835	4705.53
923.146	4710.27
923.456	4689.48
923.767	4733.77
924.077	4597.96
924.387	4629.6
924.697	4623.04
925.008	4634.34
925.318	4546.66
925.628	4585.53
925.938	4512.99
926.248	4503.95
926.558	4501.92
926.867	4460.11
927.177	4472.99
927.487	4451.75
927.796	4388.25
928.106	4416.27
928.416	4391.18
928.725	4386.89
929.034	4355.93
929.344	4344.86
929.653	4337.63
929.962	4283.39
930.271	4230.28
930.581	4237.06
930.89	4228.93
931.199	4195.03
931.508	4190.74
931.817	4175.6
932.125	4204.97
932.434	4156.39
932.743	4105.99
933.051	4121.81
933.36	4096.73
933.669	4123.85
933.977	4042.27
934.286	3999.1
934.594	4022.61
934.902	3997.07
935.21	3993.23
935.519	3941.25
935.827	4007.01
936.135	3931.08
936.443	3873.01
936.751	3913.46
937.059	3875.04
937.367	3853.35
937.674	3861.03
937.982	3866.23
938.29	3851.54
938.597	3816.96
938.905	3795.27
939.213	3789.84
939.52	3750.97
939.827	3753.69
940.135	3728.38
940.442	3720.02
940.749	3677.3
941.056	3669.17
941.363	3620.36
941.67	3626.68
941.977	3645.67
942.284	3577.42
942.591	3581.94
942.898	3583.52
943.205	3607.7
943.511	3567.93
943.818	3570.64
944.125	3552.79
944.431	3527.25
944.738	3484.99
945.044	3523.18
945.35	3467.37
945.657	3437.76
945.963	3437.08
946.269	3424.2
946.575	3388.95
946.881	3384.88
947.187	3353.92
947.493	3355.05
947.799	3382.17
948.105	3327.26
948.41	3353.7
948.716	3299.01
949.022	3290.42
949.327	3285.9
949.633	3288.39
949.938	3250.65
950.244	3250.2
950.549	3234.15
950.854	3179.01
951.16	3197.32
951.465	3164.55
951.77	3151.89
952.075	3168.17
952.38	3156.87
952.685	3108.51
952.99	3109.41
953.294	3104.66
953.599	3069.18
953.904	3040.71
954.209	3068.05
954.513	3078
954.818	3043.2
955.122	3019.24
955.426	2998.9
955.731	2984.22
956.035	2982.63
956.339	2984.67
956.643	2996.64
956.948	2967.72
957.252	2923.43
957.556	2932.24
957.86	2912.58
958.163	2890.43
958.467	2869.19
958.771	2849.53
959.075	2856.08
959.378	2850.21
959.682	2839.36
959.985	2807.04
960.289	2798.68
960.592	2791
960.896	2771.57
961.199	2780.83
961.502	2720.27
961.805	2729.53
962.108	2730.44
962.411	2709.42
962.714	2720.04
963.017	2723.43
963.32	2689.53
963.623	2682.98
963.926	2661.06
964.228	2656.99
964.531	2639.14
964.833	2685.24
965.136	2646.6
965.438	2651.12
965.741	2601.17
966.043	2584.45
966.345	2565.24
966.648	2582.42
966.95	2571.8
967.252	2526.6
967.554	2579.25
967.856	2510.56
968.158	2503.78
968.46	2491.35
968.761	2485.7
969.063	2479.14
969.365	2471.46
969.666	2441.4
969.968	2469.65
970.269	2447.05
970.571	2472.36
970.872	2437.56
971.174	2407.28
971.475	2400.73
971.776	2358.02
972.077	2382.2
972.378	2390.56
972.679	2362.31
972.98	2339.49
973.281	2362.31
973.582	2353.5
973.883	2315.31
974.183	2301.52
974.484	2321.18
974.785	2294.06
975.085	2290.9
975.386	2292.48
975.686	2255.65
975.986	2256.32
976.287	2249.55
976.587	2212.03
976.887	2245.93
977.187	2225.37
977.487	2201.19
977.787	2214.29
978.087	2174.29
978.387	2174.07
978.687	2189.21
978.987	2143.11
979.286	2147.63
979.586	2125.03
979.885	2153.5
980.185	2140.85
980.484	2120.96
980.784	2074.86
981.083	2103.79
981.382	2098.59
981.682	2073.5
981.981	2083
982.28	2045.71
982.579	2037.8
982.878	2035.31
983.177	2017.46
983.475	2030.34
983.774	2010.23
984.073	2006.39
984.372	1996.9
984.67	1995.09
984.969	1986.95
985.267	1988.54
985.566	1978.37
985.864	1972.26
986.162	1959.84
986.461	1933.62
986.759	1926.84
987.057	1934.53
987.355	1918.25
987.653	1886.62
987.951	1903.11
988.249	1890.23
988.547	1857.24
988.844	1860.4
989.142	1856.79
989.44	1863.79
989.737	1856.11
990.035	1839.39
990.332	1811.36
990.63	1793.74
990.927	1817.92
991.224	1821.76
991.521	1806.17
991.819	1784.7
992.116	1803.91
992.413	1768.43
992.71	1734.98
993.006	1763.68
993.303	1775.21
993.6	1730.69
993.897	1736.11
994.193	1751.48
994.49	1727.3
994.787	1719.39
995.083	1690.92
995.379	1682.55
995.676	1709.9
995.972	1668.09
996.268	1656.79
996.565	1649.56
996.861	1639.39
997.157	1625.83
997.453	1650.47
997.749	1635.32
998.044	1609.79
998.34	1633.74
998.636	1617.02
998.932	1614.76
999.227	1573.86
999.523	1586.06
999.818	1570.69
1000.114	1583.12
1000.409	1597.36
1000.704	1551.48
1001	1531.6
1001.295	1544.93
1001.59	1546.74
1001.885	1519.62
1002.18	1513.29
1002.475	1497.25
1002.77	1509.68
1003.065	1492.28
1003.359	1514.88
1003.654	1505.84
1003.949	1461.32
1004.243	1464.48
1004.538	1494.09
1004.832	1444.14
1005.127	1429
1005.421	1438.27
1005.715	1450.7
1006.009	1435.78
1006.304	1415.44
1006.598	1397.82
1006.892	1412.51
1007.186	1399.62
1007.48	1377.7
1007.773	1358.72
1008.067	1379.74
1008.361	1377.03
1008.655	1373.64
1008.948	1338.16
1009.242	1335.67
1009.535	1317.37
1009.829	1330.7
1010.122	1330.47
1010.415	1347.2
1010.708	1279.85
1011.001	1292.28
1011.295	1290.93
1011.588	1296.58
1011.881	1275.33
1012.173	1269.46
1012.466	1232.62
1012.759	1283.47
1013.052	1259.29
1013.344	1249.12
1013.637	1250.25
1013.93	1241.89
1014.222	1217.71
1014.514	1219.97
1014.807	1229.69
1015.099	1208.22
1015.391	1183.81
1015.683	1202.57
1015.976	1181.32
1016.268	1194.88
1016.56	1162.79
1016.851	1168.9
1017.143	1166.86
1017.435	1142
1017.727	1140.2
1018.018	1135
1018.31	1155.11
1018.602	1112.17
1018.893	1133.42
1019.185	1142.68
1019.476	1101.33
1019.767	1118.5
1020.058	1091.84
1020.35	1069.69
1020.641	1078.28
1020.932	1073.98
1021.223	1080.31
1021.514	1047.32
1021.804	1068.11
1022.095	1049.58
1022.386	1036.24
1022.677	1036.24
1022.967	1022.91
1023.258	1023.59
1023.548	1010.71
1023.839	1008.45
1024.129	1000.99
1024.419	993.31
1024.709	993.53
1025	968.22
1025.29	983.36
1025.58	981.1
1025.87	958.73
1026.16	979.07
1026.449	943.14
1026.739	981.78
1027.029	963.25
1027.319	953.08
1027.608	951.73
1027.898	936.81
1028.187	931.16
1028.477	919.41
1028.766	899.75
1029.055	932.29
1029.344	910.82
1029.634	882.35
1029.923	891.61
1030.212	892.29
1030.501	908.56
1030.79	896.13
1031.078	881.9
1031.367	862.24
1031.656	852.07
1031.945	851.84
1032.233	857.94
1032.522	866.3
1032.81	835.8
1033.099	848.9
1033.387	831.73
1033.675	822.24
1033.963	839.64
1034.251	813.42
1034.54	814.78
1034.828	798.96
1035.116	809.58
1035.403	804.39
1035.691	804.61
1035.979	812.07
1036.267	796.02
1036.554	783.37
1036.842	765.29
1037.129	777.04
1037.417	795.12
1037.704	780.43
1037.992	768.23
1038.279	760.09
1038.566	750.6
1038.853	750.6
1039.14	750.6
