Data from plate_ceramic_FLMS001491_082.txt Node
Date: Tue Feb 07 11:17:24 GMT 2017
User: dcchb
Spectrometer: FLMS00149
Trigger mode: 0
Integration Time (sec): 2.000000E-2
Scans to average: 10
Electric dark correction enabled: true
Nonlinearity correction enabled: false
Boxcar width: 0
XAxis mode: Wavelengths
Number of Pixels in Spectrum: 2048
>>>>>Begin Spectral Data<<<<<
341.393	-14.52
341.776	-14.52
342.16	-14.52
342.543	-69.21
342.927	-52.94
343.31	-69.89
343.693	-60.62
344.077	-69.89
344.46	-76.44
344.843	-49.55
345.226	-46.38
345.61	-25.14
345.993	-27.4
346.376	-8.42
346.759	-1.86
347.142	27.29
347.525	37
347.908	70.22
348.291	97.57
348.674	101.18
349.057	102.31
349.44	138.92
349.823	150.67
350.206	171.92
350.588	205.14
350.971	223.44
351.354	251.01
351.737	250.56
352.119	261.41
352.502	291.91
352.884	300.5
353.267	296.43
353.65	313.38
354.032	308.64
354.414	338.24
354.797	323.78
355.179	348.41
355.562	341.4
355.944	349.76
356.326	346.6
356.709	341.63
357.091	348.63
357.473	383.89
357.855	341.63
358.238	350.22
358.62	351.8
359.002	358.35
359.384	357.22
359.766	368.97
360.148	361.52
360.53	364.45
360.912	339.82
361.294	330.33
361.676	367.84
362.057	360.61
362.439	366.26
362.821	358.8
363.203	360.84
363.584	385.7
363.966	358.58
364.348	357
364.729	345.47
365.111	347.05
365.493	358.35
365.874	351.57
366.256	360.39
366.637	357.9
367.019	361.74
367.4	350.44
367.781	359.26
368.163	350.89
368.544	359.03
368.925	335.53
369.306	358.8
369.688	346.38
370.069	359.71
370.45	367.17
370.831	356.54
371.212	358.13
371.593	354.74
371.974	365.36
372.355	366.04
372.736	349.31
373.117	378.01
373.498	366.04
373.879	369.88
374.26	358.35
374.641	365.13
375.021	355.87
375.402	347.5
375.783	378.01
376.163	385.24
376.544	381.63
376.925	385.24
377.305	368.3
377.686	387.73
378.066	399.71
378.447	403.1
378.827	412.14
379.208	386.83
379.588	400.84
379.968	384.11
380.349	421.63
380.729	412.14
381.109	401.51
381.489	403.77
381.87	424.57
382.25	416.2
382.63	421.63
383.01	434.51
383.39	424.11
383.77	415.07
384.15	421.63
384.53	459.37
384.91	437.45
385.29	463.43
385.67	421.18
386.049	439.71
386.429	466.6
386.809	437.22
387.189	489.2
387.568	470.44
387.948	460.27
388.328	459.82
388.707	472.47
389.087	494.17
389.466	504.34
389.846	482.64
390.225	516.99
390.605	498.91
390.984	495.3
391.363	500.95
391.743	516.54
392.122	515.18
392.501	521.06
392.881	517.22
393.26	538.69
393.639	540.04
394.018	524.22
394.397	550.66
394.776	519.03
395.155	542.3
395.534	561.28
395.913	543.66
396.292	571
396.671	574.62
397.05	587.05
397.429	566.48
397.808	564
398.186	557.22
398.565	596.54
398.944	590.89
399.323	584.11
399.701	594.73
400.08	597.67
400.458	614.39
400.837	629.98
401.215	611.45
401.594	616.2
401.972	606.26
402.351	623.2
402.729	635.86
403.107	652.58
403.486	670.43
403.864	677.44
404.242	684.22
404.62	689.64
404.999	689.19
405.377	698
405.755	693.94
406.133	694.61
406.511	721.05
406.889	690.09
407.267	738.91
407.645	739.81
408.023	774.84
408.401	740.04
408.779	754.5
409.156	755.4
409.534	780.04
409.912	764.9
410.29	796.31
410.667	815.52
411.045	826.14
411.422	804.89
411.8	839.24
412.178	864.33
412.555	874.27
412.933	860.49
413.31	894.16
413.687	904.33
414.065	914.72
414.442	912.69
414.819	928.96
415.197	930.54
415.574	960.14
415.951	970.31
416.328	934.61
416.705	955.4
417.082	939.13
417.46	975.96
417.837	1009.63
418.214	1008.96
418.591	1015.06
418.967	1020.48
419.344	992.46
419.721	1056.86
420.098	1051.67
420.475	1048.5
420.852	1088.28
421.228	1100.25
421.605	1102.06
421.982	1085.56
422.358	1131.44
422.735	1117.88
423.111	1119.46
423.488	1170.76
423.864	1152.23
424.241	1170.08
424.617	1156.75
424.994	1203.98
425.37	1190.19
425.746	1234.71
426.123	1243.98
426.499	1243.3
426.875	1266.8
427.251	1267.93
427.627	1310.19
428.003	1302.06
428.379	1293.69
428.756	1348.38
429.132	1352.22
429.507	1377.08
429.883	1408.72
430.259	1404.43
430.635	1418.44
431.011	1447.36
431.387	1456.4
431.763	1485.33
432.138	1496.63
432.514	1497.08
432.89	1518.77
433.265	1564.65
433.641	1585.44
434.016	1606.23
434.392	1594.93
434.767	1648.26
435.143	1613.23
435.518	1654.82
435.894	1678.32
436.269	1657.08
436.644	1712.21
437.02	1741.37
437.395	1747.02
437.77	1777.52
438.145	1796.05
438.52	1805.55
438.895	1802.83
439.271	1824.98
439.646	1853.68
440.021	1861.36
440.395	1872.66
440.77	1851.42
441.145	1894.36
441.52	1934.81
441.895	1951.53
442.27	1969.61
442.645	1935.94
443.019	1992.43
443.394	1982.72
443.769	2031.08
444.143	2021.59
444.518	2070.17
444.892	2018.2
445.267	2091.19
445.641	2076.95
446.016	2107.91
446.39	2106.78
446.764	2113.33
447.139	2136.61
447.513	2112.66
447.887	2161.69
448.262	2179.32
448.636	2216.83
449.01	2198.98
449.384	2215.25
449.758	2274.69
450.132	2303.61
450.506	2283.73
450.88	2303.61
451.254	2305.87
451.628	2313.78
452.002	2391.29
452.376	2385.87
452.75	2404.4
453.123	2425.64
453.497	2487.79
453.871	2514.91
454.244	2532.76
454.618	2539.99
454.992	2600.1
455.365	2586.09
455.739	2692.08
456.112	2691.17
456.486	2662.02
456.859	2723.04
457.232	2780.44
457.606	2791.28
457.979	2805.07
458.352	2844.16
458.725	2885.74
459.099	2914.9
459.472	3008.45
459.845	2969.81
460.218	3040.99
460.591	3072.63
460.964	3109.92
461.337	3168.9
461.71	3226.53
462.083	3251.84
462.456	3234.89
462.829	3292.51
463.201	3341.32
463.574	3347.43
463.947	3413.19
464.32	3480.08
464.692	3513.75
465.065	3533.86
465.438	3582.22
465.81	3640.3
466.183	3675.78
466.555	3720.75
466.928	3760.97
467.3	3741.54
467.672	3809.56
468.045	3958.03
468.417	3942.66
468.789	4006.39
469.161	4028.54
469.534	4063.34
469.906	4230.79
470.278	4211.13
470.65	4316.44
471.022	4348.53
471.394	4458.36
471.766	4452.03
472.138	4538.81
472.51	4579.03
472.882	4663.1
473.253	4765.24
473.625	4771.57
473.997	4949.64
474.369	4947.84
474.74	4972.92
475.112	5067.15
475.484	5161.84
475.855	5249.52
476.227	5316.19
476.598	5460.36
476.97	5516.63
477.341	5610.87
477.713	5705.33
478.084	5711.43
478.455	5897.42
478.827	5946.23
479.198	6102.83
479.569	6104.42
479.94	6251.76
480.311	6376.5
480.682	6523.84
481.053	6627.34
481.424	6725.42
481.795	6847.9
482.166	6888.58
482.537	6968.12
482.908	7120.21
483.279	7241.11
483.65	7300.54
484.021	7527.2
484.391	7517.71
484.762	7669.8
485.133	7736.92
485.503	7873.86
485.874	8072.73
486.244	8135.55
486.615	8234.08
486.985	8341.65
487.356	8487.18
487.726	8543.22
488.097	8760.62
488.467	8801.07
488.837	8983.89
489.207	9078.35
489.578	9204
489.948	9335.07
490.318	9463.88
490.688	9513.59
491.058	9632.68
491.428	9759.91
491.798	9854.6
492.168	10046.68
492.538	10127.36
492.908	10165.78
493.278	10340.24
493.648	10396.73
494.017	10509.5
494.387	10586.56
494.757	10704.07
495.126	10867.68
495.496	10876.27
495.866	10939.09
496.235	11135.24
496.605	11230.38
496.974	11193.55
497.344	11314.67
497.713	11462.24
498.082	11486.87
498.452	11633.76
498.821	11739.97
499.19	11808.9
499.559	11934.32
499.928	12014.09
500.298	11987.2
500.667	12204.14
501.036	12245.5
501.405	12280.75
501.774	12309.45
502.143	12485.49
502.512	12532.27
502.88	12730.68
503.249	12763.45
503.618	12828.31
503.987	12816.1
504.356	12965.7
504.724	13034.63
505.093	13097.68
505.462	13199.37
505.83	13289.76
506.199	13420.83
506.567	13626.03
506.936	13654.27
507.304	13753.25
507.672	13806.81
508.041	13917.32
508.409	13972.91
508.777	14120.93
509.145	14283.64
509.514	14281.6
509.882	14407.47
510.25	14439.56
510.618	14554.14
510.986	14617.64
511.354	14837.75
511.722	14866.22
512.09	14990.51
512.458	15069.83
512.826	15088.81
513.193	15244.97
513.561	15314.12
513.929	15408.8
514.297	15648.12
514.664	15814.44
515.032	15828.23
515.4	16037.94
515.767	16143.02
516.135	16206.75
516.502	16077.03
516.869	16367.2
517.237	16449.68
517.604	16449
517.972	16724.25
518.339	16776.68
518.706	16807.41
519.073	16940.29
519.44	17184.8
519.808	17404.23
520.175	17367.4
520.542	17523.1
520.909	17677.22
521.276	17702.3
521.643	17953.82
522.009	18043.08
522.376	18029.53
522.743	18330.08
523.11	18478.78
523.477	18596.52
523.843	18772.56
524.21	18976.62
524.577	19052.55
524.943	19122.38
525.31	19332.32
525.676	19493.44
526.043	19622.25
526.409	19695.7
526.776	19846.88
527.142	20051.62
527.508	20255.46
527.874	20352.85
528.241	20413.19
528.607	20521.44
528.973	20714.2
529.339	20761.21
529.705	20857.47
530.071	21117.58
530.437	21257.01
530.803	21346.27
531.169	21463.11
531.535	21462.88
531.901	21558.47
532.267	21739.94
532.632	21845.02
532.998	21986.03
533.364	22109.42
533.73	22124.56
534.095	22254.95
534.461	22503.08
534.826	22543.76
535.192	22698.78
535.557	22897.87
535.923	22783.53
536.288	22941.94
536.653	23109.39
537.019	23106.23
537.384	23206.79
537.749	23442.04
538.114	23290.63
538.479	23445.88
538.845	23517.52
539.21	23578.08
539.575	23701.92
539.94	23839.32
540.305	23843.38
540.67	23950.5
541.034	24115.69
541.399	24223.49
541.764	24151.17
542.129	24310.94
542.494	24430.71
542.858	24496.93
543.223	24491.73
543.587	24773.08
543.952	24668.67
544.316	24824.38
544.681	24954.99
545.045	24890.36
545.41	25163.35
545.774	25110.92
546.138	25185.5
546.503	25411.03
546.867	25412.38
547.231	25693.96
547.595	25635.88
547.959	25816.89
548.324	25862.54
548.688	25921.3
549.052	26144.79
549.416	26131.46
549.779	26214.62
550.143	26292.36
550.507	26509.53
550.871	26629.07
551.235	26515.63
551.599	26785.68
551.962	26770.54
552.326	26822.06
552.689	27144.54
553.053	26996.75
553.417	27100.93
553.78	27499.11
554.143	27371.2
554.507	27490.97
554.87	27608.03
555.234	27994.01
555.597	27845.54
555.96	28023.39
556.323	28084.85
556.686	28194.91
557.05	28440.78
557.413	28578.85
557.776	28587.89
558.139	28749.02
558.502	28940.2
558.865	28872.63
559.228	29142
559.59	29210.25
559.953	29355.33
560.316	29516.68
560.679	29703.8
561.041	29735.21
561.404	29979.95
561.767	30184.46
562.129	30090.9
562.492	30467.17
562.854	30497.9
563.217	30509.2
563.579	30673.04
563.941	30933.14
564.304	31002.74
564.666	31147.37
565.028	31204.55
565.39	31308.72
565.753	31539.91
566.115	31658.09
566.477	31800.69
566.839	31990.74
567.201	32120.68
567.563	32140.12
567.925	32466.21
568.287	32507.34
568.648	32600.44
569.01	32657.62
569.372	32944.84
569.734	32957.27
570.095	33100.77
570.457	33291.95
570.819	33268.67
571.18	33263.7
571.542	33607.65
571.903	33541.89
572.265	33724.93
572.626	33777.59
572.987	33979.62
573.349	34074.3
573.71	34084.02
574.071	34244.01
574.432	34390.45
574.794	34541.41
575.155	34635.87
575.516	34520.84
575.877	34846.26
576.238	34841.97
576.599	34937.33
576.96	35075.63
577.32	35088.06
577.681	35057.1
578.042	35234.27
578.403	35312.24
578.763	35375.96
579.124	35397.43
579.485	35537.09
579.845	35708.38
580.206	35483.76
580.566	35479.91
580.927	35580.93
581.287	35600.14
581.648	35573.02
582.008	35705.45
582.368	35693.02
582.728	35747.93
583.089	35761.94
583.449	35802.39
583.809	35831.32
584.169	36002.84
584.529	35782.96
584.889	36121.03
585.249	36005.32
585.609	35846.91
585.969	36092.78
586.329	35873.58
586.688	36062.27
587.048	35910.64
587.408	35893.24
587.768	36075.83
588.127	35887.14
588.487	35962.39
588.846	36172.33
589.206	35998.54
589.565	36024.53
589.925	36207.35
590.284	36075.83
590.643	36207.58
591.003	36279.44
591.362	36345.43
591.721	36139.56
592.08	36241.02
592.44	36304.75
592.799	36523.05
593.158	36318.08
593.517	36323.51
593.876	36481.7
594.235	36310.4
594.593	36408.03
594.952	36429.04
595.311	36441.47
595.67	36576.83
596.029	36516.27
596.387	36674.01
596.746	36698.64
597.104	36503.39
597.463	36637.17
597.822	36715.81
598.18	36532.54
598.538	36572.77
598.897	36781.8
599.255	36548.59
599.613	37058.4
599.972	36769.82
600.33	36899.54
600.688	36709.94
601.046	36927.79
601.404	37010.5
601.762	37010.95
602.12	37210.94
602.478	37100.66
602.836	37080.1
603.194	36931.63
603.552	37049.36
603.91	37037.39
604.268	37238.29
604.625	37129.36
604.983	37296.14
605.341	37158.29
605.698	37422.01
606.056	37496.81
606.413	37310.6
606.771	37588.33
607.128	37596.7
607.485	37486.42
607.843	37493.65
608.2	37589.92
608.557	37765.5
608.914	37659.97
609.272	37666.75
609.629	37752.85
609.986	37967.76
610.343	37839.4
610.7	38057.93
611.057	38023.58
611.414	38064.48
611.771	38042.33
612.127	38038.27
612.484	38123.91
612.841	38298.15
613.198	38104.03
613.554	38116
613.911	38332.27
614.267	38358.03
614.624	38425.37
614.98	38442.55
615.337	38685.71
615.693	38534.07
616.05	38541.98
616.406	38736.1
616.762	38555.99
617.118	38529.33
617.475	38640.51
617.831	38714.18
618.187	38692.49
618.543	38776.55
618.899	38888.41
619.255	38938.81
619.611	38704.91
619.967	38883.44
620.323	38983.78
620.678	38894.06
621.034	38834.63
621.39	38890.67
621.746	38801.18
622.101	39210.44
622.457	39023.55
622.812	39009.77
623.168	39157.11
623.523	39057.9
623.879	39142.19
624.234	38915.53
624.589	39084.57
624.945	39015.64
625.3	39125.24
625.655	39044.57
626.01	38978.58
626.365	39098.35
626.72	38946.26
627.075	39023.78
627.43	39143.32
627.785	38941.07
628.14	38890.22
628.495	38811.58
628.85	38885.93
629.205	38857.45
629.559	39090.44
629.914	38878.47
630.269	38907.62
630.623	38802.54
630.978	38778.81
631.332	38850.22
631.687	38931.58
632.041	38748.3
632.396	38869.2
632.75	38616.56
633.104	38508.99
633.459	38462.21
633.813	38358.03
634.167	38310.35
634.521	38398.93
634.875	38437.12
635.229	38366.84
635.583	38234.87
635.937	38315.32
636.291	38129.34
636.645	38270.8
636.999	38106.51
637.352	38119.85
637.706	37968.66
638.06	38081.88
638.413	38047.53
638.767	37874.65
639.121	37901.55
639.474	37715.56
639.828	37655.45
640.181	37857.71
640.534	37765.96
640.888	37703.36
641.241	37517.15
641.594	37591.05
641.947	37600.31
642.301	37533.65
642.654	37520.54
643.007	37464.5
643.36	37594.66
643.713	37376.14
644.066	37478.73
644.419	37245.97
644.771	36951.06
645.124	36553.33
645.477	36523.28
645.83	36181.14
646.182	36177.3
646.535	36134.36
646.888	36288.03
647.24	36015.27
647.593	36283.51
647.945	36199.9
648.298	35946.57
648.65	36037.19
649.002	35725.11
649.355	35991.09
649.707	35893.46
650.059	35909.51
650.411	36222.95
650.763	36381.36
651.115	36669.49
651.467	36499.32
651.819	36554.91
652.171	36464.07
652.523	36469.49
652.875	36389.04
653.227	36225.21
653.578	36413.9
653.93	36407.35
654.282	36275.15
654.633	36102.95
654.985	36252.55
655.337	36134.36
655.688	36131.2
656.039	36355.37
656.391	35932.33
656.742	36111.54
657.094	35954.25
657.445	36076.06
657.796	36090.07
658.147	35929.62
658.498	35906.34
658.849	35984.99
659.2	35932.56
659.551	35811.66
659.902	36110.63
660.253	35845.1
660.604	35941.37
660.955	35757.65
661.306	35805.33
661.656	35758.1
662.007	35799.23
662.358	35849.17
662.708	35706.12
663.059	35731.43
663.409	35486.47
663.76	35762.62
664.11	35671.1
664.461	35649.18
664.811	35735.5
665.161	35687.37
665.511	35550.2
665.862	35625.67
666.212	35827.25
666.562	35716.07
666.912	35588.61
667.262	35599.46
667.612	35570.31
667.962	35550.65
668.312	35508.84
668.662	35572.57
669.011	35459.12
669.361	35514.49
669.711	35408.96
670.06	35549.07
670.41	35292.8
670.76	35264.33
671.109	35370.76
671.459	35253.48
671.808	35315.63
672.157	35273.82
672.507	35053.26
672.856	35079.47
673.205	35082.18
673.554	35114.73
673.904	34961.28
674.253	35312.69
674.602	35150.88
674.951	34634.29
675.3	34428.42
675.649	35096.2
675.998	34999.7
676.346	35086.7
676.695	35119.02
677.044	34808.97
677.393	34916.31
677.741	34893.72
678.09	34880.83
678.438	34665.92
678.787	34900.72
679.135	34841.74
679.484	34629.09
679.832	34720.39
680.181	34486.04
680.529	34533.72
680.877	34394.75
681.225	34463.9
681.573	34716.77
681.922	34430.45
682.27	34263.22
682.618	34422.54
682.966	34168.99
683.314	34255.09
683.661	34259.83
684.009	33991.37
684.357	33892.39
684.705	33975.32
685.053	33964.93
685.4	33840.86
685.748	33683.35
686.095	33653.07
686.443	33601.32
686.79	33558.38
687.138	33511.83
687.485	33500.31
687.832	33470.93
688.18	33569
688.527	33282.23
688.874	33325.85
689.221	33185.74
689.568	33019.87
689.915	32978.29
690.262	32951.62
690.609	32955.01
690.956	32834.56
691.303	32782.58
691.65	32695.36
691.997	32603.38
692.344	32406.78
692.69	32389.6
693.037	32609.93
693.383	32257.4
693.73	32294.91
694.077	32124.97
694.423	32200.68
694.769	32009.05
695.116	31990.51
695.462	31810.63
695.808	31661.48
696.155	31857.18
696.501	31517.98
696.847	31433.02
697.193	31356.86
697.539	31550.53
697.885	31129.29
698.231	31087.04
698.577	31113.93
698.923	31077.77
699.269	30796.87
699.614	30681.62
699.96	30686.14
700.306	30742.64
700.651	30529.76
700.997	30517.56
701.342	30505.36
701.688	30464.45
702.033	30307.85
702.379	30437.56
702.724	30175.87
703.069	30252.03
703.415	29861.53
703.76	29843
704.105	29919.61
704.45	29793.06
704.795	29660.41
705.14	29572.27
705.485	29567.3
705.83	29287.99
706.175	29454.76
706.52	29367.08
706.865	29246.86
707.209	29202.34
707.554	28990.82
707.899	29080.53
708.243	28998.28
708.588	29044.38
708.932	28938.17
709.277	28756.25
709.621	28879.86
709.966	28628.12
710.31	28806.87
710.654	28522.58
710.998	28560.55
711.342	28451.62
711.687	28348.12
712.031	28187.22
712.375	28124.18
712.719	28203.95
713.063	28221.12
713.407	28197.85
713.75	28016.16
714.094	27890.51
714.438	27967.34
714.782	27954.01
715.125	27801.7
715.469	27807.8
715.812	27652.55
716.156	27537.3
716.499	27576.85
716.843	27573.91
717.186	27398.32
717.53	27452.56
717.873	27436.74
718.216	27345.67
718.559	27218.66
718.902	27095.05
719.246	27284.88
719.589	27088.72
719.932	26859.8
720.275	26994.26
720.617	26946.35
720.96	26927.82
721.303	26820.03
721.646	26791.56
721.989	26676.08
722.331	26785.23
722.674	26585.91
723.016	26606.02
723.359	26542.3
723.701	26594.72
724.044	26338.91
724.386	26258.46
724.729	26428.18
725.071	26319.93
725.413	26307.05
725.755	26315.18
726.097	26236.99
726.439	26098.47
726.782	25993.84
727.124	26184.11
727.465	25944.12
727.807	25971.46
728.149	25989.99
728.491	25851.47
728.833	25910.22
729.175	25718.59
729.516	25826.38
729.858	25701.64
730.199	25848.08
730.541	25660.06
730.882	25621.42
731.224	25727.63
731.565	25544.81
731.906	25536.22
732.248	25557.69
732.589	25443.57
732.93	25370.12
733.271	25329.22
733.612	25281.99
733.953	25339.84
734.294	25215.33
734.635	25176.46
734.976	25239.05
735.317	25234.08
735.658	25283.8
735.999	25030.92
736.339	25004.48
736.68	24976.46
737.021	25011.26
737.361	24903.7
737.702	25021.21
738.042	24838.39
738.383	24769.91
738.723	24877.93
739.063	24643.59
739.404	24821.44
739.744	24747.99
740.084	24641.33
740.424	24666.41
740.764	24547.55
741.104	24610.37
741.444	24505.29
741.784	24322.24
742.124	24403.82
742.464	24345.29
742.804	24378.96
743.143	24239.76
743.483	24295.35
743.823	24170.83
744.162	24098.07
744.502	24146.2
744.841	23960.67
745.181	23978.3
745.52	23908.02
745.86	23944.4
746.199	23860.79
746.538	23815.14
746.877	23877.51
747.216	23882.25
747.556	23813.78
747.895	23712.54
748.234	23654.91
748.573	23552.32
748.911	23611.07
749.25	23620.11
749.589	23505.99
749.928	23438.2
750.267	23499.89
750.605	23249.28
750.944	23346.22
751.283	23136.06
751.621	23188.49
751.96	23055.38
752.298	23105.1
752.636	23042.28
752.975	22979
753.313	22916.63
753.651	23003.41
753.989	22867.59
754.327	22845.22
754.666	22745.11
755.004	22764.77
755.342	22812.68
755.679	22730.42
756.017	22627.15
756.355	22572.91
756.693	22481.39
757.031	22585.11
757.368	22342.41
757.706	22346.25
758.044	22192.13
758.381	22249.75
758.719	22302.41
759.056	22257.89
759.394	22137.67
759.731	22026.48
760.068	21943.32
760.405	21981.96
760.743	21879.37
761.08	21874.4
761.417	21663.1
761.754	21751.46
762.091	21646.83
762.428	21590.79
762.765	21385.82
763.102	21513.95
763.438	21343.56
763.775	21301.53
764.112	21191.02
764.449	21247.07
764.785	21083.91
765.122	20993.97
765.458	20925.49
765.795	20831.71
766.131	20928.88
766.467	20683.24
766.804	20586.29
767.14	20461.33
767.476	20449.8
767.812	20423.81
768.148	20495.68
768.485	20265.17
768.821	20221.78
769.157	20214.33
769.492	20172.07
769.828	20061.11
770.164	19958.97
770.5	19958.97
770.836	19876.26
771.171	19761.68
771.507	19735.02
771.842	19655.92
772.178	19586.77
772.513	19606.43
772.849	19493.22
773.184	19339.32
773.519	19349.72
773.855	19287.35
774.19	19124.19
774.525	19116.28
774.86	18997.41
775.195	19033.12
775.53	18895.49
775.865	18749.73
776.2	18631.54
776.535	18667.48
776.87	18636.52
777.205	18488.04
777.539	18416.86
777.874	18479.01
778.209	18343.64
778.543	18331.66
778.878	18180.71
779.212	18102.07
779.547	18025.01
779.881	18071.78
780.215	17955.4
780.55	17916.76
780.884	17905.69
781.218	17790.66
781.552	17775.07
781.886	17702.53
782.22	17510.9
782.554	17526.71
782.888	17359.04
783.222	17297.79
783.556	17227.97
783.889	17270.45
784.223	17114.97
784.557	17066.16
784.89	17079.72
785.224	17034.98
785.557	16917.92
785.891	16922.89
786.224	16811.93
786.558	16797.24
786.891	16603.8
787.224	16576.91
787.557	16520.64
787.891	16536.91
788.224	16545.5
788.557	16386.86
788.89	16400.87
789.223	16384.15
789.556	16217.6
789.888	16191.61
790.221	16080.65
790.554	15908.68
790.887	16000.65
791.219	15912.52
791.552	15877.04
791.884	15851.05
792.217	15768.34
792.549	15772.41
792.882	15630.94
793.214	15551.4
793.546	15455.81
793.879	15414.91
794.211	15395.47
794.543	15453.77
794.875	15264.85
795.207	15317.73
795.539	15307.11
795.871	15279.77
796.203	15145.08
796.535	15092.2
796.867	15047.23
797.198	14968.82
797.53	15020.57
797.862	14877.29
798.193	14880
798.525	14792.1
798.856	14775.37
799.188	14639.78
799.519	14692.66
799.85	14503.97
800.182	14460.35
800.513	14539
800.844	14475.95
801.175	14436.85
801.506	14470.3
801.837	14296.06
802.168	14386.23
802.499	14311.21
802.83	14168.61
803.161	14211.77
803.491	14080.25
803.822	14125.22
804.153	14036.64
804.483	13941.95
804.814	13990.08
805.145	13851.1
805.475	13866.25
805.805	13708.51
806.136	13836.42
806.466	13782.18
806.796	13717.77
807.126	13684.56
807.457	13526.14
807.787	13616.99
808.117	13593.94
808.447	13453.83
808.777	13518.01
809.107	13473.71
809.436	13334.51
809.766	13350.33
810.096	13318.24
810.426	13250.44
810.755	13257.67
811.085	13206.6
811.414	13211.35
811.744	13080.5
812.073	13064.68
812.403	13082.09
812.732	12964.12
813.061	12959.83
813.39	12916.21
813.719	12865.82
814.049	12931.58
814.378	12815.2
814.707	12768.87
815.036	12889.77
815.365	12747.63
815.693	12654.3
816.022	12663.34
816.351	12643
816.68	12588.31
817.008	12584.25
817.337	12394.42
817.665	12521.42
817.994	12547.64
818.322	12437.36
818.651	12333.18
818.979	12371.82
819.307	12410.24
819.636	12374.08
819.964	12324.59
820.292	12429.67
820.62	12262.9
820.948	12249.11
821.276	12269
821.604	12195.33
821.932	12234.65
822.259	12226.51
822.587	12245.05
822.915	12197.14
823.243	12271.94
823.57	12096.35
823.898	12217.7
824.225	12114.2
824.553	12098.38
824.88	12107.87
825.207	12147.19
825.535	12119.17
825.862	12143.8
826.189	12083.02
826.516	12113.75
826.843	12169.12
827.17	12187.19
827.497	12069
827.824	12189.68
828.151	12119.17
828.478	12136.57
828.805	12122.11
829.131	12144.03
829.458	12074.43
829.785	12058.61
830.111	12064.03
830.438	12114.43
830.764	12075.33
831.09	12092.28
831.417	12063.58
831.743	12005.96
832.069	12052.28
832.395	12019.74
832.722	12053.19
833.048	12014.09
833.374	11922.12
833.7	12007.54
834.026	11862
834.351	11971.61
834.677	11976.35
835.003	12023.13
835.329	11903.36
835.654	11959.86
835.98	11874.43
836.306	11894.09
836.631	11931.38
836.956	11933.64
837.282	11809.12
837.607	11781.33
837.932	11779.75
838.258	11756.02
838.583	11763.7
838.908	11646.64
839.233	11700.43
839.558	11734.1
839.883	11678.73
840.208	11566.19
840.533	11570.49
840.858	11623.82
841.182	11624.95
841.507	11590.15
841.832	11450.26
842.156	11490.26
842.481	11483.26
842.805	11465.86
843.13	11433.99
843.454	11395.8
843.778	11433.99
844.103	11372.98
844.427	11307.44
844.751	11346.31
845.075	11295.92
845.399	11236.71
845.723	11156.49
846.047	11212.3
846.371	11142.93
846.695	11087.56
847.019	11064.74
847.343	10917.85
847.666	10941.8
847.99	10837.62
848.313	10811.64
848.637	10784.29
848.96	10817.06
849.284	10804.86
849.607	10616.61
849.931	10580
850.254	10575.03
850.577	10530.74
850.9	10419.56
851.223	10475.37
851.546	10373
851.869	10268.83
852.192	10343.17
852.515	10262.72
852.838	10198.77
853.161	10267.92
853.483	10140.24
853.806	10127.13
854.129	10146.57
854.451	10003.07
854.774	10009.17
855.096	10043.07
855.419	9942.05
855.741	9965.33
856.063	9880.81
856.385	9898.67
856.708	9834.49
857.03	9840.59
857.352	9844.2
857.674	9760.82
857.996	9715.62
858.318	9585.23
858.64	9594.04
858.961	9619.13
859.283	9567.15
859.605	9488.73
859.926	9528.51
860.248	9585.23
860.57	9527.15
860.891	9507.94
861.212	9375.97
861.534	9383.2
861.855	9373.03
862.176	9433.14
862.498	9381.17
862.819	9383.88
863.14	9401.05
863.461	9314.27
863.782	9318.12
864.103	9269.98
864.424	9249.87
864.745	9293.48
865.065	9202.87
865.386	9192.24
865.707	9175.07
866.027	9179.82
866.348	9126.26
866.668	9179.14
866.989	9157.67
867.309	9022.76
867.63	9074.28
867.95	9049.65
868.27	9015.98
868.59	9028.41
868.91	8975.98
869.23	9003.1
869.55	8980.5
869.87	9024.56
870.19	8989.76
870.51	8992.48
870.83	8949.31
871.15	8961.29
871.469	8946.15
871.789	8905.92
872.109	8900.95
872.428	8881.52
872.748	8834.29
873.067	8856.43
873.386	8837.9
873.706	8790.9
874.025	8738.02
874.344	8796.32
874.663	8788.19
874.982	8708.64
875.301	8734.86
875.62	8743.67
875.939	8779.15
876.258	8728.3
876.577	8679.72
876.896	8615.76
877.214	8622.09
877.533	8585.48
877.852	8572.83
878.17	8603.79
878.489	8556.55
878.807	8544.13
879.125	8548.87
879.444	8508.87
879.762	8533.05
880.08	8570.11
880.398	8465.26
880.716	8495.77
881.034	8358.37
881.352	8375.99
881.67	8398.14
881.988	8404.47
882.306	8434.3
882.624	8334.64
882.941	8290.12
883.259	8339.61
883.577	8289.44
883.894	8281.76
884.212	8247.18
884.529	8223
884.846	8247.64
885.164	8288.99
885.481	8181.65
885.798	8161.54
886.115	8153.4
886.432	8161.08
886.75	8118.6
887.067	8080.86
887.383	8081.54
887.7	8010.13
888.017	8022.78
888.334	8041.77
888.651	7941.66
888.967	8029.34
889.284	7953.86
889.6	7902.11
889.917	7839.06
890.233	7874.99
890.55	7849.45
890.866	7834.31
891.182	7814.43
891.498	7792.96
891.815	7760.19
892.131	7741.66
892.447	7685.62
892.763	7699.18
893.079	7624.83
893.395	7677.03
893.71	7628.9
894.026	7565.39
894.342	7538.05
894.657	7544.38
894.973	7507.99
895.289	7575.56
895.604	7473.65
895.92	7483.14
896.235	7467.77
896.55	7395.46
896.865	7390.71
897.181	7346.19
897.496	7326.3
897.811	7300.54
898.126	7259.19
898.441	7228.91
898.756	7246.08
899.071	7217.61
899.386	7238.17
899.7	7144.84
900.015	7103.03
900.33	7068.91
900.644	7056.48
900.959	7014
901.273	7048.35
901.588	7027.33
901.902	7004.73
902.216	6970.38
902.531	6952.08
902.845	6877.28
903.159	6839.99
903.473	6837.96
903.787	6788.01
904.101	6809.93
904.415	6783.72
904.729	6741.01
905.042	6687.23
905.356	6721.57
905.67	6693.1
905.984	6724.96
906.297	6618.53
906.611	6559.55
906.924	6589.6
907.237	6482.94
907.551	6487
907.864	6481.36
908.177	6538.98
908.491	6495.14
908.804	6411.07
909.117	6398.87
909.43	6356.84
909.743	6306.9
910.056	6330.62
910.368	6303.05
910.681	6284.52
910.994	6289.95
911.307	6248.14
911.619	6164.08
911.932	6217.18
912.244	6142.15
912.557	6137.41
912.869	6058.99
913.181	6026.68
913.494	6047.69
913.806	6042.72
914.118	6003.63
914.43	5936.06
914.742	6017.86
915.054	5965.21
915.366	5856.29
915.678	5871.88
915.99	5819.68
916.302	5790.75
916.613	5779.23
916.925	5761.37
917.236	5783.07
917.548	5724.99
917.859	5721.15
918.171	5675.27
918.482	5688.83
918.794	5628.95
919.105	5609.29
919.416	5530.87
919.727	5560.25
920.038	5583.53
920.349	5499.91
920.66	5467.6
920.971	5495.17
921.282	5468.05
921.593	5481.16
921.903	5402.97
922.214	5352.57
922.525	5385.79
922.835	5317.09
923.146	5291.78
923.456	5274.16
923.767	5303.98
924.077	5254.27
924.387	5269.64
924.697	5200.03
925.008	5192.58
925.318	5195.06
925.628	5153.03
925.938	5159.81
926.248	5104.44
926.558	5034.61
926.867	5035.97
927.177	5025.35
927.487	5012.02
927.796	4956.65
928.106	4972.47
928.416	4981.28
928.725	4943.32
929.034	4882.53
929.344	4869.65
929.653	4859.25
929.962	4826.94
930.271	4867.84
930.581	4770.67
930.89	4780.16
931.199	4704.23
931.508	4725.47
931.817	4754.17
932.125	4737.22
932.434	4632.36
932.743	4643.44
933.051	4641.63
933.36	4615.64
933.669	4583.55
933.977	4557.34
934.286	4568.64
934.594	4539.03
934.902	4487.28
935.21	4481.86
935.519	4483.44
935.827	4445.7
936.135	4459.26
936.443	4398.25
936.751	4385.14
937.059	4418.13
937.367	4384.69
937.674	4342.88
937.982	4378.36
938.29	4309.21
938.597	4334.29
938.905	4289.32
939.213	4311.47
939.52	4222.43
939.827	4265.14
940.135	4207.06
940.442	4175.2
940.749	4195.54
941.056	4141.08
941.363	4124.58
941.67	4113.96
941.977	4079.61
942.284	4052.04
942.591	4061.08
942.898	4013.17
943.205	4034.64
943.511	3969.78
943.818	3973.4
944.125	3930.01
944.431	3956.45
944.738	3957.58
945.044	3920.97
945.35	3898.82
945.657	3910.58
945.963	3832.84
946.269	3849.79
946.575	3867.86
946.881	3817.92
947.187	3806.4
947.493	3753.29
947.799	3776.79
948.105	3719.85
948.41	3716.91
948.716	3719.85
949.022	3698.38
949.327	3663.35
949.633	3669.23
949.938	3673.07
950.244	3639.85
950.549	3656.57
950.854	3637.81
951.16	3638.27
951.465	3583.8
951.77	3548.1
952.075	3528.89
952.38	3504.71
952.685	3523.24
952.99	3495.44
953.294	3536.57
953.599	3447.31
953.904	3458.61
954.209	3438.05
954.513	3436.92
954.818	3430.36
955.122	3423.58
955.426	3415.67
955.731	3376.58
956.035	3375.22
956.339	3393.98
956.643	3363.24
956.948	3306.75
957.252	3310.36
957.556	3285.96
957.86	3278.5
958.163	3229.92
958.467	3283.02
958.771	3254.32
959.075	3243.47
959.378	3188.33
959.682	3245.73
959.985	3173.65
960.289	3147.21
960.592	3141.56
960.896	3095.68
961.199	3145.4
961.502	3115.34
961.805	3050.94
962.108	3060.88
962.411	3005.74
962.714	3078.51
963.017	3026.53
963.32	3069.24
963.623	3009.58
963.926	2995.34
964.228	2956.02
964.531	2967.55
964.833	2968.23
965.136	2948.11
965.438	2949.92
965.741	2926.65
966.043	2925.97
966.345	2893.2
966.648	2898.85
966.95	2847.1
967.252	2813.88
967.554	2896.59
967.856	2857.95
968.158	2798.74
968.46	2793.77
968.761	2802.36
969.063	2812.52
969.365	2789.25
969.666	2745.41
969.968	2769.59
970.269	2709.93
970.571	2770.27
970.872	2715.8
971.174	2702.47
971.475	2699.31
971.776	2681
972.077	2673.55
972.378	2655.47
972.679	2666.31
972.98	2649.82
973.281	2649.37
973.582	2662.02
973.883	2634.9
974.183	2570.95
974.484	2614.79
974.785	2585.64
975.085	2555.36
975.386	2543.38
975.686	2521.01
975.986	2506.32
976.287	2525.3
976.587	2498.63
976.887	2503.83
977.187	2469.71
977.487	2462.93
977.787	2452.76
978.087	2443.5
978.387	2480.56
978.687	2445.3
978.987	2435.81
979.286	2397.17
979.586	2425.19
979.885	2420.67
980.185	2367.34
980.484	2371.63
980.784	2356.04
981.083	2352.42
981.382	2365.76
981.682	2328.92
981.981	2308.81
982.28	2310.62
982.579	2283.27
982.878	2286.21
983.177	2289.6
983.475	2255.7
983.774	2264.97
984.073	2256.38
984.372	2251.86
984.67	2235.14
984.969	2229.26
985.267	2229.94
985.566	2202.6
985.864	2181.13
986.162	2198.76
986.461	2174.8
986.759	2164.18
987.057	2164.41
987.355	2146.1
987.653	2138.87
987.951	2122.15
988.249	2107.68
988.547	2134.12
988.844	2085.54
989.142	2118.53
989.44	2072.88
989.737	2061.81
990.035	2043.96
990.332	2053.45
990.63	2046.44
990.927	2048.25
991.224	2016.84
991.521	2030.85
991.819	2005.77
992.116	2025.43
992.413	1990.4
992.71	1990.17
993.006	1969.61
993.303	1975.94
993.6	1967.58
993.897	1909.5
994.193	1931.42
994.49	1937.97
994.787	1930.06
995.083	1885.09
995.379	1882.61
995.676	1897.07
995.972	1869.27
996.268	1870.63
996.565	1853.23
996.861	1842.38
997.157	1849.61
997.453	1830.86
997.749	1813
998.044	1843.51
998.34	1811.65
998.636	1816.17
998.932	1816.84
999.227	1802.83
999.523	1794.7
999.818	1777.3
1000.114	1769.61
1000.409	1766
1000.704	1722.38
1001	1706.11
1001.295	1719.22
1001.59	1740.46
1001.885	1729.16
1002.18	1696.85
1002.475	1672.89
1002.77	1671.76
1003.065	1669.28
1003.359	1666.79
1003.654	1655.95
1003.949	1640.58
1004.243	1645.32
1004.538	1617.08
1004.832	1611.65
1005.127	1618.66
1005.421	1611.88
1005.715	1573.69
1006.009	1580.47
1006.304	1556.51
1006.598	1575.5
1006.892	1581.82
1007.186	1563.29
1007.48	1542.05
1007.773	1547.47
1008.067	1518.32
1008.361	1529.62
1008.655	1506.8
1008.948	1496.85
1009.242	1483.07
1009.535	1482.62
1009.829	1467.02
1010.122	1465.44
1010.415	1450.3
1010.708	1452.11
1011.001	1464.99
1011.295	1432.45
1011.588	1443.3
1011.881	1429.06
1012.173	1410.75
1012.466	1406.91
1012.759	1392
1013.052	1421.15
1013.344	1363.75
1013.637	1361.04
1013.93	1359.23
1014.222	1368.27
1014.514	1368.04
1014.807	1363.52
1015.099	1317.65
1015.391	1340.47
1015.683	1325.33
1015.976	1321.04
1016.268	1298.67
1016.56	1294.15
1016.851	1301.15
1017.143	1298.21
1017.435	1241.27
1017.727	1260.48
1018.018	1245.11
1018.31	1258.22
1018.602	1248.05
1018.893	1248.27
1019.185	1227.71
1019.476	1210.99
1019.767	1191.78
1020.058	1204.88
1020.35	1199.23
1020.641	1207.37
1020.932	1184.55
1021.223	1192.23
1021.514	1169.86
1021.804	1160.82
1022.095	1144.77
1022.386	1146.58
1022.677	1142.06
1022.967	1133.7
1023.258	1140.93
1023.548	1143.64
1023.839	1101.61
1024.129	1120.59
1024.419	1097.32
1024.709	1091.44
1025	1084.21
1025.29	1079.46
1025.58	1076.07
1025.87	1059.58
1026.16	1073.59
1026.449	1050.76
1026.739	1055.51
1027.029	1048.96
1027.319	1022.52
1027.608	1021.39
1027.898	1036.53
1028.187	1034.49
1028.477	1012.12
1028.766	1032.68
1029.055	989.75
1029.344	997.88
1029.634	984.78
1029.923	958.11
1030.212	972.8
1030.501	957.88
1030.79	982.52
1031.078	966.25
1031.367	957.21
1031.656	949.98
1031.945	915.4
1032.233	930.54
1032.522	910.88
1032.81	920.82
1033.099	919.47
1033.387	898
1033.675	911.11
1033.963	895.29
1034.251	917.89
1034.54	888.96
1034.828	884.44
1035.116	877.66
1035.403	870.2
1035.691	869.98
1035.979	846.25
1036.267	854.38
1036.554	855.97
1036.842	874.04
1037.129	822.75
1037.417	835.18
1037.704	828.85
1037.992	827.72
1038.279	822.97
1038.566	836.76
1038.853	836.76
1039.14	836.76
