Data from plate_ceramic_FLMS001491_074.txt Node
Date: Tue Feb 07 11:17:16 GMT 2017
User: dcchb
Spectrometer: FLMS00149
Trigger mode: 0
Integration Time (sec): 2.000000E-2
Scans to average: 10
Electric dark correction enabled: true
Nonlinearity correction enabled: false
Boxcar width: 0
XAxis mode: Wavelengths
Number of Pixels in Spectrum: 2048
>>>>>Begin Spectral Data<<<<<
341.393	-32.88
341.776	-32.88
342.16	-32.88
342.543	-68.59
342.927	-68.13
343.31	-74.01
343.693	-71.75
344.077	-62.94
344.46	-70.85
344.843	-38.53
345.226	-33.78
345.61	-27.46
345.993	-17.29
346.376	-23.39
346.759	21.13
347.142	43.28
347.525	45.08
347.908	51.64
348.291	61.13
348.674	81.47
349.057	116.27
349.44	116.72
349.823	151.52
350.206	169.37
350.588	218.41
350.971	230.39
351.354	236.72
351.737	229.71
352.119	272.87
352.502	279.88
352.884	286.89
353.267	309.71
353.65	328.24
354.032	322.59
354.414	330.27
354.797	328.47
355.179	333.66
355.562	330.73
355.944	332.76
356.326	333.66
356.709	321.01
357.091	372.08
357.473	363.27
357.855	337.05
358.238	343.83
358.62	354
359.002	352.42
359.384	361.69
359.766	373.66
360.148	377.73
360.53	366.88
360.912	355.81
361.294	342.7
361.676	340.89
362.057	342.93
362.439	363.27
362.821	361.23
363.203	342.25
363.584	349.48
363.966	359.2
364.348	340.44
364.729	352.87
365.111	336.38
365.493	369.59
365.874	359.88
366.256	330.05
366.637	348.13
367.019	366.66
367.4	331.63
367.781	350.84
368.163	365.3
368.544	372.31
368.925	363.04
369.306	365.3
369.688	359.43
370.069	358.97
370.45	345.87
370.831	337.28
371.212	357.84
371.593	341.35
371.974	348.58
372.355	352.65
372.736	367.79
373.117	376.6
373.498	376.15
373.879	352.65
374.26	346.32
374.641	352.87
375.021	350.39
375.402	379.99
375.783	382.93
376.163	402.59
376.544	396.71
376.925	386.77
377.305	393.55
377.686	386.77
378.066	388.8
378.447	397.16
378.827	398.52
379.208	402.59
379.588	405.07
379.968	399.42
380.349	414.79
380.729	422.25
381.109	416.37
381.489	429.71
381.87	416.6
382.25	418.18
382.63	427.9
383.01	411.85
383.39	413.89
383.77	424.96
384.15	446.65
384.53	455.69
384.91	461.34
385.29	441.68
385.67	460.89
386.049	461.8
386.429	472.42
386.809	466.77
387.189	486.65
387.568	472.42
387.948	480.55
388.328	464.51
388.707	486.65
389.087	476.26
389.466	490.5
389.846	503.83
390.225	509.03
390.605	519.2
390.984	524.62
391.363	513.09
391.743	509.93
392.122	512.64
392.501	567.56
392.881	518.52
393.26	552.87
393.639	531.4
394.018	539.31
394.397	564.84
394.776	566.2
395.155	550.38
395.534	574.34
395.913	568.91
396.292	561.45
396.671	596.93
397.05	585.86
397.429	600.78
397.808	591.28
398.186	580.66
398.565	619.76
398.944	643.71
399.323	629.93
399.701	629.02
400.08	658.17
400.458	630.15
400.837	643.26
401.215	647.55
401.594	670.6
401.972	651.17
402.351	699.98
402.729	675.8
403.107	682.35
403.486	705.63
403.864	696.82
404.242	709.92
404.62	729.13
404.999	721.68
405.377	718.74
405.755	746.08
406.133	740.43
406.511	749.02
406.889	761.45
407.267	770.04
407.645	771.84
408.023	778.85
408.401	798.96
408.779	806.42
409.156	814.1
409.534	824.05
409.912	853.42
410.29	857.49
410.667	885.29
411.045	857.04
411.422	881.22
411.8	891.84
412.178	886.42
412.555	929.13
412.933	909.69
413.31	963.03
413.687	930.71
414.065	981.33
414.442	972.74
414.819	991.95
415.197	1009.58
415.574	988.11
415.951	1017.94
416.328	1010.26
416.705	1035.79
417.082	1020.2
417.46	1071.05
417.837	1063.14
418.214	1080.08
418.591	1094.55
418.967	1090.25
419.344	1106.3
419.721	1115.11
420.098	1153.98
420.475	1160.08
420.852	1143.36
421.228	1180.19
421.605	1181.1
421.982	1193.75
422.358	1198.73
422.735	1227.65
423.111	1232.62
423.488	1259.29
423.864	1255
424.241	1271.94
424.617	1291.83
424.994	1318.04
425.37	1304.26
425.746	1322.11
426.123	1327.54
426.499	1358.27
426.875	1371.6
427.251	1400.98
427.627	1395.56
428.003	1418.83
428.379	1437.59
428.756	1454.76
429.132	1474.42
429.507	1519.4
429.883	1476.23
430.259	1547.64
430.635	1541.99
431.011	1554.2
431.387	1615.21
431.763	1621.54
432.138	1647.08
432.514	1657.24
432.89	1657.24
433.265	1720.75
433.641	1744.7
434.016	1724.59
434.392	1745.38
434.767	1837.8
435.143	1835.54
435.518	1815.66
435.894	1863.11
436.269	1866.28
436.644	1906.28
437.02	1926.16
437.395	1918.93
437.77	1958.71
438.145	2000.96
438.52	1980.85
438.895	2006.16
439.271	2039.83
439.646	2056.56
440.021	2074.86
440.395	2082.32
440.77	2074.86
441.145	2106.5
441.52	2131.36
441.895	2148.76
442.27	2175.65
442.645	2133.84
443.019	2191.47
443.394	2201.19
443.769	2232.37
444.143	2233.5
444.518	2267.85
444.892	2247.29
445.267	2308.75
445.641	2320.5
446.016	2316.66
446.39	2336.32
446.764	2343.78
447.139	2348.3
447.513	2392.59
447.887	2431.69
448.262	2411.12
448.636	2421.97
449.01	2492.7
449.384	2496.09
449.758	2488.18
450.132	2516.21
450.506	2548.52
450.88	2534.74
451.254	2546.49
451.628	2590.33
452.002	2630.33
452.376	2649.76
452.75	2704.67
453.123	2727.5
453.497	2786.03
453.871	2756.2
454.244	2844.33
454.618	2832.35
454.992	2893.14
455.365	2915.06
455.739	2990.32
456.112	2994.84
456.486	3047.49
456.859	3061.05
457.232	3130.65
457.606	3139.69
457.979	3137.21
458.352	3223.31
458.725	3225.56
459.099	3276.64
459.472	3319.12
459.845	3389.85
460.218	3405.22
460.591	3417.88
460.964	3470.53
461.337	3525.67
461.71	3602.73
462.083	3672.11
462.456	3659.23
462.829	3597.76
463.201	3720.92
463.574	3753.23
463.947	3811.09
464.32	3931.08
464.692	3957.3
465.065	3990.06
465.438	4023.96
465.81	4116.84
466.183	4157.29
466.555	4187.8
466.928	4269.15
467.3	4276.16
467.672	4362.71
468.045	4489.94
468.417	4490.84
468.789	4491.75
469.161	4555.93
469.534	4626.43
469.906	4730.61
470.278	4763.15
470.65	4809.48
471.022	4917.27
471.394	5002.69
471.766	5081.79
472.138	5110.26
472.51	5207.89
472.882	5265.96
473.253	5336.24
473.625	5482
473.997	5522
474.369	5586.18
474.74	5591.38
475.112	5779.62
475.484	5828.43
475.855	5980.75
476.227	6044.25
476.598	6180.97
476.97	6209.67
477.341	6365.82
477.713	6438.59
478.084	6452.82
478.455	6666.15
478.827	6734.63
479.198	7007.16
479.569	6961.51
479.94	7129.87
480.311	7193.37
480.682	7428.39
481.053	7568.73
481.424	7672.45
481.795	7778.89
482.166	7868.83
482.537	7980.69
482.908	8147.92
483.279	8213.91
483.65	8421.81
484.021	8569.83
484.391	8664.29
484.762	8701.58
485.133	8822.93
485.503	8981.57
485.874	9145.41
486.244	9193.32
486.615	9367.55
486.985	9528.22
487.356	9689.8
487.726	9835.33
488.097	10028.78
488.467	10080.53
488.837	10318.26
489.207	10404.59
489.578	10514.86
489.948	10635.77
490.318	10771.58
490.688	10773.84
491.058	11002.76
491.428	11123.44
491.798	11224.9
492.168	11461.51
492.538	11517.1
492.908	11623.08
493.278	11859.91
493.648	11920.03
494.017	12019.01
494.387	12154.37
494.757	12259.45
495.126	12421.71
495.496	12518.65
495.866	12574.92
496.235	12632.1
496.605	12760
496.974	12984.18
497.344	13061.92
497.713	13090.16
498.082	13158.19
498.452	13276.37
498.821	13360.89
499.19	13415.58
499.559	13623.26
499.928	13743.71
500.298	13776.25
500.667	13838.17
501.036	13897.37
501.405	14032.74
501.774	14129.91
502.143	14265.27
502.512	14398.83
502.88	14500.3
503.249	14483.12
503.618	14679.28
503.987	14714.53
504.356	14839.95
504.724	14904.81
505.093	14939.38
505.462	15086.95
505.83	15175.76
506.199	15327.39
506.567	15442.42
506.936	15541.63
507.304	15724.45
507.672	15769.19
508.041	15843.54
508.409	16032.91
508.777	16142.51
509.145	16242.17
509.514	16265.9
509.882	16425.44
510.25	16462.73
510.618	16588.38
510.986	16697.53
511.354	16875.38
511.722	17025.2
512.09	17149.27
512.458	17189.27
512.826	17437.62
513.193	17469.03
513.561	17505.64
513.929	17669.7
514.297	17812.07
514.664	18061.56
515.032	18028.11
515.4	18207.54
515.767	18269.69
516.135	18341.55
516.502	18339.52
516.869	18732.95
517.237	18824.7
517.604	18811.82
517.972	19124.81
518.339	19216.56
518.706	19254.75
519.073	19372.94
519.44	19606.6
519.808	19768.18
520.175	19791.23
520.542	20032.58
520.909	20127.95
521.276	20176.76
521.643	20303.08
522.009	20528.39
522.376	20655.62
522.743	20780.81
523.11	21032.1
523.477	21191.19
523.843	21338.31
524.21	21595.93
524.577	21721.8
524.943	21821.23
525.31	21978.52
525.676	22138.06
526.043	22305.29
526.409	22424.61
526.776	22750.02
527.142	22804.71
527.508	23026.17
527.874	23115.21
528.241	23282.66
528.607	23461.64
528.973	23671.58
529.339	23675.65
529.705	23829.54
530.071	24035.41
530.437	24071.34
530.803	24321.96
531.169	24484.44
531.535	24523.99
531.901	24597.88
532.267	24777.31
532.632	24944.32
532.998	25097.31
533.364	25269.96
533.73	25222.27
534.095	25521.93
534.461	25487.13
534.826	25597.86
535.192	25787.68
535.557	25970.73
535.923	25979.77
536.288	26092.53
536.653	26229.93
537.019	26217.5
537.384	26424.28
537.749	26575.91
538.114	26588.11
538.479	26558.06
538.845	26768.22
539.21	26744.72
539.575	26967.54
539.94	27094.99
540.305	27172.96
540.67	27158.49
541.034	27416.12
541.399	27428.32
541.764	27465.38
542.129	27770.68
542.494	27778.82
542.858	27857.23
543.223	28010.9
543.587	28220.61
543.952	28103.1
544.316	28200.5
544.681	28309.88
545.045	28546.03
545.41	28546.48
545.774	28544.9
546.138	28518.91
546.503	28652.24
546.867	28703.54
547.231	29040.71
547.595	29074.38
547.959	29140.82
548.324	29133.81
548.688	29450.64
549.052	29533.35
549.416	29585.55
549.779	29699.9
550.143	29762.04
550.507	29964.52
550.871	29961.13
551.235	30106.89
551.599	30294.91
551.962	30319.99
552.326	30424.17
552.689	30614.9
553.053	30650.38
553.417	30651.51
553.78	31128.56
554.143	31020.09
554.507	31159.75
554.87	31197.26
555.234	31538.27
555.597	31502.34
555.96	31520.64
556.323	31767.19
556.686	31849.67
557.05	32148.42
557.413	32134.41
557.776	32300.28
558.139	32422.54
558.502	32497.34
558.865	32534.17
559.228	32904.78
559.59	33148.39
559.953	33142.52
560.316	33420.03
560.679	33325.56
561.041	33608.95
561.404	33788.38
561.767	33985.66
562.129	33988.15
562.492	34395.14
562.854	34425.2
563.217	34298.87
563.579	34589.71
563.941	34805.98
564.304	35027.44
564.666	35101.56
565.028	35240.54
565.39	35355.12
565.753	35544.72
566.115	35635.79
566.477	35823.58
566.839	35842.33
567.201	36179.27
567.563	36222.89
567.925	36471.7
568.287	36450.45
568.648	36535.88
569.01	36678.24
569.372	37028.07
569.734	36989.87
570.095	37188.06
570.457	37228.96
570.819	37392.58
571.18	37452.24
571.542	37666.92
571.903	37797.99
572.265	37926.12
572.626	37980.58
572.987	38043.86
573.349	38278.65
573.71	38283.4
574.071	38548.25
574.432	38495.82
574.794	38690.62
575.155	38816.27
575.516	38738.98
575.877	38857.85
576.238	38888.81
576.599	39157.95
576.96	39100.33
577.32	39116.15
577.681	39385.29
578.042	39497.61
578.403	39482.01
578.763	39569.47
579.124	39681.33
579.485	39856.01
579.845	39948.22
580.206	39713.87
580.566	39808.56
580.927	39856.47
581.287	40063.47
581.648	39823.02
582.008	39964.94
582.368	39890.59
582.728	40053.07
583.089	40111.37
583.449	40044.94
583.809	40106.4
584.169	40230.47
584.529	40110.02
584.889	40439.28
585.249	40127.65
585.609	40149.79
585.969	40432.27
586.329	40382.78
586.688	40375.1
587.048	40283.8
587.408	40176.68
587.768	40180.53
588.127	40157.48
588.487	40256.91
588.846	40477.47
589.206	40239.96
589.565	40403.8
589.925	40428.2
590.284	40218.26
590.643	40443.57
591.003	40544.36
591.362	40594.3
591.721	40557.46
592.08	40596.11
592.44	40633.85
592.799	40723.11
593.158	40739.83
593.517	40585.49
593.876	40604.7
594.235	40583.45
594.593	40628.65
594.952	40806.27
595.311	40635.65
595.67	40713.17
596.029	40966.27
596.387	40947.74
596.746	40912.71
597.104	40810.79
597.463	40779.83
597.822	41044.68
598.18	40899.15
598.538	40873.39
598.897	41285.58
599.255	41042.42
599.613	41611.9
599.972	41260.5
600.33	41419.59
600.688	41170.56
601.046	41211.46
601.404	41451.9
601.762	41266.6
602.12	41447.84
602.478	41491
602.836	41444.67
603.194	41221.18
603.552	41439.7
603.91	41325.35
604.268	41519.47
604.625	41573.71
604.983	41424.79
605.341	41570.09
605.698	41773.25
606.056	41724.67
606.413	41763.31
606.771	41880.82
607.128	41836.53
607.485	41870.42
607.843	41850.76
608.2	41986.35
608.557	42032.91
608.914	41876.98
609.272	42140.93
609.629	42227.7
609.986	42378.43
610.343	42032.91
610.7	42471.09
611.057	42515.61
611.414	42363.29
611.771	42384.76
612.127	42506.34
612.484	42447.36
612.841	42679.89
613.198	42474.25
613.554	42592.44
613.911	42826.11
614.267	42824.75
614.624	42755.37
614.98	42823.85
615.337	42974.58
615.693	43016.84
616.05	42980.68
616.406	43276.72
616.762	42914.01
617.118	43085.31
617.475	43120.11
617.831	43140.67
618.187	43225.42
618.543	43118.08
618.899	43212.99
619.255	43184.74
619.611	43272.42
619.967	43334.11
620.323	43470.83
620.678	43390.38
621.034	43239.88
621.39	43245.3
621.746	43279.88
622.101	43561.45
622.457	43298.86
622.812	43381.8
623.168	43594.45
623.523	43462.47
623.879	43586.09
624.234	43334.11
624.589	43402.81
624.945	43474.68
625.3	43546.99
625.655	43467.9
626.01	43527.78
626.365	43682.58
626.72	43497.95
627.075	43430.61
627.43	43447.11
627.785	43266.09
628.14	43361.46
628.495	43402.14
628.85	43437.16
629.205	43383.61
629.559	43387.9
629.914	43257.73
630.269	43330.5
630.623	43139.77
630.978	43237.62
631.332	43286.88
631.687	43301.35
632.041	43169.83
632.396	43188.81
632.75	42962.6
633.104	43082.14
633.459	42816.84
633.813	42769.16
634.167	42825.88
634.521	42803.51
634.875	42880.12
635.229	42734.13
635.583	42601.25
635.937	42487.36
636.291	42616.39
636.645	42554.02
636.999	42582.72
637.352	42502.5
637.706	42423.18
638.06	42629.95
638.413	42288.04
638.767	42119.23
639.121	42425.21
639.474	42071.32
639.828	42003.75
640.181	42095.05
640.534	42158.55
640.888	41968.5
641.241	41760.14
641.594	41854.61
641.947	41992.91
642.301	41786.13
642.654	41900.03
643.007	41910.2
643.36	41783.87
643.713	41605.12
644.066	41792.01
644.419	41565.12
644.771	41135.98
645.124	40898.7
645.477	40699.16
645.83	40509.33
646.182	40269.79
646.535	40258.94
646.888	40473.85
647.24	40233.63
647.593	40394.08
647.945	40121.09
648.298	40156.12
648.65	40045.84
649.002	39886.75
649.355	40129.68
649.707	40123.58
650.059	39965.16
650.411	40505.26
650.763	40531.7
651.115	40975.08
651.467	40756.56
651.819	40831.13
652.171	40676.78
652.523	40649.21
652.875	40600.63
653.227	40480.63
653.578	40699.61
653.93	40623.23
654.282	40321.99
654.633	40300.07
654.985	40441.76
655.337	40373.97
655.688	40382.33
656.039	40610.12
656.391	40116.57
656.742	40310.01
657.094	40258.94
657.445	40306.62
657.796	40168.1
658.147	40232.5
658.498	40191.82
658.849	40207.42
659.2	40246.96
659.551	40012.17
659.902	40164.25
660.253	40037.48
660.604	40162.9
660.955	39950.47
661.306	40053.75
661.656	39902.11
662.007	39945.96
662.358	39895.34
662.708	40045.16
663.059	39911.15
663.409	39649.01
663.76	39889.69
664.11	39750.93
664.461	39846.97
664.811	39771.04
665.161	39912.28
665.511	39708.22
665.862	39644.27
666.212	39858.27
666.562	39912.96
666.912	39830.25
667.262	39571.95
667.612	39678.17
667.962	39573.76
668.312	39427.78
668.662	39643.14
669.011	39520.2
669.361	39510.71
669.711	39402.24
670.06	39582.35
670.41	39470.26
670.76	39362.47
671.109	39507.55
671.459	39381.45
671.808	39272.3
672.157	39493.54
672.507	39097.39
672.856	39072.76
673.205	39158.63
673.554	39310.72
673.904	39174.68
674.253	39352.98
674.602	39099.65
674.951	38814.91
675.3	38530.17
675.649	39181.46
675.998	39027.11
676.346	39222.13
676.695	39107.33
677.044	38785.53
677.393	38978.75
677.741	39107.33
678.09	38756.16
678.438	38836.38
678.787	38860.56
679.135	38860.11
679.484	38665.31
679.832	38613.11
680.181	38572.21
680.529	38564.07
680.877	38494.24
681.225	38346.9
681.573	38720
681.922	38383.96
682.27	38220.35
682.618	38308.03
682.966	38175.38
683.314	38278.2
683.661	38273.46
684.009	37898.1
684.357	37907.14
684.705	37786.24
685.053	37896.07
685.4	37897.65
685.748	37654.94
686.095	37607.94
686.443	37513.48
686.79	37466.47
687.138	37462.63
687.485	37476.64
687.832	37208.85
688.18	37344.44
688.527	37200.72
688.874	37133.15
689.221	36998.69
689.568	36798.02
689.915	36884.79
690.262	36868.3
690.609	36925.7
690.956	36665.59
691.303	36553.73
691.65	36389.21
691.997	36451.36
692.344	36281.42
692.69	36198.48
693.037	36249.78
693.383	36103.12
693.73	36138.82
694.077	35847.08
694.423	35871.03
694.769	35763.69
695.116	35596.47
695.462	35641.44
695.808	35506.98
696.155	35524.6
696.501	35235.34
696.847	35278.51
697.193	34947.67
697.539	35017.95
697.885	34797.39
698.231	34717.39
698.577	34704.51
698.923	34577.51
699.269	34538.64
699.614	34300.45
699.96	34235.6
700.306	34351.53
700.651	34187.46
700.997	34110.85
701.342	34046.45
701.688	33909.5
702.033	33668.38
702.379	33884.65
702.724	33674.71
703.069	33804.65
703.415	33359.91
703.76	33467.93
704.105	33451.44
704.45	33279.24
704.795	33040.6
705.14	32993.82
705.485	32923.99
705.83	32903.2
706.175	33001.28
706.52	32805.58
706.865	32766.26
707.209	32631.8
707.554	32561.06
707.899	32584.79
708.243	32501.18
708.588	32489.88
708.932	32187.97
709.277	32143.67
709.621	32264.35
709.966	32084.02
710.31	32095.99
710.654	31904.81
710.998	31851.25
711.342	31848.32
711.687	31724.48
712.031	31592.95
712.375	31587.53
712.719	31610.58
713.063	31599.51
713.407	31630.69
713.75	31223.25
714.094	31352.28
714.438	31178.28
714.782	31185.73
715.125	31139.86
715.469	31172.17
715.812	31107.32
716.156	30731.06
716.499	30870.94
716.843	30923.37
717.186	30643.6
717.53	30901.22
717.873	30700.32
718.216	30613.09
718.559	30513.43
718.902	30371.97
719.246	30444.74
719.589	30363.16
719.932	30080.9
720.275	30061.02
720.617	30122.71
720.96	30116.84
721.303	30051.07
721.646	30024.41
721.989	29715.72
722.331	30012.66
722.674	29685.43
723.016	29743.06
723.359	29789.61
723.701	29780.57
724.044	29586.23
724.386	29387.59
724.729	29608.37
725.071	29365.89
725.413	29393.69
725.755	29411.32
726.097	29153.47
726.439	29165.45
726.782	29080.03
727.124	29243.19
727.465	29054.49
727.807	29040.93
728.149	28931.1
728.491	28980.59
728.833	28876.42
729.175	28766.81
729.516	28774.5
729.858	28736.31
730.199	28765.23
730.541	28719.81
730.882	28640.72
731.224	28654.27
731.565	28514.39
731.906	28618.12
732.248	28428.07
732.589	28385.81
732.93	28244.79
733.271	28436.2
733.612	28304.68
733.953	28244.12
734.294	28176.32
734.635	28046.38
734.976	28122.31
735.317	28115.98
735.658	28092.93
735.999	28097
736.339	28050.67
736.68	28032.82
737.021	27868.98
737.361	27838.7
737.702	27781.53
738.042	27718.93
738.383	27600.74
738.723	27794.18
739.063	27627.41
739.404	27659.72
739.744	27620.18
740.084	27452.5
740.424	27497.92
740.764	27378.15
741.104	27444.36
741.444	27316.46
741.784	27304.03
742.124	27202.11
742.464	27240.98
742.804	27076.92
743.143	27084.37
743.483	27112.85
743.823	27047.09
744.162	26968.67
744.502	27004.6
744.841	26777.94
745.181	26886.86
745.52	26769.35
745.86	26813.42
746.199	26753.08
746.538	26697.72
746.877	26753.76
747.216	26680.77
747.556	26494.56
747.895	26445.75
748.234	26465.86
748.573	26457.95
748.911	26358.29
749.25	26410.04
749.589	26121.23
749.928	26263.15
750.267	26178.86
750.605	26090.27
750.944	25966.89
751.283	25913.33
751.621	25978.86
751.96	25806.89
752.298	25844.86
752.636	25820.23
752.975	25685.31
753.313	25410.97
753.651	25777.74
753.989	25560.57
754.327	25509.72
754.666	25431.08
755.004	25381.59
755.342	25476.96
755.679	25433.12
756.017	25251.65
756.355	25284.42
756.693	25191.32
757.031	25247.13
757.368	25133.46
757.706	24955.84
758.044	24807.14
758.381	24877.65
758.719	24890.31
759.056	24775.96
759.394	24721.5
759.731	24556.3
760.068	24626.13
760.405	24466.59
760.743	24309.76
761.08	24448.51
761.417	24252.81
761.754	24203.32
762.091	24036.77
762.428	23957.22
762.765	23891.91
763.102	23853.95
763.438	23750
763.775	23738.02
764.112	23736.21
764.449	23747.06
764.785	23592.04
765.122	23414.41
765.458	23371.25
765.795	23363.34
766.131	23308.2
766.467	23197.92
766.804	23091.48
767.14	23005.38
767.476	22948.21
767.812	22907.76
768.148	22904.37
768.485	22753.64
768.821	22660.08
769.157	22597.48
769.492	22597.26
769.828	22488.34
770.164	22215.35
770.5	22194.78
770.836	22331.28
771.171	22079.98
771.507	22070.04
771.842	21934.9
772.178	21887.67
772.513	21868.24
772.849	21787.11
773.184	21612.88
773.519	21605.19
773.855	21525.42
774.19	21384.86
774.525	21420.34
774.86	21353.68
775.195	21300.34
775.53	21198.2
775.865	20973.12
776.2	20915.04
776.535	20792.11
776.87	20756.4
777.205	20664.65
777.539	20582.62
777.874	20688.83
778.209	20511.21
778.543	20410.88
778.878	20355.51
779.212	20313.03
779.547	20121.17
779.881	20222.41
780.215	20079.36
780.55	19995.29
780.884	19961.4
781.218	19800.5
781.552	19809.31
781.886	19593.95
782.22	19584
782.554	19528.87
782.888	19409.77
783.222	19377
783.556	19230.79
783.889	19201.42
784.223	19082.1
784.557	19064.7
784.89	19108.76
785.224	18893.18
785.557	18750.35
785.891	18769.56
786.224	18714.2
786.558	18709.23
786.891	18553.52
787.224	18437.59
787.557	18541.32
787.891	18364.38
788.224	18406.41
788.557	18272.85
788.89	18394.21
789.223	18220.88
789.556	18091.16
789.888	18002.35
790.221	18003.71
790.554	17773.88
790.887	17811.62
791.219	17681.23
791.552	17696.82
791.884	17661.57
792.217	17588.58
792.549	17506.32
792.882	17443.72
793.214	17303.16
793.546	17370.73
793.879	17198.08
794.211	17148.36
794.543	17145.2
794.875	17013.9
795.207	17122.83
795.539	17048.48
795.871	16985.66
796.203	16867.69
796.535	16788.37
796.867	16711.76
797.198	16771.42
797.53	16699.33
797.862	16476.74
798.193	16486.23
798.525	16495.05
798.856	16540.7
799.188	16309.51
799.519	16303.19
799.85	16220.25
800.182	16225
800.513	16209.86
800.844	15979.13
801.175	16069.29
801.506	16130.31
801.837	15997.66
802.168	15924.67
802.499	15965.34
802.83	15889.19
803.161	15864.1
803.491	15819.81
803.822	15696.88
804.153	15643.77
804.483	15384.34
804.814	15430.89
805.145	15472.47
805.475	15429.54
805.805	15342.31
806.136	15325.36
806.466	15445.81
806.796	15366.04
807.126	15137.57
807.457	15061.19
807.787	15098.47
808.117	15075.87
808.447	15005.37
808.777	15025.93
809.107	14912.04
809.436	14881.3
809.766	14917.46
810.096	14913.85
810.426	14849.67
810.755	14782.78
811.085	14633.85
811.414	14573.74
811.744	14630.69
812.073	14604.47
812.403	14492.61
812.732	14470.02
813.061	14451.94
813.39	14284.48
813.719	14356.12
814.049	14493.74
814.378	14274.09
814.707	14239.51
815.036	14275.22
815.365	14158.84
815.693	14135.79
816.022	14140.31
816.351	14119.97
816.68	13930.59
817.008	13994.55
817.337	13976.47
817.665	13853.99
817.994	13969.24
818.322	13884.49
818.651	13762.46
818.979	13729.02
819.307	13830.94
819.636	13788.23
819.964	13691.05
820.292	13789.58
820.62	13749.36
820.948	13658.28
821.276	13623.71
821.604	13594.11
821.932	13549.81
822.259	13692.86
822.587	13598.17
822.915	13566.31
823.243	13585.29
823.57	13512.3
823.898	13527.67
824.225	13557.72
824.553	13498.06
824.88	13476.82
825.207	13468.46
825.535	13524.28
825.862	13507.1
826.189	13415.35
826.516	13494
826.843	13519.98
827.17	13503.26
827.497	13482.7
827.824	13505.52
828.151	13531.51
828.478	13430.49
828.805	13509.36
829.131	13416.94
829.458	13416.94
829.785	13370.83
830.111	13383.72
830.438	13391.17
830.764	13440.89
831.09	13432.08
831.417	13461.23
831.743	13461.45
832.069	13387.78
832.395	13363.83
832.722	13405.64
833.048	13326.54
833.374	13336.26
833.7	13244.74
834.026	13277.5
834.351	13311.85
834.677	13325.19
835.003	13350.04
835.329	13248.58
835.654	13324.06
835.98	13182.59
836.306	13196.6
836.631	13166.55
836.956	13203.38
837.282	13150.5
837.607	13121.8
837.932	13086.1
838.258	13124.06
838.583	13097.4
838.908	13023.05
839.233	13029.6
839.558	13006.32
839.883	12964.29
840.208	12911.86
840.533	12874.12
840.858	12905.31
841.182	12911.86
841.507	12820.79
841.832	12801.36
842.156	12810.62
842.481	12736.73
842.805	12758.2
843.13	12720.68
843.454	12642.27
843.778	12579.22
844.103	12602.04
844.427	12614.24
844.751	12574.47
845.075	12529.05
845.399	12484.76
845.723	12348.49
846.047	12456.73
846.371	12267.14
846.695	12355.04
847.019	12162.73
847.343	12165.67
847.666	12127.7
847.99	12026.01
848.313	12005.9
848.637	12004.09
848.96	12029.85
849.284	11917.77
849.607	11878.44
849.931	11852
850.254	11673.7
850.577	11720.71
850.9	11673.25
851.223	11641.84
851.546	11525.01
851.869	11422.64
852.192	11568.62
852.515	11466.48
852.838	11340.61
853.161	11330.66
853.483	11294.73
853.806	11210.67
854.129	11263.55
854.451	11264.9
854.774	11223.55
855.096	11125.24
855.419	11122.08
855.741	11047.05
856.063	11010.9
856.385	10995.3
856.708	10894.97
857.03	10852.71
857.352	10939.71
857.674	10848.87
857.996	10791.24
858.318	10712.6
858.64	10714.18
858.961	10659.27
859.283	10603.9
859.605	10538.14
859.926	10639.38
860.248	10624.47
860.57	10555.09
860.891	10563
861.212	10542.66
861.534	10467.86
861.855	10348.77
862.176	10393.74
862.498	10398.71
862.819	10432.83
863.14	10405.94
863.461	10403.91
863.782	10301.31
864.103	10325.04
864.424	10210.69
864.745	10245.49
865.065	10211.6
865.386	10242.1
865.707	10180.41
866.027	10163.69
866.348	10205.49
866.668	10223.57
866.989	10171.82
867.309	10053.18
867.63	10110.58
867.95	10010.02
868.27	10002.34
868.59	10026.29
868.91	10025.39
869.23	9980.87
869.55	9907.42
869.87	10015.44
870.19	10004.14
870.51	9940.64
870.83	9885.28
871.15	9862.68
871.469	9938.38
871.789	9944.26
872.109	9894.32
872.428	9772.51
872.748	9853.64
873.067	9775.9
873.386	9887.99
873.706	9700.2
874.025	9683.25
874.344	9789.91
874.663	9746.07
874.982	9710.82
875.301	9718.28
875.62	9626.53
875.939	9633.08
876.258	9678.95
876.577	9611.39
876.896	9591.5
877.214	9509.92
877.533	9559.64
877.852	9521.44
878.17	9560.31
878.489	9581.56
878.807	9523.93
879.125	9484.84
879.444	9489.81
879.762	9423.59
880.08	9454.55
880.398	9331.39
880.716	9366.19
881.034	9312.18
881.352	9300.43
881.67	9309.25
881.988	9342.47
882.306	9366.65
882.624	9240.1
882.941	9257.95
883.259	9235.8
883.577	9155.58
883.894	9192.41
884.212	9163.49
884.529	9198.97
884.846	9179.76
885.164	9110.83
885.481	9064.73
885.798	9103.15
886.115	8992.19
886.432	8992.19
886.75	8976.37
887.067	8999.42
887.383	8940.89
887.7	8944.74
888.017	8896.83
888.334	8885.3
888.651	8830.84
888.967	8787.9
889.284	8785.42
889.6	8763.05
889.917	8727.79
890.233	8702.71
890.55	8681.24
890.866	8754.46
891.182	8680.34
891.498	8668.13
891.815	8652.31
892.131	8483.96
892.447	8549.27
892.763	8502.49
893.079	8467.69
893.395	8485.77
893.71	8469.04
894.026	8452.55
894.342	8422.04
894.657	8318.76
894.973	8384.75
895.289	8310.18
895.604	8321.93
895.92	8216.17
896.235	8180.01
896.55	8212.55
896.865	8154.25
897.181	8125.78
897.496	8135.72
897.811	8084.19
898.126	8093.46
898.441	8120.35
898.756	8052.56
899.071	7959.23
899.386	7985.67
899.7	7933.92
900.015	7870.41
900.33	7876.52
900.644	7871.77
900.959	7828.16
901.273	7825.22
901.588	7761.72
901.902	7769.17
902.216	7714.26
902.531	7726.24
902.845	7640.82
903.159	7519.24
903.473	7570.76
903.787	7533.25
904.101	7493.48
904.415	7497.99
904.729	7498.9
905.042	7442.18
905.356	7422.97
905.67	7405.79
905.984	7429.75
906.297	7351.56
906.611	7282.63
906.924	7254.61
907.237	7289.86
907.551	7221.17
907.864	7205.8
908.177	7179.59
908.491	7172.35
908.804	7131.22
909.117	7105.91
909.43	7015.52
909.743	6989.08
910.056	6979.82
910.368	6917.67
910.681	6979.14
910.994	6867.5
911.307	6883.32
911.619	6825.02
911.932	6844.68
912.244	6751.35
912.557	6778.01
912.869	6739.37
913.181	6746.83
913.494	6739.82
913.806	6656.66
914.118	6630.9
914.43	6652.82
914.742	6608.98
915.054	6559.71
915.366	6479.26
915.678	6431.36
915.99	6500.51
916.302	6428.64
916.613	6386.84
916.925	6334.64
917.236	6352.04
917.548	6387.97
917.859	6352.04
918.171	6308.87
918.482	6279.5
918.794	6222.77
919.105	6214.86
919.416	6170.12
919.727	6143.91
920.038	6141.65
920.349	6116.11
920.66	6051.25
920.971	6040.63
921.282	6080.86
921.593	6038.37
921.903	5956.57
922.214	5999.28
922.525	5926.06
922.835	5808.55
923.146	5879.51
923.456	5839.51
923.767	5798.15
924.077	5806.97
924.387	5774.88
924.697	5741.43
925.008	5760.41
925.318	5740.3
925.628	5677.48
925.938	5616.46
926.248	5631.83
926.558	5612.17
926.867	5569.01
927.177	5563.81
927.487	5511.61
927.796	5470.25
928.106	5513.41
928.416	5445.39
928.725	5450.14
929.034	5378.05
929.344	5345.96
929.653	5369.01
929.962	5328.11
930.271	5288.11
930.581	5283.82
930.89	5287.21
931.199	5252.63
931.508	5193.65
931.817	5167.66
932.125	5157.94
932.434	5168.79
932.743	5152.97
933.051	5134.22
933.36	5055.35
933.669	5068.23
933.977	5049.02
934.286	5027.33
934.594	5042.24
934.902	4985.29
935.21	4980.32
935.519	4925.18
935.827	4975.8
936.135	4920.44
936.443	4931.96
936.751	4845.64
937.059	4826.43
937.367	4855.13
937.674	4799.08
937.982	4790.95
938.29	4778.29
938.597	4718.18
938.905	4731.29
939.213	4722.47
939.52	4632.76
939.827	4673.44
940.135	4644.28
940.442	4583.5
940.749	4596.6
941.056	4582.37
941.363	4515.25
941.67	4562.93
941.977	4550.73
942.284	4484.29
942.591	4423.73
942.898	4400
943.205	4481.13
943.511	4398.42
943.818	4406.1
944.125	4327.46
944.431	4345.08
944.738	4337.63
945.044	4271.87
945.35	4330.17
945.657	4295.82
945.963	4268.48
946.269	4290.4
946.575	4251.98
946.881	4211.3
947.187	4212.21
947.493	4206.78
947.799	4146.67
948.105	4143.96
948.41	4130.17
948.716	4100.57
949.022	4077.29
949.327	4096.05
949.633	4056.96
949.938	4091.08
950.244	3997.52
950.549	3990.52
950.854	3962.27
951.16	3992.1
951.465	3950.74
951.77	3921.59
952.075	3878.2
952.38	3926.34
952.685	3892.44
952.99	3872.78
953.294	3866
953.599	3832.78
953.904	3826.23
954.209	3784.19
954.513	3762.05
954.818	3712.33
955.122	3788.94
955.426	3724.53
955.731	3747.81
956.035	3699.45
956.339	3686.8
956.643	3660.58
956.948	3659.9
957.252	3621.94
957.556	3616.06
957.86	3599.34
958.163	3573.13
958.467	3547.82
958.771	3578.55
959.075	3551.43
959.378	3506.01
959.682	3474.15
959.985	3493.35
960.289	3487.25
960.592	3447.03
960.896	3463.3
961.199	3422.85
961.502	3411.32
961.805	3367.26
962.108	3381.04
962.411	3344.21
962.714	3348.5
963.017	3336.07
963.32	3311.89
963.623	3329.29
963.926	3296.3
964.228	3261.5
964.531	3263.08
964.833	3240.93
965.136	3211.55
965.438	3230.54
965.741	3216.07
966.043	3201.84
966.345	3202.51
966.648	3197.77
966.95	3183.31
967.252	3132.46
967.554	3157.54
967.856	3106.47
968.158	3097.66
968.46	3079.35
968.761	3081.16
969.063	3052.24
969.365	3043.65
969.666	3030.54
969.968	3057.66
970.269	3049.98
970.571	3024.44
970.872	2986.7
971.174	3009.75
971.475	2935.18
971.776	2952.8
972.077	2897.44
972.378	2907.38
972.679	2935.18
972.98	2878.91
973.281	2882.75
973.582	2898.34
973.883	2855.86
974.183	2826.48
974.484	2852.69
974.785	2835.97
975.085	2837.78
975.386	2805.69
975.686	2785.12
975.986	2811.11
976.287	2775.41
976.587	2728.4
976.887	2749.65
977.187	2718.69
977.487	2723.88
977.787	2711.68
978.087	2676.65
978.387	2669.2
978.687	2685.24
978.987	2680.72
979.286	2631.68
979.586	2664.68
979.885	2616.09
980.185	2606.15
980.484	2589.2
980.784	2571.8
981.083	2586.94
981.382	2573.83
981.682	2535.87
981.981	2555.75
982.28	2523.44
982.579	2492.93
982.878	2529.09
983.177	2527.5
983.475	2491.12
983.774	2480.95
984.073	2485.25
984.372	2447.73
984.67	2437.34
984.969	2440.95
985.267	2402.76
985.566	2413.83
985.864	2412.48
986.162	2386.04
986.461	2345.14
986.759	2367.96
987.057	2346.04
987.355	2344.23
987.653	2315.53
987.951	2351.46
988.249	2297.45
988.547	2319.83
988.844	2281.63
989.142	2255.65
989.44	2284.12
989.737	2242.99
990.035	2239.83
990.332	2263.56
990.63	2250.9
990.927	2228.98
991.224	2240.05
991.521	2213.16
991.819	2205.25
992.116	2200.06
992.413	2180.62
992.71	2139.04
993.006	2154.86
993.303	2148.31
993.6	2157.34
993.897	2164.8
994.193	2115.09
994.49	2101.07
994.787	2083.22
995.083	2059.72
995.379	2064.69
995.676	2047.97
995.972	2046.39
996.268	2041.64
996.565	2055.43
996.861	2021.3
997.157	2005.94
997.453	1993.05
997.749	1968.2
998.044	1967.97
998.34	1972.94
998.636	1953.96
998.932	1938.82
999.227	1934.07
999.523	1951.93
999.818	1928.65
1000.114	1922.77
1000.409	1895.88
1000.704	1901.08
1001	1904.7
1001.295	1883
1001.59	1873.06
1001.885	1830.57
1002.18	1857.01
1002.475	1813.4
1002.77	1838.03
1003.065	1820.18
1003.359	1832.83
1003.654	1814.08
1003.949	1779.73
1004.243	1822.89
1004.538	1763
1004.832	1766.39
1005.127	1756.45
1005.421	1746.96
1005.715	1725.04
1006.009	1723.01
1006.304	1719.39
1006.598	1719.16
1006.892	1687.53
1007.186	1687.53
1007.48	1706.51
1007.773	1700.41
1008.067	1695.66
1008.361	1664.48
1008.655	1657.02
1008.948	1636.91
1009.242	1619.51
1009.535	1598.72
1009.829	1602.56
1010.122	1584.93
1010.415	1596
1010.708	1569.11
1011.001	1578.15
1011.295	1581.54
1011.588	1559.17
1011.881	1549.45
1012.173	1568.89
1012.466	1531.15
1012.759	1511.71
1013.052	1513.52
1013.344	1518.72
1013.637	1529.11
1013.93	1494.09
1014.222	1480.75
1014.514	1473.75
1014.807	1445.27
1015.099	1445.27
1015.391	1457.93
1015.683	1446.4
1015.976	1398.27
1016.268	1398.72
1016.56	1390.36
1016.851	1392.39
1017.143	1362.56
1017.435	1375.67
1017.727	1364.37
1018.018	1376.12
1018.31	1367.76
1018.602	1341.77
1018.893	1320.98
1019.185	1315.33
1019.476	1305.84
1019.767	1318.95
1020.058	1311.26
1020.35	1296.12
1020.641	1316.46
1020.932	1275.11
1021.223	1280.76
1021.514	1271.49
1021.804	1264.03
1022.095	1236.24
1022.386	1259.97
1022.677	1234.66
1022.967	1246.86
1023.258	1225.62
1023.548	1220.19
1023.839	1183.36
1024.129	1188.56
1024.419	1177.26
1024.709	1177.94
1025	1161.44
1025.29	1138.39
1025.58	1174.09
1025.87	1119.18
1026.16	1150.82
1026.449	1136.58
1026.739	1141.33
1027.029	1121.89
1027.319	1091.84
1027.608	1121.21
1027.898	1093.42
1028.187	1105.17
1028.477	1088.45
1028.766	1074.44
1029.055	1063.36
1029.344	1051.84
1029.634	1062.91
1029.923	1054.77
1030.212	1040.54
1030.501	1014.55
1030.79	1049.8
1031.078	1018.17
1031.367	1022.23
1031.656	1008.22
1031.945	1016.58
1032.233	1001.67
1032.522	1021.1
1032.81	981.56
1033.099	972.06
1033.387	965.29
1033.675	976.13
1033.963	959.18
1034.251	945.85
1034.54	979.52
1034.828	941.11
1035.116	937.26
1035.403	910.82
1035.691	916.93
1035.979	903.14
1036.267	907.89
1036.554	920.54
1036.842	905.63
1037.129	905.63
1037.417	892.74
1037.704	867.21
1037.992	900.65
1038.279	881.9
1038.566	875.12
1038.853	875.12
1039.14	875.12
