Data from plate_porcelain_FLMS001491_078.txt Node
Date: Tue Feb 07 11:19:52 GMT 2017
User: dcchb
Spectrometer: FLMS00149
Trigger mode: 0
Integration Time (sec): 2.000000E-2
Scans to average: 10
Electric dark correction enabled: true
Nonlinearity correction enabled: false
Boxcar width: 0
XAxis mode: Wavelengths
Number of Pixels in Spectrum: 2048
>>>>>Begin Spectral Data<<<<<
341.393	6.23
341.776	6.23
342.16	6.23
342.543	-76.71
342.927	-82.58
343.31	-70.15
343.693	-88.68
344.077	-59.53
344.46	-71.74
344.843	-55.69
345.226	-47.78
345.61	-31.74
345.993	-21.79
346.376	-7.56
346.759	13.23
347.142	25.21
347.525	50.97
347.908	74.93
348.291	78.09
348.674	94.14
349.057	118.09
349.44	126.45
349.823	142.04
350.206	177.52
350.588	217.3
350.971	238.54
351.354	271.53
351.737	288.26
352.119	303.62
352.502	317.86
352.884	318.08
353.267	327.8
353.65	331.42
354.032	355.6
354.414	313.34
354.797	376.16
355.179	364.64
355.562	360.8
355.944	354.24
356.326	381.81
356.709	392.43
357.091	389.04
357.473	388.59
357.855	399.66
358.238	388.37
358.62	391.76
359.002	409.16
359.384	411.64
359.766	390.17
360.148	409.16
360.53	419.1
360.912	394.02
361.294	393.34
361.676	409.83
362.057	395.6
362.439	410.06
362.821	403.28
363.203	410.51
363.584	400.12
363.966	419.1
364.348	400.79
364.729	404.64
365.111	399.21
365.493	415.94
365.874	390.17
366.256	400.12
366.637	420.68
367.019	402.83
367.4	398.31
367.781	406.67
368.163	419.33
368.544	416.39
368.925	410.74
369.306	397.63
369.688	420
370.069	417.97
370.45	440.12
370.831	430.4
371.212	419.33
371.593	415.48
371.974	432.66
372.355	435.37
372.736	445.09
373.117	429.49
373.498	449.38
373.879	436.5
374.26	443.96
374.641	428.14
375.021	450.96
375.402	451.64
375.783	459.32
376.163	509.49
376.544	506.55
376.925	480.57
377.305	483.28
377.686	487.35
378.066	485.54
378.447	498.19
378.827	516.72
379.208	489.15
379.588	508.14
379.968	505.2
380.349	506.78
380.729	514.24
381.109	526.44
381.489	523.96
381.87	518.08
382.25	555.59
382.63	553.78
383.01	537.06
383.39	569.15
383.77	528.93
384.15	565.54
384.53	600.11
384.91	609.6
385.29	601.69
385.67	601.69
386.049	607.34
386.429	619.77
386.809	608.02
387.189	624.74
387.568	632.43
387.948	622.03
388.328	638.98
388.707	674.01
389.087	662.93
389.466	673.56
389.846	675.82
390.225	681.01
390.605	699.09
390.984	690.28
391.363	697.06
391.743	733.22
392.122	700.67
392.501	739.54
392.881	746.1
393.26	745.64
393.639	754.01
394.018	756.04
394.397	769.82
394.776	785.19
395.155	801.46
395.534	808.92
395.913	814.57
396.292	800.56
396.671	814.34
397.05	814.57
397.429	845.98
397.808	874
398.186	868.35
398.565	845.3
398.944	864.51
399.323	878.75
399.701	888.01
400.08	894.34
400.458	915.81
400.837	935.7
401.215	937.28
401.594	951.29
401.972	954.68
402.351	953.32
402.729	983.83
403.107	998.52
403.486	1006.43
403.864	985.64
404.242	1003.04
404.62	1055.92
404.999	1063.15
405.377	1048.69
405.755	1068.35
406.133	1097.05
406.511	1097.95
406.889	1119.87
407.267	1133.66
407.645	1172.53
408.023	1190.38
408.401	1160.77
408.779	1198.29
409.156	1241.45
409.534	1249.36
409.912	1240.09
410.29	1289.58
410.667	1299.75
411.045	1342.01
411.422	1309.92
411.8	1352.18
412.178	1373.65
412.555	1401.22
412.933	1419.07
413.31	1409.58
413.687	1445.06
414.065	1433.99
414.442	1496.13
414.819	1520.09
415.197	1521.9
415.574	1543.59
415.951	1557.15
416.328	1555.79
416.705	1587.43
417.082	1630.37
417.46	1620.42
417.837	1652.51
418.214	1625.17
418.591	1688.44
418.967	1701.1
419.344	1692.96
419.721	1757.82
420.098	1741.55
420.475	1760.53
420.852	1801.66
421.228	1829.23
421.605	1791.04
421.982	1869
422.358	1869.91
422.735	1870.59
423.111	1911.94
423.488	1927.08
423.864	1947.65
424.241	1980.19
424.617	2005.95
424.994	2010.02
425.37	2048.43
425.746	2055.67
426.123	2083.69
426.499	2110.58
426.875	2145.83
427.251	2193.29
427.627	2185.83
428.003	2266.51
428.379	2276.45
428.756	2315.32
429.132	2383.34
429.507	2387.86
429.883	2385.83
430.259	2452.04
430.635	2470.12
431.011	2506.28
431.387	2541.98
431.763	2611.81
432.138	2605.48
432.514	2652.26
432.89	2666.05
433.265	2743.11
433.641	2762.09
434.016	2781.52
434.392	2875.08
434.767	2868.98
435.143	2887.06
435.518	2958.47
435.894	3015.87
436.269	3010.67
436.644	3080.72
437.02	3113.94
437.395	3102.64
437.77	3203.43
438.145	3213.6
438.52	3248.4
438.895	3267.84
439.271	3313.26
439.646	3356.88
440.021	3369.76
440.395	3427.16
440.77	3417.89
441.145	3442.75
441.52	3491.33
441.895	3485.23
442.27	3545.12
442.645	3551.67
443.019	3630.09
443.394	3612.01
443.769	3658.56
444.143	3650.2
444.518	3762.97
444.892	3724.55
445.267	3778.11
445.641	3816.3
446.016	3795.96
446.39	3842.51
446.764	3908.95
447.139	3852
447.513	3926.58
447.887	3946.69
448.262	3989.4
448.636	3959.8
449.01	4071.43
449.384	4150.3
449.758	4166.35
450.132	4201.6
450.506	4189.62
450.88	4261.48
451.254	4300.35
451.628	4318.66
452.002	4354.59
452.376	4401.59
452.75	4500.35
453.123	4499.9
453.497	4607.01
453.871	4606.11
454.244	4747.57
454.618	4772.66
454.992	4815.82
455.365	4829.83
455.739	4964.97
456.112	4964.74
456.486	5046.77
456.859	5058.75
457.232	5220.78
457.606	5232.53
457.979	5284.51
458.352	5362.7
458.725	5487.89
459.099	5482.24
459.472	5633.2
459.845	5694.21
460.218	5753.65
460.591	5824.15
460.964	5818.73
461.337	5983.02
461.71	6073.87
462.083	6209.23
462.456	6166.74
462.829	6223.01
463.201	6311.83
463.574	6379.62
463.947	6494.19
464.32	6648.77
464.692	6689.67
465.065	6671.82
465.438	6754.07
465.81	6928.31
466.183	6972.83
466.555	7222.99
466.928	7161.97
467.3	7208.75
467.672	7397.67
468.045	7536.43
468.417	7614.16
468.789	7618.23
469.161	7727.61
469.534	7858.68
469.906	8051.21
470.278	8089.41
470.65	8185.9
471.022	8369.62
471.394	8563.07
471.766	8662.5
472.138	8737.07
472.51	8871.98
472.882	9078.31
473.253	9167.8
473.625	9299.32
473.997	9533.44
474.369	9572.76
474.74	9685.97
475.112	9848
475.484	10080.31
475.855	10206.19
476.227	10326.41
476.598	10541.32
476.97	10705.38
477.341	10928.65
477.713	11074.19
478.084	11160.96
478.455	11541.74
478.827	11501.75
479.198	11960.72
479.569	12013.82
479.94	12329.52
480.311	12462.62
480.682	12715.05
481.053	13037.52
481.424	13249.95
481.795	13327.46
482.166	13634.57
482.537	13698.3
482.908	14045.63
483.279	14157.95
483.65	14451.72
484.021	14769.91
484.391	14925.61
484.762	15105.72
485.133	15280.86
485.503	15447.63
485.874	15839.26
486.244	15916.54
486.615	16287.83
486.985	16461.62
487.356	16717.65
487.726	16905.22
488.097	17225.66
488.467	17288.03
488.837	17725.08
489.207	18006.66
489.578	18268.12
489.948	18395.12
490.318	18658.62
490.688	18756.7
491.058	18977.71
491.428	19293.18
491.798	19453.63
492.168	19916.67
492.538	19898.59
492.908	20225.58
493.278	20574.28
493.648	20478.68
494.017	20806.81
494.387	20985.11
494.757	21246.57
495.126	21450.41
495.496	21504.42
495.866	21736.5
496.235	21972.2
496.605	22129.71
496.974	22334.91
497.344	22611.51
497.713	22712.52
498.082	22825.97
498.452	23131.04
498.821	23260.98
499.19	23411.04
499.559	23557.47
499.928	23627.08
500.298	23916.11
500.667	24157.91
501.036	24197.91
501.405	24333.95
501.774	24482.42
502.143	24766.93
502.512	24875.41
502.88	25045.8
503.249	25145.68
503.618	25384.32
503.987	25516.74
504.356	25549.06
504.724	25825.66
505.093	25964.64
505.462	26083.28
505.83	26176.39
506.199	26571.41
506.567	26975.01
506.936	26809.14
507.304	27128.23
507.672	27233.99
508.041	27507.2
508.409	27750.58
508.777	27857.7
509.145	28199.16
509.514	28159.61
509.882	28374.52
510.25	28527.74
510.618	28727.06
510.986	28872.36
511.354	29212.92
511.722	29440.26
512.09	29718.22
512.458	29645.22
512.826	30016.29
513.193	30236.62
513.561	30306.22
513.929	30603.62
514.297	30894
514.664	31118.86
515.032	31318.17
515.4	31595.23
515.767	31787.31
516.135	31881.1
516.502	31805.39
516.869	32330.12
517.237	32398.37
517.604	32451.7
517.972	32824.35
518.339	33186.6
518.706	33240.61
519.073	33446.25
519.44	33657.55
519.808	34167.36
520.175	34168.95
520.542	34695.49
520.909	34795.82
521.276	34749.5
521.643	35168.24
522.009	35539.31
522.376	35737.72
522.743	35897.49
523.11	36149.23
523.477	36711.7
523.843	36973.17
524.21	37231.46
524.577	37453.61
524.943	37624.45
525.31	37891.33
525.676	38235.51
526.043	38500.58
526.409	38599.34
526.776	39094.92
527.142	39244.29
527.508	39505.98
527.874	39836.14
528.241	40119.75
528.607	40244.72
528.973	40684.03
529.339	40428.22
529.705	41053.06
530.071	41378.47
530.437	41381.41
530.803	41566.27
531.169	41991.57
531.535	41931.68
531.901	42143.2
532.267	42184.1
532.632	42457.99
532.998	42728.5
533.364	43126.22
533.73	43285.77
534.095	43609.6
534.461	43535.03
534.826	43919.2
535.192	43975.69
535.557	44410.26
535.923	44337.04
536.288	44521.44
536.653	44688.44
537.019	44692.29
537.384	44887.76
537.749	45173.85
538.114	45213.63
538.479	45346.73
538.845	45606.84
539.21	45642.54
539.575	45825.14
539.94	45966.15
540.305	46271.45
540.67	46120.27
541.034	46376.76
541.399	46494.5
541.764	46631.9
542.129	46800.48
542.494	46985.33
542.858	47186.46
543.223	47235.5
543.587	47423.74
543.952	47466.22
544.316	47620.8
544.681	47732.43
545.045	47734.47
545.41	47970.62
545.774	48094.23
546.138	48216.03
546.503	48324.96
546.867	48368.57
547.231	48693.99
547.595	48709.58
547.959	48752.29
548.324	48917.94
548.688	49077.71
549.052	49185.05
549.416	49279.96
549.779	49503.46
550.143	49463.91
550.507	49780.06
550.871	49988.87
551.235	49862.54
551.599	50258.69
551.962	50255.08
552.326	50355.64
552.689	50483.77
553.053	50508.86
553.417	50706.59
553.78	50950.88
554.143	50858.68
554.507	51178.89
554.87	51235.84
555.234	51640.58
555.597	51459.11
555.96	51606.45
556.323	51717.41
556.686	51817.75
557.05	52036.05
557.413	52148.81
557.776	52305.19
558.139	52523.04
558.502	52507.9
558.865	52605.75
559.228	52869.25
559.59	52810.04
559.953	53041.9
560.316	53275.56
560.679	53356.46
561.041	53524.37
561.404	53652.28
561.767	53871.03
562.129	53768.66
562.492	54112.15
562.854	54113.28
563.217	54159.16
563.579	54329.09
563.941	54512.59
564.304	54606.15
564.666	54841.85
565.028	54838.23
565.39	55018.12
565.753	55131.11
566.115	55226.47
566.477	55299.69
566.839	55375.39
567.201	55519.57
567.563	55610.64
567.925	55738.77
568.287	55830.52
568.648	55865.32
569.01	56011.54
569.372	56216.28
569.734	56167.01
570.095	56372.66
570.457	56350.51
570.819	56497.17
571.18	56543.73
571.542	56694.68
571.903	56722.48
572.265	56851.51
572.626	56877.95
572.987	56967.44
573.349	57009.93
573.71	57180.09
574.071	57164.27
574.432	57229.81
574.794	57399.52
575.155	57359.75
575.516	57357.26
575.877	57435.91
576.238	57544.83
576.599	57647.2
576.96	57587.99
577.32	57663.47
577.681	57770.59
578.042	57888.77
578.403	57924.48
578.763	57918.38
579.124	57985.27
579.485	58060.3
579.845	58091.93
580.206	58017.13
580.566	58139.84
580.927	58097.58
581.287	58173.74
581.648	58072.5
582.008	58240.63
582.368	58177.81
582.728	58231.14
583.089	58203.12
583.449	58238.6
583.809	58241.08
584.169	58303.9
584.529	58254.64
584.889	58371.7
585.249	58219.84
585.609	58178.94
585.969	58369.89
586.329	58252.83
586.688	58368.76
587.048	58378.93
587.408	58307.97
587.768	58342.55
588.127	58312.49
588.487	58282.44
588.846	58472.49
589.206	58276.33
589.565	58307.29
589.925	58491.47
590.284	58373.73
590.643	58437.46
591.003	58466.39
591.362	58537.12
591.721	58430.23
592.08	58437.46
592.44	58511.36
592.799	58529.66
593.158	58496.67
593.517	58549.77
593.876	58528.76
594.235	58487.63
594.593	58554.07
594.952	58540.51
595.311	58517.46
595.67	58638.59
596.029	58645.36
596.387	58660.05
596.746	58693.05
597.104	58681.52
597.463	58635.87
597.822	58742.09
598.18	58648.75
598.538	58626.83
598.897	58754.06
599.255	58653.73
599.613	58983.89
599.972	58785.02
600.33	58841.97
600.688	58818.02
601.046	58880.84
601.404	58975.3
601.762	58887.62
602.12	59034.06
602.478	59018.46
602.836	59091.45
603.194	58960.84
603.552	58960.84
603.91	58913.38
604.268	59084
604.625	58999.03
604.983	59095.97
605.341	59048.74
605.698	59089.42
606.056	59220.04
606.413	59144.33
606.771	59272.47
607.128	59282.64
607.485	59163.77
607.843	59192.92
608.2	59279.25
608.557	59384.33
608.914	59316.99
609.272	59419.58
609.629	59421.84
609.986	59484.66
610.343	59396.31
610.7	59570.54
611.057	59524.44
611.414	59530.99
611.771	59575.51
612.127	59633.14
612.484	59582.06
612.841	59723.75
613.198	59606.7
613.554	59669.07
613.911	59800.36
614.267	59744.77
614.624	59775.73
614.98	59832.9
615.337	59919.91
615.693	59949.74
616.05	59869.51
616.406	59991.32
616.762	59924.65
617.118	59858.67
617.475	59916.74
617.831	60002.62
618.187	60002.39
618.543	60025.22
618.899	60154.48
619.255	60101.15
619.611	60060.47
619.967	60111.77
620.323	60169.39
620.678	60102.95
621.034	60077.87
621.39	60082.39
621.746	60088.72
622.101	60311.99
622.457	60104.31
622.812	60202.84
623.168	60203.97
623.523	60167.58
623.879	60248.49
624.234	60087.59
624.589	60251.88
624.945	60217.3
625.3	60261.59
625.655	60198.54
626.01	60223.63
626.365	60201.03
626.72	60210.97
627.075	60210.3
627.43	60170.75
627.785	60090.98
628.14	60125.55
628.495	60182.05
628.85	60067.25
629.205	60044.88
629.559	60157.42
629.914	60040.13
630.269	60072.9
630.623	60022.73
630.978	59967.82
631.332	59970.53
631.687	60051.43
632.041	59996.97
632.396	59975.27
632.75	59876.97
633.104	59913.13
633.459	59804.66
633.813	59753.13
634.167	59782.06
634.521	59845.11
634.875	59790.42
635.229	59754.94
635.583	59604.21
635.937	59627.71
636.291	59642.4
636.645	59583.42
636.999	59507.94
637.352	59550.43
637.706	59454.84
638.06	59544.32
638.413	59450.77
638.767	59400.6
639.121	59454.61
639.474	59308.62
639.828	59253.94
640.181	59289.64
640.534	59312.47
640.888	59275.63
641.241	59166.71
641.594	59172.36
641.947	59261.39
642.301	59114.28
642.654	59209.19
643.007	59129.42
643.36	59089.65
643.713	58987.5
644.066	59154.73
644.419	58973.94
644.771	58784.57
645.124	58575.99
645.477	58522.2
645.83	58317.92
646.182	58213.96
646.535	58164.02
646.888	58237.47
647.24	58110.92
647.593	58204.47
647.945	58103.01
648.298	57986.17
648.65	57932.16
649.002	57861.2
649.355	57987.75
649.707	57914.76
650.059	58034.76
650.411	58297.58
650.763	58293.74
651.115	58511.81
651.467	58408.76
651.819	58418.48
652.171	58339.38
652.523	58286.96
652.875	58263.68
653.227	58153.4
653.578	58319.72
653.93	58222.78
654.282	58064.82
654.633	58092.61
654.985	58128.77
655.337	58103.23
655.688	58147.07
656.039	58213.74
656.391	57982.56
656.742	58111.14
657.094	58087.41
657.445	58221.65
657.796	58093.51
658.147	58040.86
658.498	57970.81
658.849	58041.76
659.2	57987.3
659.551	57899.62
659.902	57998.83
660.253	57910.24
660.604	57999.73
660.955	57783.24
661.306	57937.36
661.656	57951.37
662.007	57784.37
662.358	57828.44
662.708	57829.12
663.059	57797.48
663.409	57655.33
663.76	57763.13
664.11	57737.37
664.461	57747.08
664.811	57760.64
665.161	57748.67
665.511	57666.41
665.862	57769
666.212	57780.75
666.562	57807.19
666.912	57748.89
667.262	57733.98
667.612	57735.56
667.962	57724.03
668.312	57642.23
668.662	57748.67
669.011	57612.17
669.361	57645.62
669.711	57620.98
670.06	57578.73
670.41	57496.69
670.76	57482.01
671.109	57580.99
671.459	57508.67
671.808	57409.24
672.157	57472.06
672.507	57354.33
672.856	57406.08
673.205	57437.94
673.554	57494.43
673.904	57369.47
674.253	57503.47
674.602	57348.9
674.951	57006.76
675.3	56957.5
675.649	57343.7
675.998	57252.41
676.346	57280.43
676.695	57395
677.044	57140.09
677.393	57269.81
677.741	57297.15
678.09	57130.15
678.438	57061.45
678.787	57172.86
679.135	57171.28
679.484	57030.94
679.832	57173.31
680.181	56940.32
680.529	57041.34
680.877	56931.74
681.225	56896.26
681.573	57071.62
681.922	56800.44
682.27	56814
682.618	56817.39
682.966	56715.47
683.314	56733.32
683.661	56581.92
684.009	56464.41
684.357	56424.63
684.705	56438.64
685.053	56485.65
685.4	56394.35
685.748	56243.62
686.095	56228.25
686.443	56143.74
686.79	56059.22
687.138	56164.3
687.485	56116.62
687.832	56043.85
688.18	56037.98
688.527	55889.51
688.874	55832.56
689.221	55728.38
689.568	55638.21
689.915	55660.58
690.262	55544.66
690.609	55578.33
690.956	55480.93
691.303	55430.08
691.65	55389.18
691.997	55270.54
692.344	55015.18
692.69	55078
693.037	55065.8
693.383	54843.2
693.73	54991.9
694.077	54755.52
694.423	54809.08
694.769	54668.75
695.116	54626.94
695.462	54684.34
695.808	54507.85
696.155	54486.15
696.501	54353.27
696.847	54398.7
697.193	54131.13
697.539	54282.77
697.885	54023.79
698.231	53937.01
698.577	53962.32
698.923	53848.88
699.269	53703.8
699.614	53477.37
699.96	53540.41
700.306	53572.73
700.651	53417.48
700.997	53354.43
701.342	53341.32
701.688	53279.4
702.033	53111.27
702.379	53077.6
702.724	52908.79
703.069	53045.06
703.415	52607.56
703.76	52754.22
704.105	52686.88
704.45	52592.42
704.795	52322.59
705.14	52272.2
705.485	52304.51
705.83	52281.92
706.175	52235.59
706.52	52068.36
706.865	51914.24
707.209	51949.5
707.554	51860.68
707.899	51901.14
708.243	51716.51
708.588	51610.3
708.932	51334.82
709.277	51475.16
709.621	51509.73
709.966	51279.91
710.31	51308.16
710.654	51070.2
710.998	51002.63
711.342	51079.01
711.687	50888.96
712.031	50708.17
712.375	50671.34
712.719	50799.92
713.063	50665.46
713.407	50698.91
713.75	50542.53
714.094	50503.43
714.438	50367.84
714.782	50454.39
715.125	50152.25
715.469	50324.23
715.812	49915.42
716.156	49818.93
716.499	49834.75
716.843	49770.57
717.186	49684.02
717.53	49856.22
717.873	49719.27
718.216	49725.15
718.559	49467.53
718.902	49353.41
719.246	49438.83
719.589	49424.14
719.932	48952.96
720.275	49056.46
720.617	49122.68
720.96	48892.85
721.303	48915.68
721.646	48897.6
721.989	48729.47
722.331	48894.66
722.674	48727.43
723.016	48715.91
723.359	48491.28
723.701	48696.02
724.044	48402.02
724.386	48246.32
724.729	48286.54
725.071	48255.81
725.413	48177.17
725.755	48126.32
726.097	47942.37
726.439	47894.69
726.782	47752.77
727.124	47928.36
727.465	47778.31
727.807	47668.03
728.149	47490.86
728.491	47475.04
728.833	47527.69
729.175	47375.15
729.516	47355.04
729.858	47262.39
730.199	47275.49
730.541	47147.81
730.882	47144.88
731.224	47106.46
731.565	46790.99
731.906	46983.3
732.248	46954.82
732.589	46815.39
732.93	46603.2
733.271	46645
733.612	46702.85
733.953	46643.42
734.294	46496.76
734.635	46251.57
734.976	46450.21
735.317	46210.66
735.658	46200.95
735.999	46157.56
736.339	46038.92
736.68	46281.4
737.021	46017.67
737.361	45759.38
737.702	45955.3
738.042	45874.4
738.383	45670.79
738.723	45684.35
739.063	45693.16
739.404	45714.86
739.744	45547.63
740.084	45349.9
740.424	45444.81
740.764	45320.74
741.104	45487.29
741.444	45204.36
741.784	44975.22
742.124	45073.97
742.464	45066.29
742.804	44873.98
743.143	44699.52
743.483	44913.97
743.823	44662
744.162	44512.4
744.502	44642.34
744.841	44511.73
745.181	44538.84
745.52	44372.75
745.86	44360.99
746.199	44377.49
746.538	44381.33
746.877	44321.45
747.216	44178.17
747.556	44003.72
747.895	44023.15
748.234	43851.18
748.573	43675.36
748.911	43633.78
749.25	43436.5
749.589	43460.45
749.928	43527.34
750.267	43486.89
750.605	43212.78
750.944	43074.25
751.283	43045.32
751.621	43176.84
751.96	42842.39
752.298	42966.91
752.636	43053.23
752.975	42713.81
753.313	42532.12
753.651	42724.88
753.989	42392.68
754.327	42317.43
754.666	42304.55
755.004	42389.75
755.342	42303.65
755.679	42345
756.017	41965.8
756.355	41998.8
756.693	41733.95
757.031	41844.22
757.368	41626.38
757.706	41581.18
758.044	41398.36
758.381	41492.6
758.719	41135.77
759.056	41312.26
759.394	41219.38
759.731	40835.89
760.068	40870.24
760.405	40698.04
760.743	40576.69
761.08	40552.06
761.417	40294.89
761.754	40330.82
762.091	40159.52
762.428	40084.72
762.765	39876.82
763.102	39940.09
763.438	39731.96
763.775	39555.02
764.112	39567.9
764.449	39419.66
764.785	39061.7
765.122	38950.52
765.458	38886.11
765.795	38767.92
766.131	38840.46
766.467	38590.98
766.804	38399.34
767.14	38343.75
767.476	38268.95
767.812	38053.59
768.148	38106.92
768.485	37807.04
768.821	37700.83
769.157	37702.19
769.492	37499.93
769.828	37475.3
770.164	37166.38
770.5	37137.91
770.836	37164.12
771.171	36916.22
771.507	36831.02
771.842	36419.51
772.178	36549.9
772.513	36644.14
772.849	36402.56
773.184	36303.81
773.519	36158.5
773.855	35984.72
774.19	35860.2
774.525	35643.94
774.86	35628.79
775.195	35560.32
775.53	35384.51
775.865	35122.82
776.2	34982.03
776.535	34746.11
776.87	34808.03
777.205	34761.25
777.539	34525.55
777.874	34490.52
778.209	34312.22
778.543	34321.26
778.878	33838.79
779.212	34005.33
779.547	33759.47
779.881	33849.86
780.215	33496.42
780.55	33581.39
780.884	33308.4
781.218	33235.64
781.552	33299.36
781.886	33085.13
782.22	32946.38
782.554	32755.2
782.888	32439.95
783.222	32459.16
783.556	32210.58
783.889	32219.17
784.223	31957.03
784.557	31896.46
784.89	32100.53
785.224	31753.64
785.557	31607.66
785.891	31566.75
786.224	31348.91
786.558	31411.28
786.891	31124.28
787.224	31037.73
787.557	30989.14
787.891	30937.17
788.224	30866.21
788.557	30784.4
788.89	30671.86
789.223	30624.41
789.556	30353.23
789.888	30242.95
790.221	30059.68
790.554	30015.61
790.887	30090.18
791.219	29986.01
791.552	29840.25
791.884	29715.5
792.217	29559.35
792.549	29364.78
792.882	29186.7
793.214	29107.61
793.546	29242.97
793.879	28956.88
794.211	28844.57
794.543	28943.77
794.875	28767.28
795.207	28751.01
795.539	28514.86
795.871	28620.84
796.203	28358.7
796.535	28187.41
796.867	28169.33
797.198	28065.83
797.53	28079.16
797.862	27857.93
798.193	27990.8
798.525	27657.7
798.856	27762.56
799.188	27429.01
799.519	27316.92
799.85	27333.65
800.182	27308.34
800.513	27323.93
800.844	27017.95
801.175	27178.85
801.506	26965.29
801.837	26844.62
802.168	26834.45
802.499	26676.04
802.83	26511.07
803.161	26535.47
803.491	26473.56
803.822	26446.66
804.153	26287.8
804.483	26135.03
804.814	26015.94
805.145	25964.64
805.475	25983.17
805.805	25843.74
806.136	25863.4
806.466	25873.8
806.796	25733.24
807.126	25566.01
807.457	25466.12
807.787	25564.43
808.117	25414.83
808.447	25314.04
808.777	25332.12
809.107	25187.04
809.436	25046.25
809.766	25084.67
810.096	24992.01
810.426	24875.63
810.755	24895.29
811.085	24838.12
811.414	24714.96
811.744	24583.44
812.073	24414.4
812.403	24470.9
812.732	24297.34
813.061	24266.16
813.39	24264.8
813.719	24207.4
814.049	24286.72
814.378	24102.54
814.707	23986.39
815.036	23964.02
815.365	23863.68
815.693	23665.27
816.022	23637.92
816.351	23623.91
816.68	23464.14
817.008	23582.56
817.337	23350.7
817.665	23349.8
817.994	23370.36
818.322	23312.28
818.651	23239.06
818.979	23188.67
819.307	23260.76
819.636	23088.33
819.964	22940.09
820.292	23037.26
820.62	23100.54
820.948	22865.97
821.276	22987.32
821.604	22817.61
821.932	22931.95
822.259	22940.99
822.587	22919.98
822.915	22827.78
823.243	22905.97
823.57	22778.06
823.898	22771.51
824.225	22736.93
824.553	22799.75
824.88	22748
825.207	22845.85
825.535	22760.21
825.862	22767.89
826.189	22724.5
826.516	22839.3
826.843	22776.7
827.17	22922.91
827.497	22863.03
827.824	22733.99
828.151	22861.45
828.478	22671.4
828.805	22816.7
829.131	22672.07
829.458	22673.2
829.785	22548.01
830.111	22587.78
830.438	22737.38
830.764	22691.06
831.09	22734.22
831.417	22593.43
831.743	22615.58
832.069	22590.27
832.395	22578.52
832.722	22561.12
833.048	22452.42
833.374	22610.38
833.7	22433.44
834.026	22454.45
834.351	22430.72
834.677	22368.13
835.003	22547.1
835.329	22446.54
835.654	22297.85
835.98	22258.52
836.306	22300.56
836.631	22213.78
836.956	22256.94
837.282	22343.27
837.607	22108.47
837.932	22087
838.258	22032.54
838.583	22129.94
838.908	21959.78
839.233	21982.15
839.558	21869.83
839.883	21967.23
840.208	21836.39
840.533	21790.97
840.858	21755.26
841.182	21803.17
841.507	21817.63
841.832	21693.34
842.156	21633.46
842.481	21637.52
842.805	21562.72
843.13	21374.25
843.454	21420.58
843.778	21270.98
844.103	21261.71
844.427	21211.09
844.751	21240.25
845.075	21153.02
845.399	21040.7
845.723	21021.27
846.047	20914.15
846.371	20808.39
846.695	20839.13
847.019	20531.34
847.343	20524.56
847.666	20423.77
847.99	20286.15
848.313	20269.65
848.637	20184
848.96	20146.94
849.284	20145.36
849.607	19918.02
849.931	19819.72
850.254	19788.31
850.577	19767.74
850.9	19624.24
851.223	19511.48
851.546	19484.59
851.869	19271.48
852.192	19418.6
852.515	19224.93
852.838	19248.66
853.161	19184.03
853.483	18998.95
853.806	18963.7
854.129	18976.35
854.451	18943.36
854.774	18803.25
855.096	18750.59
855.419	18706.08
855.741	18703.59
856.063	18633.76
856.385	18453.43
856.708	18478.51
857.03	18369.36
857.352	18377.95
857.674	18276.93
857.996	18196.94
858.318	18004.4
858.64	18044.17
858.961	17917.62
859.283	17976.83
859.605	17873.33
859.926	17974.12
860.248	17824.74
860.57	17762.37
860.891	17798.3
861.212	17650.96
861.534	17668.82
861.855	17683.28
862.176	17683.05
862.498	17552.21
862.819	17541.13
863.14	17496.84
863.461	17440.12
863.782	17415.71
864.103	17428.82
864.424	17317.64
864.745	17371.87
865.065	17203.97
865.386	17223.86
865.707	17249.39
866.027	17215.04
866.348	17200.58
866.668	17210.97
866.989	17126
867.309	16987.03
867.63	16935.95
867.95	16948.83
868.27	16855.5
868.59	17003.52
868.91	16883.07
869.23	16864.77
869.55	16821.83
869.87	16954.48
870.19	16842.17
870.51	16833.13
870.83	16672.91
871.15	16651.21
871.469	16658.22
871.789	16579.58
872.109	16563.08
872.428	16501.61
872.748	16556.98
873.067	16476.76
873.386	16501.61
873.706	16426.36
874.025	16350.43
874.344	16363.76
874.663	16394.5
874.982	16391.56
875.301	16368.06
875.62	16222.75
875.939	16175.3
876.258	16189.76
876.577	16109.53
876.896	16196.76
877.214	16146.6
877.533	16183.2
877.852	16124.45
878.17	16083.09
878.489	16080.16
878.807	16083.55
879.125	15918.35
879.444	16001.74
879.762	15885.81
880.08	15808.53
880.398	15886.72
880.716	15846.04
881.034	15856.66
881.352	15905.25
881.67	15722.43
881.988	15705.02
882.306	15721.52
882.624	15571.7
882.941	15519.95
883.259	15472.04
883.577	15474.75
883.894	15412.38
884.212	15408.31
884.529	15326.73
884.846	15362.44
885.164	15300.29
885.481	15182.1
885.798	15255.55
886.115	15126.74
886.432	15109.11
886.75	15145.72
887.067	15177.13
887.383	15034.99
887.7	15055.55
888.017	15020.52
888.334	14992.28
888.651	14891.71
888.967	14877.7
889.284	14714.09
889.6	14778.27
889.917	14660.76
890.233	14764.94
890.55	14557.71
890.866	14623.02
891.182	14547.09
891.498	14489.01
891.815	14431.61
892.131	14355.46
892.447	14353.2
892.763	14279.75
893.079	14274.1
893.395	14266.19
893.71	14248.34
894.026	14252.63
894.342	14180.09
894.657	13989.14
894.973	14091.73
895.289	13998.63
895.604	13971.96
895.92	13808.58
896.235	13790.72
896.55	13757.05
896.865	13690.61
897.181	13736.49
897.496	13708.69
897.811	13653.33
898.126	13636.83
898.441	13520.22
898.756	13478.42
899.071	13373.33
899.386	13567
899.7	13360.23
900.015	13339.89
900.33	13159.78
900.644	13151.19
900.959	13209.05
901.273	13142.61
901.588	12954.14
901.902	12941.26
902.216	12958.66
902.531	12853.57
902.845	12800.02
903.159	12779
903.473	12733.58
903.787	12695.39
904.101	12703.52
904.415	12562.06
904.729	12560.47
905.042	12437.99
905.356	12372.23
905.67	12393.93
905.984	12361.38
906.297	12348.5
906.611	12278.45
906.924	12284.55
907.237	12202.74
907.551	12185.34
907.864	12154.16
908.177	12091.56
908.491	12053.14
908.804	12009.98
909.117	11828.06
909.43	11821.06
909.743	11738.8
910.056	11735.19
910.368	11721.63
910.681	11636.21
910.994	11673.94
911.307	11473.5
911.619	11478.02
911.932	11539.48
912.244	11387.4
912.557	11376.78
912.869	11290.45
913.181	11311.69
913.494	11235.76
913.806	11192.6
914.118	11181.98
914.43	11149.21
914.742	11103.79
915.054	10935.43
915.366	10997.13
915.678	10947.18
915.99	10859.5
916.302	10747.19
916.613	10819.73
916.925	10717.81
917.236	10655.67
917.548	10593.29
917.859	10598.94
918.171	10553.07
918.482	10464.03
918.794	10433.07
919.105	10380.65
919.416	10337.03
919.727	10330.25
920.038	10297.03
920.349	10287.77
920.66	10211.61
920.971	10174.77
921.282	10172.74
921.593	10039.41
921.903	9988.79
922.214	9950.37
922.525	9900.21
922.835	9863.37
923.146	9726.88
923.456	9783.82
923.767	9728.91
924.077	9754.67
924.387	9642.36
924.697	9573.21
925.008	9575.02
925.318	9527.11
925.628	9537.96
925.938	9447.34
926.248	9352.2
926.558	9295.93
926.867	9288.47
927.177	9269.49
927.487	9159.89
927.796	9159.43
928.106	9121.02
928.416	9055.26
928.725	9080.34
929.034	9000.12
929.344	9043.51
929.653	8963.28
929.962	8859.78
930.271	8807.81
930.581	8888.71
930.89	8791.99
931.199	8725.32
931.508	8722.38
931.817	8730.07
932.125	8609.62
932.434	8650.75
932.743	8471.99
933.051	8487.59
933.36	8516.74
933.669	8466.12
933.977	8372.79
934.286	8392.67
934.594	8326.46
934.902	8284.88
935.21	8266.35
935.519	8244.43
935.827	8189.06
936.135	8170.31
936.443	8096.64
936.751	8008.28
937.059	8065.68
937.367	7974.15
937.674	7978.22
937.982	7968.05
938.29	7905.91
938.597	7958.34
938.905	7827.27
939.213	7824.33
939.52	7806.48
939.827	7814.61
940.135	7704.56
940.442	7694.39
940.749	7622.07
941.056	7639.02
941.363	7509.08
941.67	7537.78
941.977	7487.61
942.284	7432.47
942.591	7489.2
942.898	7385.92
943.205	7378.46
943.511	7312.03
943.818	7295.98
944.125	7238.81
944.431	7209.66
944.738	7210.33
945.044	7146.61
945.35	7117.68
945.657	7065.48
945.963	7085.36
946.269	7055.31
946.575	7088.75
946.881	6973.05
947.187	6932.37
947.493	6884.01
947.799	6852.83
948.105	6808.54
948.41	6768.99
948.716	6755.66
949.022	6740.06
949.327	6660.52
949.633	6654.42
949.938	6655.09
950.244	6630.91
950.549	6584.81
950.854	6492.16
951.16	6567.86
951.465	6483.8
951.77	6503.46
952.075	6439.51
952.38	6410.13
952.685	6400.64
952.99	6338.94
953.294	6376.68
953.599	6294.88
953.904	6241.32
954.209	6202.45
954.513	6202
954.818	6158.16
955.122	6114.99
955.426	6122.45
955.731	6090.14
956.035	6057.82
956.339	6073.64
956.643	6046.52
956.948	5955.45
957.252	5931.27
957.556	5926.98
957.86	5915.68
958.163	5930.14
958.467	5877.94
958.771	5882.91
959.075	5828.67
959.378	5774.21
959.682	5763.82
959.985	5779.86
960.289	5705.74
960.592	5697.6
960.896	5635.01
961.199	5565.4
961.502	5632.52
961.805	5572.18
962.108	5536.25
962.411	5497.16
962.714	5448.35
963.017	5457.16
963.32	5501.23
963.623	5414.9
963.926	5401.12
964.228	5414.9
964.531	5396.14
964.833	5390.95
965.136	5327.67
965.438	5258.07
965.741	5300.1
966.043	5264.4
966.345	5229.14
966.648	5196.37
966.95	5174.45
967.252	5114.34
967.554	5100.78
967.856	5145.53
968.158	5093.33
968.46	5107.79
968.761	5043.84
969.063	5012.65
969.365	4994.8
969.666	4964.52
969.968	4902.6
970.269	4918.87
970.571	4872.77
970.872	4855.14
971.174	4820.57
971.475	4872.54
971.776	4822.6
972.077	4767.69
972.378	4746.22
972.679	4729.49
972.98	4699.21
973.281	4665.99
973.582	4671.64
973.883	4650.85
974.183	4601.36
974.484	4615.15
974.785	4573.79
975.085	4555.71
975.386	4534.25
975.686	4532.21
975.986	4553.68
976.287	4514.13
976.587	4462.61
976.887	4406.79
977.187	4456.51
977.487	4426.23
977.787	4419.67
978.087	4383.06
978.387	4378.77
978.687	4343.52
978.987	4292.67
979.286	4248.15
979.586	4303.52
979.885	4222.61
980.185	4252.22
980.484	4168.15
980.784	4170.41
981.083	4164.99
981.382	4154.37
981.682	4156.85
981.981	4099
982.28	4049.74
982.579	4064.43
982.878	4024.2
983.177	4061.49
983.475	4021.26
983.774	3996.18
984.073	4012.45
984.372	3949.18
984.67	3923.41
984.969	3877.09
985.267	3892.23
985.566	3906.47
985.864	3855.84
986.162	3854.26
986.461	3859.91
986.759	3813.81
987.057	3797.32
987.355	3787.37
987.653	3750.99
987.951	3743.98
988.249	3739.69
988.547	3741.05
988.844	3668.96
989.142	3698.33
989.44	3651.78
989.737	3651.1
990.035	3659.47
990.332	3586.47
990.63	3621.5
990.927	3566.36
991.224	3578.34
991.521	3546.02
991.819	3510.54
992.116	3493.14
992.413	3530.88
992.71	3476.19
993.006	3435.07
993.303	3443.2
993.6	3403.43
993.897	3388.29
994.193	3390.32
994.49	3379.02
994.787	3290.66
995.083	3312.58
995.379	3316.2
995.676	3284.79
995.972	3293.37
996.268	3271.68
996.565	3235.3
996.861	3199.37
997.157	3202.08
997.453	3192.36
997.749	3180.61
998.044	3151.23
998.34	3118.01
998.636	3113.04
998.932	3056.54
999.227	3082.98
999.523	3090.44
999.818	3032.82
1000.114	3035.98
1000.409	3022.65
1000.704	3045.02
1001	2965.02
1001.295	2955.98
1001.59	2992.14
1001.885	2915.3
1002.18	2905.36
1002.475	2906.94
1002.77	2890.67
1003.065	2889.77
1003.359	2883.67
1003.654	2821.3
1003.949	2818.58
1004.243	2811.58
1004.538	2797.57
1004.832	2779.94
1005.127	2760.96
1005.421	2733.39
1005.715	2720.73
1006.009	2714.18
1006.304	2693.62
1006.598	2650.45
1006.892	2648.65
1007.186	2615.2
1007.48	2628.76
1007.773	2649.32
1008.067	2596.67
1008.361	2554.64
1008.655	2578.59
1008.948	2558.03
1009.242	2535.43
1009.535	2535.43
1009.829	2501.98
1010.122	2469.44
1010.415	2451.81
1010.708	2477.12
1011.001	2421.98
1011.295	2472.6
1011.588	2436.22
1011.881	2379.27
1012.173	2369.78
1012.466	2345.15
1012.759	2345.38
1013.052	2370.91
1013.344	2325.49
1013.637	2322.55
1013.93	2293.4
1014.222	2309.44
1014.514	2322.78
1014.807	2244.14
1015.099	2222.67
1015.391	2236.68
1015.683	2209.56
1015.976	2208.2
1016.268	2188.09
1016.56	2165.95
1016.851	2183.12
1017.143	2146.96
1017.435	2150.13
1017.727	2100.41
1018.018	2117.81
1018.31	2066.74
1018.602	2057.25
1018.893	2014.76
1019.185	2031.71
1019.476	2020.19
1019.767	2005.72
1020.058	1983.13
1020.35	1994.42
1020.641	2012.5
1020.932	1956.46
1021.223	1917.36
1021.514	1925.05
1021.804	1913.07
1022.095	1886.86
1022.386	1907.42
1022.677	1846.63
1022.967	1871.04
1023.258	1846.18
1023.548	1851.38
1023.839	1813.41
1024.129	1841.89
1024.419	1798.27
1024.709	1778.84
1025	1773.87
1025.29	1764.6
1025.58	1748.56
1025.87	1744.26
1026.16	1725.28
1026.449	1704.72
1026.739	1704.94
1027.029	1687.77
1027.319	1684.15
1027.608	1636.02
1027.898	1647.77
1028.187	1633.53
1028.477	1640.08
1028.766	1599.63
1029.055	1626.3
1029.344	1594.66
1029.634	1586.3
1029.923	1574.1
1030.212	1557.83
1030.501	1547.88
1030.79	1518.96
1031.078	1505.4
1031.367	1523.48
1031.656	1482.8
1031.945	1506.98
1032.233	1480.09
1032.522	1475.79
1032.81	1443.25
1033.099	1435.12
1033.387	1452.74
1033.675	1402.8
1033.963	1453.42
1034.251	1443.93
1034.54	1400.77
1034.828	1421.11
1035.116	1389.24
1035.403	1365.51
1035.691	1356.7
1035.979	1349.02
1036.267	1329.58
1036.554	1342.24
1036.842	1317.61
1037.129	1305.86
1037.417	1296.36
1037.704	1291.39
1037.992	1291.39
1038.279	1260.88
1038.566	1247.1
1038.853	1247.1
1039.14	1247.1
