Data from plate_porcelain_FLMS001491_057.txt Node
Date: Tue Feb 07 11:19:33 GMT 2017
User: dcchb
Spectrometer: FLMS00149
Trigger mode: 0
Integration Time (sec): 2.000000E-2
Scans to average: 10
Electric dark correction enabled: true
Nonlinearity correction enabled: false
Boxcar width: 0
XAxis mode: Wavelengths
Number of Pixels in Spectrum: 2048
>>>>>Begin Spectral Data<<<<<
341.393	-11.81
341.776	-11.81
342.16	-11.81
342.543	-35.31
342.927	-86.61
343.31	-59.94
343.693	-54.74
344.077	-73.5
344.46	-57.91
344.843	-57
345.226	-52.26
345.61	-45.93
345.993	-25.37
346.376	13.73
346.759	10.11
347.142	30
347.525	50.56
347.908	62.99
348.291	75.87
348.674	80.17
349.057	103.22
349.44	140.5
349.823	155.65
350.206	182.31
350.588	245.36
350.971	245.59
351.354	279.26
351.737	290.78
352.119	290.33
352.502	296.21
352.884	316.32
353.267	331.01
353.65	343.66
354.032	358.8
354.414	356.32
354.797	359.93
355.179	369.88
355.562	370.1
355.944	376.43
356.326	384.34
356.709	387.28
357.091	383.66
357.473	393.83
357.855	403.32
358.238	404.23
358.62	394.74
359.002	392.02
359.384	408.75
359.766	401.74
360.148	414.4
360.53	392.02
360.912	404.9
361.294	390.89
361.676	402.42
362.057	415.53
362.439	386.15
362.821	396.54
363.203	399.26
363.584	396.77
363.966	411.23
364.348	386.37
364.729	400.61
365.111	398.35
365.493	373.49
365.874	391.12
366.256	412.59
366.637	440.61
367.019	415.53
367.4	399.71
367.781	398.8
368.163	420.72
368.544	418.46
368.925	415.07
369.306	418.24
369.688	411.46
370.069	399.26
370.45	413.04
370.831	412.59
371.212	413.27
371.593	425.47
371.974	427.05
372.355	433.38
372.736	436.09
373.117	439.25
373.498	418.46
373.879	420.27
374.26	428.63
374.641	426.6
375.021	435.19
375.402	452.14
375.783	447.39
376.163	475.86
376.544	486.71
376.925	477.22
377.305	479.7
377.686	469.99
378.066	489.42
378.447	465.69
378.827	468.18
379.208	497.11
379.588	461.63
379.968	503.43
380.349	466.6
380.729	507.95
381.109	507.95
381.489	519.48
381.87	503.66
382.25	506.37
382.63	513.83
383.01	540.27
383.39	531.23
383.77	530.78
384.15	552.47
384.53	547.05
384.91	553.6
385.29	556.54
385.67	575.3
386.049	562.41
386.429	571.91
386.809	621.17
387.189	593.15
387.568	614.84
387.948	599.48
388.328	596.76
388.707	603.77
389.087	609.19
389.466	630.66
389.846	655.07
390.225	636.31
390.605	621.85
390.984	662.07
391.363	645.58
391.743	667.72
392.122	670.66
392.501	674.95
392.881	685.35
393.26	695.52
393.639	683.54
394.018	708.63
394.397	735.29
394.776	755.4
395.155	738.46
395.534	729.64
395.913	722.86
396.292	761.28
396.671	763.54
397.05	743.88
397.429	783.2
397.808	769.41
398.186	784.1
398.565	787.49
398.944	813.93
399.323	829.3
399.701	820.71
400.08	836.08
400.458	837.66
400.837	865.23
401.215	852.58
401.594	883.31
401.972	895.06
402.351	865.91
402.729	895.97
403.107	919.02
403.486	923.08
403.864	920.6
404.242	923.08
404.62	922.86
404.999	956.08
405.377	960.37
405.755	974.83
406.133	1021.16
406.511	1002.18
406.889	1025
407.267	1049.41
407.645	1058.67
408.023	1054.83
408.401	1101.61
408.779	1092.8
409.156	1135.28
409.534	1114.49
409.912	1137.77
410.29	1162.17
410.667	1162.85
411.045	1189.74
411.422	1229.06
411.8	1204.43
412.178	1238.78
412.555	1262.96
412.933	1263.64
413.31	1268.16
413.687	1321.04
414.065	1312.23
414.442	1341.15
414.819	1326.91
415.197	1375.5
415.574	1377.08
415.951	1379.57
416.328	1409.85
416.705	1421.83
417.082	1429.96
417.46	1456.4
417.837	1463.41
418.214	1497.76
418.591	1515.38
418.967	1507.02
419.344	1544.99
419.721	1550.86
420.098	1555.38
420.475	1587.7
420.852	1610.07
421.228	1625.44
421.605	1648.49
421.982	1661.37
422.358	1685.32
422.735	1679.45
423.111	1688.26
423.488	1749.73
423.864	1747.69
424.241	1763.06
424.617	1795.38
424.994	1822.04
425.37	1801.48
425.746	1831.53
426.123	1869.95
426.499	1878.99
426.875	1925.32
427.251	1935.71
427.627	1945.66
428.003	2003.05
428.379	2026.78
428.756	2045.54
429.132	2072.43
429.507	2109.49
429.883	2135.03
430.259	2189.72
430.635	2196.04
431.011	2249.38
431.387	2274.23
431.763	2332.54
432.138	2316.04
432.514	2350.62
432.89	2387
433.265	2438.3
433.641	2422.7
434.016	2472.87
434.392	2543.38
434.767	2540.44
435.143	2554.9
435.518	2610.5
435.894	2650.72
436.269	2637.39
436.644	2685.52
437.02	2744.5
437.395	2738.85
437.77	2768.91
438.145	2828.12
438.52	2869.02
438.895	2863.6
439.271	2860.21
439.646	2962.8
440.021	2950.6
440.395	2986.98
440.77	2992.63
441.145	3028.56
441.52	3090.48
441.895	3109.92
442.27	3112.86
442.645	3088.68
443.019	3189.46
443.394	3158.28
443.769	3222.01
444.143	3203.7
444.518	3308.78
444.892	3261.1
445.267	3289.8
445.641	3348.56
446.016	3358.05
446.39	3387.65
446.764	3394.88
447.139	3398.27
447.513	3502.45
447.887	3447.99
448.262	3497.25
448.636	3516.24
449.01	3585.16
449.384	3599.4
449.758	3641.2
450.132	3674.88
450.506	3690.24
450.88	3718.49
451.254	3728.89
451.628	3815.44
452.002	3883.91
452.376	3873.29
452.75	3907.86
453.123	3955.55
453.497	4017.92
453.871	4024.47
454.244	4138.59
454.618	4144.92
454.992	4253.84
455.365	4247.29
455.739	4382.43
456.112	4357.34
456.486	4425.82
456.859	4464.01
457.232	4586.49
457.606	4591.69
457.979	4593.72
458.352	4750.55
458.725	4755.75
459.099	4803.66
459.472	4991.45
459.845	4973.15
460.218	4960.94
460.591	5058.34
460.964	5094.05
461.337	5224.66
461.71	5295.85
462.083	5382.17
462.456	5369.07
462.829	5454.94
463.201	5558.22
463.574	5588.5
463.947	5624.2
464.32	5738.78
464.692	5817.87
465.065	5859.68
465.438	5973.35
465.81	6063.74
466.183	6097.64
466.555	6268.93
466.928	6301.02
467.3	6310.74
467.672	6387.35
468.045	6594.35
468.417	6567.68
468.789	6607.45
469.161	6693.1
469.534	6887.9
469.906	6995.47
470.278	7028.46
470.65	7155.91
471.022	7263.26
471.394	7440.65
471.766	7483.14
472.138	7550.48
472.51	7754.32
472.882	7872.28
473.253	7983.24
473.625	8084.48
473.997	8229.56
474.369	8303.91
474.74	8411.25
475.112	8520.62
475.484	8691.24
475.855	8795.87
476.227	8956.77
476.598	9197.44
476.97	9230.66
477.341	9519.24
477.713	9631.78
478.084	9707.26
478.455	9946.57
478.827	10032.9
479.198	10294.36
479.569	10430.18
479.94	10685.99
480.311	10716.05
480.682	11020.9
481.053	11249.59
481.424	11457.27
481.795	11547.21
482.166	11738.84
482.537	11965.73
482.908	12171.6
483.279	12285.95
483.65	12526.85
484.021	12719.84
484.391	12913.28
484.762	13056.55
485.133	13140.61
485.503	13429.65
485.874	13614.27
486.244	13833.25
486.615	14136.07
486.985	14249.96
487.356	14501.48
487.726	14585.1
488.097	14911.87
488.467	15065.08
488.837	15255.36
489.207	15491.29
489.578	15768.34
489.948	15914.55
490.318	16103.93
490.688	16148.9
491.058	16436.12
491.428	16746.62
491.798	16858.26
492.168	17185.25
492.538	17301.86
492.908	17502.99
493.278	17776.88
493.648	17778.46
494.017	18075.63
494.387	18146.81
494.757	18429.06
495.126	18530.53
495.496	18597.87
495.866	18796.74
496.235	19047.13
496.605	19130.51
496.974	19334.8
497.344	19511.97
497.713	19568.02
498.082	19806.43
498.452	20035.12
498.821	20169.13
499.19	20165.51
499.559	20376.58
499.928	20474.89
500.298	20688.67
500.667	20865.38
501.036	20921.88
501.405	21130.91
501.774	21207.52
502.143	21439.61
502.512	21584.91
502.88	21750.33
503.249	21756.21
503.618	21987.39
503.987	22003.43
504.356	22265.8
504.724	22326.59
505.093	22515.51
505.462	22553.93
505.83	22819.46
506.199	22978.32
506.567	23293.79
506.936	23317.07
507.304	23586.22
507.672	23787.34
508.041	23868.24
508.409	24010.16
508.777	24176.03
509.145	24387.32
509.514	24428.23
509.882	24636.36
510.25	24700.76
510.618	24935.33
510.986	25021.88
511.354	25323.57
511.722	25592.04
512.09	25739.15
512.458	25721.3
512.826	26081.52
513.193	26251.23
513.561	26261.4
513.929	26663.2
514.297	26837.88
514.664	27056.63
515.032	27108.16
515.4	27313.35
515.767	27391.99
516.135	27755.15
516.502	27586.79
516.869	27996.72
517.237	28196.26
517.604	28228.13
517.972	28578.18
518.339	28932.52
518.706	28857.72
519.073	29118.5
519.44	29199.4
519.808	29520.75
520.175	29655.89
520.542	30068.53
520.909	30158.02
521.276	30277.79
521.643	30647.95
522.009	30861.73
522.376	31019.01
522.743	31271.89
523.11	31634.37
523.477	31849.73
523.843	32065.32
524.21	32442.48
524.577	32591.4
524.943	32752.75
525.31	32933.09
525.676	33285.17
526.043	33590.92
526.409	33683.35
526.776	34141.19
527.142	34199.27
527.508	34479.04
527.874	34788.41
528.241	34852.59
528.607	35047.38
528.973	35356.08
529.339	35494.83
529.705	35817.98
530.071	36066.57
530.437	36296.16
530.803	36535.03
531.169	36520.11
531.535	36619.77
531.901	36748.36
532.267	36989.93
532.632	37149.93
532.998	37356.48
533.364	37690.25
533.73	37822.45
534.095	38092.95
534.461	38184.93
534.826	38367.07
535.192	38509.89
535.557	38900.16
535.923	38641.87
536.288	39081.85
536.653	39226.48
537.019	39318.91
537.384	39456.76
537.749	39498.79
538.114	39706.7
538.479	39971.55
538.845	40060.81
539.21	40014.26
539.575	40219.68
539.94	40380.12
540.305	40745.54
540.67	40527.47
541.034	40704.41
541.399	40937.62
541.764	41049.03
542.129	41156.38
542.494	41281.57
542.858	41484.73
543.223	41553.2
543.587	41870.48
543.952	41915.9
544.316	42039.97
544.681	42071.38
545.045	42288.78
545.41	42486.51
545.774	42644.7
546.138	42700.97
546.503	42832.49
546.867	42839.5
547.231	43235.87
547.595	43322.42
547.959	43328.97
548.324	43563.32
548.688	43428.63
549.052	43800.37
549.416	43841.73
549.779	43905.91
550.143	44092.12
550.507	44314.48
550.871	44479
551.235	44528.26
551.599	44857.3
551.962	44888.48
552.326	45109.04
552.689	45164.41
553.053	45253.22
553.417	45361.69
553.78	45838.29
554.143	45716.93
554.507	45931.84
554.87	46094.32
555.234	46577.25
555.597	46323.47
555.96	46548.55
556.323	46770.69
556.686	46759.17
557.05	47085.94
557.413	47089.55
557.776	47075.54
558.139	47393.5
558.502	47613.38
558.865	47683.44
559.228	48032.8
559.59	48139.47
559.953	48159.81
560.316	48525.45
560.679	48591.66
561.041	48918.21
561.404	48973.8
561.767	49197.97
562.129	49113.45
562.492	49602.26
562.854	49568.81
563.217	49712.99
563.579	49922.7
563.941	50071.17
564.304	50151.17
564.666	50361.33
565.028	50565.17
565.39	50664.37
565.753	50679.06
566.115	50969.45
566.477	51053.29
566.839	51152.27
567.201	51304.81
567.563	51415.31
567.925	51598.36
568.287	51675.65
568.648	51768.07
569.01	51962.19
569.372	52157.44
569.734	52027.05
570.095	52227.95
570.457	52420.26
570.819	52482.63
571.18	52498
571.542	52622.51
571.903	52807.14
572.265	52883.98
572.626	52952.22
572.987	53013.01
573.349	53096.4
573.71	53172.1
574.071	53278.54
574.432	53397.86
574.794	53554.02
575.155	53507.01
575.516	53462.27
575.877	53690.06
576.238	53762.6
576.599	53793.33
576.96	53877.62
577.32	53920.11
577.681	53881.24
578.042	54168.24
578.403	54093.89
578.763	54137.5
579.124	54160.78
579.485	54277.84
579.845	54311.51
580.206	54286.2
580.566	54312.19
580.927	54390.38
581.287	54476.03
581.648	54405.29
582.008	54544.95
582.368	54487.78
582.728	54532.52
583.089	54426.08
583.449	54462.24
583.809	54492.3
584.169	54565.74
584.529	54516.02
584.889	54720.99
585.249	54498.85
585.609	54480.32
585.969	54566.87
586.329	54643.03
586.688	54621.56
587.048	54654.78
587.408	54592.18
587.768	54673.53
588.127	54594.21
588.487	54610.26
588.846	54773.19
589.206	54589.47
589.565	54551.96
589.925	54809.58
590.284	54640.54
590.643	54781.78
591.003	54750.82
591.362	54731.61
591.721	54720.99
592.08	54790.14
592.44	54811.38
592.799	54894.55
593.158	54836.69
593.517	54813.64
593.876	54917.6
594.235	54829.46
594.593	54750.14
594.952	54928.67
595.311	54807.99
595.67	54927.54
596.029	55076.69
596.387	54995.33
596.746	55075.11
597.104	54941.78
597.463	54987.2
597.822	55148.32
598.18	54990.36
598.538	55034.88
598.897	55129.57
599.255	54902.91
599.613	55293.86
599.972	55108.78
600.33	55214.31
600.688	55163.01
601.046	55245.72
601.404	55321.2
601.762	55288.66
602.12	55424.7
602.478	55312.84
602.836	55408.2
603.194	55330.47
603.552	55295.66
603.91	55258.6
604.268	55470.58
604.625	55292.5
604.983	55475.55
605.341	55354.65
605.698	55619.5
606.056	55554.19
606.413	55505.83
606.771	55632.83
607.128	55633.28
607.485	55563.91
607.843	55627.18
608.2	55737.91
608.557	55824.92
608.914	55732.94
609.272	55838.48
609.629	55890.23
609.986	55959.38
610.343	55890
610.7	56079.37
611.057	56063.1
611.414	56037.57
611.771	56044.8
612.127	56128.41
612.484	56090.9
612.841	56193.49
613.198	56115.98
613.554	56184.23
613.911	56260.84
614.267	56225.81
614.624	56232.14
614.98	56336.32
615.337	56458.57
615.693	56458.12
616.05	56294.51
616.406	56442.75
616.762	56392.36
617.118	56444.56
617.475	56390.78
617.831	56507.61
618.187	56501.73
618.543	56562.52
618.899	56671
619.255	56617.66
619.611	56625.35
619.967	56694.5
620.323	56750.32
620.678	56692.46
621.034	56609.08
621.39	56643.88
621.746	56652.24
622.101	56875.51
622.457	56663.99
622.812	56644.1
623.168	56742.18
623.523	56733.59
623.879	56821.95
624.234	56615.18
624.589	56745.57
624.945	56711.45
625.3	56757.55
625.655	56694.27
626.01	56718
626.365	56778.79
626.72	56742.86
627.075	56668.28
627.43	56639.58
627.785	56639.58
628.14	56699.47
628.495	56657.89
628.85	56567.27
629.205	56556.2
629.559	56682.07
629.914	56531.79
630.269	56539.93
630.623	56536.08
630.978	56436.65
631.332	56511.23
631.687	56597.33
632.041	56477.78
632.396	56478.46
632.75	56393.49
633.104	56429.42
633.459	56259.71
633.813	56327.05
634.167	56320.95
634.521	56293.15
634.875	56325.92
635.229	56192.59
635.583	56110.11
635.937	56114.85
636.291	56101.07
636.645	56085.47
636.999	55930.45
637.352	56073.05
637.706	55846.16
638.06	55995.99
638.413	56013.16
638.767	55822.2
639.121	55951.01
639.474	55659.5
639.828	55755.54
640.181	55757.57
640.534	55765.93
640.888	55648.88
641.241	55551.7
641.594	55655.2
641.947	55714.86
642.301	55533.62
642.654	55638.25
643.007	55582.44
643.36	55523.23
643.713	55400.29
644.066	55637.35
644.419	55369.79
644.771	55185.61
645.124	54912.17
645.477	54864.94
645.83	54622.46
646.182	54536.36
646.535	54413.65
646.888	54506.08
647.24	54346.99
647.593	54539.07
647.945	54509.92
648.298	54277.39
648.65	54156.49
649.002	54166.65
649.355	54273.09
649.707	54196.71
650.059	54326.88
650.411	54613.2
650.763	54686.19
651.115	54904.49
651.467	54685.96
651.819	54751.95
652.171	54790.82
652.523	54694.32
652.875	54666.08
653.227	54543.37
653.578	54658.17
653.93	54580.2
654.282	54510.15
654.633	54398.51
654.985	54470.15
655.337	54483.48
655.688	54439.19
656.039	54524.84
656.391	54258.4
656.742	54363.71
657.094	54464.05
657.445	54445.74
657.796	54433.77
658.147	54312.64
658.498	54256.37
658.849	54284.39
659.2	54197.16
659.551	54167.56
659.902	54331.17
660.253	54154.9
660.604	54226.09
660.955	54136.37
661.306	54258.63
661.656	54124.85
662.007	54144.06
662.358	54084.4
662.708	54110.16
663.059	53999.2
663.409	53818.87
663.76	54035.36
664.11	54010.5
664.461	53973.44
664.811	54061.35
665.161	53967.79
665.511	53941.8
665.862	53964.85
666.212	54015.47
666.562	54002.14
666.912	53949.26
667.262	53913.1
667.612	53826.78
667.962	54001.24
668.312	53911.75
668.662	53979.77
669.011	53929.37
669.361	53780.45
669.711	53864.97
670.06	53754.01
670.41	53670.4
670.76	53677.63
671.109	53869.71
671.459	53735.48
671.808	53707.23
672.157	53803.05
672.507	53594.01
672.856	53556.5
673.205	53650.28
673.554	53655.93
673.904	53471.53
674.253	53625.2
674.602	53588.59
674.951	53177.3
675.3	53026.12
675.649	53509.27
675.998	53515.15
676.346	53489.16
676.695	53468.59
677.044	53274.02
677.393	53457.75
677.741	53427.01
678.09	53374.36
678.438	53293.46
678.787	53304.53
679.135	53327.13
679.484	53107.25
679.832	53374.81
680.181	53129.62
680.529	53153.8
680.877	53056.4
681.225	53022.96
681.573	53132.33
681.922	52936.86
682.27	52809.18
682.618	52797.88
682.966	52784.09
683.314	52762.4
683.661	52634.04
684.009	52496.64
684.357	52443.08
684.705	52492.12
685.053	52450.99
685.4	52429.53
685.748	52257.33
686.095	52129.65
686.443	52103.21
686.79	52072.25
687.138	52103.66
687.485	52128.74
687.832	51947.28
688.18	52042.19
688.527	51784.34
688.874	51775.98
689.221	51642.88
689.568	51576.44
689.915	51480.4
690.262	51505.26
690.609	51354.75
690.956	51224.36
691.303	51236.11
691.65	51049.67
691.997	51001.54
692.344	50943.46
692.69	50875.67
693.037	50969.22
693.383	50631.38
693.73	50738.72
694.077	50545.28
694.423	50540.08
694.769	50324.04
695.116	50272.07
695.462	50276.59
695.808	50166.08
696.155	50243.37
696.501	49934.22
696.847	49973.77
697.193	49574.46
697.539	49860.1
697.885	49559.77
698.231	49508.25
698.577	49452.2
698.923	49421.02
699.269	49144.64
699.614	48871.2
699.96	48879.11
700.306	48855.38
700.651	48933.8
700.997	48790.07
701.342	48688.15
701.688	48520.48
702.033	48386.24
702.379	48433.47
702.724	48246.36
703.069	48280.03
703.415	47879.36
703.76	47858.12
704.105	47938.57
704.45	47733.38
704.795	47540.16
705.14	47315.99
705.485	47500.84
705.83	47223.11
706.175	47408.87
706.52	47143.34
706.865	46985.83
707.209	47026.5
707.554	46794.42
707.899	47022.66
708.243	46729.56
708.588	46688.21
708.932	46463.58
709.277	46300.65
709.621	46457.93
709.966	46122.12
710.31	46293.42
710.654	45966.87
710.998	46040.54
711.342	45956.48
711.687	45760.55
712.031	45613.89
712.375	45452.31
712.719	45609.59
713.063	45431.07
713.407	45449.14
713.75	45325.31
714.094	45383.38
714.438	45144.29
714.782	45042.15
715.125	45012.77
715.469	45006.22
715.812	44767.81
716.156	44603.29
716.499	44537.76
716.843	44556.74
717.186	44225.67
717.53	44459.34
717.873	44526
718.216	44388.83
718.559	44272.23
718.902	44094.15
719.246	44216.63
719.589	43961.5
719.932	43939.13
720.275	43713.37
720.617	43646.71
720.96	43622.07
721.303	43524.45
721.646	43579.81
721.989	43441.06
722.331	43490.78
722.674	43388.86
723.016	43361.97
723.359	43169.66
723.701	43247.85
724.044	42898.7
724.386	42740.29
724.729	42932.6
725.071	42794.75
725.413	42784.13
725.755	42573.51
726.097	42639.95
726.439	42425.49
726.782	42272.5
727.124	42425.04
727.465	42464.59
727.807	42197.25
728.149	42126.75
728.491	41992.06
728.833	42233.64
729.175	41890.59
729.516	41876.36
729.858	41832.06
730.199	41889.01
730.541	41599.98
730.882	41652.63
731.224	41745.51
731.565	41444.5
731.906	41557.95
732.248	41558.17
732.589	41352.3
732.93	41121.35
733.271	41206.09
733.612	41090.84
733.953	41238.18
734.294	41025.53
734.635	40996.38
734.976	40990.5
735.317	40755.93
735.658	40778.76
735.999	40768.14
736.339	40576.96
736.68	40663.28
737.021	40518.88
737.361	40322.5
737.702	40533.12
738.042	40482.95
738.383	40303.74
738.723	40445.43
739.063	40276.17
739.404	40219.45
739.744	40221.26
740.084	39920.93
740.424	39962.96
740.764	39900.14
741.104	39993.92
741.444	39735.85
741.784	39825.34
742.124	39547.15
742.464	39657.88
742.804	39522.97
743.143	39352.58
743.483	39375.41
743.823	39341.51
744.162	39350.32
744.502	39322.3
744.841	39059.03
745.181	39234.84
745.52	38932.71
745.86	38960.73
746.199	39016.54
746.538	38897.45
746.877	38914.63
747.216	38807.74
747.556	38665.82
747.895	38667.85
748.234	38408.88
748.573	38349.22
748.911	38358.26
749.25	38447.29
749.589	38194.65
749.928	38205.94
750.267	38219.73
750.605	38014.76
750.944	37908.78
751.283	37678.5
751.621	37841.89
751.96	37584.94
752.298	37643.02
752.636	37642.8
752.975	37433.31
753.313	37358.06
753.651	37472.63
753.989	37265.63
754.327	37253.43
754.666	37111.96
755.004	37253.2
755.342	37149.02
755.679	37109.93
756.017	36930.05
756.355	36902.25
756.693	36532.99
757.031	36703.84
757.368	36391.08
757.706	36365.54
758.044	36224.75
758.381	36336.62
758.719	36037.41
759.056	36171.65
759.394	36059.56
759.731	35780.7
760.068	35864.31
760.405	35788.83
760.743	35399.24
761.08	35561.95
761.417	35314.5
761.754	35312.01
762.091	35236.76
762.428	35158.34
762.765	34878.8
763.102	35001.51
763.438	34734.17
763.775	34481.07
764.112	34567.62
764.449	34544.12
764.785	34347.29
765.122	34064.58
765.458	33968.99
765.795	33972.84
766.131	33941.88
766.467	33736.46
766.804	33631.83
767.14	33519.29
767.476	33392.74
767.812	33289.69
768.148	33274.77
768.485	33137.83
768.821	32889.47
769.157	32940.32
769.492	32783.71
769.828	32734.9
770.164	32462.82
770.5	32344.86
770.836	32311.86
771.171	32218.53
771.507	32094.24
771.842	31825.55
772.178	31971.31
772.513	31907.13
772.849	31826.45
773.184	31637.98
773.519	31568.38
773.855	31343.3
774.19	31297.65
774.525	31127.49
774.86	31197.32
775.195	31106.7
775.53	30873.03
775.865	30621.29
776.2	30592.13
776.535	30367.28
776.87	30398.24
777.205	30231.69
777.539	30137
777.874	30224.91
778.209	30001.64
778.543	29830.12
778.878	29591.48
779.212	29782.44
779.547	29384.71
779.881	29488.21
780.215	29245.5
780.55	29309.46
780.884	29040.08
781.218	29043.02
781.552	29090.48
781.886	28888.22
782.22	28632.19
782.554	28630.6
782.888	28365.53
783.222	28259.54
783.556	28201.24
783.889	28127.34
784.223	27930.51
784.557	27990.62
784.89	27961.69
785.224	27714.02
785.557	27497.75
785.891	27488.71
786.224	27399
786.558	27357.64
786.891	27144.99
787.224	26950.65
787.557	26919.24
787.891	26987.26
788.224	26900.03
788.557	26908.84
788.89	26856.64
789.223	26629.98
789.556	26455.97
789.888	26446.25
790.221	26254.62
790.554	26055.76
790.887	26093.49
791.219	26110.22
791.552	25937.11
791.884	25901.86
792.217	25819.38
792.549	25734.18
792.882	25518.82
793.214	25473.17
793.546	25459.39
793.879	25225.72
794.211	25154.54
794.543	25147.53
794.875	24959.51
795.207	25031.83
795.539	24922
795.871	24852.85
796.203	24649.92
796.535	24550.71
796.867	24554.55
797.198	24485.4
797.53	24406.08
797.862	24104.62
798.193	24291.73
798.525	24137.16
798.856	24106.88
799.188	23945.75
799.519	23757.96
799.85	23680.9
800.182	23625.09
800.513	23669.15
800.844	23604.52
801.175	23781.01
801.506	23531.75
801.837	23411.08
802.168	23319.33
802.499	23358.43
802.83	23154.36
803.161	23049.96
803.491	23159.33
803.822	23131.54
804.153	22915.27
804.483	22780.59
804.814	22619.24
805.145	22551.67
805.475	22581.5
805.805	22491.33
806.136	22554.15
806.466	22667.82
806.796	22543.31
807.126	22246.14
807.457	22217.21
807.787	22261.51
808.117	22091.79
808.447	22129.31
808.777	22036.65
809.107	22014.05
809.436	21825.81
809.766	21990.78
810.096	21882.08
810.426	21710.79
810.755	21761.63
811.085	21714.17
811.414	21578.81
811.744	21430.57
812.073	21315.54
812.403	21394.18
812.732	21217.46
813.061	21247.07
813.39	21095.89
813.719	21116.9
814.049	21149.44
814.378	21077.36
814.707	20928.43
815.036	20917.81
815.365	20657.48
815.693	20656.58
816.022	20598.27
816.351	20550.14
816.68	20560.31
817.008	20638.5
817.337	20408.67
817.665	20295.91
817.994	20311.95
818.322	20299.97
818.651	20321.9
818.979	20127.78
819.307	20255.46
819.636	20120.54
819.964	19915.35
820.292	20034.22
820.62	20078.74
820.948	19943.37
821.276	20050.72
821.604	19904.73
821.932	20012.75
822.259	20006.2
822.587	19948.12
822.915	19859.31
823.243	19950.83
823.57	19863.83
823.898	19831.96
824.225	19808.46
824.553	19810.72
824.88	19856.37
825.207	19831.74
825.535	19811.85
825.862	19791.51
826.189	19771.63
826.516	19919.42
826.843	20033.77
827.17	19981.11
827.497	20041.45
827.824	19883.71
828.151	19904.73
828.478	19814.11
828.805	19968.01
829.131	19822.25
829.458	19845.3
829.785	19742.48
830.111	19736.83
830.438	19871.51
830.764	19796.94
831.09	19772.08
831.417	19696.37
831.743	19802.36
832.069	19733.44
832.395	19744.51
832.722	19715.58
833.048	19657.28
833.374	19629.03
833.7	19527.34
834.026	19584.74
834.351	19584.06
834.677	19532.76
835.003	19500.22
835.329	19591.97
835.654	19544.51
835.98	19379.32
836.306	19394.69
836.631	19276.95
836.956	19407.12
837.282	19329.83
837.607	19450.51
837.932	19422.26
838.258	19244.41
838.583	19269.95
838.908	19101.59
839.233	19205.31
839.558	19090.51
839.883	19017.07
840.208	18942.27
840.533	19040.35
840.858	19044.41
841.182	19054.81
841.507	18973
841.832	18905.89
842.156	18779.79
842.481	18717.19
842.805	18745.44
843.13	18710.86
843.454	18634.03
843.778	18518.1
844.103	18525.11
844.427	18598.32
844.751	18476.52
845.075	18413.47
845.399	18429.52
845.723	18325.79
846.047	18330.31
846.371	18168.96
846.695	18208.5
847.019	17946.36
847.343	17949.08
847.666	17718.12
847.99	17723.32
848.313	17736.2
848.637	17574.85
848.96	17646.03
849.284	17549.31
849.607	17426.15
849.931	17339.83
850.254	17327.85
850.577	17125.14
850.9	17088.99
851.223	16975.54
851.546	16961.53
851.869	16850.8
852.192	17028.87
852.515	16853.74
852.838	16670.69
853.161	16740.97
853.483	16539.62
853.806	16572.16
854.129	16503.46
854.451	16526.51
854.774	16360.42
855.096	16328.1
855.419	16275
855.741	16235.67
856.063	16194.55
856.385	16161.33
856.708	16084.72
857.03	15976.02
857.352	16075.23
857.674	15903.03
857.996	15904.84
858.318	15760.43
858.64	15744.39
858.961	15801.34
859.283	15621.45
859.605	15576.03
859.926	15687.67
860.248	15518.86
860.57	15406.32
860.891	15576.71
861.212	15420.1
861.534	15347.11
861.855	15396.15
862.176	15324.06
862.498	15300.78
862.819	15346.21
863.14	15220.79
863.461	15235.25
863.782	15203.39
864.103	15218.98
864.424	15111.41
864.745	15169.04
865.065	15011.07
865.386	15016.5
865.707	14989.15
866.027	15079.55
866.348	15058.08
866.668	15025.09
866.989	14892.66
867.309	14708.94
867.63	14800.46
867.95	14837.97
868.27	14696.96
868.59	14738.77
868.91	14735.83
869.23	14760.69
869.55	14706.9
869.87	14706
870.19	14680.69
870.51	14690.86
870.83	14577.87
871.15	14515.04
871.469	14481.14
871.789	14456.74
872.109	14446.34
872.428	14412.9
872.748	14471.65
873.067	14341.71
873.386	14396.63
873.706	14417.64
874.025	14343.97
874.344	14257.2
874.663	14301.71
874.982	14273.69
875.301	14337.19
875.62	14169.06
875.939	14176.97
876.258	14176.52
876.577	14146.01
876.896	14133.13
877.214	14035.51
877.533	14131.55
877.852	14035.28
878.17	14050.65
878.489	14098.78
878.807	14031.44
879.125	13882.29
879.444	13980.37
879.762	13864.66
880.08	13946.24
880.398	13842.07
880.716	13854.95
881.034	13847.04
881.352	13907.83
881.67	13741.96
881.988	13797.09
882.306	13690.21
882.624	13619.02
882.941	13607.95
883.259	13492.47
883.577	13484.56
883.894	13508.51
884.212	13438.46
884.529	13386.48
884.846	13401.17
885.164	13393.49
885.481	13304
885.798	13266.94
886.115	13264.23
886.432	13303.77
886.75	13197.11
887.067	13186.94
887.383	13146.94
887.7	13143.55
888.017	13088.86
888.334	13118.69
888.651	13002.77
888.967	13027.4
889.284	12941.07
889.6	12884.8
889.917	12883.22
890.233	12872.37
890.55	12775.2
890.866	12783.11
891.182	12733.62
891.498	12631.25
891.815	12636.9
892.131	12613.85
892.447	12597.13
892.763	12501.54
893.079	12461.76
893.395	12493.17
893.71	12457.02
894.026	12346.06
894.342	12383.12
894.657	12264.03
894.973	12344.25
895.289	12208.44
895.604	12180.41
895.92	12121.43
896.235	12069.91
896.55	12051.83
896.865	11957.37
897.181	11925.73
897.496	11953.08
897.811	11972.51
898.126	11808.67
898.441	11748.79
898.756	11789.92
899.071	11674.89
899.386	11811.16
899.7	11619.52
900.015	11597.83
900.33	11462.02
900.644	11499.75
900.959	11517.15
901.273	11460.43
901.588	11420.89
901.902	11362.58
902.216	11305.41
902.531	11238.74
902.845	11222.93
903.159	11204.62
903.473	11083.95
903.787	11046.66
904.101	10996.94
904.415	10995.36
904.729	10896.83
905.042	10878.98
905.356	10900.67
905.67	10843.27
905.984	10834.69
906.297	10882.14
906.611	10771.41
906.924	10783.84
907.237	10654.13
907.551	10641.25
907.864	10613
908.177	10571.42
908.491	10467.92
908.804	10405.77
909.117	10370.52
909.43	10321.25
909.743	10258.43
910.056	10264.76
910.368	10227.02
910.681	10154.93
910.994	10155.61
911.307	10094.37
911.619	10034.48
911.932	9986.8
912.244	9905.67
912.557	9990.19
912.869	9847.14
913.181	9834.04
913.494	9805.56
913.806	9750.2
914.118	9702.29
914.43	9679.91
914.742	9691.67
915.054	9620.26
915.366	9565.79
915.678	9543.65
915.99	9497.55
916.302	9411.67
916.613	9415.52
916.925	9398.79
917.236	9334.84
917.548	9279.02
917.859	9292.35
918.171	9183.43
918.482	9213.26
918.794	9187.95
919.105	9105.69
919.416	9008.75
919.727	8971.23
920.038	8954.28
920.349	8957
920.66	8885.59
920.971	8961.52
921.282	8879.03
921.593	8735.98
921.903	8724.23
922.214	8680.85
922.525	8658.7
922.835	8621.19
923.146	8586.61
923.456	8635.65
923.767	8531.24
924.077	8641.3
924.387	8465.48
924.697	8364.02
925.008	8424.35
925.318	8348.2
925.628	8378.25
925.938	8277.92
926.248	8228.88
926.558	8202.67
926.867	8196.11
927.177	8149.33
927.487	8099.62
927.796	7999.96
928.106	8063.46
928.416	8005.83
928.725	7954.76
929.034	7951.37
929.344	7924.48
929.653	7866.18
929.962	7750.7
930.271	7798.83
930.581	7725.62
930.89	7712.51
931.199	7647.65
931.508	7669.12
931.817	7670.93
932.125	7569.46
932.434	7570.37
932.743	7474.78
933.051	7416.47
933.36	7407.66
933.669	7406.08
933.977	7371.28
934.286	7330.6
934.594	7292.63
934.902	7228.45
935.21	7264.84
935.519	7189.13
935.827	7198.62
936.135	7143.94
936.443	7083.83
936.751	7034.11
937.059	7040.44
937.367	6978.97
937.674	6991.4
937.982	6977.84
938.29	6899.42
938.597	6906.2
938.905	6867.79
939.213	6823.27
939.52	6833.89
939.827	6811.06
940.135	6750.27
940.442	6658.53
940.749	6719.54
941.056	6710.28
941.363	6556.83
941.67	6599.32
941.977	6582.82
942.284	6539.21
942.591	6559.55
942.898	6472.09
943.205	6538.3
943.511	6425.76
943.818	6409.94
944.125	6349.38
944.431	6347.8
944.738	6306.22
945.044	6282.49
945.35	6269.16
945.657	6208.14
945.963	6215.37
946.269	6175.83
946.575	6167.46
946.881	6097.86
947.187	6107.58
947.493	6094.7
947.799	6011.99
948.105	6046.11
948.41	5938.54
948.716	5974.25
949.022	5905.1
949.327	5932.22
949.633	5840.02
949.938	5882.5
950.244	5811.99
950.549	5821.71
950.854	5758.21
951.16	5761.6
951.465	5725.44
951.77	5706.69
952.075	5689.51
952.38	5634.37
952.685	5590.3
952.99	5576.29
953.294	5557.99
953.599	5543.53
953.904	5517.76
954.209	5448.61
954.513	5473.47
954.818	5440.93
955.122	5463.3
955.426	5440.7
955.731	5330.2
956.035	5312.57
956.339	5335.17
956.643	5275.96
956.948	5234.83
957.252	5252.69
957.556	5220.82
957.86	5236.42
958.163	5174.27
958.467	5165.68
958.771	5171.33
959.075	5115.74
959.378	5078.68
959.682	5121.16
959.985	5073.48
960.289	5026.25
960.592	4979.25
960.896	4957.78
961.199	4970.89
961.502	4941.96
961.805	4953.49
962.108	4864.9
962.411	4880.49
962.714	4837.78
963.017	4817.44
963.32	4832.58
963.623	4791.91
963.926	4780.83
964.228	4781.96
964.531	4788.07
964.833	4752.36
965.136	4693.83
965.438	4691.57
965.741	4652.02
966.043	4642.53
966.345	4634.17
966.648	4595.53
966.95	4597.56
967.252	4580.39
967.554	4527.06
967.856	4510.56
968.158	4475.76
968.46	4457.68
968.761	4441.41
969.063	4426.27
969.365	4348.08
969.666	4378.81
969.968	4345.37
970.269	4355.99
970.571	4329.55
970.872	4315.99
971.174	4314.41
971.475	4258.14
971.776	4235.99
972.077	4218.59
972.378	4237.35
972.679	4207.74
972.98	4171.36
973.281	4126.61
973.582	4121.87
973.883	4130.68
974.183	4093.85
974.484	4081.64
974.785	4058.14
975.085	4049.1
975.386	4048.42
975.686	4011.59
975.986	3974.08
976.287	3964.13
976.587	3877.58
976.887	3942.89
977.187	3883.91
977.487	3884.36
977.787	3894.76
978.087	3869.45
978.387	3833.74
978.687	3839.16
978.987	3783.57
979.286	3803.69
979.586	3761.65
979.885	3762.78
980.185	3743.8
980.484	3723.91
980.784	3691.15
981.083	3723.46
981.382	3666.29
981.682	3667.42
981.981	3653.18
982.28	3612.28
982.579	3628.1
982.878	3622.45
983.177	3591.71
983.475	3587.42
983.774	3545.16
984.073	3576.57
984.372	3489.12
984.67	3499.74
984.969	3506.52
985.267	3478.95
985.566	3385.84
985.864	3436.69
986.162	3445.73
986.461	3427.88
986.759	3402.79
987.057	3361.66
987.355	3372.06
987.653	3351.95
987.951	3314.21
988.249	3327.31
988.547	3320.99
988.844	3264.94
989.142	3263.81
989.44	3259.29
989.737	3216.58
990.035	3226.3
990.332	3219.52
990.63	3175.91
990.927	3189.92
991.224	3161.89
991.521	3141.78
991.819	3129.8
992.116	3088.9
992.413	3094.55
992.71	3061.11
993.006	3036.93
993.303	3088.45
993.6	3040.99
993.897	3062.46
994.193	2983.37
994.49	3035.12
994.787	2937.49
995.083	2963.03
995.379	2947.89
995.676	2925.52
995.972	2930.49
996.268	2881.9
996.565	2865.63
996.861	2878.29
997.157	2841.68
997.453	2857.72
997.749	2847.33
998.044	2831.96
998.34	2776.59
998.636	2739.76
998.932	2773.66
999.227	2731.4
999.523	2697.5
999.818	2720.78
1000.114	2711.28
1000.409	2666.09
1000.704	2670.61
1001	2631.06
1001.295	2619.08
1001.59	2646.43
1001.885	2635.13
1002.18	2578.41
1002.475	2607.56
1002.77	2565.53
1003.065	2561.23
1003.359	2574.79
1003.654	2512.65
1003.949	2484.4
1004.243	2500.67
1004.538	2506.09
1004.832	2504.28
1005.127	2459.77
1005.421	2443.95
1005.715	2445.75
1006.009	2415.25
1006.304	2401.46
1006.598	2394.46
1006.892	2346.1
1007.186	2339.54
1007.48	2361.46
1007.773	2338.64
1008.067	2321.24
1008.361	2287.12
1008.655	2307.91
1008.948	2292.54
1009.242	2259.09
1009.535	2262.71
1009.829	2243.95
1010.122	2209.38
1010.415	2185.87
1010.708	2198.53
1011.001	2190.62
1011.295	2198.08
1011.588	2165.76
1011.881	2157.63
1012.173	2116.5
1012.466	2126.44
1012.759	2128.02
1013.052	2132.77
1013.344	2091.41
1013.637	2123.5
1013.93	2042.15
1014.222	2034.69
1014.514	2020.68
1014.807	1995.37
1015.099	2018.65
1015.391	2014.35
1015.683	2020.46
1015.976	1966.67
1016.268	1960.12
1016.56	1942.27
1016.851	1958.99
1017.143	1932.55
1017.435	1910.85
1017.727	1893.91
1018.018	1889.61
1018.31	1846
1018.602	1878.31
1018.893	1842.83
1019.185	1854.36
1019.476	1827.47
1019.767	1813.23
1020.058	1793.57
1020.35	1775.26
1020.641	1786.11
1020.932	1747.69
1021.223	1766.22
1021.514	1738.65
1021.804	1707.7
1022.095	1745.89
1022.386	1693.23
1022.677	1669.73
1022.967	1690.52
1023.258	1646.23
1023.548	1667.92
1023.839	1632.44
1024.129	1642.61
1024.419	1619.11
1024.709	1625.21
1025	1593.12
1025.29	1578.66
1025.58	1584.99
1025.87	1560.13
1026.16	1543.41
1026.449	1566.46
1026.739	1540.24
1027.029	1554.03
1027.319	1519.9
1027.608	1507.93
1027.898	1513.35
1028.187	1485.1
1028.477	1496.63
1028.766	1486.01
1029.055	1434.71
1029.344	1443.97
1029.634	1447.82
1029.923	1454.59
1030.212	1425.89
1030.501	1383.18
1030.79	1380.47
1031.078	1380.47
1031.367	1375.73
1031.656	1345.9
1031.945	1386.8
1032.233	1346.57
1032.522	1336.63
1032.81	1318.55
1033.099	1316.75
1033.387	1334.6
1033.675	1291.43
1033.963	1302.96
1034.251	1298.67
1034.54	1277.88
1034.828	1280.14
1035.116	1263.64
1035.403	1293.02
1035.691	1261.83
1035.979	1222.96
1036.267	1260.25
1036.554	1213.7
1036.842	1190.19
1037.129	1170.76
1037.417	1199.91
1037.704	1196.75
1037.992	1181.38
1038.279	1179.8
1038.566	1185
1038.853	1185
1039.14	1185
