Data from plate_ceramic_FLMS001491_051.txt Node
Date: Tue Feb 07 11:16:58 GMT 2017
User: dcchb
Spectrometer: FLMS00149
Trigger mode: 0
Integration Time (sec): 2.000000E-2
Scans to average: 10
Electric dark correction enabled: true
Nonlinearity correction enabled: false
Boxcar width: 0
XAxis mode: Wavelengths
Number of Pixels in Spectrum: 2048
>>>>>Begin Spectral Data<<<<<
341.393	-23.73
341.776	-23.73
342.16	-23.73
342.543	-79.32
342.927	-68.92
343.31	-70.05
343.693	-70.28
344.077	-54.46
344.46	-69.15
344.843	-79.09
345.226	-48.59
345.61	-28.02
345.993	-16.27
346.376	-14.69
346.759	6.78
347.142	37.29
347.525	56.72
347.908	69.83
348.291	80.68
348.674	85.65
349.057	113.67
349.44	137.62
349.823	144.85
350.206	154.57
350.588	201.58
350.971	216.72
351.354	245.87
351.737	237.73
352.119	260.56
352.502	284.06
352.884	278.18
353.267	302.36
353.65	303.95
354.032	288.13
354.414	321.12
354.797	315.25
355.179	346.43
355.562	335.36
355.944	336.94
356.326	374.23
356.709	355.02
357.091	361.8
357.473	369.93
357.855	361.35
358.238	350.5
358.62	349.82
359.002	345.75
359.384	356.83
359.766	350.95
360.148	388.01
360.53	357.73
360.912	354.79
361.294	365.19
361.676	355.7
362.057	345.53
362.439	340.1
362.821	360.22
363.203	351.4
363.584	355.47
363.966	344.4
364.348	354.11
364.729	358.41
365.111	326.32
365.493	344.62
365.874	331.29
366.256	367.67
366.637	343.72
367.019	347.56
367.4	353.89
367.781	347.34
368.163	346.66
368.544	358.41
368.925	352.31
369.306	345.3
369.688	354.79
370.069	345.3
370.45	354.34
370.831	357.5
371.212	359.09
371.593	358.18
371.974	363.61
372.355	347.34
372.736	348.24
373.117	373.78
373.498	373.55
373.879	377.17
374.26	363.15
374.641	351.63
375.021	372.65
375.402	370.39
375.783	390.95
376.163	399.31
376.544	394.34
376.925	397.96
377.305	374.45
377.686	399.31
378.066	396.15
378.447	406.77
378.827	408.8
379.208	404.74
379.588	385.53
379.968	405.41
380.349	423.49
380.729	427.33
381.109	438.63
381.489	425.75
381.87	420.55
382.25	435.47
382.63	423.94
383.01	411.29
383.39	437.28
383.77	440.89
384.15	446.32
384.53	455.81
384.91	431.4
385.29	449.71
385.67	459.87
386.049	458.07
386.429	468.46
386.809	451.97
387.189	471.17
387.568	459.87
387.948	485.64
388.328	491.29
388.707	475.47
389.087	484.51
389.466	504.85
389.846	503.26
390.225	502.36
390.605	490.16
390.984	512.3
391.363	520.21
391.743	540.32
392.122	506.65
392.501	534.22
392.881	519.99
393.26	549.36
393.639	563.6
394.018	566.99
394.397	562.92
394.776	585.3
395.155	568.12
395.534	577.84
395.913	589.59
396.292	570.83
396.671	578.06
397.05	581.68
397.429	578.06
397.808	596.82
398.186	618.74
398.565	616.48
398.944	641.79
399.323	596.37
399.701	647.67
400.08	628.01
400.458	638.63
400.837	639.76
401.215	653.32
401.594	634.11
401.972	651.96
402.351	689.02
402.729	688.12
403.107	684.95
403.486	686.08
403.864	689.02
404.242	694.67
404.62	728.79
404.999	697.83
405.377	709.13
405.755	703.03
406.133	715.91
406.511	754.1
406.889	771.28
407.267	752.07
407.645	762.01
408.023	787.1
408.401	790.94
408.779	795.01
409.156	800.88
409.534	824.16
409.912	840.88
410.29	837.72
410.667	867.55
411.045	860.09
411.422	876.59
411.8	865.06
412.178	905.96
412.555	905.29
412.933	893.54
413.31	935.12
413.687	948
414.065	960.2
414.442	962.91
414.819	959.07
415.197	957.04
415.574	1002.69
415.951	1018.73
416.328	1019.86
416.705	1005.4
417.082	1035.23
417.46	1054.44
417.837	1033.65
418.214	1078.39
418.591	1080.2
418.967	1074.55
419.344	1082.01
419.721	1103.93
420.098	1111.38
420.475	1140.76
420.852	1093.76
421.228	1171.27
421.605	1185.05
421.982	1183.25
422.358	1180.53
422.735	1216.69
423.111	1204.04
423.488	1239.97
423.864	1221.89
424.241	1279.29
424.617	1282.45
424.994	1283.36
425.37	1301.66
425.746	1294.88
426.123	1331.04
426.499	1338.72
426.875	1346.18
427.251	1372.17
427.627	1378.72
428.003	1415.1
428.379	1421.43
428.756	1443.8
429.132	1477.93
429.507	1479.28
429.883	1525.16
430.259	1518.38
430.635	1529
431.011	1570.81
431.387	1576.68
431.763	1603.12
432.138	1644.25
432.514	1654.19
432.89	1633.63
433.265	1681.54
433.641	1684.48
434.016	1727.41
434.392	1750.46
434.767	1767.41
435.143	1780.29
435.518	1780.07
435.894	1831.82
436.269	1844.02
436.644	1867.75
437.02	1927.86
437.395	1879.95
437.77	1916.56
438.145	1918.37
438.52	1950.68
438.895	1954.98
439.271	1973.51
439.646	2024.58
440.021	2055.31
440.395	2095.31
440.77	2027.52
441.145	2089.44
441.52	2098.93
441.895	2071.58
442.27	2169.43
442.645	2138.25
443.019	2187.06
443.394	2187.74
443.769	2189.77
444.143	2197.46
444.518	2245.14
444.892	2236.55
445.267	2297.79
445.641	2266.61
446.016	2305.25
446.39	2296.21
446.764	2297.34
447.139	2359.03
447.513	2370.79
447.887	2383.67
448.262	2380.28
448.636	2389.09
449.01	2450.11
449.384	2463.66
449.758	2485.58
450.132	2526.49
450.506	2524.45
450.88	2534.4
451.254	2530.55
451.628	2597.9
452.002	2610.78
452.376	2633.83
452.75	2623.43
453.123	2670.21
453.497	2731.45
453.871	2709.08
454.244	2806.93
454.618	2842.86
454.992	2872.92
455.365	2866.14
455.739	2935.74
456.112	2953.82
456.486	2959.7
456.859	3029.98
457.232	3086.7
457.606	3089.64
457.979	3127.15
458.352	3187.03
458.725	3226.13
459.099	3243.08
459.472	3327.14
459.845	3306.58
460.218	3379.12
460.591	3386.13
460.964	3431.32
461.337	3502.73
461.71	3564.43
462.083	3597.19
462.456	3616.63
462.829	3651.43
463.201	3668.15
463.574	3735.72
463.947	3792.89
464.32	3849.62
464.692	3869.5
465.065	3878.77
465.438	3997.86
465.81	4011.65
466.183	4080.12
466.555	4148.37
466.928	4189.04
467.3	4194.69
467.672	4228.36
468.045	4404.63
468.417	4423.61
468.789	4423.39
469.161	4455.7
469.534	4553.55
469.906	4695.02
470.278	4721.91
470.65	4741.8
471.022	4831.96
471.394	4914.9
471.766	4920.1
472.138	5053.65
472.51	5148.34
472.882	5207.77
473.253	5216.36
473.625	5370.48
473.997	5477.82
474.369	5531.61
474.74	5556.24
475.112	5685.73
475.484	5783.35
475.855	5894.31
476.227	5920.07
476.598	6093.85
476.97	6116.9
477.341	6297.91
477.713	6330.68
478.084	6400.06
478.455	6576.32
478.827	6654.74
479.198	6850.67
479.569	6855.64
479.94	7105.8
480.311	7138.34
480.682	7301.05
481.053	7423.08
481.424	7590.53
481.795	7594.38
482.166	7775.16
482.537	7897.19
482.908	8017.19
483.279	8158.2
483.65	8311.87
484.021	8443.39
484.391	8529.95
484.762	8633.67
485.133	8666.89
485.503	8854.68
485.874	9014.23
486.244	9125.64
486.615	9282.69
486.985	9409.24
487.356	9570.6
487.726	9600.43
488.097	9856.24
488.467	9904.82
488.837	10092.39
489.207	10225.49
489.578	10356.34
489.948	10484.47
490.318	10611.92
490.688	10650.57
491.058	10797
491.428	10976.43
491.798	11113.83
492.168	11406.03
492.538	11356.99
492.908	11406.03
493.278	11620.94
493.648	11689.18
494.017	11844.43
494.387	11940.7
494.757	12080.81
495.126	12315.83
495.496	12335.49
495.866	12337.98
496.235	12516.96
496.605	12593.57
496.974	12742.72
497.344	12845.54
497.713	12958.08
498.082	13045.98
498.452	13178.18
498.821	13222.93
499.19	13317.16
499.559	13479.42
499.928	13504.96
500.298	13633.09
500.667	13757.6
501.036	13740.2
501.405	13905.17
501.774	13927.09
502.143	14137.26
502.512	14212.96
502.88	14342.67
503.249	14373.18
503.618	14497.7
503.987	14605.04
504.356	14640.74
504.724	14807.97
505.093	14861.98
505.462	14991.92
505.83	15088.42
506.199	15210.22
506.567	15400.05
506.936	15331.8
507.304	15565.01
507.672	15740.6
508.041	15743.54
508.409	15877.77
508.777	16014.04
509.145	16037.09
509.514	16089.75
509.882	16295.39
510.25	16359.8
510.618	16584.65
510.986	16524.31
511.354	16716.17
511.722	16893.79
512.09	17129.95
512.458	17081.81
512.826	17281.35
513.193	17351.86
513.561	17368.36
513.929	17575.58
514.297	17777.16
514.664	17881.79
515.032	18108
515.4	18203.59
515.767	18293.76
516.135	18279.07
516.502	18317.48
516.869	18606.29
517.237	18727.64
517.604	18735.1
517.972	18934.19
518.339	19091.7
518.706	19108.42
519.073	19166.95
519.44	19430.45
519.808	19618.69
520.175	19684.23
520.542	20018.23
520.909	20140.94
521.276	20076.99
521.643	20352.23
522.009	20571.44
522.376	20633.36
522.743	20757.65
523.11	20959.67
523.477	21232.89
523.843	21339.55
524.21	21556.5
524.577	21698.19
524.943	21904.51
525.31	21877.39
525.676	22154.22
526.043	22239.87
526.409	22469.92
526.776	22814.09
527.142	22728.67
527.508	22896.12
527.874	23083.01
528.241	23157.36
528.607	23339.5
528.973	23652.71
529.339	23544.92
529.705	23853.61
530.071	23950.1
530.437	24148.74
530.803	24332.69
531.169	24475.97
531.535	24547.15
531.901	24579.69
532.267	24672.35
532.632	24974.71
532.998	25031.43
533.364	25346.9
533.73	25226.23
534.095	25516.84
534.461	25547.58
534.826	25802.94
535.192	25917.06
535.557	26154.11
535.923	25949.37
536.288	26230.27
536.653	26337.61
537.019	26378.52
537.384	26566.99
537.749	26632.52
538.114	26656.25
538.479	26793.19
538.845	27022.79
539.21	26904.6
539.575	27081.77
539.94	27115.22
540.305	27305.5
540.67	27294.42
541.034	27451.93
541.399	27536
541.764	27692.83
542.129	27704.81
542.494	27872.94
542.858	27976.89
543.223	28094.18
543.587	28225.02
543.952	28362.42
544.316	28365.13
544.681	28526.03
545.045	28556.99
545.41	28750.2
545.774	28742.3
546.138	28809.19
546.503	28935.74
546.867	29053.7
547.231	29230.87
547.595	29299.12
547.959	29446.01
548.324	29436.74
548.688	29507.92
549.052	29700.69
549.416	29689.39
549.779	29811.65
550.143	30018.19
550.507	30156.5
550.871	30198.08
551.235	30311.52
551.599	30542.25
551.962	30564.39
552.326	30718.29
552.689	30788.57
553.053	30768
553.417	30985.63
553.78	31252.51
554.143	31168.22
554.507	31332.96
554.87	31489.57
555.234	31796
555.597	31762.1
555.96	31958.71
556.323	32083.22
556.686	32132.26
557.05	32360.73
557.413	32446.83
557.776	32555.3
558.139	32619.71
558.502	32685.24
558.865	33023.99
559.228	33212.46
559.59	33270.09
559.953	33314.83
560.316	33604.31
560.679	33753.46
561.041	33928.15
561.404	34079.1
561.767	34229.61
562.129	34318.65
562.492	34560
562.854	34588.47
563.217	34769.03
563.579	34992.98
563.941	35092.18
564.304	35309.81
564.666	35515.22
565.028	35583.7
565.39	35646.97
565.753	35780.98
566.115	35997.47
566.477	36141.87
566.839	36275.88
567.201	36444.69
567.563	36480.17
567.925	36727.17
568.287	36768.07
568.648	36833.83
569.01	36998.58
569.372	37342.75
569.734	37269.98
570.095	37608.73
570.457	37610.54
570.819	37727.14
571.18	37824.99
571.542	38082.84
571.903	37992.22
572.265	38248.94
572.626	38344.75
572.987	38410.29
573.349	38451.19
573.71	38696.16
574.071	38750.62
574.432	38832.2
574.794	39031.97
575.155	39069.71
575.516	38954.91
575.877	39198.07
576.238	39254.11
576.599	39462.01
576.96	39405.97
577.32	39476.93
577.681	39807.54
578.042	39794.43
578.403	39828.11
578.763	39894.09
579.124	39974.99
579.485	39996.91
579.845	40144.03
580.206	40132.05
580.566	40181.99
580.927	40254.08
581.287	40341.99
581.648	40177.93
582.008	40352.16
582.368	40314.65
582.728	40386.51
583.089	40458.37
583.449	40350.13
583.809	40403.46
584.169	40647.29
584.529	40474.19
584.889	40776.1
585.249	40347.64
585.609	40494.3
585.969	40650.23
586.329	40683.45
586.688	40683.68
587.048	40718.48
587.408	40608.2
587.768	40682.09
588.127	40659.27
588.487	40556.22
588.846	40933.61
589.206	40555.77
589.565	40677.57
589.925	40785.59
590.284	40654.75
590.643	40840.51
591.003	40874.63
591.362	40991.01
591.721	40851.36
592.08	40752.6
592.44	41013.61
592.799	41138.81
593.158	41051.35
593.517	41017.23
593.876	41078.24
594.235	41013.84
594.593	41023.33
594.952	41027.85
595.311	41037.57
595.67	41108.52
596.029	41132.7
596.387	41266.03
596.746	41362.08
597.104	41180.16
597.463	41349.42
597.822	41416.31
598.18	41206.83
598.538	41304.68
598.897	41482.53
599.255	41099.26
599.613	41783.53
599.972	41566.59
600.33	41670.99
600.688	41528.63
601.046	41710.77
601.404	41799.35
601.762	41633.03
602.12	41846.81
602.478	41832.12
602.836	41883.64
603.194	41713.25
603.552	41785.12
603.91	41571.11
604.268	41875.96
604.625	41756.87
604.983	42027.6
605.341	41900.82
605.698	42075.5
606.056	42099.46
606.413	42123.41
606.771	42214.03
607.128	42392.78
607.485	42159.34
607.843	42165.44
608.2	42336.74
608.557	42347.14
608.914	42312.33
609.272	42587.13
609.629	42597.07
609.986	42733.11
610.343	42542.16
610.7	42734.7
611.057	42742.83
611.414	42665.32
611.771	42851.3
612.127	42960.45
612.484	42866.22
612.841	42903.05
613.198	42886.78
613.554	42949.15
613.911	43197.73
614.267	43065.53
614.624	43084.06
614.98	43210.39
615.337	43360.22
615.693	43343.49
616.05	43399.76
616.406	43444.73
616.762	43388.46
617.118	43443.15
617.475	43347.33
617.831	43522.7
618.187	43536.48
618.543	43613.77
618.899	43768.79
619.255	43653.09
619.611	43677.72
619.967	43893.54
620.323	43921.11
620.678	43851.95
621.034	43601.79
621.39	43714.56
621.746	43590.49
622.101	44156.13
622.457	43661.68
622.812	43767.66
623.168	44005.4
623.523	43963.36
623.879	44102.57
624.234	43768.57
624.589	43969.92
624.945	43870.71
625.3	43938.28
625.655	43889.69
626.01	43917.94
626.365	43860.09
626.72	43922.91
627.075	44027.99
627.43	43886.76
627.785	43668.23
628.14	43824.61
628.495	43855.12
628.85	43856.02
629.205	43529.48
629.559	43867.32
629.914	43616.93
630.269	43747.78
630.623	43557.05
630.978	43490.38
631.332	43688.79
631.687	43734.67
632.041	43535.8
632.396	43577.61
632.75	43279.54
633.104	43450.61
633.459	43229.15
633.813	43106.21
634.167	43273.21
634.521	43145.53
634.875	43294.68
635.229	43188.69
635.583	43011.75
635.937	42899.44
636.291	42960
636.645	42959.32
636.999	42859.66
637.352	43022.82
637.706	42575.38
638.06	42932.88
638.413	42645.66
638.767	42719.55
639.121	42700.8
639.474	42374.71
639.828	42424.2
640.181	42475.49
640.534	42560.91
640.888	42393.91
641.241	42195.73
641.594	42251.09
641.947	42492.89
642.301	42162.73
642.654	42293.8
643.007	42207.03
643.36	42181.26
643.713	42089.74
644.066	42101.72
644.419	41922.74
644.771	41758.68
645.124	41362.3
645.477	41165.47
645.83	40962.76
646.182	40794.41
646.535	40633.28
646.888	40758.25
647.24	40573.4
647.593	40974.74
647.945	40776.33
648.298	40602.55
648.65	40444.81
649.002	40282.56
649.355	40517.35
649.707	40378.83
650.059	40601.19
650.411	40894.74
650.763	40874.41
651.115	41373.6
651.467	41085.47
651.819	41121.86
652.171	41162.99
652.523	41111.69
652.875	41072.14
653.227	40967.06
653.578	41220.84
653.93	41011.35
654.282	40817.91
654.633	40831.02
654.985	40793.73
655.337	40831.92
655.688	40695.2
656.039	40939.94
656.391	40413.85
656.742	40567.97
657.094	40526.39
657.445	40688.87
657.796	40614.3
658.147	40656.33
658.498	40460.41
658.849	40521.19
659.2	40433.97
659.551	40409.78
659.902	40557.8
660.253	40508.99
660.604	40389.67
660.955	40318.04
661.306	40496.56
661.656	40326.17
662.007	40317.36
662.358	40203.69
662.708	40314.42
663.059	40127.08
663.409	39997.59
663.76	40266.51
664.11	40129.34
664.461	40294.99
664.811	40114.88
665.161	40187.87
665.511	40221.77
665.862	40152.62
666.212	40285.49
666.562	40322.78
666.912	40072.84
667.262	40103.58
667.612	40064.71
667.962	40113.07
668.312	39946.07
668.662	40117.36
669.011	40162.56
669.361	40045.05
669.711	40127.76
670.06	39898.84
670.41	39786.3
670.76	39797.15
671.109	39982.45
671.459	39897.93
671.808	39578.39
672.157	39898.84
672.507	39581.78
672.856	39749.46
673.205	39717.6
673.554	39704.72
673.904	39389.02
674.253	39747.2
674.602	39760.76
674.951	39044.4
675.3	39033.78
675.649	39603.25
675.998	39282.13
676.346	39317.38
676.695	39488.23
677.044	39265.18
677.393	39304.96
677.741	39378.4
678.09	39262.24
678.438	39249.14
678.787	39263.37
679.135	39272.87
679.484	39075.36
679.832	39227.67
680.181	38897.06
680.529	39127.56
680.877	38976.83
681.225	38707.46
681.573	39018.18
681.922	38855.48
682.27	38809.15
682.618	38892.08
682.966	38578.87
683.314	38718.98
683.661	38517.18
684.009	38376.84
684.357	38332.55
684.705	38243.97
685.053	38261.59
685.4	38285.77
685.748	38112.9
686.095	38121.94
686.443	37868.38
686.79	37728.73
687.138	37847.14
687.485	37793.13
687.832	37645.11
688.18	37736.41
688.527	37566.7
688.874	37585.9
689.221	37341.62
689.568	37203.99
689.915	37158.57
690.262	37197.89
690.609	37112.92
690.956	37121.28
691.303	36944.11
691.65	36664.12
691.997	36797.45
692.344	36592.03
692.69	36530.34
693.037	36652.6
693.383	36472.04
693.73	36420.06
694.077	36166.73
694.423	36348.2
694.769	36264.13
695.116	36144.59
695.462	36030.01
695.808	35959.51
696.155	35801.77
696.501	35552.29
696.847	35621.66
697.193	35257.38
697.539	35541.66
697.885	35208.79
698.231	35277.26
698.577	35323.82
698.923	35034.11
699.269	34840.44
699.614	34690.16
699.96	34690.84
700.306	34768.58
700.651	34555.02
700.997	34624.17
701.342	34422.37
701.688	34337.85
702.033	34259.21
702.379	34156.62
702.724	34108.26
703.069	34058.09
703.415	33846.12
703.76	33660.13
704.105	33677.08
704.45	33578.78
704.795	33332
705.14	33425.56
705.485	33253.81
705.83	33059.24
706.175	33192.57
706.52	33077.1
706.865	33005.69
707.209	32935.86
707.554	32902.64
707.899	32975.63
708.243	32914.61
708.588	32737.67
708.932	32517.79
709.277	32538.35
709.621	32509.88
709.966	32312.14
710.31	32479.82
710.654	32182.43
710.998	32200.96
711.342	32251.36
711.687	32093.85
712.031	31923.23
712.375	31778.37
712.719	31845.49
713.063	31757.58
713.407	31878.48
713.75	31605.5
714.094	31636.91
714.438	31426.97
714.782	31598.04
715.125	31400.98
715.469	31532.28
715.812	31172.74
716.156	31085.51
716.499	31008.68
716.843	31152.63
717.186	30860.43
717.53	30976.13
717.873	31050.48
718.216	31007.55
718.559	30958.96
718.902	30730.94
719.246	30726.65
719.589	30622.47
719.932	30440.33
720.275	30514.45
720.617	30566.43
720.96	30429.03
721.303	30461.8
721.646	30427
721.989	30159.43
722.331	30168.7
722.674	30204.18
723.016	30163.95
723.359	30019.78
723.701	30039.21
724.044	29862.27
724.386	29878.99
724.729	29846.67
725.071	29761.7
725.413	29792.89
725.755	29662.5
726.097	29640.58
726.439	29397.87
726.782	29452.78
727.124	29563.97
727.465	29400.58
727.807	29323.97
728.149	29208.95
728.491	29185.9
728.833	29369.17
729.175	29122.85
729.516	29111.1
729.858	28989.52
730.199	28993.81
730.541	28977.54
730.882	29024.77
731.224	29102.29
731.565	28840.82
731.906	28812.8
732.248	28756.98
732.589	28676.31
732.93	28566.03
733.271	28665.01
733.612	28523.32
733.953	28595.18
734.294	28482.19
734.635	28450.33
734.976	28470.44
735.317	28379.14
735.658	28279.48
735.999	28247.62
736.339	28178.92
736.68	28314.28
737.021	28149.77
737.361	28065.02
737.702	28211.24
738.042	28037.23
738.383	28002.2
738.723	28070.9
739.063	27893.05
739.404	27958.81
739.744	27701.64
740.084	27754.98
740.424	27760.4
740.764	27751.13
741.104	27865.93
741.444	27724.02
741.784	27506.62
742.124	27594.3
742.464	27562.44
742.804	27464.81
743.143	27444.93
743.483	27391.6
743.823	27292.62
744.162	27249.68
744.502	27290.13
744.841	27084.71
745.181	27208.1
745.52	27113.64
745.86	27079.74
746.199	26965.62
746.538	27035.9
746.877	27025.5
747.216	26851.95
747.556	26761.33
747.895	26836.58
748.234	26644.27
748.573	26623.03
748.911	26585.06
749.25	26710.94
749.589	26402.24
749.928	26487.44
750.267	26495.12
750.605	26464.84
750.944	26395.46
751.283	26284.28
751.621	26355.24
751.96	26099.2
752.298	26083.16
752.636	26122.48
752.975	26068.92
753.313	25836.38
753.651	25997.06
753.989	25868.02
754.327	25776.72
754.666	25639.55
755.004	25723.17
755.342	25639.33
755.679	25546.45
756.017	25457.18
756.355	25552.77
756.693	25369.28
757.031	25442.49
757.368	25198.21
757.706	25272.1
758.044	25202.95
758.381	25206.57
758.719	25140.58
759.056	25107.14
759.394	24965.22
759.731	24777.88
760.068	24763.42
760.405	24629.18
760.743	24682.06
761.08	24533.59
761.417	24473.93
761.754	24403.65
762.091	24388.74
762.428	24417.89
762.765	24114.39
763.102	24254.96
763.438	24136.31
763.775	23885.47
764.112	23893.84
764.449	23878.69
764.785	23806.38
765.122	23589.21
765.458	23537.69
765.795	23459.27
766.131	23431.93
766.467	23315.77
766.804	23202.78
767.14	23127.08
767.476	23164.59
767.812	23165.04
768.148	23184.7
768.485	22949.91
768.821	22775.9
769.157	22860.64
769.492	22711.27
769.828	22729.57
770.164	22504.49
770.5	22436.25
770.836	22545.62
771.171	22248.45
771.507	22244.61
771.842	22101.34
772.178	22110.38
772.513	22198.51
772.849	22026.09
773.184	21892.98
773.519	21770.5
773.855	21709.03
774.19	21590.39
774.525	21540.68
774.86	21515.37
775.195	21574.12
775.53	21382.04
775.865	21195.15
776.2	21091.2
776.535	20859.79
776.87	20939.34
777.205	20877.64
777.539	20827.7
777.874	20836.97
778.209	20607.14
778.543	20637.65
778.878	20504.55
779.212	20547.93
779.547	20320.37
779.881	20403.76
780.215	20246.7
780.55	20302.97
780.884	20117.66
781.218	20131.9
781.552	19949.76
781.886	19954.28
782.22	19878.35
782.554	19718.58
782.888	19617.34
783.222	19532.59
783.556	19529.88
783.889	19412.82
784.223	19219.16
784.557	19249.21
784.89	19178.03
785.224	19032.27
785.557	18960.41
785.891	19099.16
786.224	19005.6
786.558	18983.23
786.891	18794.76
787.224	18722.45
787.557	18712.28
787.891	18554.54
788.224	18480.19
788.557	18515.45
788.89	18581.21
789.223	18431.61
789.556	18262.34
789.888	18231.84
790.221	18234.1
790.554	18012.86
790.887	18133.76
791.219	17944.84
791.552	17907.33
791.884	17895.35
792.217	17833.66
792.549	17769.02
792.882	17541.01
793.214	17582.81
793.546	17530.61
793.879	17468.47
794.211	17368.13
794.543	17456.72
794.875	17297.62
795.207	17418.3
795.539	17248.59
795.871	17260.56
796.203	17081.36
796.535	17026.44
796.867	16920.46
797.198	16948.48
797.53	16811.99
797.862	16823.74
798.193	16788.49
798.525	16654.25
798.856	16753.91
799.188	16525.22
799.519	16468.04
799.85	16404.77
800.182	16404.77
800.513	16307.59
800.844	16177.65
801.175	16301.94
801.506	16261.04
801.837	16139.69
802.168	16106.92
802.499	16030.99
802.83	15983.31
803.161	16004.78
803.491	15986.92
803.822	15895.63
804.153	15815.18
804.483	15695.18
804.814	15687.72
805.145	15745.35
805.475	15666.71
805.805	15597.1
806.136	15633.94
806.466	15608.63
806.796	15614.73
807.126	15489.76
807.457	15328.41
807.787	15303.33
808.117	15246.15
808.447	15165.7
808.777	15253.16
809.107	15165.02
809.436	15082.99
809.766	15102.65
810.096	15000.96
810.426	14926.84
810.755	14921.64
811.085	14833.28
811.414	14880.96
811.744	14722.32
812.073	14721.65
812.403	14733.62
812.732	14605.94
813.061	14579.96
813.39	14503.57
813.719	14574.53
814.049	14642.1
814.378	14600.97
814.707	14459.05
815.036	14469
815.365	14386.29
815.693	14256.12
816.022	14398.94
816.351	14212.06
816.68	14135
817.008	14212.73
817.337	14136.8
817.665	14057.48
817.994	14066.52
818.322	14031.95
818.651	13998.73
818.979	13923.02
819.307	13938.39
819.636	13924.83
819.964	13749.69
820.292	13792.63
820.62	13805.96
820.948	13773.65
821.276	13831.95
821.604	13791.28
821.932	13799.41
822.259	13909.92
822.587	13730.49
822.915	13713.31
823.243	13759.86
823.57	13734.33
823.898	13723.25
824.225	13694.33
824.553	13664.27
824.88	13713.09
825.207	13770.03
825.535	13697.04
825.862	13738.62
826.189	13648.45
826.516	13784.72
826.843	13831.5
827.17	13754.21
827.497	13773.2
827.824	13778.39
828.151	13843.03
828.478	13777.49
828.805	13753.76
829.131	13643.71
829.458	13553.54
829.785	13650.26
830.111	13653.88
830.438	13628.79
830.764	13647.55
831.09	13740.88
831.417	13626.53
831.743	13676.25
832.069	13634.44
832.395	13612.3
832.722	13585.18
833.048	13562.13
833.374	13611.62
833.7	13467.89
834.026	13520.1
834.351	13500.44
834.677	13530.04
835.003	13460.44
835.329	13553.99
835.654	13478.97
835.98	13417.5
836.306	13481
836.631	13365.98
836.956	13382.92
837.282	13417.95
837.607	13340.67
837.932	13385.64
838.258	13230.84
838.583	13242.36
838.908	13146.77
839.233	13187.9
839.558	13200.56
839.883	13152.65
840.208	13073.78
840.533	13036.04
840.858	13140.9
841.182	13147.45
841.507	13096.38
841.832	13050.96
842.156	12983.39
842.481	12904.07
842.805	12946.78
843.13	12847.35
843.454	12930.28
843.778	12794.47
844.103	12810.06
844.427	12853.45
844.751	12755.6
845.075	12767.35
845.399	12684.19
845.723	12692.1
846.047	12650.51
846.371	12593.79
846.695	12473.8
847.019	12398.09
847.343	12285.33
847.666	12217.76
847.99	12290.98
848.313	12240.36
848.637	12149.29
848.96	12117.87
849.284	12105.67
849.607	11985.22
849.931	12017.76
850.254	11842.63
850.577	11841.72
850.9	11723.31
851.223	11796.75
851.546	11675.85
851.869	11655.51
852.192	11627.26
852.515	11568.51
852.838	11470.88
853.161	11470.43
853.483	11430.43
853.806	11330.1
854.129	11544.56
854.451	11353.83
854.774	11333.04
855.096	11308.86
855.419	11238.57
855.741	11265.69
856.063	11163.77
856.385	11085.13
856.708	11109.09
857.03	11013.5
857.352	11057.56
857.674	10910.45
857.996	10969.2
858.318	10848.98
858.64	10895.76
858.961	10822.54
859.283	10789.55
859.605	10743.22
859.926	10715.2
860.248	10793.61
860.57	10618.93
860.891	10712.94
861.212	10660.28
861.534	10527.63
861.855	10665.48
862.176	10632.94
862.498	10573.51
862.819	10588.42
863.14	10505.71
863.461	10472.49
863.782	10414.64
864.103	10497.35
864.424	10342.1
864.745	10413.29
865.065	10360.18
865.386	10348.2
865.707	10315.21
866.027	10425.04
866.348	10424.13
866.668	10350.46
866.989	10329.22
867.309	10290.58
867.63	10338.03
867.95	10225.95
868.27	10194.31
868.59	10203.35
868.91	10181.65
869.23	10147.98
869.55	10135.78
869.87	10180.98
870.19	10133.52
870.51	10146.63
870.83	10109.56
871.15	10048.55
871.469	10016.01
871.789	10006.74
872.109	9997.03
872.428	9926.52
872.748	9957.48
873.067	9945.5
873.386	9962
873.706	9964.71
874.025	9858.05
874.344	9918.84
874.663	9863.24
874.982	9829.8
875.301	9832.28
875.62	9781.66
875.939	9775.79
876.258	9752.96
876.577	9724.04
876.896	9755.22
877.214	9663.7
877.533	9646.98
877.852	9683.59
878.17	9717.48
878.489	9710.25
878.807	9712.29
879.125	9682.68
879.444	9607.66
879.762	9563.36
880.08	9581.44
880.398	9569.01
880.716	9614.89
881.034	9490.82
881.352	9508
881.67	9437.04
881.988	9480.88
882.306	9447.89
882.624	9456.47
882.941	9475.91
883.259	9371.96
883.577	9343.94
883.894	9315.46
884.212	9342.58
884.529	9325.4
884.846	9268
885.164	9253.32
885.481	9252.86
885.798	9139.65
886.115	9137.16
886.432	9129.93
886.75	9121.57
887.067	9099.2
887.383	9061.46
887.7	9171.51
888.017	9143.71
888.334	9107.78
888.651	9095.35
888.967	8998.41
889.284	8964.51
889.6	8940.56
889.917	8923.38
890.233	8924.74
890.55	8874.12
890.866	8869.6
891.182	8731.75
891.498	8795.93
891.815	8766.1
892.131	8711.64
892.447	8736.49
892.763	8679.32
893.079	8685.65
893.395	8710.96
893.71	8624.63
894.026	8606.55
894.342	8590.96
894.657	8579.21
894.973	8560.23
895.289	8524.97
895.604	8455.82
895.92	8418.31
896.235	8395.49
896.55	8337.41
896.865	8367.46
897.181	8355.26
897.496	8369.72
897.811	8235.04
898.126	8277.52
898.441	8271.65
898.756	8176.73
899.071	8131.31
899.386	8168.82
899.7	8071.43
900.015	8099.67
900.33	8035.04
900.644	8047.47
900.959	7990.52
901.273	8039.56
901.588	7899
901.902	7888.61
902.216	7836.86
902.531	7855.84
902.845	7744.66
903.159	7768.38
903.473	7664.66
903.787	7671.21
904.101	7623.08
904.415	7668.95
904.729	7654.71
905.042	7591.44
905.356	7586.92
905.67	7549.86
905.984	7477.77
906.297	7527.49
906.611	7461.72
906.924	7407.04
907.237	7426.47
907.551	7360.03
907.864	7303.76
908.177	7329.75
908.491	7277.1
908.804	7291.56
909.117	7212.47
909.43	7198
909.743	7116.65
910.056	7174.5
910.368	7078.46
910.681	7052.02
910.994	7088.18
911.307	7104.45
911.619	6948.97
911.932	6922.53
912.244	6967.95
912.557	6943.77
912.869	6880.27
913.181	6859.03
913.494	6872.81
913.806	6798.92
914.118	6769.54
914.43	6739.94
914.742	6755.08
915.054	6643.22
915.366	6641.63
915.678	6618.36
915.99	6534.97
916.302	6543.33
916.613	6571.8
916.925	6520.73
917.236	6511.02
917.548	6499.49
917.859	6534.29
918.171	6426.5
918.482	6359.83
918.794	6313.05
919.105	6387.85
919.416	6304.47
919.727	6265.15
920.038	6264.92
920.349	6142.44
920.66	6192.61
920.971	6199.84
921.282	6161.87
921.593	6116.22
921.903	6055.89
922.214	6101.53
922.525	6055.89
922.835	6041.42
923.146	5983.57
923.456	5973.85
923.767	6025.15
924.077	5944.25
924.387	5944.93
924.697	5893.86
925.008	5869
925.318	5823.35
925.628	5822.67
925.938	5752.17
926.248	5729.11
926.558	5702.67
926.867	5713.07
927.177	5692.05
927.487	5685.73
927.796	5627.2
928.106	5585.16
928.416	5598.27
928.725	5559.63
929.034	5499.06
929.344	5489.12
929.653	5439.63
929.962	5412.06
930.271	5450.25
930.581	5393.08
930.89	5396.24
931.199	5349.24
931.508	5305.17
931.817	5320.09
932.125	5313.98
932.434	5277.15
932.743	5232.4
933.051	5208.9
933.36	5247.32
933.669	5219.3
933.977	5186.53
934.286	5165.97
934.594	5141.33
934.902	5090.49
935.21	5082.35
935.519	5087.32
935.827	5018.17
936.135	4995.57
936.443	4980.66
936.751	4979.76
937.059	4959.19
937.367	4885.07
937.674	4948.8
937.982	4878.97
938.29	4863.15
938.597	4878.97
938.905	4807.33
939.213	4801.91
939.52	4719.65
939.827	4798.52
940.135	4696.6
940.442	4712.42
940.749	4663.38
941.056	4703.83
941.363	4664.74
941.67	4619.99
941.977	4669.48
942.284	4592.87
942.591	4564.17
942.898	4541.12
943.205	4536.6
943.511	4554.23
943.818	4500.67
944.125	4510.16
944.431	4412.54
944.738	4442.82
945.044	4371.86
945.35	4392.65
945.657	4396.27
945.963	4326.21
946.269	4317.17
946.575	4342.03
946.881	4305.2
947.187	4283.5
947.493	4270.4
947.799	4251.41
948.105	4256.16
948.41	4205.77
948.716	4205.77
949.022	4194.92
949.327	4166.67
949.633	4130.29
949.938	4163.51
950.244	4125.77
950.549	4081.25
950.854	4078.99
951.16	4055.49
951.465	4048.03
951.77	4007.35
952.075	3969.84
952.38	3992.44
952.685	3982.95
952.99	3988.37
953.294	3917.86
953.599	3902.72
953.904	3884.64
954.209	3808.71
954.513	3851.42
954.818	3851.2
955.122	3817.98
955.426	3825.21
955.731	3801.03
956.035	3740.47
956.339	3752.9
956.643	3741.37
956.948	3692.56
957.252	3683.52
957.556	3691.43
957.86	3638.32
958.163	3665.89
958.467	3682.16
958.771	3668.6
959.075	3626.35
959.378	3669.73
959.682	3610.07
959.985	3570.75
960.289	3548.38
960.592	3545.67
960.896	3534.37
961.199	3505.44
961.502	3460.93
961.805	3502.73
962.108	3464.54
962.411	3454.6
962.714	3416.86
963.017	3402.17
963.32	3424.32
963.623	3415.28
963.926	3361.27
964.228	3406.46
964.531	3337.54
964.833	3373.7
965.136	3336.41
965.438	3323.53
965.741	3304.32
966.043	3267.71
966.345	3286.24
966.648	3266.58
966.95	3283.53
967.252	3231.1
967.554	3264.09
967.856	3203.31
968.158	3170.09
968.46	3149.07
968.761	3168.28
969.063	3141.84
969.365	3118.34
969.666	3112.91
969.968	3060.94
970.269	3120.37
970.571	3061.61
970.872	3095.06
971.174	3046.02
971.475	3026.36
971.776	2994.5
972.077	3017.1
972.378	2963.09
972.679	3003.54
972.98	2988.85
973.281	2938.23
973.582	2913.14
973.883	2920.38
974.183	2918.79
974.484	2919.25
974.785	2880.6
975.085	2867.72
975.386	2883.54
975.686	2870.88
975.986	2849.42
976.287	2829.76
976.587	2848.51
976.887	2828.4
977.187	2796.76
977.487	2765.58
977.787	2798.57
978.087	2760.38
978.387	2748.4
978.687	2777.1
978.987	2763.54
979.286	2696.65
979.586	2685.13
979.885	2683.55
980.185	2670.89
980.484	2666.14
980.784	2674.05
981.083	2642.64
981.382	2604.45
981.682	2664.56
981.981	2604.9
982.28	2592.93
982.579	2571.68
982.878	2559.25
983.177	2536.43
983.475	2563.55
983.774	2552.93
984.073	2526.49
984.372	2508.63
984.67	2495.75
984.969	2499.6
985.267	2525.58
985.566	2478.35
985.864	2488.07
986.162	2443.78
986.461	2407.85
986.759	2401.07
987.057	2413.72
987.355	2372.59
987.653	2386.38
987.951	2372.82
988.249	2355.42
988.547	2376.43
988.844	2352.93
989.142	2317.68
989.44	2324.68
989.737	2312.03
990.035	2288.08
990.332	2311.13
990.63	2279.94
990.927	2317.23
991.224	2250.79
991.521	2267.06
991.819	2252.6
992.116	2242.2
992.413	2216.44
992.71	2193.16
993.006	2194.07
993.303	2222.31
993.6	2178.93
993.897	2208.98
994.193	2146.84
994.49	2124.69
994.787	2119.49
995.083	2147.51
995.379	2134.86
995.676	2090.79
995.972	2101.64
996.268	2094.41
996.565	2072.26
996.861	2090.11
997.157	2049.89
997.453	2052.38
997.749	2039.72
998.044	1996.78
998.34	2011.47
998.636	2002.89
998.932	1984.35
999.227	2007.63
999.523	1982.77
999.818	1962.66
1000.114	1970.12
1000.409	1960.4
1000.704	1951.81
1001	1914.3
1001.295	1915.2
1001.59	1904.13
1001.885	1899.61
1002.18	1887.41
1002.475	1873.4
1002.77	1877.46
1003.065	1874.08
1003.359	1868.43
1003.654	1851.25
1003.949	1846.05
1004.243	1836.79
1004.538	1818.26
1004.832	1817.81
1005.127	1801.53
1005.421	1776.22
1005.715	1773.96
1006.009	1758.6
1006.304	1790.46
1006.598	1785.49
1006.892	1736.9
1007.186	1734.42
1007.48	1727.86
1007.773	1723.57
1008.067	1701.2
1008.361	1693.97
1008.655	1679.96
1008.948	1672.95
1009.242	1654.42
1009.535	1647.87
1009.829	1624.14
1010.122	1611.94
1010.415	1608.32
1010.708	1603.8
1011.001	1607.87
1011.295	1590.47
1011.588	1567.19
1011.881	1610.58
1012.173	1595.21
1012.466	1569
1012.759	1556.12
1013.052	1535.33
1013.344	1541.43
1013.637	1555.89
1013.93	1535.78
1014.222	1537.59
1014.514	1485.16
1014.807	1474.54
1015.099	1462.56
1015.391	1465.72
1015.683	1459.4
1015.976	1467.31
1016.268	1441.54
1016.56	1465.5
1016.851	1437.7
1017.143	1427.99
1017.435	1425.73
1017.727	1416.46
1018.018	1393.64
1018.31	1390.92
1018.602	1382.11
1018.893	1375.56
1019.185	1385.73
1019.476	1376.69
1019.767	1348.44
1020.058	1326.52
1020.35	1327.2
1020.641	1323.81
1020.932	1320.19
1021.223	1294.88
1021.514	1287.88
1021.804	1305.05
1022.095	1289.01
1022.386	1281.77
1022.677	1247.42
1022.967	1279.97
1023.258	1232.51
1023.548	1251.27
1023.839	1226.41
1024.129	1227.31
1024.419	1226.41
1024.709	1192.96
1025	1214.21
1025.29	1181.66
1025.58	1209.01
1025.87	1160.42
1026.16	1186.64
1026.449	1177.6
1026.739	1153.87
1027.029	1143.47
1027.319	1153.19
1027.608	1121.33
1027.898	1130.82
1028.187	1117.71
1028.477	1105.28
1028.766	1080.65
1029.055	1086.98
1029.344	1101.67
1029.634	1070.48
1029.923	1072.06
1030.212	1056.24
1030.501	1043.59
1030.79	1048.33
1031.078	1067.32
1031.367	1046.53
1031.656	1034.32
1031.945	1023.25
1032.233	1030.26
1032.522	1033.42
1032.81	1011.5
1033.099	1001.1
1033.387	1005.17
1033.675	980.99
1033.963	975.12
1034.251	982.8
1034.54	973.08
1034.828	963.14
1035.116	948.45
1035.403	917.26
1035.691	937.6
1035.979	947.32
1036.267	942.57
1036.554	924.72
1036.842	892.63
1037.129	930.15
1037.417	908.9
1037.704	897.15
1037.992	900.54
1038.279	918.39
1038.566	873.42
1038.853	873.42
1039.14	873.42
