Data from plate_ceramic_FLMS001491_052.txt Node
Date: Tue Feb 07 11:16:58 GMT 2017
User: dcchb
Spectrometer: FLMS00149
Trigger mode: 0
Integration Time (sec): 2.000000E-2
Scans to average: 10
Electric dark correction enabled: true
Nonlinearity correction enabled: false
Boxcar width: 0
XAxis mode: Wavelengths
Number of Pixels in Spectrum: 2048
>>>>>Begin Spectral Data<<<<<
341.393	-1.06
341.776	-1.06
342.16	-1.06
342.543	-54.17
342.927	-63.43
343.31	-65.46
343.693	-71.79
344.077	-60.04
344.46	-63.2
344.843	-56.2
345.226	-53.04
345.61	-21.4
345.993	-19.36
346.376	-24.34
346.759	14.53
347.142	20.41
347.525	38.04
347.908	62.89
348.291	92.5
348.674	84.59
349.057	121.88
349.44	129.56
349.823	165.49
350.206	165.49
350.588	208.43
350.971	222.21
351.354	255.43
351.737	252.72
352.119	266.73
352.502	282.78
352.884	278.03
353.267	304.47
353.65	320.74
354.032	324.36
354.414	323.45
354.797	354.64
355.179	341.53
355.562	344.47
355.944	344.47
356.326	369.33
356.709	360.06
357.091	354.86
357.473	343.34
357.855	356.67
358.238	355.32
358.62	368.2
359.002	362.77
359.384	393.51
359.766	376.56
360.148	358.03
360.53	390.79
360.912	373.62
361.294	364.81
361.676	358.25
362.057	371.13
362.439	351.93
362.821	367.97
363.203	368.42
363.584	373.39
363.966	335.2
364.348	349.67
364.729	368.2
365.111	334.75
365.493	377.46
365.874	362.77
366.256	336.56
366.637	366.16
367.019	366.61
367.4	359.61
367.781	375.88
368.163	372.72
368.544	353.73
368.925	349.89
369.306	365.03
369.688	353.51
370.069	358.93
370.45	366.84
370.831	372.26
371.212	350.12
371.593	364.81
371.974	361.42
372.355	378.14
372.736	376.33
373.117	381.76
373.498	378.37
373.879	362.77
374.26	395.09
374.641	385.6
375.021	366.16
375.402	363.68
375.783	403.22
376.163	400.29
376.544	409.78
376.925	405.94
377.305	400.29
377.686	385.15
378.066	405.26
378.447	380.63
378.827	399.16
379.208	416.56
379.588	414.3
379.968	419.72
380.349	419.04
380.729	422.66
381.109	414.3
381.489	420.85
381.87	431.02
382.25	431.7
382.63	421.08
383.01	408.2
383.39	437.35
383.77	459.95
384.15	432.6
384.53	454.97
384.91	459.27
385.29	459.27
385.67	476.89
386.049	455.88
386.429	482.09
386.809	489.32
387.189	458.36
387.568	473.28
387.948	476.22
388.328	511.02
388.707	492.04
389.087	512.83
389.466	491.36
389.846	483.22
390.225	493.39
390.605	499.27
390.984	524.58
391.363	548.53
391.743	520.06
392.122	512.6
392.501	537.91
392.881	538.36
393.26	545.37
393.639	571.36
394.018	554.41
394.397	579.72
394.776	583.33
395.155	567.06
395.534	576.1
395.913	571.58
396.292	583.56
396.671	596.89
397.05	593.28
397.429	607.96
397.808	618.13
398.186	616.33
398.565	611.13
398.944	620.85
399.323	624.01
399.701	630.11
400.08	632.82
400.458	647.51
400.837	649.32
401.215	667.4
401.594	668.75
401.972	654.52
402.351	670.11
402.729	673.95
403.107	691.8
403.486	692.48
403.864	703.78
404.242	722.31
404.62	716.66
404.999	710.11
405.377	721.41
405.755	740.84
406.133	753.95
406.511	749.43
406.889	773.38
407.267	779.26
407.645	782.42
408.023	786.04
408.401	799.82
408.779	801.86
409.156	827.39
409.534	834.17
409.912	837.11
410.29	858.58
410.667	861.52
411.045	869.88
411.422	892.48
411.8	896.09
412.178	887.73
412.555	919.59
412.933	925.02
413.31	944.23
413.687	968.63
414.065	953.04
414.442	992.59
414.819	966.37
415.197	990.78
415.574	1035.52
415.951	1008.86
416.328	1016.09
416.705	1056.09
417.082	1043.21
417.46	1067.84
417.837	1067.16
418.214	1079.82
418.591	1092.92
418.967	1108.97
419.344	1104
419.721	1106.93
420.098	1132.92
420.475	1145.13
420.852	1134.05
421.228	1181.06
421.605	1174.28
421.982	1195.29
422.358	1208.17
422.735	1218.12
423.111	1215.41
423.488	1267.61
423.864	1258.34
424.241	1266.03
424.617	1273.26
424.994	1297.89
425.37	1289.53
425.746	1286.14
426.123	1325.46
426.499	1338.79
426.875	1375.63
427.251	1381.96
427.627	1406.81
428.003	1431.9
428.379	1449.98
428.756	1450.88
429.132	1461.73
429.507	1473.25
429.883	1488.17
430.259	1528.84
430.635	1533.14
431.011	1552.57
431.387	1596.64
431.763	1654.04
432.138	1639.8
432.514	1654.26
432.89	1658.11
433.265	1721.83
433.641	1712.12
434.016	1723.19
434.392	1719.35
434.767	1804.77
435.143	1811.55
435.518	1825.11
435.894	1847.03
436.269	1855.62
436.644	1881.38
437.02	1903.52
437.395	1892.45
437.77	1941.04
438.145	1961.37
438.52	1976.29
438.895	2018.32
439.271	2030.53
439.646	2018.55
440.021	2065.78
440.395	2048.38
440.77	2072.56
441.145	2066.46
441.52	2106.91
441.895	2128.38
442.27	2133.8
442.645	2172.44
443.019	2184.42
443.394	2147.13
443.769	2210.63
444.143	2195.04
444.518	2291.76
444.892	2214.48
445.267	2274.81
445.641	2276.39
446.016	2289.28
446.39	2340.35
446.764	2311.65
447.139	2323.17
447.513	2381.93
447.887	2380.35
448.262	2364.3
448.636	2415.15
449.01	2457.18
449.384	2480.68
449.758	2469.38
450.132	2515.94
450.506	2524.75
450.88	2509.38
451.254	2546.44
451.628	2577.4
452.002	2612.21
452.376	2634.8
452.75	2674.8
453.123	2707.12
453.497	2735.59
453.871	2775.14
454.244	2806.1
454.618	2800
454.992	2872.31
455.365	2842.03
455.739	2936.04
456.112	3002.93
456.486	2985.75
456.859	3023.04
457.232	3087.9
457.606	3104.85
457.979	3154.34
458.352	3223.94
458.725	3235.92
459.099	3269.82
459.472	3313.2
459.845	3339.42
460.218	3349.36
460.591	3429.36
460.964	3418.96
461.337	3484.27
461.71	3587.77
462.083	3566.53
462.456	3615.79
462.829	3665.28
463.201	3681.33
463.574	3727.2
463.947	3801.1
464.32	3873.42
464.692	3908.22
465.065	3950.02
465.438	3969.23
465.81	4032.73
466.183	4062.11
466.555	4173.07
466.928	4197.93
467.3	4190.92
467.672	4296.23
468.045	4377.36
468.417	4388.66
468.789	4436.11
469.161	4502.1
469.534	4546.62
469.906	4692.15
470.278	4764.01
470.65	4756.56
471.022	4879.72
471.394	4933.27
471.766	5005.36
472.138	5032.93
472.51	5125.36
472.882	5249.88
473.253	5255.75
473.625	5339.59
473.997	5508.85
474.369	5545.24
474.74	5548.85
475.112	5673.82
475.484	5790.65
475.855	5832.91
476.227	5890.99
476.598	6088.72
476.97	6177.31
477.341	6275.61
477.713	6378.43
478.084	6411.43
478.455	6627.47
478.827	6681.25
479.198	6826.11
479.569	6882.38
479.94	7072.65
480.311	7097.74
480.682	7310.16
481.053	7449.82
481.424	7505.41
481.795	7658.17
482.166	7780.21
482.537	7845.51
482.908	8023.36
483.279	8143.13
483.65	8353.3
484.021	8484.14
484.391	8603.91
484.762	8612.95
485.133	8716.23
485.503	8891.14
485.874	9047.06
486.244	9135.2
486.615	9296.32
486.985	9447.96
487.356	9602.76
487.726	9700.61
488.097	9908.06
488.467	9903.99
488.837	10085.46
489.207	10222.85
489.578	10371.78
489.948	10487.93
490.318	10676.85
490.688	10634.14
491.058	10824.64
491.428	11018.99
491.798	11109.16
492.168	11334.69
492.538	11367.23
492.908	11531.74
493.278	11735.58
493.648	11785.75
494.017	11881.57
494.387	11998.4
494.757	12086.31
495.126	12279.52
495.496	12268.9
495.866	12440.65
496.235	12535.79
496.605	12694.65
496.974	12762.9
497.344	12831.15
497.713	12949.79
498.082	13085.15
498.452	13188.2
498.821	13284.47
499.19	13270.68
499.559	13453.28
499.928	13590.67
500.298	13646.49
500.667	13825.92
501.036	13818.92
501.405	13981.17
501.774	14000.15
502.143	14128.51
502.512	14220.94
502.88	14361.73
503.249	14441.05
503.618	14513.81
503.987	14578.22
504.356	14669.06
504.724	14729.17
505.093	14900.47
505.462	14930.07
505.83	15064.31
506.199	15106.57
506.567	15369.16
506.936	15447.12
507.304	15498.19
507.672	15696.16
508.041	15673.1
508.409	15885.98
508.777	15954.23
509.145	16189.93
509.514	16213.66
509.882	16295.46
510.25	16300.66
510.618	16591.5
510.986	16667.65
511.354	16779.52
511.722	16944.71
512.09	17092.05
512.458	17020.87
512.826	17307.86
513.193	17372.72
513.561	17443
513.929	17634.64
514.297	17762.32
514.664	17861.97
515.032	17918.7
515.4	18170.67
515.767	18222.19
516.135	18357.1
516.502	18278.46
516.869	18623.76
517.237	18732.01
517.604	18735.4
517.972	18985.79
518.339	19102.39
518.706	19133.58
519.073	19278.89
519.44	19399.56
519.808	19691.08
520.175	19737.86
520.542	20046.55
520.909	20118.64
521.276	20187.11
521.643	20367.9
522.009	20399.53
522.376	20702.8
522.743	20732.63
523.11	21039.74
523.477	21262.56
523.843	21290.36
524.21	21591.37
524.577	21768.76
524.943	21819.38
525.31	21930.12
525.676	22192.48
526.043	22330.33
526.409	22474.73
526.776	22709.98
527.142	22798.79
527.508	22942.52
527.874	23201.49
528.241	23294.6
528.607	23375.95
528.973	23616.17
529.339	23575.95
529.705	23936.62
530.071	24074.24
530.437	24168.93
530.803	24371.86
531.169	24584.06
531.535	24438.07
531.901	24616.82
532.267	24725.07
532.632	24949.47
532.998	25149.92
533.364	25260.2
533.73	25313.53
534.095	25586.97
534.461	25449.34
534.826	25760.3
535.192	25884.81
535.557	26135.88
535.923	26062.44
536.288	26225.37
536.653	26339.27
537.019	26316.44
537.384	26455.19
537.749	26657.67
538.114	26679.37
538.479	26775.86
538.845	26886.6
539.21	26846.82
539.575	26965.92
539.94	27265.34
540.305	27395.06
540.67	27287.71
541.034	27494.71
541.399	27521.15
541.764	27741.49
542.129	27868.72
542.494	27870.75
542.858	28014.48
543.223	28068.94
543.587	28317.52
543.952	28249.05
544.316	28445.2
544.681	28442.26
545.045	28531.3
545.41	28671.63
545.774	28793.66
546.138	28670.5
546.503	29039.53
546.867	28997.05
547.231	29232.07
547.595	29255.57
547.959	29517.49
548.324	29394.55
548.688	29410.37
549.052	29751.38
549.416	29752.51
549.779	29908.44
550.143	30047.42
550.507	30188.43
550.871	30223.91
551.235	30326.96
551.599	30462.77
551.962	30575.09
552.326	30634.52
552.689	31024.79
553.053	30739.38
553.417	30909.99
553.78	31328.29
554.143	31193.37
554.507	31371
554.87	31396.76
555.234	31792
555.597	31679.69
555.96	31934.82
556.323	32093.92
556.686	32091.2
557.05	32366
557.413	32372.55
557.776	32560.57
558.139	32800.56
558.502	32832.43
558.865	32922.59
559.228	33199.88
559.59	33195.58
559.953	33318.97
560.316	33713.76
560.679	33774.32
561.041	33923.47
561.404	34171.6
561.767	34277.81
562.129	34261.09
562.492	34521.65
562.854	34666.96
563.217	34860.85
563.579	34865.14
563.941	35108.98
564.304	35355.53
564.666	35481.85
565.028	35488.85
565.39	35540.15
565.753	35836.19
566.115	36031.44
566.477	36151.66
566.839	36175.84
567.201	36466.68
567.563	36449.51
567.925	36807.69
568.287	36721.36
568.648	36882.94
569.01	37133.78
569.372	37278.64
569.734	37323.83
570.095	37386.21
570.457	37652.64
570.819	37759.08
571.18	37835.46
571.542	38042.91
571.903	38084.94
572.265	38204.94
572.626	38381.66
572.987	38364.49
573.349	38462.56
573.71	38616.91
574.071	38797.47
574.432	38867.75
574.794	39039.72
575.155	38969.44
575.516	38974.87
575.877	39331.92
576.238	39414.4
576.599	39476.55
576.96	39524.23
577.32	39650.55
577.681	39680.61
578.042	39802.64
578.403	39863.66
578.763	39901.85
579.124	39918.12
579.485	40160.6
579.845	40233.59
580.206	40086.47
580.566	40145.23
580.927	40204.44
581.287	40456.86
581.648	40202.63
582.008	40385.45
582.368	40310.2
582.728	40417.31
583.089	40402.85
583.449	40397.65
583.809	40509.51
584.169	40567.37
584.529	40479.01
584.889	40813.23
585.249	40583.18
585.609	40526.24
585.969	40639.45
586.329	40587.7
586.688	40825.44
587.048	40639.68
587.408	40670.19
587.768	40645.33
588.127	40765.78
588.487	40743.41
588.846	40976.85
589.206	40603.07
589.565	40665.22
589.925	40864.31
590.284	40821.37
590.643	40899.33
591.003	40998.54
591.362	40962.38
591.721	40844.19
592.08	40918.77
592.44	41098.65
592.799	40977.98
593.158	41045.77
593.517	41046.9
593.876	40973.23
594.235	40863.63
594.593	40944.53
594.952	41223.62
595.311	41083.06
595.67	41108.82
596.029	41291.64
596.387	41241.02
596.746	41325.76
597.104	41228.37
597.463	41155.15
597.822	41372.99
598.18	41214.81
598.538	41210.74
598.897	41539.32
599.255	41114.47
599.613	41672.65
599.972	41511.52
600.33	41682.82
600.688	41543.39
601.046	41949.7
601.404	41860.89
601.762	41620.9
602.12	41959.65
602.478	41869.48
602.836	41900.89
603.194	41714.91
603.552	41871.29
603.91	41778.63
604.268	41921.91
604.625	41855.24
604.983	41967.78
605.341	41837.61
605.698	42113.54
606.056	42253.42
606.413	42155.35
606.771	42295.46
607.128	42266.53
607.485	42205.06
607.843	42100.88
608.2	42379.75
608.557	42410.71
608.914	42400.99
609.272	42665.62
609.629	42660.87
609.986	42663.36
610.343	42522.34
610.7	42799.62
611.057	42763.92
611.414	42645.73
611.771	42828.55
612.127	42894.76
612.484	42961.43
612.841	42956.46
613.198	42951.03
613.554	42928.43
613.911	43224.7
614.267	43073.74
614.624	43080.29
614.98	43367.07
615.337	43418.59
615.693	43370.46
616.05	43246.62
616.406	43574.07
616.762	43421.3
617.118	43373.62
617.475	43321.19
617.831	43539.94
618.187	43623.33
618.543	43685.7
618.899	43861.74
619.255	43694.29
619.611	43606.61
619.967	43805.7
620.323	43905.58
620.678	43838.47
621.034	43761.86
621.39	43551.02
621.746	43682.31
622.101	44136.99
622.457	43650.9
622.812	43897.67
623.168	43795.53
623.523	43906.26
623.879	44083.21
624.234	43814.51
624.589	44059.25
624.945	43983.09
625.3	43898.8
625.655	43963.89
626.01	43906.03
626.365	43914.17
626.72	43938.8
627.075	43912.14
627.43	43836.21
627.785	43794.63
628.14	43777.68
628.495	43865.13
628.85	43697
629.205	43596.44
629.559	43685.02
629.914	43596.66
630.269	43698.81
630.623	43552.6
630.978	43467.63
631.332	43602.54
631.687	43798.47
632.041	43499.04
632.396	43663.78
632.75	43399.83
633.104	43375.88
633.459	43353.05
633.813	43166.62
634.167	43280.74
634.521	43204.13
634.875	43196
635.229	43138.15
635.583	43033.52
635.937	42989.45
636.291	42904.25
636.645	42873.97
636.999	42779.51
637.352	42757.59
637.706	42747.87
638.06	42749.91
638.413	42812.96
638.767	42636.01
639.121	42668.33
639.474	42379.07
639.828	42432.63
640.181	42513.53
640.534	42588.33
640.888	42373.42
641.241	42227.89
641.594	42311.73
641.947	42363.02
642.301	42123.48
642.654	42219.98
643.007	42228.79
643.36	42161
643.713	42191.5
644.066	42289.35
644.419	41947.89
644.771	41704.06
645.124	41225.88
645.477	41176.84
645.83	40948.82
646.182	40700.7
646.535	40509.06
646.888	40754.48
647.24	40689.17
647.593	40866.34
647.945	40864.76
648.298	40652.56
648.65	40558.55
649.002	40216.41
649.355	40596.52
649.707	40387.71
650.059	40542.28
650.411	41069.27
650.763	40907.47
651.115	41384.29
651.467	41143.4
651.819	41116.28
652.171	41027.01
652.523	41060.91
652.875	41115.83
653.227	40868.6
653.578	41244.18
653.93	41019.11
654.282	40986.34
654.633	40789.51
654.985	40864.31
655.337	40827.7
655.688	40859.11
656.039	40938.66
656.391	40565.78
656.742	40463.41
657.094	40610.98
657.445	40704.99
657.796	40501.15
658.147	40633.13
658.498	40486.69
658.849	40609.62
659.2	40524.65
659.551	40531.89
659.902	40663.63
660.253	40481.94
660.604	40516.07
660.955	40189.52
661.306	40451.66
661.656	40395.39
662.007	40347.26
662.358	40260.71
662.708	40214.38
663.059	40164.44
663.409	39960.15
663.76	40177.77
664.11	40185.45
664.461	40083.31
664.811	40071.79
665.161	40180.26
665.511	40055.29
665.862	40272.91
666.212	40374.15
666.562	40340.7
666.912	40137.77
667.262	40099.36
667.612	40265.45
667.962	40156.08
668.312	40034.27
668.662	40191.1
669.011	40196.98
669.361	40050.09
669.711	40111.56
670.06	39924.22
670.41	39862.3
670.76	39852.36
671.109	39895.97
671.459	39849.42
671.808	39726.26
672.157	39850.55
672.507	39653.04
672.856	39648.97
673.205	39702.53
673.554	39687.61
673.904	39524.91
674.253	39681.97
674.602	39639.71
674.951	39088.31
675.3	38910.46
675.649	39498.02
675.998	39385.7
676.346	39511.12
676.695	39612.36
677.044	39287.63
677.393	39337.34
677.741	39465.47
678.09	39264.35
678.438	39275.65
678.787	39242.2
679.135	39316.78
679.484	39147.06
679.832	39234.52
680.181	39083.56
680.529	39106.39
680.877	38926.28
681.225	39044.24
681.573	39035.65
681.922	38853.06
682.27	38690.58
682.618	38697.36
682.966	38596.12
683.314	38633.41
683.661	38621.43
684.009	38444.26
684.357	38292.4
684.705	38277.93
685.053	38395.22
685.4	38249.46
685.748	38048.56
686.095	38032.29
686.443	37857.61
686.79	37723.37
687.138	37789.59
687.485	37744.61
687.832	37741
688.18	37847.21
688.527	37615.8
688.874	37468.46
689.221	37320.45
689.568	37136.27
689.915	37150.05
690.262	37257.62
690.609	37216.95
690.956	36999.55
691.303	37001.13
691.65	36679.78
691.997	36760.46
692.344	36589.39
692.69	36629.84
693.037	36755.71
693.383	36424.65
693.73	36473.69
694.077	36282.96
694.423	36336.97
694.769	36181.27
695.116	36110.31
695.462	35957.09
695.808	35904.89
696.155	35911.44
696.501	35590.1
696.847	35536.09
697.193	35319.82
697.539	35563.66
697.885	35183.33
698.231	35100.84
698.577	35200.95
698.923	35071.92
699.269	34874.86
699.614	34718.71
699.96	34641.87
700.306	34764.13
700.651	34523.68
700.997	34572.49
701.342	34434.65
701.688	34300.64
702.033	34263.12
702.379	34232.84
702.724	33999.18
703.069	34092.51
703.415	33791.5
703.76	33776.81
704.105	33602.8
704.45	33557.61
704.795	33290.95
705.14	33179.54
705.485	33262.25
705.83	33092.31
706.175	33176.37
706.52	33024.51
706.865	33083.04
707.209	33077.17
707.554	32856.38
707.899	32941.13
708.243	32833.33
708.588	32774.12
708.932	32565.09
709.277	32529.61
709.621	32535.03
709.966	32358.77
710.31	32440.35
710.654	32123.75
710.998	32201.03
711.342	32269.05
711.687	32086.68
712.031	31981.83
712.375	31757.43
712.719	31903.19
713.063	31760.82
713.407	31879.23
713.75	31610.54
714.094	31737.54
714.438	31553.37
714.782	31594.04
715.125	31372.35
715.469	31614.61
715.812	31337.33
716.156	31225.01
716.499	31236.76
716.843	31091.68
717.186	30946.15
717.53	31047.62
717.873	31058.01
718.216	30945.7
718.559	30830.9
718.902	30606.72
719.246	30660.06
719.589	30720.17
719.932	30632.94
720.275	30548.87
720.617	30535.76
720.96	30376.45
721.303	30357.46
721.646	30423.45
721.989	30179.62
722.331	30218.71
722.674	30207.64
723.016	30140.07
723.359	30091.48
723.701	30030.02
724.044	29912.05
724.386	29716.58
724.729	29916.57
725.071	29684.04
725.413	29701.66
725.755	29691.95
726.097	29573.3
726.439	29433.65
726.782	29468.22
727.124	29643.58
727.465	29394.55
727.807	29312.75
728.149	29285.18
728.491	29269.58
728.833	29300.77
729.175	29133.54
729.516	29140.77
729.858	29119.3
730.199	29072.07
730.541	29080.66
730.882	28964.96
731.224	29002.25
731.565	28800.44
731.906	28892.19
732.248	28783.04
732.589	28704.63
732.93	28618.08
733.271	28599.54
733.612	28649.26
733.953	28627.57
734.294	28419.21
734.635	28432.09
734.976	28535.14
735.317	28471.19
735.658	28338.31
735.999	28393.22
736.339	28335.82
736.68	28300.57
737.021	28221.25
737.361	28033.91
737.702	28220.8
738.042	28121.37
738.383	27979.22
738.723	28080.91
739.063	28033.68
739.404	27952.78
739.744	27919.79
740.084	27717.31
740.424	27854.93
740.764	27857.42
741.104	27981.48
741.444	27541.04
741.784	27401.38
742.124	27656.07
742.464	27606.8
742.804	27489.52
743.143	27470.31
743.483	27310.09
743.823	27253.37
744.162	27301.27
744.502	27190.09
744.841	27234.16
745.181	27255.17
745.52	27024.44
745.86	27111.67
746.199	26988.06
746.538	26906.48
746.877	26905.35
747.216	26852.92
747.556	26722.98
747.895	26874.62
748.234	26703.55
748.573	26648.18
748.911	26608.86
749.25	26642.53
749.589	26462.65
749.928	26569.54
750.267	26398.92
750.605	26533.16
750.944	26420.84
751.283	26257.23
751.621	26315.31
751.96	26118.03
752.298	26088.65
752.636	26074.41
752.975	26022.21
753.313	25885.49
753.651	26049.56
753.989	25867.87
754.327	25890.24
754.666	25749.45
755.004	25805.04
755.342	25668.1
755.679	25592.84
756.017	25476.24
756.355	25482.79
756.693	25336.35
757.031	25480.3
757.368	25297.48
757.706	25199.41
758.044	25308.33
758.381	25266.3
758.719	25121.44
759.056	25013.65
759.394	25016.81
759.731	24731.62
760.068	24713.09
760.405	24723.94
760.743	24576.83
761.08	24606.88
761.417	24466.09
761.754	24457.96
762.091	24345.19
762.428	24288.25
762.765	24092.77
763.102	24193.11
763.438	24056.16
763.775	24017.07
764.112	23934.13
764.449	23882.83
764.785	23712.44
765.122	23669.05
765.458	23590.18
765.795	23511.77
766.131	23533.69
766.467	23402.85
766.804	23299.8
767.14	23255.73
767.476	23108.62
767.812	23161.04
768.148	23163.98
768.485	22900.71
768.821	22836.76
769.157	22879.47
769.492	22738.91
769.828	22773.48
770.164	22541.85
770.5	22503.21
770.836	22368.07
771.171	22348.18
771.507	22278.35
771.842	21991.58
772.178	22199.26
772.513	22067.51
772.849	21986.61
773.184	21920.85
773.519	21827.07
773.855	21797.24
774.19	21654.64
774.525	21491.93
774.86	21531.26
775.195	21553.85
775.53	21449.45
775.865	21187.31
776.2	21076.35
776.535	20995.9
776.87	20986.19
777.205	20941.89
777.539	20909.8
777.874	20985.51
778.209	20614.22
778.543	20685.85
778.878	20595.46
779.212	20500.32
779.547	20322.02
779.881	20414.68
780.215	20264.4
780.55	20268.92
780.884	20157.28
781.218	20135.59
781.552	20001.35
781.886	19945.99
782.22	19936.04
782.554	19824.18
782.888	19602.72
783.222	19584.19
783.556	19503.51
783.889	19422.16
784.223	19422.38
784.557	19248.15
784.89	19288.83
785.224	19179.45
785.557	19069.4
785.891	18999.57
786.224	18968.61
786.558	18827.15
786.891	18810.42
787.224	18715.96
787.557	18746.24
787.891	18647.49
788.224	18528.62
788.557	18538.79
788.89	18527.95
789.223	18495.63
789.556	18344.22
789.888	18223.32
790.221	18222.64
790.554	18125.02
790.887	18031.46
791.219	18021.07
791.552	17995.08
791.884	17892.03
792.217	17760.06
792.549	17775.2
792.882	17745.37
793.214	17645.71
793.546	17560.06
793.879	17399.84
794.211	17384.25
794.543	17500.63
794.875	17442.32
795.207	17385.6
795.539	17299.28
795.871	17309.45
796.203	17079.62
796.535	16980.87
796.867	17010.92
797.198	16942.9
797.53	16847.99
797.862	16824.94
798.193	16782.68
798.525	16729.57
798.856	16680.08
799.188	16428.34
799.519	16479.86
799.85	16423.37
800.182	16368.68
800.513	16423.14
800.844	16267.21
801.175	16355.12
801.506	16273.32
801.837	16226.76
802.168	16188.57
802.499	16102.25
802.83	16063.15
803.161	15948.13
803.491	16011.85
803.822	16009.82
804.153	15915.36
804.483	15775.25
804.814	15753.78
805.145	15645.08
805.475	15725.53
805.805	15637.17
806.136	15641.02
806.466	15673.78
806.796	15520.79
807.126	15426.11
807.457	15393.56
807.787	15408.71
808.117	15285.32
808.447	15211.42
808.777	15220.24
809.107	15130.75
809.436	15132.1
809.766	15054.36
810.096	15065.89
810.426	15074.93
810.755	14985.89
811.085	14955.61
811.414	14940.92
811.744	14777.76
812.073	14683.75
812.403	14737.76
812.732	14646.01
813.061	14660.02
813.39	14563.76
813.719	14591.55
814.049	14646.24
814.378	14619.12
814.707	14449.41
815.036	14368.05
815.365	14388.17
815.693	14241.96
816.022	14371.22
816.351	14220.26
816.68	14127.38
817.008	14210.77
817.337	14165.8
817.665	14040.61
817.994	14052.36
818.322	14063.43
818.651	13989.53
818.979	13958.8
819.307	13952.92
819.636	13881.97
819.964	13843.55
820.292	13886.49
820.62	13823.89
820.948	13835.41
821.276	13830.89
821.604	13864.79
821.932	13809.2
822.259	13796.09
822.587	13729.43
822.915	13675.19
823.243	13855.07
823.57	13797
823.898	13723.78
824.225	13689.2
824.553	13655.53
824.88	13659.82
825.207	13793.38
825.535	13655.08
825.862	13744.79
826.189	13746.15
826.516	13767.17
826.843	13814.85
827.17	13834.28
827.497	13800.84
827.824	13696.21
828.151	13798.13
828.478	13769.2
828.805	13812.81
829.131	13620.96
829.458	13652.14
829.785	13660.05
830.111	13684
830.438	13715.64
830.764	13636.55
831.09	13679.03
831.417	13612.82
831.743	13629.09
832.069	13592.71
832.395	13474.74
832.722	13567.17
833.048	13634.51
833.374	13492.37
833.7	13560.39
834.026	13473.61
834.351	13624.12
834.677	13505.03
835.003	13568.75
835.329	13514.74
835.654	13507.96
835.98	13435.65
836.306	13455.08
836.631	13332.6
836.956	13370.11
837.282	13446.27
837.607	13334.18
837.932	13388.65
838.258	13342.09
838.583	13288.08
838.908	13241.08
839.233	13295.54
839.558	13115.88
839.883	13093.06
840.208	13180.97
840.533	13160.85
840.858	13110.69
841.182	13191.59
841.507	13109.56
841.832	13093.74
842.156	13011.48
842.481	12917.25
842.805	12968.54
843.13	12903.91
843.454	12909.56
843.778	12844.48
844.103	12850.35
844.427	12834.31
844.751	12851.03
845.075	12756.8
845.399	12750.7
845.723	12624.37
846.047	12693.3
846.371	12549.35
846.695	12542.11
847.019	12360.2
847.343	12272.06
847.666	12241.33
847.99	12281.78
848.313	12261.67
848.637	12164.95
848.96	12140.99
849.284	12093.09
849.607	12047.44
849.931	12053.09
850.254	11928.34
850.577	11837.05
850.9	11774
851.223	11831.4
851.546	11708.01
851.869	11560.67
852.192	11741.68
852.515	11565.42
852.838	11532.2
853.161	11505.08
853.483	11402.03
853.806	11389.6
854.129	11479.09
854.451	11412.88
854.774	11323.39
855.096	11369.04
855.419	11334.91
855.741	11141.92
856.063	11158.87
856.385	11125.2
856.708	11075.94
857.03	10981.25
857.352	11049.05
857.674	11016.5
857.996	10931.08
858.318	10910.74
858.64	10796.4
858.961	10881.59
859.283	10777.87
859.605	10800.01
859.926	10786.68
860.248	10735.83
860.57	10673.91
860.891	10715.04
861.212	10583.97
861.534	10687.7
861.855	10587.59
862.176	10654.93
862.498	10647.25
862.819	10632.79
863.14	10588.27
863.461	10539.45
863.782	10451.77
864.103	10545.78
864.424	10471.43
864.745	10497.2
865.065	10497.87
865.386	10385.33
865.707	10357.31
866.027	10419.46
866.348	10395.28
866.668	10394.83
866.989	10357.76
867.309	10313.47
867.63	10279.57
867.95	10215.62
868.27	10186.92
868.59	10202.51
868.91	10126.36
869.23	10113.7
869.55	10094.49
869.87	10195.51
870.19	10109.86
870.51	10161.84
870.83	10106.7
871.15	10015.17
871.469	9998.23
871.789	10029.41
872.109	10029.64
872.428	9900.6
872.748	9962.97
873.067	9925.91
873.386	9946.93
873.706	9924.78
874.025	9911.45
874.344	9850.21
874.663	9879.13
874.982	9843.65
875.301	9828.06
875.62	9779.47
875.939	9834.16
876.258	9783.32
876.577	9724.11
876.896	9771.57
877.214	9704.45
877.533	9714.17
877.852	9722.53
878.17	9690.89
878.489	9674.39
878.807	9683.43
879.125	9626.48
879.444	9645.47
879.762	9642.75
880.08	9658.35
880.398	9535.41
880.716	9575.19
881.034	9539.25
881.352	9640.04
881.67	9475.53
881.988	9504.91
882.306	9476.88
882.624	9439.6
882.941	9413.16
883.259	9397.34
883.577	9348.75
883.894	9313.05
884.212	9308.07
884.529	9340.39
884.846	9266.04
885.164	9275.31
885.481	9193.05
885.798	9226.27
886.115	9164.8
886.432	9129.32
886.75	9119.83
887.067	9170.68
887.383	9095.2
887.7	9155.76
888.017	9083
888.334	9095.65
888.651	9023.34
888.967	9015.88
889.284	8963.45
889.6	8971.81
889.917	8850.91
890.233	8882.55
890.55	8924.13
890.866	8894.53
891.182	8792.83
891.498	8783.34
891.815	8665.61
892.131	8758.03
892.447	8681.42
892.763	8689.11
893.079	8723.68
893.395	8684.14
893.71	8653.63
894.026	8613.63
894.342	8579.51
894.657	8520.75
894.973	8564.37
895.289	8525.04
895.604	8458.61
895.92	8452.05
896.235	8320.98
896.55	8372.73
896.865	8321.66
897.181	8330.25
897.496	8351.72
897.811	8327.76
898.126	8284.82
898.441	8238.72
898.756	8230.14
899.071	8169.8
899.386	8151.95
899.7	8043.7
900.015	8041.89
900.33	8008.45
900.644	8045.28
900.959	8005.51
901.273	7919.64
901.588	7912.63
901.902	7871.5
902.216	7864.5
902.531	7789.02
902.845	7853.65
903.159	7792.18
903.473	7721
903.787	7682.81
904.101	7615.46
904.415	7604.16
904.729	7594.67
905.042	7582.92
905.356	7590.83
905.67	7545.18
905.984	7586.99
906.297	7487.78
906.611	7554
906.924	7441.23
907.237	7445.98
907.551	7420.67
907.864	7333.44
908.177	7365.07
908.491	7291.86
908.804	7240.78
909.117	7206.21
909.43	7179.77
909.743	7154.91
910.056	7156.04
910.368	7101.58
910.681	7071.52
910.994	7050.28
911.307	7048.25
911.619	6953.56
911.932	6962.6
912.244	6935.71
912.557	6932.09
912.869	6879.89
913.181	6824.75
913.494	6838.99
913.806	6782.94
914.118	6769.38
914.43	6748.82
914.742	6753.11
915.054	6642.16
915.366	6691.87
915.678	6653.91
915.99	6560.58
916.302	6577.52
916.613	6552.67
916.925	6545.44
917.236	6561.71
917.548	6467.02
917.859	6520.13
918.171	6409.39
918.482	6399
918.794	6347.02
919.105	6427.92
919.416	6345.44
919.727	6313.58
920.038	6279.91
920.349	6203.75
920.66	6195.84
920.971	6210.75
921.282	6181.38
921.593	6111.1
921.903	6125.33
922.214	6071.78
922.525	6077.88
922.835	6025
923.146	6028.39
923.456	5983.19
923.767	5970.31
924.077	5950.2
924.387	5930.08
924.697	5834.49
925.008	5866.58
925.318	5832.01
925.628	5842.18
925.938	5750.88
926.248	5714.04
926.558	5729.19
926.867	5657.1
927.177	5670.2
927.487	5662.07
927.796	5557.89
928.106	5625.01
928.416	5517.44
928.725	5552.02
929.034	5533.71
929.344	5530.55
929.653	5446.26
929.962	5446.71
930.271	5366.48
930.581	5440.83
930.89	5373.49
931.199	5368.29
931.508	5335.75
931.817	5363.09
932.125	5337.78
932.434	5330.55
932.743	5242.87
933.051	5255.98
933.36	5206.26
933.669	5221.4
933.977	5133.49
934.286	5119.26
934.594	5084.91
934.902	5087.39
935.21	5095.08
935.519	5084.23
935.827	5017.34
936.135	4982.54
936.443	4962.65
936.751	4962.88
937.059	4949.09
937.367	4919.26
937.674	4934.63
937.982	4876.33
938.29	4897.79
938.597	4827.97
938.905	4824.12
939.213	4796.1
939.52	4828.42
939.827	4780.51
940.135	4794.07
940.442	4712.94
940.749	4697.8
941.056	4683.56
941.363	4649.89
941.67	4668.42
941.977	4623
942.284	4598.14
942.591	4598.82
942.898	4587.07
943.205	4581.65
943.511	4541.65
943.818	4485.38
944.125	4463.68
944.431	4480.18
944.738	4472.72
945.044	4372.61
945.35	4405.83
945.657	4377.13
945.963	4340.75
946.269	4357.02
946.575	4383.91
946.881	4322.44
947.187	4301.2
947.493	4282.9
947.799	4214.88
948.105	4245.61
948.41	4253.52
948.716	4246.29
949.022	4165.61
949.327	4151.37
949.633	4166.51
949.938	4157.93
950.244	4125.84
950.549	4082.22
950.854	4085.84
951.16	4029.34
951.465	4060.53
951.77	4034.09
952.075	4049.46
952.38	4024.6
952.685	3973.98
952.99	3964.71
953.294	3907.31
953.599	3915.22
953.904	3851.04
954.209	3874.55
954.513	3875.22
954.818	3886.52
955.122	3826.86
955.426	3853.3
955.731	3789.8
956.035	3806.52
956.339	3747.09
956.643	3784.38
956.948	3752.51
957.252	3743.93
957.556	3695.11
957.86	3733.98
958.163	3623.03
958.467	3645.4
958.771	3657.15
959.075	3631.84
959.378	3622.12
959.682	3603.82
959.985	3580.32
960.289	3571.05
960.592	3589.35
960.896	3541.9
961.199	3561.33
961.502	3530.6
961.805	3487.66
962.108	3460.09
962.411	3440.88
962.714	3437.72
963.017	3406.08
963.32	3430.49
963.623	3404.5
963.926	3396.59
964.228	3385.97
964.531	3337.84
964.833	3365.63
965.136	3347.78
965.438	3305.29
965.741	3354.78
966.043	3281.11
966.345	3276.82
966.648	3286.31
966.95	3290.83
967.252	3238.4
967.554	3259.65
967.856	3186.2
968.158	3141.23
968.46	3171.06
968.761	3149.37
969.063	3133.77
969.365	3138.29
969.666	3101.68
969.968	3119.99
970.269	3075.92
970.571	3039.99
970.872	3081.35
971.174	3042.93
971.475	3037.96
971.776	3006.77
972.077	3002.93
972.378	3000.67
972.679	3028.92
972.98	2988.01
973.281	2937.17
973.582	2942.14
973.883	2926.55
974.183	2908.47
974.484	2895.59
974.785	2875.93
975.085	2917.51
975.386	2890.16
975.686	2825.99
975.986	2840.9
976.287	2867.57
976.587	2802.93
976.887	2778.75
977.187	2810.17
977.487	2813.33
977.787	2792.77
978.087	2775.36
978.387	2759.32
978.687	2761.35
978.987	2699.89
979.286	2729.94
979.586	2676.16
979.885	2632.54
980.185	2670.28
980.484	2642.71
980.784	2674.12
981.083	2674.8
981.382	2624.18
981.682	2651.75
981.981	2626.44
982.28	2621.7
982.579	2603.62
982.878	2538.31
983.177	2574.01
983.475	2569.27
983.774	2555.94
984.073	2541.47
984.372	2539.66
984.67	2534.69
984.969	2536.73
985.267	2512.77
985.566	2503.06
985.864	2454.7
986.162	2474.36
986.461	2444.75
986.759	2442.49
987.057	2398.2
987.355	2434.81
987.653	2404.98
987.951	2392.78
988.249	2402.49
988.547	2400.91
988.844	2392.55
989.142	2336.96
989.44	2334.47
989.737	2311.65
990.035	2314.13
990.332	2280.69
990.63	2294.7
990.927	2309.84
991.224	2282.95
991.521	2273.23
991.819	2269.62
992.116	2228.26
992.413	2229.39
992.71	2210.63
993.006	2213.35
993.303	2230.97
993.6	2205.44
993.897	2202.05
994.193	2199.33
994.49	2183.97
994.787	2161.6
995.083	2136.06
995.379	2128.15
995.676	2125.21
995.972	2119.34
996.268	2085.89
996.565	2101.94
996.861	2138.32
997.157	2115.5
997.453	2074.37
997.749	2069.17
998.044	2036.4
998.34	2032.56
998.636	1996.4
998.932	2022.16
999.227	1979
999.523	2013.13
999.818	2004.76
1000.114	1941.94
1000.409	1946.23
1000.704	1938.55
1001	1929.74
1001.295	1897.2
1001.59	1904.2
1001.885	1899
1002.18	1866.46
1002.475	1848.61
1002.77	1858.78
1003.065	1846.58
1003.359	1845.9
1003.654	1885.9
1003.949	1856.74
1004.243	1831.43
1004.538	1850.42
1004.832	1810.42
1005.127	1802.06
1005.421	1813.13
1005.715	1770.19
1006.009	1759.12
1006.304	1791.89
1006.598	1760.93
1006.892	1757.31
1007.186	1733.13
1007.48	1726.58
1007.773	1727.71
1008.067	1724.77
1008.361	1677.77
1008.655	1693.59
1008.948	1650.65
1009.242	1669.18
1009.535	1670.08
1009.829	1685.45
1010.122	1652.46
1010.415	1651.33
1010.708	1617.2
1011.001	1638.67
1011.295	1633.25
1011.588	1609.07
1011.881	1593.93
1012.173	1570.2
1012.466	1579.69
1012.759	1553.02
1013.052	1550.99
1013.344	1539.92
1013.637	1539.92
1013.93	1521.39
1014.222	1505.79
1014.514	1512.12
1014.807	1496.08
1015.099	1512.57
1015.391	1481.16
1015.683	1459.92
1015.976	1506.02
1016.268	1485.23
1016.56	1469.86
1016.851	1419.92
1017.143	1436.87
1017.435	1412.69
1017.727	1424.67
1018.018	1373.14
1018.31	1405.23
1018.602	1379.24
1018.893	1398
1019.185	1365.68
1019.476	1375.18
1019.767	1358.23
1020.058	1327.04
1020.35	1368.4
1020.641	1319.58
1020.932	1292.01
1021.223	1295.86
1021.514	1304.9
1021.804	1288.4
1022.095	1286.36
1022.386	1278.91
1022.677	1274.16
1022.967	1261.51
1023.258	1249.53
1023.548	1240.26
1023.839	1258.57
1024.129	1212.02
1024.419	1243.43
1024.709	1225.12
1025	1208.85
1025.29	1212.69
1025.58	1186.71
1025.87	1169.76
1026.16	1145.35
1026.449	1177.67
1026.739	1182.41
1027.029	1171.79
1027.319	1132.02
1027.608	1137.44
1027.898	1149.64
1028.187	1144
1028.477	1129.98
1028.766	1126.59
1029.055	1115.3
1029.344	1106.48
1029.634	1090.21
1029.923	1102.87
1030.212	1080.49
1030.501	1074.84
1030.79	1059.03
1031.078	1051.34
1031.367	1043.21
1031.656	1052.7
1031.945	1038.69
1032.233	1020.83
1032.522	1022.42
1032.81	1021.51
1033.099	997.11
1033.387	992.81
1033.675	1003.43
1033.963	1000.95
1034.251	992.59
1034.54	981.06
1034.828	972.02
1035.116	968.18
1035.403	966.15
1035.691	949.2
1035.979	943.55
1036.267	951.23
1036.554	938.13
1036.842	936.54
1037.129	919.37
1037.417	925.02
1037.704	910.78
1037.992	907.17
1038.279	894.06
1038.566	887.5
1038.853	887.5
1039.14	887.5
