Data from plate_porcelain_FLMS001491_007.txt Node
Date: Tue Feb 07 11:18:39 GMT 2017
User: dcchb
Spectrometer: FLMS00149
Trigger mode: 0
Integration Time (sec): 2.000000E-2
Scans to average: 10
Electric dark correction enabled: true
Nonlinearity correction enabled: false
Boxcar width: 0
XAxis mode: Wavelengths
Number of Pixels in Spectrum: 2048
>>>>>Begin Spectral Data<<<<<
341.393	-7.06
341.776	-7.06
342.16	-7.06
342.543	-47.96
342.927	-50.45
343.31	-80.28
343.693	-76.21
344.077	-61.07
344.46	-68.3
344.843	-44.58
345.226	-47.96
345.61	-24.69
345.993	-16.33
346.376	1.53
346.759	22.77
347.142	33.16
347.525	43.33
347.908	68.19
348.291	72.26
348.674	86.49
349.057	91.69
349.44	131.69
349.823	132.82
350.206	167.62
350.588	217.11
350.971	249.43
351.354	264.57
351.737	269.99
352.119	278.81
352.502	311.8
352.884	300.05
353.267	319.71
353.65	330.1
354.032	358.8
354.414	332.14
354.797	353.83
355.179	364.45
355.562	362.87
355.944	367.84
356.326	369.65
356.709	384.11
357.091	371.46
357.473	392.02
357.855	398.58
358.238	406.71
358.62	382.98
359.002	405.58
359.384	384.79
359.766	397.67
360.148	401.06
360.53	412.81
360.912	398.13
361.294	395.41
361.676	407.62
362.057	384.11
362.439	398.8
362.821	387.28
363.203	385.47
363.584	388.18
363.966	349.54
364.348	400.16
364.729	395.87
365.111	389.76
365.493	405.58
365.874	407.62
366.256	380.27
366.637	395.19
367.019	387.96
367.4	375.98
367.781	383.66
368.163	402.64
368.544	387.96
368.925	380.72
369.306	420.5
369.688	402.19
370.069	393.61
370.45	414.62
370.831	411.23
371.212	428.63
371.593	399.26
371.974	417.11
372.355	418.92
372.736	445.13
373.117	440.84
373.498	410.55
373.879	426.37
374.26	426.82
374.641	425.47
375.021	427.73
375.402	436.09
375.783	438.8
376.163	499.37
376.544	481.29
376.925	465.47
377.305	460.04
377.686	435.64
378.066	481.74
378.447	469.99
378.827	472.47
379.208	506.37
379.588	489.42
379.968	482.87
380.349	506.82
380.729	504.79
381.109	490.33
381.489	502.08
381.87	492.13
382.25	505.24
382.63	526.71
383.01	525.35
383.39	534.39
383.77	538.23
384.15	542.3
384.53	538.23
384.91	534.39
385.29	561.06
385.67	548.86
386.049	588.18
386.429	586.82
386.809	599.48
387.189	613.71
387.568	578.46
387.948	593.6
388.328	601.28
388.707	594.05
389.087	606.71
389.466	641.73
389.846	639.93
390.225	637.44
390.605	646.93
390.984	625.92
391.363	647.61
391.743	658.01
392.122	682.41
392.501	696.42
392.881	706.82
393.26	671.56
393.639	701.85
394.018	703.65
394.397	708.85
394.776	729.19
395.155	730.09
395.534	727.16
395.913	728.51
396.292	780.71
396.671	744.33
397.05	773.26
397.429	791.11
397.808	790.43
398.186	792.69
398.565	806.93
398.944	824.33
399.323	829.53
399.701	852.8
400.08	815.29
400.458	834.5
400.837	853.03
401.215	867.04
401.594	856.19
401.972	872.91
402.351	887.38
402.729	930.09
403.107	923.76
403.486	916.53
403.864	916.98
404.242	950.88
404.62	994.95
404.999	955.62
405.377	943.42
405.755	985.45
406.133	1004.44
406.511	1011.67
406.889	1029.29
407.267	1050.09
407.645	1067.94
408.023	1058.45
408.401	1083.98
408.779	1084.43
409.156	1117.65
409.534	1109.07
409.912	1131.89
410.29	1149.97
410.667	1149.97
411.045	1198.1
411.422	1218.89
411.8	1181.83
412.178	1239.91
412.555	1243.98
412.933	1295.28
413.31	1282.62
413.687	1291.66
414.065	1312.23
414.442	1334.37
414.819	1352.9
415.197	1355.16
415.574	1402.62
415.951	1400.58
416.328	1429.51
416.705	1440.13
417.082	1451.66
417.46	1469.06
417.837	1491.88
418.214	1479.9
418.591	1526.23
418.967	1524.42
419.344	1515.84
419.721	1567.81
420.098	1590.41
420.475	1580.92
420.852	1610.3
421.228	1601.48
421.605	1622.5
421.982	1680.8
422.358	1658.2
422.735	1699.33
423.111	1683.97
423.488	1732.55
423.864	1753.34
424.241	1772.55
424.617	1775.26
424.994	1811.2
425.37	1852.32
425.746	1852.55
426.123	1863.4
426.499	1854.36
426.875	1911.31
427.251	1926.9
427.627	1993.56
428.003	2010.06
428.379	2008.7
428.756	2050.29
429.132	2108.59
429.507	2104.29
429.883	2109.04
430.259	2147.01
430.635	2196.5
431.011	2222.03
431.387	2241.92
431.763	2325.31
432.138	2316.27
432.514	2381.58
432.89	2361.46
433.265	2450.27
433.641	2467.22
434.016	2486.88
434.392	2502.93
434.767	2579.31
435.143	2597.62
435.518	2602.81
435.894	2604.39
436.269	2689.14
436.644	2724.62
437.02	2716.71
437.395	2739.08
437.77	2835.12
438.145	2841.22
438.52	2854.33
438.895	2878.29
439.271	2904.05
439.646	2988.57
440.021	2987.21
440.395	2999.64
440.77	2989.47
441.145	2989.02
441.52	3133.87
441.895	3119.86
442.27	3125.29
442.645	3132.97
443.019	3178.84
443.394	3205.51
443.769	3243.02
444.143	3199.86
444.518	3291.61
444.892	3304.26
445.267	3280.76
445.641	3335.9
446.016	3349.91
446.39	3443.47
446.764	3418.38
447.139	3413.64
447.513	3510.13
447.887	3513.75
448.262	3548.1
448.636	3546.52
449.01	3591.04
449.384	3612.73
449.758	3643.46
450.132	3709.68
450.506	3735.44
450.88	3751.94
451.254	3794.19
451.628	3828.09
452.002	3874.19
452.376	3906.28
452.75	3936.56
453.123	3999.84
453.497	4066.5
453.871	4064.7
454.244	4170.91
454.618	4179.49
454.992	4308.98
455.365	4252.26
455.739	4372.26
456.112	4391.47
456.486	4452.71
456.859	4501.97
457.232	4635.98
457.606	4579.48
457.979	4703.1
458.352	4780.83
458.725	4761.4
459.099	4844.79
459.472	4936.99
459.845	5029.19
460.218	5069.64
460.591	5064.44
460.964	5157.1
461.337	5269.18
461.71	5339.01
462.083	5396.41
462.456	5467.37
462.829	5460.82
463.201	5557.76
463.574	5635.28
463.947	5686.57
464.32	5821.71
464.692	5807.7
465.065	5910.52
465.438	6000.92
465.81	6063.51
466.183	6164.08
466.555	6276.39
466.928	6334.24
467.3	6369.49
467.672	6442.71
468.045	6582.82
468.417	6604.97
468.789	6687.9
469.161	6789.6
469.534	6919.54
469.906	7027.1
470.278	7056.48
470.65	7197.04
471.022	7292.41
471.394	7436.36
471.766	7536.92
472.138	7639.97
472.51	7751.38
472.882	7949.56
473.253	8020.98
473.625	8122.22
473.997	8362.89
474.369	8371.93
474.74	8447.63
475.112	8638.13
475.484	8730.56
475.855	8883.55
476.227	9039.93
476.598	9231.11
476.97	9328.06
477.341	9538.22
477.713	9648.73
478.084	9761.49
478.455	10024.54
478.827	10109.73
479.198	10446
479.569	10457.52
479.94	10768.7
480.311	10885.31
480.682	11054.79
481.053	11326.88
481.424	11517.61
481.795	11636.7
482.166	11845.06
482.537	12014.99
482.908	12271.49
483.279	12376.79
483.65	12647.75
484.021	12836.67
484.391	13093.16
484.762	13099.71
485.133	13308.07
485.503	13520.49
485.874	13791.45
486.244	13914.83
486.615	14200.47
486.985	14388.04
487.356	14614.25
487.726	14755.04
488.097	15097.17
488.467	15112.54
488.837	15543.49
489.207	15632.3
489.578	15875.91
489.948	16018.51
490.318	16344.82
490.688	16292.85
491.058	16666.62
491.428	16735.32
491.798	17077.69
492.168	17367.62
492.538	17385.02
492.908	17659.37
493.278	17849.19
493.648	17881.06
494.017	18243.98
494.387	18363.3
494.757	18543.18
495.126	18704.76
495.496	18834.25
495.866	18954.7
496.235	19242.15
496.605	19353.11
496.974	19543.38
497.344	19697.28
497.713	19858.63
498.082	20012.3
498.452	20205.51
498.821	20297.26
499.19	20363.93
499.559	20646.41
499.928	20751.49
500.298	20888.66
500.667	21063.34
501.036	21173.4
501.405	21388.31
501.774	21367.07
502.143	21612.03
502.512	21633.27
502.88	21892.93
503.249	21943.32
503.618	22145.58
503.987	22252.47
504.356	22466.92
504.724	22553.25
505.093	22686.8
505.462	22773.81
505.83	23042.5
506.199	23235.49
506.567	23503.51
506.936	23517.97
507.304	23797.96
507.672	23962.25
508.041	23984.62
508.409	24234.11
508.777	24466.19
509.145	24675
509.514	24590.94
509.882	24943.24
510.25	25032.96
510.618	25251.03
510.986	25306.4
511.354	25477.47
511.722	25777.8
512.09	26008.75
512.458	25919.71
512.826	26324
513.193	26466.82
513.561	26476.31
513.929	26874.27
514.297	26983.41
514.664	27327.59
515.032	27390.18
515.4	27613.68
515.767	27655.94
516.135	27967.12
516.502	27988.59
516.869	28350.61
517.237	28504.5
517.604	28476.93
517.972	28771.62
518.339	29023.59
518.706	29107.88
519.073	29168.89
519.44	29556.68
519.808	29949.89
520.175	29965.03
520.542	30362.08
520.909	30590.78
521.276	30528.41
521.643	30890.88
522.009	31122.74
522.376	31444.77
522.743	31503.75
523.11	31891.99
523.477	32068.7
523.843	32347.57
524.21	32668.46
524.577	32906.65
524.943	33172.18
525.31	33356.58
525.676	33648.32
526.043	33788.89
526.409	33914.98
526.776	34330.11
527.142	34555.65
527.508	34825.24
527.874	34897.78
528.241	35168.28
528.607	35330.31
528.973	35763.3
529.339	35756.29
529.705	36029.5
530.071	36391.98
530.437	36553.11
530.803	36856.15
531.169	36884.17
531.535	37001
531.901	37140.89
532.267	37224.5
532.632	37529.13
532.998	37693.42
533.364	38117.36
533.73	38173.63
534.095	38467.63
534.461	38469.89
534.826	38788.98
535.192	39026.71
535.557	39395.74
535.923	39235.75
536.288	39373.37
536.653	39753.02
537.019	39513.71
537.384	39699.92
537.749	39995.5
538.114	40028.5
538.479	40181.26
538.845	40332.67
539.21	40380.12
539.575	40809.49
539.94	40697.86
540.305	41030.05
540.67	41055.59
541.034	41107.11
541.399	41355.24
541.764	41444.05
542.129	41588.68
542.494	41746.42
542.858	41862.35
543.223	41932.63
543.587	42159.29
543.952	42221.21
544.316	42384.14
544.681	42455.32
545.045	42703.23
545.41	42885.14
545.774	42891.02
546.138	43030
546.503	43174.18
546.867	43151.13
547.231	43697.55
547.595	43599.93
547.959	43793.37
548.324	43949.3
548.688	43886.25
549.052	43996.98
549.416	44194.94
549.779	44263.19
550.143	44441.26
550.507	44711.54
550.871	44899.1
551.235	44830.63
551.599	45182.03
551.962	45231.97
552.326	45344.06
552.689	45698.4
553.053	45512.42
553.417	45709.93
553.78	46275.56
554.143	46068.56
554.507	46286.64
554.87	46494.54
555.234	46820.63
555.597	46741.09
555.96	46830.12
556.323	47062.43
556.686	47210
557.05	47576.09
557.413	47491.12
557.776	47667.62
558.139	47832.13
558.502	47977.21
558.865	48070.77
559.228	48360.25
559.59	48460.82
559.953	48535.16
560.316	49045.21
560.679	48935.61
561.041	49298.53
561.404	49439.1
561.767	49561.35
562.129	49496.95
562.492	49895.81
562.854	49872.98
563.217	49954.56
563.579	50168.12
563.941	50299.64
564.304	50512.29
564.666	50800.87
565.028	50860.53
565.39	50912.96
565.753	51184.59
566.115	51279.05
566.477	51433.17
566.839	51469.1
567.201	51719.71
567.563	51618.25
567.925	52010.33
568.287	52071.34
568.648	51943.89
569.01	52233.82
569.372	52493.03
569.734	52347.95
570.095	52593.14
570.457	52771.44
570.819	52743.42
571.18	52773.25
571.542	52992.9
571.903	53067.7
572.265	53159.9
572.626	53146.79
572.987	53246.23
573.349	53410.97
573.71	53507.01
574.071	53552.21
574.432	53585.2
574.794	53801.92
575.155	53794.46
575.516	53819.09
575.877	53935.7
576.238	54036.26
576.599	54121.91
576.96	54096.6
577.32	54136.6
577.681	54214.79
578.042	54302.92
578.403	54393.32
578.763	54459.75
579.124	54399.42
579.485	54523.03
579.845	54609.13
580.206	54522.8
580.566	54564.84
580.927	54730.48
581.287	54704.95
581.648	54667.21
582.008	54744.49
582.368	54689.13
582.728	54822.91
583.089	54727.77
583.449	54757.37
583.809	54856.58
584.169	54866.98
584.529	54798.28
584.889	55032.85
585.249	54821.33
585.609	54755.57
585.969	54959.4
586.329	54796.47
586.688	54917.14
587.048	54984.26
587.408	54833.53
587.768	54798.95
588.127	54821.33
588.487	54798.5
588.846	55096.35
589.206	54888.22
589.565	54858.61
589.925	54984.94
590.284	54907.2
590.643	54985.16
591.003	55050.93
591.362	55103.81
591.721	54984.71
592.08	55085.27
592.44	55154.65
592.799	55052.28
593.158	55105.16
593.517	55073.75
593.876	55164.59
594.235	55091.6
594.593	55101.77
594.952	55190.58
595.311	55068.55
595.67	55180.41
596.029	55254.54
596.387	55285.72
596.746	55326.17
597.104	55181.09
597.463	55246.63
597.822	55413.18
598.18	55227.64
598.538	55316.68
598.897	55476.68
599.255	55191.49
599.613	55623.11
599.972	55409.33
600.33	55482.33
600.688	55403.68
601.046	55511.48
601.404	55621.31
601.762	55599.84
602.12	55627.18
602.478	55667.41
602.836	55712.38
603.194	55609.55
603.552	55641.64
603.91	55513.96
604.268	55689.33
604.625	55611.14
604.983	55771.13
605.341	55682.55
605.698	55843.9
606.056	55849.55
606.413	55782.21
606.771	55898.59
607.128	55934.97
607.485	55842.77
607.843	55845.48
608.2	56020.17
608.557	56150.78
608.914	55966.16
609.272	56160.27
609.629	56152.82
609.986	56254.51
610.343	56026.72
610.7	56255.41
611.057	56306.94
611.414	56246.37
611.771	56337.67
612.127	56378.57
612.484	56345.58
612.841	56415.41
613.198	56355.3
613.554	56371.12
613.911	56536.31
614.267	56510.55
614.624	56452.02
614.98	56607.04
615.337	56666.25
615.693	56657.44
616.05	56573.82
616.406	56703.09
616.762	56664.89
617.118	56616.53
617.475	56634.39
617.831	56781.5
618.187	56732.01
618.543	56744.89
618.899	56890.88
619.255	56908.5
619.611	56862.4
619.967	56967.49
620.323	56937.66
620.678	56914.38
621.034	56845
621.39	56842.29
621.746	56783.99
622.101	57079.57
622.457	56819.01
622.812	56967.49
623.168	56960.25
623.523	56967.49
623.879	57011.33
624.234	56914.15
624.589	57068.27
624.945	57000.48
625.3	56951.89
625.655	56904.89
626.01	56925.9
626.365	56969.29
626.72	56916.19
627.075	56939.92
627.43	56955.51
627.785	56869.86
628.14	56890.65
628.495	56885.45
628.85	56869.18
629.205	56750.32
629.559	56847.71
629.914	56757.1
630.269	56878.45
630.623	56790.54
630.978	56656.76
631.332	56783.08
631.687	56841.16
632.041	56733.59
632.396	56706.02
632.75	56645.91
633.104	56653.82
633.459	56522.75
633.813	56583.09
634.167	56623.54
634.521	56579.47
634.875	56591.68
635.229	56487.5
635.583	56337.45
635.937	56353.94
636.291	56346.26
636.645	56341.96
636.999	56276.88
637.352	56421.51
637.706	56034.85
638.06	56262.42
638.413	56247.96
638.767	56108.07
639.121	56144.68
639.474	56004.12
639.828	55967.06
640.181	55982.65
640.534	56026.72
640.888	55966.38
641.241	55799.61
641.594	55855.88
641.947	55890.23
642.301	55825.37
642.654	55848.64
643.007	55854.07
643.36	55789.66
643.713	55653.4
644.066	55879.15
644.419	55675.09
644.771	55489.56
645.124	55251.82
645.477	55163.69
645.83	54992.17
646.182	54734.1
646.535	54762.57
646.888	54806.19
647.24	54614.55
647.593	54806.86
647.945	54676.47
648.298	54590.82
648.65	54482.13
649.002	54397.84
649.355	54517.61
649.707	54455.91
650.059	54595.34
650.411	54942.45
650.763	54932.06
651.115	55123.69
651.467	55035.56
651.819	55118.95
652.171	54967.99
652.523	54911.95
652.875	54933.87
653.227	54786.3
653.578	54913.75
653.93	54899.29
654.282	54666.98
654.633	54613.65
654.985	54692.29
655.337	54711.95
655.688	54743.14
656.039	54792.18
656.391	54529.13
656.742	54591.95
657.094	54595.8
657.445	54755.79
657.796	54713.31
658.147	54564.61
658.498	54586.08
658.849	54620.65
659.2	54542.01
659.551	54441.45
659.902	54618.17
660.253	54526.42
660.604	54510.15
660.955	54322.36
661.306	54471.05
661.656	54342.47
662.007	54368.91
662.358	54406.87
662.708	54322.36
663.059	54288.69
663.409	54205.98
663.76	54300.21
664.11	54298.63
664.461	54271.51
664.811	54260.21
665.161	54320.32
665.511	54244.39
665.862	54148.35
666.212	54388.57
666.562	54296.59
666.912	54260.89
667.262	54238.29
667.612	54167.56
667.962	54282.36
668.312	54134.79
668.662	54240.78
669.011	54205.07
669.361	54036.26
669.711	54142.02
670.06	54036.71
670.41	53981.35
670.76	53881.92
671.109	54015.25
671.459	54013.21
671.808	53887.11
672.157	54063.83
672.507	53853.44
672.856	53834.69
673.205	53953.55
673.554	54004.85
673.904	53856.38
674.253	53882.82
674.602	53818.42
674.951	53410.97
675.3	53306.56
675.649	53858.41
675.998	53813.44
676.346	53746.55
676.695	53802.14
677.044	53546.78
677.393	53747.68
677.741	53787.46
678.09	53660
678.438	53569.16
678.787	53623.39
679.135	53609.83
679.484	53412.78
679.832	53555.15
680.181	53289.84
680.529	53429.27
680.877	53296.85
681.225	53232.22
681.573	53422.04
681.922	53300.24
682.27	53104.99
682.618	53141.15
682.966	52968.72
683.314	53078.32
683.661	52904.32
684.009	52772.79
684.357	52755.17
684.705	52755.84
685.053	52766.47
685.4	52703.64
685.748	52602.85
686.095	52536.64
686.443	52366.7
686.79	52382.52
687.138	52332.8
687.485	52362.63
687.832	52202.64
688.18	52306.36
688.527	52148.18
688.874	52024.34
689.221	52011.46
689.568	51819.15
689.915	51782.54
690.262	51873.83
690.609	51850.33
690.956	51541.41
691.303	51599.26
691.65	51429.55
691.997	51355.66
692.344	51130.8
692.69	51270.23
693.037	51345.26
693.383	50942.78
693.73	50975.78
694.077	50826.63
694.423	50776.91
694.769	50751.38
695.116	50717.48
695.462	50585.96
695.808	50433.42
696.155	50473.19
696.501	50152.3
696.847	50310.03
697.193	50075.24
697.539	50115.46
697.885	49806.54
698.231	49838.86
698.577	49751.4
698.923	49706.66
699.269	49460.11
699.614	49271.64
699.96	49162.49
700.306	49334.69
700.651	49183.51
700.997	49076.85
701.342	49060.8
701.688	48888.6
702.033	48777.19
702.379	48637.76
702.724	48536.07
703.069	48615.61
703.415	48275.74
703.76	48166.36
704.105	48285.68
704.45	48087.49
704.795	47830.55
705.14	47603.21
705.485	47705.58
705.83	47624.68
706.175	47774.51
706.52	47580.39
706.865	47383.33
707.209	47388.53
707.554	47261.3
707.899	47178.36
708.243	47031.7
708.588	46956.9
708.932	46806.62
709.277	46690.69
709.621	46664.71
709.966	46560.3
710.31	46585.61
710.654	46211.16
710.998	46342
711.342	46422.9
711.687	46275.56
712.031	46057.49
712.375	45716.48
712.719	45937.94
713.063	45685.3
713.407	45858.62
713.75	45769.81
714.094	45543.38
714.438	45394.23
714.782	45539.76
715.125	45174.12
715.469	45263.39
715.812	45206.89
716.156	44887.8
716.499	44844.41
716.843	44817.75
717.186	44679.9
717.53	44891.64
717.873	44885.54
718.216	44797.86
718.559	44625.89
718.902	44460.02
719.246	44504.99
719.589	44333.69
719.932	44167.6
720.275	44192.91
720.617	44043.98
720.96	43937.32
721.303	43947.04
721.646	43954.72
721.989	43695.52
722.331	43822.75
722.674	43737.78
723.016	43696.42
723.359	43531.45
723.701	43589.76
724.044	43312.48
724.386	43124.91
724.729	43333.72
725.071	43221.41
725.413	43177.79
725.755	43015.08
726.097	42877.23
726.439	42717.01
726.782	42700.06
727.124	42906.84
727.465	42589.78
727.807	42628.88
728.149	42467.3
728.491	42445.83
728.833	42545.49
729.175	42356.34
729.516	42375.55
729.858	42137.82
730.199	42173.52
730.541	42090.36
730.882	42121.32
731.224	42194.09
731.565	41854.21
731.906	41999.74
732.248	41939.63
732.589	41756.59
732.93	41531.73
733.271	41584.61
733.612	41560.43
733.953	41731.28
734.294	41361.34
734.635	41352.53
734.976	41392.3
735.317	41147.34
735.658	41094.91
735.999	41051.97
736.339	41132.87
736.68	41144.17
737.021	40897.4
737.361	40738.53
737.702	40973.33
738.042	40674.35
738.383	40826.89
738.723	40760.45
739.063	40679.1
739.404	40561.36
739.744	40546
740.084	40317.75
740.424	40534.92
740.764	40345.1
741.104	40464.64
741.444	40125.89
741.784	40132
742.124	39943.98
742.464	39887.93
742.804	39798.67
743.143	39719.35
743.483	39835.96
743.823	39533.14
744.162	39664.66
744.502	39583.76
744.841	39557.77
745.181	39647.49
745.52	39407.27
745.86	39420.83
746.199	39252.47
746.538	39246.37
746.877	39236.88
747.216	39129.31
747.556	38858.13
747.895	38938.58
748.234	38868.98
748.573	38731.81
748.911	38805.48
749.25	38659.72
749.589	38507.63
749.928	38549.89
750.267	38547.63
750.605	38407.3
750.944	38335.43
751.283	38240.75
751.621	38167.75
751.96	38031.26
752.298	37878.72
752.636	38024.03
752.975	37867.42
753.313	37646.64
753.651	37812.51
753.989	37652.96
754.327	37470.37
754.666	37382.01
755.004	37489.81
755.342	37460.43
755.679	37360.09
756.017	37122.13
756.355	37108.12
756.693	36876.94
757.031	37051.85
757.368	36737.96
757.706	36860.22
758.044	36603.05
758.381	36588.36
758.719	36457.52
759.056	36556.95
759.394	36379.33
759.731	36044.87
760.068	35998.32
760.405	35850.75
760.743	35824.99
761.08	35843.75
761.417	35593.58
761.754	35657.09
762.091	35481.5
762.428	35407.6
762.765	35175.29
763.102	35159.7
763.438	34980.72
763.775	34752.93
764.112	34874.73
764.449	34784.57
764.785	34622.99
765.122	34410.11
765.458	34313.39
765.795	34271.81
766.131	34286.73
766.467	34066.62
766.804	33820.07
767.14	33740.75
767.476	33790.92
767.812	33570.59
768.148	33556.12
768.485	33397.71
768.821	33303.25
769.157	33199.07
769.492	33125.4
769.828	33100.99
770.164	32862.13
770.5	32910.04
770.836	32737.16
771.171	32512.99
771.507	32412.2
771.842	32212.66
772.178	32263.5
772.513	32247.91
772.849	32116.61
773.184	31860.57
773.519	31915.26
773.855	31683.86
774.19	31581.49
774.525	31379.23
774.86	31414.03
775.195	31337.2
775.53	31243.87
775.865	30968.85
776.2	30842.52
776.535	30520.5
776.87	30620.61
777.205	30587.61
777.539	30433.49
777.874	30460.16
778.209	30159.83
778.543	30120.28
778.878	30007.29
779.212	29947.63
779.547	29821.76
779.881	29830.57
780.215	29550.35
780.55	29523.24
780.884	29302.45
781.218	29327.99
781.552	29266.97
781.886	29131.15
782.22	28977.49
782.554	28877.83
782.888	28618.85
783.222	28513.32
783.556	28451.62
783.889	28506.76
784.223	28269.93
784.557	28130.05
784.89	28165.08
785.224	27942.49
785.557	27849.15
785.891	27669.5
786.224	27671.31
786.558	27521.93
786.891	27371.43
787.224	27331.88
787.557	27298.89
787.891	27214.6
788.224	27091.66
788.557	27166.46
788.89	26995.62
789.223	27022.28
789.556	26896.86
789.888	26655.29
790.221	26575.06
790.554	26296.88
790.887	26388.18
791.219	26335.3
791.552	26196.32
791.884	25984.8
792.217	25938.92
792.549	25881.75
792.882	25800.4
793.214	25692.38
793.546	25709.78
793.879	25535.32
794.211	25280.63
794.543	25409.22
794.875	25256.68
795.207	25462.1
795.539	25252.16
795.871	25158.83
796.203	24884.71
796.535	24811.04
796.867	24747.77
797.198	24821.66
797.53	24654.66
797.862	24555.23
798.193	24606.53
798.525	24278.63
798.856	24280.89
799.188	23996.15
799.519	24010.39
799.85	23924.96
800.182	23941.23
800.513	24001.57
800.844	23795.02
801.175	23884.51
801.506	23732.43
801.837	23608.59
802.168	23555.03
802.499	23567.23
802.83	23369.27
803.161	23360.23
803.491	23347.13
803.822	23204.98
804.153	23165.44
804.483	22933.13
804.814	22866.91
805.145	22896.74
805.475	22915.73
805.805	22772
806.136	22745.33
806.466	22794.82
806.796	22676.41
807.126	22507.37
807.457	22482.52
807.787	22335.63
808.117	22332.46
808.447	22234.84
808.777	22311.67
809.107	22128.18
809.436	22057.44
809.766	22096.54
810.096	21953.26
810.426	21916.43
810.755	21941.29
811.085	21871.46
811.414	21812.48
811.744	21594.18
812.073	21581.52
812.403	21581.3
812.732	21377.01
813.061	21430.57
813.39	21332.49
813.719	21237.35
814.049	21357.57
814.378	21272.15
814.707	21189.22
815.036	21131.37
815.365	20975.89
815.693	20847.08
816.022	20853.86
816.351	20846.18
816.68	20736.57
817.008	20682.11
817.337	20625.62
817.665	20517.14
817.994	20596.01
818.322	20584.04
818.651	20382.01
818.979	20284.83
819.307	20464.94
819.636	20286.42
819.964	20178.85
820.292	20263.14
820.62	20297.26
820.948	20154.67
821.276	20182.92
821.604	20152.18
821.932	20139.07
822.259	20236.7
822.587	20099.3
822.915	20158.74
823.243	20290.26
823.57	19972.98
823.898	20083.48
824.225	19951.74
824.553	19956.25
824.88	19942.47
825.207	20059.08
825.535	19916.48
825.862	20039.87
826.189	20028.8
826.516	20111.51
826.843	20209.58
827.17	20082.58
827.497	20164.84
827.824	20107.66
828.151	20174.33
828.478	19873.32
828.805	20031.73
829.131	19983.6
829.458	19991.06
829.785	19832.87
830.111	19871.96
830.438	20126.87
830.764	20017.95
831.09	20042.35
831.417	19874
831.743	19878.06
832.069	19890.72
832.395	19788.8
832.722	19939.53
833.048	19885.52
833.374	19804.85
833.7	19712.42
834.026	19779.76
834.351	19812.98
834.677	19758.29
835.003	19803.72
835.329	19751.51
835.654	19621.35
835.98	19494.35
836.306	19672.87
836.631	19585.87
836.956	19681.01
837.282	19668.35
837.607	19532.09
837.932	19487.79
838.258	19516.49
838.583	19470.62
838.908	19344.97
839.233	19351.75
839.558	19286.22
839.883	19275.59
840.208	19153.34
840.533	19057.52
840.858	19259.55
841.182	19145.43
841.507	19205.54
841.832	19011.87
842.156	19081.7
842.481	19000.8
842.805	18879.22
843.13	18868.15
843.454	18711.09
843.778	18688.27
844.103	18694.37
844.427	18716.97
844.751	18790.64
845.075	18582.05
845.399	18584.09
845.723	18406.47
846.047	18487.82
846.371	18386.35
846.695	18406.47
847.019	18178
847.343	18150.65
847.666	17966.25
847.99	17908.17
848.313	17862.98
848.637	17788.4
848.96	17708.63
849.284	17711.34
849.607	17593.38
849.931	17526.71
850.254	17411.46
850.577	17343.89
850.9	17176.89
851.223	17184.12
851.546	17054.18
851.869	16917.46
852.192	17100.51
852.515	16835.43
852.838	16872.04
853.161	16918.82
853.483	16824.36
853.806	16639.73
854.129	16681.54
854.451	16677.47
854.774	16639.28
855.096	16422.34
855.419	16416.69
855.741	16380.98
856.063	16286.52
856.385	16298.72
856.708	16184.38
857.03	16118.84
857.352	16078.62
857.674	16058.5
857.996	15979.86
858.318	15941.45
858.64	15937.38
858.961	15882.24
859.283	15768.79
859.605	15750.26
859.926	15778.06
860.248	15707.78
860.57	15617.16
860.891	15648.57
861.212	15548.69
861.534	15550.5
861.855	15529.7
862.176	15475.24
862.498	15437.05
862.819	15438.18
863.14	15327.9
863.461	15394.57
863.782	15188.47
864.103	15348.47
864.424	15175.82
864.745	15229.37
865.065	15138.53
865.386	15146.21
865.707	15150.96
866.027	15213.33
866.348	15138.75
866.668	15129.72
866.989	15130.39
867.309	14962.49
867.63	14983.05
867.95	14908.03
868.27	14871.19
868.59	14988.02
868.91	14851.76
869.23	14875.94
869.55	14827.35
869.87	14868.25
870.19	14854.02
870.51	14783.96
870.83	14747.13
871.15	14639.56
871.469	14643.85
871.789	14547.36
872.109	14604.31
872.428	14471.43
872.748	14533.35
873.067	14516.17
873.386	14471.43
873.706	14505.1
874.025	14386.46
874.344	14434.59
874.663	14436.63
874.982	14416.06
875.301	14317.08
875.62	14289.06
875.939	14312.79
876.258	14295.61
876.577	14207.03
876.896	14195.28
877.214	14222.39
877.533	14201.83
877.852	14198.21
878.17	14141.49
878.489	14054.94
878.807	14105.11
879.125	14084.77
879.444	14064.66
879.762	14117.31
880.08	13950.54
880.398	14007.03
880.716	14080.93
881.034	13934.27
881.352	13980.14
881.67	13894.27
881.988	13859.01
882.306	13881.84
882.624	13736.98
882.941	13742.86
883.259	13686.36
883.577	13619.47
883.894	13631.9
884.212	13642.3
884.529	13535.86
884.846	13539.02
885.164	13499.48
885.481	13368.41
885.798	13404.11
886.115	13269.65
886.432	13299.93
886.75	13316.43
887.067	13315.98
887.383	13299.93
887.7	13333.83
888.017	13298.8
888.334	13192.82
888.651	13120.28
888.967	13151.24
889.284	13034.63
889.6	13033.05
889.917	12992.82
890.233	13020.62
890.55	12844.13
890.866	12890.45
891.182	12743.56
891.498	12744.69
891.815	12674.86
892.131	12674.19
892.447	12624.7
892.763	12544.25
893.079	12593.96
893.395	12616.56
893.71	12481.2
894.026	12506.73
894.342	12479.84
894.657	12395.1
894.973	12371.82
895.289	12339.73
895.604	12292.95
895.92	12272.62
896.235	12245.27
896.55	12129.57
896.865	12186.74
897.181	12129.12
897.496	12073.52
897.811	12016.35
898.126	11972.74
898.441	11970.02
898.756	11910.82
899.071	11886.64
899.386	11801.22
899.7	11728.67
900.015	11697.26
900.33	11630.6
900.644	11586.98
900.959	11637.83
901.273	11492.97
901.588	11507.89
901.902	11383.15
902.216	11335.46
902.531	11322.36
902.845	11242.59
903.159	11245.07
903.473	11143.15
903.787	11191.29
904.101	11067.45
904.415	11107.67
904.729	11034
905.042	10968.92
905.356	11019.99
905.67	10900
905.984	10902.26
906.297	10866.55
906.611	10800.79
906.924	10793.56
907.237	10733.67
907.551	10707.01
907.864	10711.07
908.177	10654.58
908.491	10604.18
908.804	10544.3
909.117	10462.95
909.43	10411.87
909.743	10397.64
910.056	10334.81
910.368	10254.59
910.681	10241.48
910.994	10222.73
911.307	10208.49
911.619	10127.81
911.932	10112.45
912.244	9997.65
912.557	10086.01
912.869	9979.34
913.181	9933.69
913.494	9939.12
913.806	9934.15
914.118	9852.11
914.43	9697.32
914.742	9782.29
915.054	9722.4
915.366	9622.29
915.678	9608.05
915.99	9610.76
916.302	9604.21
916.613	9485.34
916.925	9460.03
917.236	9437.66
917.548	9389.08
917.859	9356.76
918.171	9312.92
918.482	9214.62
918.794	9218.01
919.105	9226.37
919.416	9089.87
919.727	9097.56
920.038	9032.47
920.349	8983.89
920.66	8864.57
920.971	8986.83
921.282	8843.33
921.593	8832.03
921.903	8789.54
922.214	8813.5
922.525	8745.93
922.835	8663.9
923.146	8631.35
923.456	8637
923.767	8624.8
924.077	8608.98
924.387	8560.4
924.697	8470.23
925.008	8455.09
925.318	8401.3
925.628	8433.85
925.938	8365.83
926.248	8300.06
926.558	8223.46
926.867	8280.18
927.177	8208.09
927.487	8096.45
927.796	8063.23
928.106	8121.99
928.416	8018.49
928.725	7984.82
929.034	7980.07
929.344	8009.22
929.653	7984.14
929.962	7850.36
930.271	7822.34
930.581	7790.02
930.89	7739.85
931.199	7684.26
931.508	7674.09
931.817	7674.32
932.125	7615.79
932.434	7632.29
932.743	7534.66
933.051	7506.41
933.36	7490.82
933.669	7486.3
933.977	7400.88
934.286	7407.88
934.594	7372.63
934.902	7319.53
935.21	7254.44
935.519	7267.55
935.827	7208.12
936.135	7182.13
936.443	7174.44
936.751	7131.73
937.059	7114.78
937.367	7023.49
937.674	7056.48
937.982	6995.47
938.29	6939.87
938.597	6959.53
938.905	6881.57
939.213	6895.13
939.52	6875.02
939.827	6887.67
940.135	6758.41
940.442	6778.3
940.749	6827.79
941.056	6717.06
941.363	6652.42
941.67	6668.92
941.977	6679.54
942.284	6599.09
942.591	6580.11
942.898	6524.29
943.205	6511.18
943.511	6482.71
943.818	6449.72
944.125	6435.25
944.431	6376.72
944.738	6336.27
945.044	6351.19
945.35	6310.29
945.657	6268.93
945.963	6234.58
946.269	6201.59
946.575	6240.68
946.881	6177.86
947.187	6161.36
947.493	6064.87
947.799	6103.74
948.105	6028.71
948.41	5990.29
948.716	5978.32
949.022	5956.62
949.327	5972.67
949.633	5878.66
949.938	5926.12
950.244	5861.94
950.549	5755.95
950.854	5827.81
951.16	5779.68
951.465	5772.67
951.77	5754.14
952.075	5709.85
952.38	5685.44
952.685	5674.14
952.99	5636.86
953.294	5638.67
953.599	5533.36
953.904	5497.43
954.209	5502.85
954.513	5554.37
954.818	5554.6
955.122	5445.45
955.426	5452.46
955.731	5367.49
956.035	5326.58
956.339	5283.42
956.643	5323.65
956.948	5340.14
957.252	5231.9
957.556	5279.35
957.86	5217.66
958.163	5195.51
958.467	5202.29
958.771	5208.39
959.075	5165.23
959.378	5128.17
959.682	5124.33
959.985	5105.8
960.289	5071
960.592	5028.06
960.896	5058.79
961.199	4997.33
961.502	4932.24
961.805	4994.84
962.108	4887.05
962.411	4881.85
962.714	4892.24
963.017	4845.69
963.32	4884.56
963.623	4791.91
963.926	4790.1
964.228	4744.45
964.531	4810.89
964.833	4785.81
965.136	4735.19
965.438	4756.88
965.741	4700.16
966.043	4682.08
966.345	4639.14
966.648	4615.87
966.95	4658.8
967.252	4602.53
967.554	4525.25
967.856	4614.29
968.158	4509.43
968.46	4503.78
968.761	4502.65
969.063	4489.77
969.365	4435.76
969.666	4440.05
969.968	4366.16
970.269	4383.33
970.571	4340.85
970.872	4346.27
971.174	4287.97
971.475	4271.47
971.776	4358.7
972.077	4277.8
972.378	4222.21
972.679	4231.7
972.98	4193.73
973.281	4188.76
973.582	4153.05
973.883	4163.68
974.183	4086.16
974.484	4064.92
974.785	4068.76
975.085	4088.42
975.386	4137.91
975.686	4046.84
975.986	4037.35
976.287	3998.48
976.587	3981.31
976.887	3958.94
977.187	3962.78
977.487	3934.98
977.787	3928.65
978.087	3875.55
978.387	3890.01
978.687	3880.52
978.987	3854.08
979.286	3804.82
979.586	3816.11
979.885	3755.55
980.185	3806.17
980.484	3744.03
980.784	3758.26
981.083	3731.6
981.382	3688.66
981.682	3676.91
981.981	3719.62
982.28	3658.6
982.579	3652.95
982.878	3638.72
983.177	3619.06
983.475	3631.94
983.774	3578.83
984.073	3564.14
984.372	3530.47
984.67	3531.83
984.969	3504.48
985.267	3530.25
985.566	3466.97
985.864	3432.17
986.162	3516.24
986.461	3426.52
986.759	3422.9
987.057	3372.51
987.355	3425.16
987.653	3352.85
987.951	3347.65
988.249	3337.03
988.547	3356.24
988.844	3268.56
989.142	3310.36
989.44	3235.34
989.737	3231.04
990.035	3212.06
990.332	3220.65
990.63	3210.25
990.927	3220.65
991.224	3215.9
991.521	3177.04
991.819	3109.47
992.116	3126.19
992.413	3113.31
992.71	3115.57
993.006	3087.32
993.303	3068.79
993.6	3060.88
993.897	3008.9
994.193	3037.38
994.49	3029.69
994.787	2995.34
995.083	2950.83
995.379	2946.53
995.676	2952.41
995.972	2929.58
996.268	2920.77
996.565	2899.75
996.861	2872.18
997.157	2875.12
997.453	2843.94
997.749	2816.14
998.044	2818.4
998.34	2806.42
998.636	2785.86
998.932	2760.32
999.227	2755.13
999.523	2756.26
999.818	2754.22
1000.114	2739.98
1000.409	2700.44
1000.704	2690.95
1001	2686.2
1001.295	2643.72
1001.59	2643.49
1001.885	2625.64
1002.18	2636.48
1002.475	2603.04
1002.77	2568.69
1003.065	2571.63
1003.359	2588.12
1003.654	2523.94
1003.949	2539.09
1004.243	2512.65
1004.538	2545.87
1004.832	2485.08
1005.127	2507.22
1005.421	2488.92
1005.715	2444.62
1006.009	2444.17
1006.304	2410.73
1006.598	2408.47
1006.892	2403.5
1007.186	2348.58
1007.48	2374.34
1007.773	2346.1
1008.067	2343.61
1008.361	2297.96
1008.655	2284.86
1008.948	2315.81
1009.242	2290.73
1009.535	2266.1
1009.829	2266.32
1010.122	2256.38
1010.415	2222.48
1010.708	2251.86
1011.001	2229.04
1011.295	2180.68
1011.588	2185.87
1011.881	2187.23
1012.173	2138.64
1012.466	2133.22
1012.759	2137.97
1013.052	2122.15
1013.344	2097.29
1013.637	2072.66
1013.93	2055.03
1014.222	2074.24
1014.514	2069.27
1014.807	2028.59
1015.099	2050.96
1015.391	2020.68
1015.683	1954.47
1015.976	1961.93
1016.268	1988.59
1016.56	1940.46
1016.851	1925.77
1017.143	1932.32
1017.435	1909.05
1017.727	1917.18
1018.018	1878.54
1018.31	1873.34
1018.602	1887.13
1018.893	1849.39
1019.185	1846.45
1019.476	1844.87
1019.767	1813.23
1020.058	1843.51
1020.35	1806.45
1020.641	1809.84
1020.932	1763.06
1021.223	1781.59
1021.514	1729.62
1021.804	1739.11
1022.095	1708.6
1022.386	1725.32
1022.677	1691.88
1022.967	1705.89
1023.258	1672.89
1023.548	1639.22
1023.839	1629.73
1024.129	1617.75
1024.419	1629.05
1024.709	1633.57
1025	1613.91
1025.29	1582.73
1025.58	1621.14
1025.87	1582.73
1026.16	1534.14
1026.449	1565.1
1026.739	1528.26
1027.029	1532.56
1027.319	1517.87
1027.608	1515.16
1027.898	1542.5
1028.187	1462.73
1028.477	1489.62
1028.766	1483.29
1029.055	1479.23
1029.344	1441.94
1029.634	1436.52
1029.923	1431.32
1030.212	1433.58
1030.501	1408.04
1030.79	1413.24
1031.078	1370.75
1031.367	1387.93
1031.656	1389.74
1031.945	1370.3
1032.233	1378.21
1032.522	1353.13
1032.81	1328.04
1033.099	1314.26
1033.387	1307.93
1033.675	1316.07
1033.963	1281.49
1034.251	1291.43
1034.54	1264.77
1034.828	1280.81
1035.116	1233.13
1035.403	1257.31
1035.691	1227.48
1035.979	1246.46
1036.267	1228.16
1036.554	1213.47
1036.842	1221.38
1037.129	1198.78
1037.417	1177.99
1037.704	1192.23
1037.992	1175.73
1038.279	1182.96
1038.566	1139.35
1038.853	1139.35
1039.14	1139.35
