Data from plate_ceramic_FLMS001491_003.txt Node
Date: Tue Feb 07 11:16:13 GMT 2017
User: dcchb
Spectrometer: FLMS00149
Trigger mode: 0
Integration Time (sec): 2.000000E-2
Scans to average: 10
Electric dark correction enabled: true
Nonlinearity correction enabled: false
Boxcar width: 0
XAxis mode: Wavelengths
Number of Pixels in Spectrum: 2048
>>>>>Begin Spectral Data<<<<<
341.393	-5.96
341.776	-5.96
342.16	-5.96
342.543	-62.91
342.927	-76.69
343.31	-55.22
343.693	-76.24
344.077	-49.8
344.46	-64.94
344.843	-45.96
345.226	-36.92
345.61	-25.39
345.993	-22.01
346.376	-10.93
346.759	-2.8
347.142	34.04
347.525	35.39
347.908	60.25
348.291	65.9
348.674	88.95
349.057	105.68
349.44	150.19
349.823	136.86
350.206	156.3
350.588	186.58
350.971	210.53
351.354	229.51
351.737	244.2
352.119	259.57
352.502	279
352.884	297.53
353.267	294.6
353.65	299.79
354.032	306.57
354.414	308.61
354.797	314.71
355.179	338.89
355.562	335.27
355.944	358.1
356.326	340.47
356.709	364.88
357.091	363.97
357.473	349.96
357.855	363.52
358.238	376.4
358.62	369.17
359.002	367.14
359.384	354.71
359.766	358.32
360.148	359
360.53	342.73
360.912	349.96
361.294	362.39
361.676	349.96
362.057	343.86
362.439	361.94
362.821	364.65
363.203	368.72
363.584	369.4
363.966	361.49
364.348	336.63
364.729	370.3
365.111	335.05
365.493	349.74
365.874	333.01
366.256	360.58
366.637	331.88
367.019	351.32
367.4	340.7
367.781	351.54
368.163	344.31
368.544	338.89
368.925	356.29
369.306	342.28
369.688	361.26
370.069	365.56
370.45	364.43
370.831	337.99
371.212	379.34
371.593	366.46
371.974	370.75
372.355	381.37
372.736	391.32
373.117	366.91
373.498	373.46
373.879	370.53
374.26	382.5
374.641	366.69
375.021	355.39
375.402	389.74
375.783	387.25
376.163	409.62
376.544	433.12
376.925	413.92
377.305	383.86
377.686	390.64
378.066	395.61
378.447	409.17
378.827	385.89
379.208	403.29
379.588	420.47
379.968	414.59
380.349	385.67
380.729	403.75
381.109	403.52
381.489	426.8
381.87	441.26
382.25	447.36
382.63	430.86
383.01	436.97
383.39	427.7
383.77	445.55
384.15	443.97
384.53	447.36
384.91	434.25
385.29	446.01
385.67	446.91
386.049	459.56
386.429	474.71
386.809	479.9
387.189	476.06
387.568	488.49
387.948	479.9
388.328	502.27
388.707	488.94
389.087	490.75
389.466	514.48
389.846	517.87
390.225	518.77
390.605	512.44
390.984	519.68
391.363	529.39
391.743	535.72
392.122	533.91
392.501	540.69
392.881	565.1
393.26	536.85
393.639	572.33
394.018	549.96
394.397	560.8
394.776	560.58
395.155	575.27
395.534	578.66
395.913	569.62
396.292	581.14
396.671	600.58
397.05	596.96
397.429	581.59
397.808	610.07
398.186	612.33
398.565	626.79
398.944	641.93
399.323	622.72
399.701	634.25
400.08	641.03
400.458	655.94
400.837	653.46
401.215	661.59
401.594	679.9
401.972	663.85
402.351	693.46
402.729	704.08
403.107	688.26
403.486	698.2
403.864	706.56
404.242	730.74
404.62	744.3
404.999	741.36
405.377	736.85
405.755	758.31
406.133	778.2
406.511	754.7
406.889	786.79
407.267	785.66
407.645	782.72
408.023	815.04
408.401	811.19
408.779	839.44
409.156	845.32
409.534	859.78
409.912	876.73
410.29	872.66
410.667	866.56
411.045	899.1
411.422	906.11
411.8	902.26
412.178	945.65
412.555	954.47
412.933	943.62
413.31	959.44
413.687	977.74
414.065	977.52
414.442	982.71
414.819	992.66
415.197	992.43
415.574	1031.98
415.951	1030.85
416.328	1061.36
416.705	1064.52
417.082	1068.59
417.46	1077.4
417.837	1096.16
418.214	1120.11
418.591	1131.41
418.967	1128.02
419.344	1154.01
419.721	1183.61
420.098	1132.09
420.475	1156.95
420.852	1175.48
421.228	1198.3
421.605	1212.31
421.982	1215.02
422.358	1237.4
422.735	1251.63
423.111	1248.7
423.488	1295.25
423.864	1252.31
424.241	1299.99
424.617	1306.32
424.994	1326.89
425.37	1323.04
425.746	1362.37
426.123	1401.46
426.499	1421.8
426.875	1412.53
427.251	1441.91
427.627	1494.57
428.003	1510.16
428.379	1486.43
428.756	1501.57
429.132	1494.11
429.507	1574.79
429.883	1546.77
430.259	1590.16
430.635	1572.53
431.011	1597.16
431.387	1656.14
431.763	1686.65
432.138	1661.57
432.514	1704.5
432.89	1721.23
433.265	1777.04
433.641	1801.9
434.016	1809.13
434.392	1843.93
434.767	1878.06
435.143	1837.16
435.518	1883.93
435.894	1927.1
436.269	1907.21
436.644	1952.18
437.02	1977.94
437.395	1993.76
437.77	2015.91
438.145	2066.75
438.52	2059.75
438.895	2055
439.271	2096.81
439.646	2143.59
440.021	2141.55
440.395	2167.77
440.77	2135
441.145	2196.69
441.52	2229.24
441.895	2228.78
442.27	2295.22
442.645	2269.69
443.019	2317.37
443.394	2285.05
443.769	2306.52
444.143	2292.06
444.518	2347.88
444.892	2335.22
445.267	2398.27
445.641	2382.45
446.016	2439.63
446.39	2431.26
446.764	2447.31
447.139	2421.32
447.513	2474.65
447.887	2506.29
448.262	2527.08
448.636	2546.74
449.01	2567.53
449.384	2598.72
449.758	2684.59
450.132	2659.05
450.506	2658.38
450.88	2680.3
451.254	2684.59
451.628	2698.83
452.002	2766.17
452.376	2784.02
452.75	2807.07
453.123	2881.87
453.497	2869.9
453.871	2890.91
454.244	2986.05
454.618	3006.39
454.992	3037.8
455.365	3001.64
455.739	3097.69
456.112	3154.41
456.486	3173.17
456.859	3232.6
457.232	3261.52
457.606	3260.17
457.979	3275.76
458.352	3378.58
458.725	3424.01
459.099	3461.29
459.472	3500.16
459.845	3566.15
460.218	3607.05
460.591	3650.44
460.964	3647.05
461.337	3751.23
461.71	3786.03
462.083	3814.73
462.456	3883.88
462.829	3878.23
463.201	3926.59
463.574	3960.26
463.947	4032.8
464.32	4121.84
464.692	4088.17
465.065	4150.54
465.438	4233.02
465.81	4251.78
466.183	4371.1
466.555	4436.41
466.928	4485.45
467.3	4517.08
467.672	4558.44
468.045	4682.96
468.417	4625.1
468.789	4690.64
469.161	4820.58
469.534	4856.28
469.906	4937.64
470.278	5006.34
470.65	5052.66
471.022	5143.73
471.394	5253.34
471.766	5286.56
472.138	5377.4
472.51	5470.96
472.882	5573.55
473.253	5615.81
473.625	5705.53
473.997	5878.18
474.369	5903.04
474.74	6001.57
475.112	6044.05
475.484	6171.96
475.855	6241.11
476.227	6310.26
476.598	6489.24
476.97	6534.21
477.341	6713.19
477.713	6849.68
478.084	6827.53
478.455	7092.61
478.827	7120.41
479.198	7305.94
479.569	7375.77
479.94	7541.64
480.311	7590.22
480.682	7803.33
481.053	7935.07
481.424	8075.86
481.795	8232.92
482.166	8337.78
482.537	8457.77
482.908	8611.67
483.279	8753.58
483.65	8847.14
484.021	9120.13
484.391	9149.96
484.762	9255.27
485.133	9272.21
485.503	9443.51
485.874	9720.56
486.244	9833.78
486.615	10009.37
486.985	10104.96
487.356	10252.98
487.726	10323.49
488.097	10565.51
488.467	10685.74
488.837	10863.36
489.207	10929.12
489.578	11115.33
489.948	11237.36
490.318	11395.32
490.688	11412.04
491.058	11678.25
491.428	11771.36
491.798	11875.99
492.168	12239.14
492.538	12290.21
492.908	12376.99
493.278	12544.44
493.648	12559.36
494.017	12732.46
494.387	12884.77
494.757	13028.73
495.126	13150.08
495.496	13167.25
495.866	13354.14
496.235	13466.23
496.605	13666.67
496.974	13673.45
497.344	13776.5
497.713	13869.16
498.082	13961.81
498.452	14222.14
498.821	14327.45
499.19	14249.26
499.559	14479.08
499.928	14611.28
500.298	14671.17
500.667	14809.92
501.036	14778.96
501.405	14898.28
501.774	15032.06
502.143	15130.14
502.512	15287.2
502.88	15405.84
503.249	15389.34
503.618	15567.87
503.987	15655.55
504.356	15829.78
504.724	15934.86
505.093	15964.92
505.462	16037.69
505.83	16180.28
506.199	16282.88
506.567	16609.2
506.936	16470.44
507.304	16778.23
507.672	16800.15
508.041	16968.96
508.409	16936.19
508.777	17209.86
509.145	17359.91
509.514	17402.17
509.882	17532.34
510.25	17584.54
510.618	17755.61
510.986	17775.72
511.354	17967.13
511.722	18216.39
512.09	18353.1
512.458	18301.13
512.826	18462.71
513.193	18664.96
513.561	18719.88
513.929	18911.06
514.297	19023.37
514.664	19267.43
515.032	19391.95
515.4	19593.98
515.767	19608.67
516.135	19619.74
516.502	19686.4
516.869	19936.34
517.237	20078.03
517.604	20189.67
517.972	20427.63
518.339	20553.05
518.706	20524.57
519.073	20627.85
519.44	20792.36
519.808	21074.84
520.175	21151.68
520.542	21527.94
520.909	21517.54
521.276	21502.63
521.643	21784.88
522.009	21913.46
522.376	22142.61
522.743	22262.15
523.11	22487.01
523.477	22813.1
523.843	22901.91
524.21	23099.87
524.577	23336.02
524.943	23400.88
525.31	23582.12
525.676	23787.09
526.043	23956.35
526.409	23992.05
526.776	24439.5
527.142	24414.19
527.508	24606.05
527.874	24802.2
528.241	24845.82
528.607	25025.47
528.973	25223.88
529.339	25184.11
529.705	25493.71
530.071	25779.12
530.437	25865.45
530.803	26162.39
531.169	26276.74
531.535	26221.82
531.901	26216.85
532.267	26483.29
532.632	26558.76
532.998	26719.21
533.364	27025.19
533.73	27097.96
534.095	27259.76
534.461	27538.63
534.826	27550.15
535.192	27708.57
535.557	27884.61
535.923	27761.67
536.288	28039.4
536.653	28121.66
537.019	28177.25
537.384	28250.25
537.749	28387.42
538.114	28552.16
538.479	28590.58
538.845	28660.63
539.21	28813.17
539.575	28907.4
539.94	29090
540.305	29340.16
540.67	29191.24
541.034	29380.16
541.399	29473.49
541.764	29521.85
542.129	29725.24
542.494	29726.14
542.858	29869.19
543.223	30005.45
543.587	30073.47
543.952	30125.68
544.316	30229.18
544.681	30329.29
545.045	30397.53
545.41	30666
545.774	30688.37
546.138	30778.54
546.503	31041.36
546.867	31007.24
547.231	31276.16
547.595	31167.91
547.959	31422.82
548.324	31369.49
548.688	31535.81
549.052	31646.09
549.416	31676.37
549.779	31863.71
550.143	32056.25
550.507	32159.97
550.871	32156.13
551.235	32308.67
551.599	32645.61
551.962	32614.42
552.326	32680.64
552.689	32721.77
553.053	32847.64
553.417	32980.97
553.78	33373.28
554.143	33253.28
554.507	33460.05
554.87	33531.01
555.234	33815.07
555.597	33712.48
555.96	33970.77
556.323	34014.61
556.686	34208.73
557.05	34469.97
557.413	34574.37
557.776	34625.67
558.139	34898.66
558.502	34935.04
558.865	34990.18
559.228	35334.81
559.59	35445.99
559.953	35631.97
560.316	35803.72
560.679	35777.73
561.041	35973.66
561.404	36386.08
561.767	36564.15
562.129	36283.93
562.492	36898.83
562.854	36811.15
563.217	36852.73
563.579	37104.7
563.941	37347.63
564.304	37382.66
564.666	37823.55
565.028	37762.76
565.39	37869.43
565.753	38214.73
566.115	38299.25
566.477	38317.55
566.839	38499.02
567.201	38675.96
567.563	38823.98
567.925	38981.04
568.287	39090.19
568.648	39216.06
569.01	39403.62
569.372	39534.02
569.734	39642.71
570.095	39750.96
570.457	40002.25
570.819	40068.69
571.18	40108.47
571.542	40357.5
571.903	40500.55
572.265	40699.18
572.626	40756.13
572.987	40661.22
573.349	40821.44
573.71	41134.88
574.071	41097.14
574.432	41229.79
574.794	41338.49
575.155	41478.37
575.516	41288.55
575.877	41643.79
576.238	41616.67
576.599	41814.63
576.96	41936.44
577.32	41911.13
577.681	41974.4
578.042	42164
578.403	42205.36
578.763	42275.19
579.124	42410.1
579.485	42419.14
579.845	42516.99
580.206	42442.64
580.566	42630.66
580.927	42662.07
581.287	42729.41
581.648	42691.22
582.008	42872.69
582.368	42701.39
582.728	42808.96
583.089	42681.96
583.449	42743.2
583.809	42796.3
584.169	42809.19
584.529	42843.08
584.889	43195.84
585.249	42728.06
585.609	42767.83
585.969	43010.99
586.329	42970.99
586.688	42979.35
587.048	43053.92
587.408	43026.58
587.768	43117.43
588.127	43036.07
588.487	43093.47
588.846	43268.38
589.206	43012.8
589.565	43119.69
589.925	43381.37
590.284	43045.56
590.643	43260.47
591.003	43411.2
591.362	43471.54
591.721	43260.25
592.08	43380.24
592.44	43503.4
592.799	43522.39
593.158	43451.65
593.517	43423.63
593.876	43330.75
594.235	43305.22
594.593	43351.09
594.952	43598.77
595.311	43357.42
595.67	43469.73
596.029	43747.24
596.387	43669.28
596.746	43645.32
597.104	43596.28
597.463	43648.49
597.822	43860
598.18	43626.56
598.538	43586.34
598.897	43929.61
599.255	43533.91
599.613	44130.96
599.972	43862.04
600.33	43873.79
600.688	43713.57
601.046	44101.35
601.404	44111.52
601.762	44073.33
602.12	44245.08
602.478	44234.46
602.836	44283.04
603.194	44085.76
603.552	44064.07
603.91	44056.84
604.268	44311.07
604.625	44201.01
604.983	44366.21
605.341	44255.02
605.698	44431.29
606.056	44523.04
606.413	44352.87
606.771	44703.82
607.128	44646.42
607.485	44561
607.843	44541.79
608.2	44721
608.557	44882.58
608.914	44731.17
609.272	44930.71
609.629	44985.4
609.986	45081.67
610.343	44890.94
610.7	45195.11
611.057	45081.44
611.414	45113.76
611.771	45038.51
612.127	45272.62
612.484	45232.17
612.841	45374.32
613.198	45306.29
613.554	45339.06
613.911	45516.01
614.267	45476.46
614.624	45407.53
614.98	45574.76
615.337	45763.01
615.693	45819.5
616.05	45650.69
616.406	46049.55
616.762	45858.6
617.118	45853.17
617.475	45690.69
617.831	45902.21
618.187	46005.49
618.543	46050.68
618.899	46197.34
619.255	46043.9
619.611	45995.77
619.967	46068.31
620.323	46306.95
620.678	46054.3
621.034	45988.54
621.39	46049.55
621.746	45996.22
622.101	46511.01
622.457	46100.17
622.812	46266.72
623.168	46233.28
623.523	46318.92
623.879	46452.48
624.234	46169.1
624.589	46385.36
624.945	46301.97
625.3	46264.91
625.655	46213.16
626.01	46265.82
626.365	46321.18
626.72	46245.03
627.075	46315.08
627.43	46172.94
627.785	46192.82
628.14	46105.82
628.495	46286.83
628.85	46195.08
629.205	45963.23
629.559	46218.59
629.914	45847.3
630.269	46133.84
630.623	45971.36
630.978	45793.74
631.332	46118.02
631.687	46096.78
632.041	45813.4
632.396	45919.16
632.75	45689.11
633.104	45794.87
633.459	45530.92
633.813	45577.93
634.167	45644.59
634.521	45572.28
634.875	45566.17
635.229	45544.48
635.583	45216.13
635.937	45264.26
636.291	45312.17
636.645	45303.58
636.999	45154.66
637.352	45240.76
637.706	45046.19
638.06	45185.39
638.413	45172.06
638.767	44993.31
639.121	44910.82
639.474	44785.4
639.828	44854.56
640.181	44920.77
640.534	44903.14
640.888	44737.72
641.241	44673.99
641.594	44620.21
641.947	44642.58
642.301	44704.95
642.654	44544.73
643.007	44603.26
643.36	44569.59
643.713	44388.8
644.066	44500.44
644.419	44166.21
644.771	44023.84
645.124	43662.04
645.477	43590.86
645.83	43323.97
646.182	43082.62
646.535	42926.24
646.888	43051.66
647.24	42838.34
647.593	43190.64
647.945	43060.48
648.298	42845.57
648.65	42513.37
649.002	42615.74
649.355	42801.95
649.707	42790.88
650.059	42905.23
650.411	43414.37
650.763	43352.45
651.115	43803.28
651.467	43469.05
651.819	43529.84
652.171	43446.68
652.523	43300.25
652.875	43375.05
653.227	43107.48
653.578	43498.66
653.93	43424.31
654.282	43225.22
654.633	43147.48
654.985	43115.84
655.337	43074.04
655.688	43257.76
656.039	43106.58
656.391	42683.31
656.742	42866.58
657.094	43050.76
657.445	43036.98
657.796	42931.44
658.147	42793.37
658.498	42756.98
658.849	42862.52
659.2	42800.6
659.551	42842.86
659.902	42829.98
660.253	42751.11
660.604	42862.74
660.955	42447.39
661.306	42813.7
661.656	42605.8
662.007	42583.43
662.358	42437.67
662.708	42480.83
663.059	42545.46
663.409	42126.27
663.76	42480.83
664.11	42377.78
664.461	42319.03
664.811	42420.27
665.161	42423.88
665.511	42438.35
665.862	42444.22
666.212	42375.07
666.562	42640.38
666.912	42488.74
667.262	42388.86
667.612	42412.36
667.962	42360.16
668.312	42262.31
668.662	42472.24
669.011	42410.33
669.361	42439.7
669.711	42249.65
670.06	42189.09
670.41	42215.53
670.76	42002.88
671.109	42205.36
671.459	42095.53
671.808	42090.56
672.157	42136.89
672.507	41813.51
672.856	41962.65
673.205	41870
673.554	41999.71
673.904	41858.25
674.253	41964.01
674.602	41958.81
674.951	41401.09
675.3	41199.06
675.649	41757.24
675.998	41635.88
676.346	41649.22
676.695	41668.88
677.044	41526.28
677.393	41659.61
677.741	41723.79
678.09	41461.42
678.438	41432.5
678.787	41517.92
679.135	41445.83
679.484	41351.6
679.832	41336.46
680.181	41141.43
680.529	41267.98
680.877	41038.61
681.225	41226.85
681.573	41330.35
681.922	41014.88
682.27	41053.07
682.618	40977.59
682.966	40723.59
683.314	40948.9
683.661	40824.83
684.009	40497.38
684.357	40522.92
684.705	40376.03
685.053	40577.83
685.4	40444.28
685.748	40345.75
686.095	40301.45
686.443	40057.39
686.79	39936.27
687.138	40050.84
687.485	40054.23
687.832	39883.39
688.18	39934.68
688.527	39788.25
688.874	39740.79
689.221	39595.71
689.568	39433.68
689.915	39444.53
690.262	39374.93
690.609	39292.22
690.956	39219.9
691.303	39124.76
691.65	38816.75
691.997	38877.31
692.344	38553.48
692.69	38680.93
693.037	38770.42
693.383	38408.85
693.73	38688.39
694.077	38445.46
694.423	38344.22
694.769	38260.38
695.116	38341.96
695.462	38260.6
695.808	38008.41
696.155	37972.02
696.501	37661.07
696.847	37633.73
697.193	37420.63
697.539	37606.38
697.885	37317.13
698.231	37271.25
698.577	37322.32
698.923	37177.92
699.269	36807.08
699.614	36727.54
699.96	36660.19
700.306	36778.38
700.651	36623.36
700.997	36619.97
701.342	36510.82
701.688	36316.7
702.033	36119.64
702.379	36229.92
702.724	35996.71
703.069	36164.39
703.415	35912.87
703.76	35680.56
704.105	35599.21
704.45	35461.13
704.795	35316.5
705.14	35228.37
705.485	35324.86
705.83	35126.9
706.175	35215.94
706.52	34965.78
706.865	35029.5
707.209	34958.54
707.554	34853.91
707.899	34812.79
708.243	34801.03
708.588	34703.18
708.932	34478.1
709.277	34368.5
709.621	34431.55
709.966	34177.77
710.31	34324.44
710.654	34039.25
710.998	34123.99
711.342	33995.63
711.687	33833.38
712.031	33760.16
712.375	33642.65
712.719	33777.78
713.063	33624.57
713.407	33794.05
713.75	33541.41
714.094	33562.65
714.438	33320.4
714.782	33391.81
715.125	33240.4
715.469	33272.94
715.812	33187.52
716.156	32912.72
716.499	32927.19
716.843	33001.99
717.186	32742.56
717.53	32796.57
717.873	32836.79
718.216	32885.83
718.559	32896.23
718.902	32574.2
719.246	32518.16
719.589	32443.36
719.932	32376.92
720.275	32465.95
720.617	32282
720.96	32193.87
721.303	32127.43
721.646	32206.98
721.989	31963.37
722.331	32008.11
722.674	31926.76
723.016	31858.96
723.359	31872.07
723.701	31883.37
724.044	31528.58
724.386	31505.75
724.729	31650.38
725.071	31470.73
725.413	31435.25
725.755	31460.78
726.097	31306.89
726.439	31097.4
726.782	31150.51
727.124	31226.66
727.465	31114.8
727.807	31042.94
728.149	31094.24
728.491	30997.07
728.833	31093.33
729.175	30908.03
729.516	30900.35
729.858	30760.69
730.199	30762.04
730.541	30683.85
730.882	30720.92
731.224	30808.14
731.565	30442.96
731.906	30546.23
732.248	30553.91
732.589	30396.86
732.93	30189.4
733.271	30362.73
733.612	30299.91
733.953	30327.03
734.294	30127.26
734.635	30069.86
734.976	30098.78
735.317	29913.7
735.658	29866.25
735.999	29936.08
736.339	29941.95
736.68	29984.21
737.021	29799.36
737.361	29746.93
737.702	29845.01
738.042	29644.79
738.383	29611.34
738.723	29642.07
739.063	29614.5
739.404	29480.95
739.744	29541.51
740.084	29468.52
740.424	29480.95
740.764	29436.88
741.104	29442.08
741.444	29160.5
741.784	29124.12
742.124	29225.36
742.464	29090.68
742.804	29061.52
743.143	29052.94
743.483	28964.58
743.823	28835.99
744.162	28769.33
744.502	28926.84
744.841	28717.58
745.181	28746.73
745.52	28753.06
745.86	28636.45
746.199	28485.04
746.538	28509.9
746.877	28586.06
747.216	28526.85
747.556	28368.43
747.895	28368.89
748.234	28155.79
748.573	28137.25
748.911	28194.43
749.25	28157.82
749.589	28073.53
749.928	28069.01
750.267	28082.11
750.605	28023.36
750.944	27943.14
751.283	27746.53
751.621	27968.22
751.96	27706.53
752.298	27589.25
752.636	27612.3
752.975	27503.6
753.313	27395.13
753.651	27547.67
753.989	27347.44
754.327	27375.24
754.666	27161.46
755.004	27149.94
755.342	27152.87
755.679	27149.03
756.017	27000.11
756.355	27036.04
756.693	26896.16
757.031	26879.21
757.368	26763.73
757.706	26716.27
758.044	26675.82
758.381	26760.57
758.719	26609.16
759.056	26461.14
759.394	26556.28
759.731	26318.32
760.068	26204.65
760.405	26085.11
760.743	26121.49
761.08	26027.25
761.417	25963.3
761.754	25957.2
762.091	25897.31
762.428	25714.95
762.765	25572.58
763.102	25651.9
763.438	25463.43
763.775	25253.26
764.112	25314.73
764.449	25292.58
764.785	25123.1
765.122	25133.27
765.458	24928.98
765.795	24870.67
766.131	25004.46
766.467	24765.37
766.804	24621.19
767.14	24605.14
767.476	24524.24
767.812	24552.26
768.148	24503.45
768.485	24268.88
768.821	24258.49
769.157	24129.68
769.492	24056.46
769.828	24023.92
770.164	23815.79
770.5	23839.74
770.836	23733.3
771.171	23543.03
771.507	23624.6
771.842	23386.42
772.178	23356.14
772.513	23383.03
772.849	23239.76
773.184	23133.54
773.519	23084.96
773.855	22870.27
774.19	22808.81
774.525	22838.86
774.86	22891.29
775.195	22769.26
775.53	22650.62
775.865	22481.58
776.2	22336.96
776.535	22250.63
776.87	22229.39
777.205	22107.81
777.539	22084.98
777.874	22098.09
778.209	21882.28
778.543	21777.65
778.878	21630.98
779.212	21770.42
779.547	21627.6
779.881	21539.46
780.215	21350.54
780.55	21459.01
780.884	21270.54
781.218	21210.43
781.552	21275.06
781.886	21091.56
782.22	20952.36
782.554	21017.44
782.888	20687.96
783.222	20698.81
783.556	20607.06
783.889	20593.27
784.223	20367.74
784.557	20436.89
784.89	20414.97
785.224	20198.93
785.557	20149.89
785.891	20105.6
786.224	20088.65
786.558	20047.52
786.891	19852.05
787.224	19887.53
787.557	19733.18
787.891	19663.13
788.224	19630.59
788.557	19651.83
788.89	19570.02
789.223	19505.84
789.556	19410.48
789.888	19354.43
790.221	19299.29
790.554	19127.1
790.887	19052.52
791.219	19043.71
791.552	18903.6
791.884	18899.08
792.217	18813.21
792.549	18775.24
792.882	18674.68
793.214	18647.33
793.546	18637.17
793.879	18462.48
794.211	18325.76
794.543	18421.58
794.875	18415.02
795.207	18383.16
795.539	18207.12
795.871	18335.25
796.203	18161.25
796.535	18029.27
796.867	17909.95
797.198	17903.63
797.53	17859.78
797.862	17708.38
798.193	17731.88
798.525	17601.49
798.856	17683.74
799.188	17490.3
799.519	17410.53
799.85	17337.76
800.182	17376.41
800.513	17523.07
800.844	17251.21
801.175	17343.41
801.506	17149.97
801.837	17190.88
802.168	17167.37
802.499	17063.42
802.83	16939.81
803.161	16921.73
803.491	16801.28
803.822	16872.01
804.153	16772.81
804.483	16611
804.814	16582.98
805.145	16571.23
805.475	16561.29
805.805	16487.84
806.136	16507.28
806.466	16430.44
806.796	16485.13
807.126	16230.22
807.457	16321.29
807.787	16259.83
808.117	16094.18
808.447	16025.26
808.777	16032.71
809.107	15926.5
809.436	16001.53
809.766	15988.87
810.096	15933.73
810.426	15880.4
810.755	15764.92
811.085	15789.78
811.414	15737.13
811.744	15612.16
812.073	15528.32
812.403	15565.16
812.732	15420.98
813.061	15470.47
813.39	15348.44
813.719	15399.06
814.049	15456.23
814.378	15268.21
814.707	15300.08
815.036	15230.93
815.365	15259.18
815.693	15143.02
816.022	15135.11
816.351	14987.54
816.68	14950.71
817.008	15007.43
817.337	14867.77
817.665	14799.07
817.994	14834.1
818.322	14870.71
818.651	14801.79
818.979	14780.54
819.307	14756.36
819.636	14700.77
819.964	14655.35
820.292	14626.88
820.62	14612.64
820.948	14558.4
821.276	14574.67
821.604	14529.02
821.932	14592.98
822.259	14638.85
822.587	14639.53
822.915	14479.31
823.243	14555.92
823.57	14479.53
823.898	14580.1
824.225	14475.24
824.553	14499.87
824.88	14508.69
825.207	14434.11
825.535	14420.1
825.862	14510.72
826.189	14470.72
826.516	14536.03
826.843	14576.48
827.17	14572.64
827.497	14484.28
827.824	14484.05
828.151	14501
828.478	14503.71
828.805	14450.61
829.131	14459.42
829.458	14357.05
829.785	14291.74
830.111	14434.11
830.438	14480.21
830.764	14442.93
831.09	14443.83
831.417	14290.84
831.743	14384.62
832.069	14292.87
832.395	14309.6
832.722	14359.09
833.048	14357.73
833.374	14320.44
833.7	14208.13
834.026	14293.1
834.351	14361.35
834.677	14254.68
835.003	14259.65
835.329	14269.6
835.654	14238.64
835.98	14161.8
836.306	14187.56
836.631	14195.02
836.956	14171.97
837.282	14148.24
837.607	14151.63
837.932	14031.86
838.258	14077.51
838.583	14005.87
838.908	14016.72
839.233	13941.24
839.558	13973.11
839.883	13821.7
840.208	13818.99
840.533	13847.69
840.858	13871.19
841.182	13884.75
841.507	13833.45
841.832	13789.38
842.156	13808.82
842.481	13704.87
842.805	13628.26
843.13	13662.61
843.454	13569.95
843.778	13591.2
844.103	13494.93
844.427	13507.81
844.751	13551.65
845.075	13444.99
845.399	13462.84
845.723	13349.39
846.047	13342.62
846.371	13206.57
846.695	13205.22
847.019	13062.85
847.343	13005.45
847.666	13000.48
847.99	12901.95
848.313	12872.12
848.637	12907.37
848.96	12769.3
849.284	12742.63
849.607	12698.11
849.931	12702.18
850.254	12597.32
850.577	12525.01
850.9	12480.04
851.223	12401.4
851.546	12406.59
851.869	12342.87
852.192	12421.96
852.515	12231.23
852.838	12210.89
853.161	12183.32
853.483	12128.86
853.806	12110.78
854.129	12024.46
854.451	12103.1
854.774	11986.49
855.096	11923.22
855.419	11919.6
855.741	11867.63
856.063	11759.83
856.385	11758.02
856.708	11684.13
857.03	11650.46
857.352	11656.78
857.674	11699.04
857.996	11525.71
858.318	11496.79
858.64	11413.85
858.961	11435.32
859.283	11411.82
859.605	11383.12
859.926	11376.34
860.248	11294.99
860.57	11291.14
860.891	11257.7
861.212	11205.27
861.534	11317.58
861.855	11229.45
862.176	11144.03
862.498	11198.26
862.819	11181.99
863.14	11048.89
863.461	11089.57
863.782	11022.45
864.103	11050.92
864.424	11064.03
864.745	11037.82
865.065	10994.43
865.386	11000.3
865.707	10954.66
866.027	10945.16
866.348	10968.67
866.668	10859.29
866.989	10898.84
867.309	10800.76
867.63	10868.1
867.95	10804.38
868.27	10763.7
868.59	10750.14
868.91	10734.77
869.23	10751.04
869.55	10686.64
869.87	10763.93
870.19	10681.44
870.51	10621.33
870.83	10720.54
871.15	10630.37
871.469	10590.15
871.789	10591.28
872.109	10596.25
872.428	10478.28
872.748	10566.87
873.067	10505.85
873.386	10577.26
873.706	10479.64
874.025	10430.15
874.344	10440.09
874.663	10460.43
874.982	10389.7
875.301	10308.8
875.62	10406.87
875.939	10299.76
876.258	10415.46
876.577	10299.98
876.896	10273.77
877.214	10242.81
877.533	10286.42
877.852	10184.96
878.17	10259.53
878.489	10194.9
878.807	10138.41
879.125	10219.99
879.444	10105.64
879.762	10146.54
880.08	10180.44
880.398	10151.06
880.716	10156.03
881.034	10114.23
881.352	10077.62
881.67	10010.73
881.988	10032.87
882.306	10077.16
882.624	10051.85
882.941	9932.31
883.259	9838.75
883.577	9812.31
883.894	9833.55
884.212	9840.56
884.529	9809.37
884.846	9785.65
885.164	9803.05
885.481	9764.86
885.798	9680.56
886.115	9667.68
886.432	9618.42
886.75	9628.14
887.067	9647.35
887.383	9623.84
887.7	9591.53
888.017	9584.52
888.334	9617.06
888.651	9570.96
888.967	9491.19
889.284	9464.07
889.6	9445.99
889.917	9355.38
890.233	9420.01
890.55	9339.33
890.866	9336.84
891.182	9192.89
891.498	9217.98
891.815	9173.46
892.131	9172.1
892.447	9170.52
892.763	9181.82
893.079	9127.13
893.395	9148.15
893.71	9105.66
894.026	9034.71
894.342	9022.5
894.657	8908.61
894.973	8970.98
895.289	8955.61
895.604	8912.45
895.92	8843.3
896.235	8843.3
896.55	8803.98
896.865	8820.25
897.181	8800.81
897.496	8743.64
897.811	8722.85
898.126	8649.86
898.441	8660.7
898.756	8637.2
899.071	8647.82
899.386	8570.09
899.7	8462.74
900.015	8482.18
900.33	8446.47
900.644	8444.66
900.959	8445.12
901.273	8386.14
901.588	8368.06
901.902	8270.88
902.216	8291.67
902.531	8340.26
902.845	8220.04
903.159	8163.99
903.473	8109.98
903.787	8048.07
904.101	8036.31
904.415	8047.39
904.729	8004.9
905.042	7945.47
905.356	7972.36
905.67	7946.6
905.984	7907.28
906.297	7911.35
906.611	7892.59
906.924	7884.68
907.237	7837.68
907.551	7820.73
907.864	7767.39
908.177	7715.19
908.491	7690.79
908.804	7705.25
909.117	7605.14
909.43	7568.3
909.743	7491.02
910.056	7479.27
910.368	7463
910.681	7463
910.994	7412.38
911.307	7378.48
911.619	7339.61
911.932	7339.84
912.244	7280.63
912.557	7275.2
912.869	7200.4
913.181	7260.29
913.494	7171.48
913.806	7129.67
914.118	7102.1
914.43	7087.64
914.742	7067.53
915.054	6994.08
915.366	6993.86
915.678	6991.14
915.99	7005.61
916.302	6952.05
916.613	6919.06
916.925	6862.33
917.236	6841.32
917.548	6803.35
917.859	6885.16
918.171	6720.64
918.482	6714.31
918.794	6703.24
919.105	6705.95
919.416	6626.41
919.727	6643.58
920.038	6599.97
920.349	6541.44
920.66	6473.19
920.971	6527.65
921.282	6467.32
921.593	6420.31
921.903	6404.72
922.214	6367.88
922.525	6352.74
922.835	6325.85
923.146	6237.27
923.456	6280.2
923.767	6271.39
924.077	6275.91
924.387	6164.72
924.697	6190.26
925.008	6108.23
925.318	6091.51
925.628	6105.29
925.938	6053.32
926.248	5981
926.558	6032.75
926.867	5996.37
927.177	5989.36
927.487	5939.65
927.796	5878.18
928.106	5867.33
928.416	5859.2
928.725	5787.33
929.034	5765.64
929.344	5765.41
929.653	5738.75
929.962	5732.65
930.271	5686.32
930.581	5690.39
930.89	5637.06
931.199	5576.04
931.508	5598.64
931.817	5640.44
932.125	5605.19
932.434	5566.77
932.743	5479.32
933.051	5441.35
933.36	5475.7
933.669	5400.45
933.977	5396.16
934.286	5395.93
934.594	5390.28
934.902	5284.75
935.21	5292.43
935.519	5342.6
935.827	5299.21
936.135	5265.99
936.443	5262.38
936.751	5209.72
937.059	5186.67
937.367	5150.51
937.674	5148.48
937.982	5146.9
938.29	5108.93
938.597	5129.05
938.905	5089.72
939.213	5081.14
939.52	5050.4
939.827	5045.43
940.135	4972.21
940.442	4985.77
940.749	4914.14
941.056	4944.19
941.363	4876.4
941.67	4859.22
941.977	4812.9
942.284	4800.47
942.591	4840.92
942.898	4782.39
943.205	4795.5
943.511	4765.89
943.818	4757.98
944.125	4679.79
944.431	4633.24
944.738	4688.61
945.044	4650.19
945.35	4605.44
945.657	4588.95
945.963	4595.73
946.269	4497.42
946.575	4523.19
946.881	4545.78
947.187	4523.19
947.493	4441.61
947.799	4474.83
948.105	4394.38
948.41	4389.63
948.716	4373.36
949.022	4359.12
949.327	4367.94
949.633	4372.91
949.938	4354.6
950.244	4322.06
950.549	4298.11
950.854	4294.49
951.16	4294.72
951.465	4217.88
951.77	4224.66
952.075	4227.83
952.38	4207.04
952.685	4186.7
952.99	4129.98
953.294	4130.65
953.599	4103.08
953.904	4083.88
954.209	4032.58
954.513	4068.51
954.818	4050.43
955.122	4022.41
955.426	3985.12
955.731	4001.62
956.035	3954.61
956.339	3972.24
956.643	3943.77
956.948	3914.16
957.252	3916.87
957.556	3893.6
957.86	3882.53
958.163	3858.57
958.467	3840.04
958.771	3802.3
959.075	3816.76
959.378	3772.02
959.682	3758.69
959.985	3750.33
960.289	3818.57
960.592	3734.51
960.896	3714.17
961.199	3686.82
961.502	3643.21
961.805	3663.32
962.108	3638.01
962.411	3594.85
962.714	3555.08
963.017	3582.42
963.32	3606.6
963.623	3547.17
963.926	3583.78
964.228	3535.19
964.531	3505.81
964.833	3500.39
965.136	3486.6
965.438	3526.38
965.741	3454.06
966.043	3470.33
966.345	3450.9
966.648	3415.87
966.95	3443.89
967.252	3364.57
967.554	3327.74
967.856	3356.44
968.158	3350.79
968.46	3331.58
968.761	3305.59
969.063	3280.28
969.365	3300.85
969.666	3280.73
969.968	3280.73
970.269	3230.34
970.571	3250.45
970.872	3177.23
971.174	3177.01
971.475	3138.14
971.776	3142.66
972.077	3147.18
972.378	3143.11
972.679	3141.98
972.98	3113.05
973.281	3108.76
973.582	3134.07
973.883	3101.3
974.183	3043
974.484	3060.4
974.785	3012.04
975.085	3007.07
975.386	2993.06
975.686	2995.99
975.986	2993.28
976.287	2964.36
976.587	2929.1
976.887	2910.57
977.187	2958.03
977.487	2898.37
977.787	2916.45
978.087	2927.52
978.387	2895.43
978.687	2855.43
978.987	2830.12
979.286	2846.62
979.586	2796.9
979.885	2793.06
980.185	2756.23
980.484	2776.34
980.784	2827.64
981.083	2749.67
981.382	2747.19
981.682	2725.04
981.981	2769.56
982.28	2731.82
982.579	2676.68
982.878	2675.33
983.177	2668.77
983.475	2690.92
983.774	2664.25
984.073	2641.2
984.372	2606.4
984.67	2642.78
984.969	2624.25
985.267	2615.44
985.566	2559.62
985.864	2577.93
986.162	2578.6
986.461	2534.09
986.759	2517.82
987.057	2513.97
987.355	2527.08
987.653	2515.33
987.951	2509.45
988.249	2509.68
988.547	2483.47
988.844	2472.17
989.142	2491.6
989.44	2444.37
989.737	2435.33
990.035	2401.43
990.332	2421.32
990.63	2382.23
990.927	2409.8
991.224	2367.99
991.521	2359.85
991.819	2354.66
992.116	2385.84
992.413	2357.59
992.71	2306.52
993.006	2327.76
993.303	2322.57
993.6	2308.1
993.897	2282.12
994.193	2271.27
994.49	2254.77
994.787	2235.56
995.083	2235.56
995.379	2207.54
995.676	2200.54
995.972	2230.14
996.268	2151.5
996.565	2177.26
996.861	2160.76
997.157	2155.56
997.453	2176.36
997.749	2155.34
998.044	2159.63
998.34	2119.18
998.636	2097.26
998.932	2085.74
999.227	2088.67
999.523	2073.31
999.818	2066.98
1000.114	2053.87
1000.409	2035.12
1000.704	2013.2
1001	2029.24
1001.295	1969.58
1001.59	2001.67
1001.885	1998.73
1002.18	1980.2
1002.475	1982.24
1002.77	1961.45
1003.065	1946.3
1003.359	1930.49
1003.654	1938.85
1003.949	1917.6
1004.243	1909.47
1004.538	1923.03
1004.832	1890.71
1005.127	1868.11
1005.421	1880.32
1005.715	1845.06
1006.009	1826.31
1006.304	1867.66
1006.598	1842.58
1006.892	1823.82
1007.186	1816.36
1007.48	1781.79
1007.773	1762.58
1008.067	1784.05
1008.361	1770.04
1008.655	1737.95
1008.948	1766.2
1009.242	1768.68
1009.535	1750.38
1009.829	1706.76
1010.122	1703.37
1010.415	1693.2
1010.708	1692.75
1011.001	1686.2
1011.295	1676.03
1011.588	1657.95
1011.881	1632.64
1012.173	1650.04
1012.466	1648.46
1012.759	1626.54
1013.052	1623.6
1013.344	1607.78
1013.637	1582.47
1013.93	1569.82
1014.222	1579.31
1014.514	1558.52
1014.807	1568.69
1015.099	1544.96
1015.391	1547.22
1015.683	1541.12
1015.976	1482.14
1016.268	1519.65
1016.56	1492.08
1016.851	1478.97
1017.143	1474.68
1017.435	1467.9
1017.727	1478.29
1018.018	1462.48
1018.31	1445.53
1018.602	1458.18
1018.893	1424.96
1019.185	1418.41
1019.476	1417.96
1019.767	1407.34
1020.058	1400.78
1020.35	1381.12
1020.641	1379.77
1020.932	1355.36
1021.223	1344.29
1021.514	1353.55
1021.804	1330.05
1022.095	1330.05
1022.386	1336.38
1022.677	1328.69
1022.967	1324.85
1023.258	1297.96
1023.548	1270.16
1023.839	1282.37
1024.129	1284.63
1024.419	1272.65
1024.709	1271.52
1025	1248.47
1025.29	1236.94
1025.58	1249.15
1025.87	1212.54
1026.16	1218.87
1026.449	1219.77
1026.739	1222.71
1027.029	1189.94
1027.319	1199.21
1027.608	1179.32
1027.898	1153.78
1028.187	1168.25
1028.477	1146.33
1028.766	1160.11
1029.055	1127.57
1029.344	1144.97
1029.634	1124.41
1029.923	1140.45
1030.212	1103.62
1030.501	1112.43
1030.79	1096.61
1031.078	1086.89
1031.367	1109.04
1031.656	1078.76
1031.945	1101.58
1032.233	1089.38
1032.522	1052.99
1032.81	1048.02
1033.099	1045.99
1033.387	1027.68
1033.675	1029.72
1033.963	1045.76
1034.251	1016.39
1034.54	1002.15
1034.828	1004.18
1035.116	1014.58
1035.403	990.17
1035.691	981.13
1035.979	977.97
1036.267	947.91
1036.554	968.7
1036.842	959.66
1037.129	940
1037.417	953.11
1037.704	938.42
1037.992	930.74
1038.279	933
1038.566	919.44
1038.853	919.44
1039.14	919.44
