Data from plate_ceramic_FLMS001491_094.txt Node
Date: Tue Feb 07 11:17:34 GMT 2017
User: dcchb
Spectrometer: FLMS00149
Trigger mode: 0
Integration Time (sec): 2.000000E-2
Scans to average: 10
Electric dark correction enabled: true
Nonlinearity correction enabled: false
Boxcar width: 0
XAxis mode: Wavelengths
Number of Pixels in Spectrum: 2048
>>>>>Begin Spectral Data<<<<<
341.393	-21.85
341.776	-21.85
342.16	-21.85
342.543	-54.17
342.927	-53.94
343.31	-70.66
343.693	-62.07
344.077	-60.04
344.46	-74.73
344.843	-51
345.226	-43.54
345.61	-26.14
345.993	-8.74
346.376	-7.84
346.759	12.5
347.142	16.34
347.525	34.42
347.908	66.96
348.291	74.42
348.674	92.72
349.057	107.41
349.44	123.68
349.823	151.25
350.206	177.24
350.588	207.75
350.971	219.73
351.354	242.55
351.737	268.09
352.119	268.99
352.502	287.97
352.884	313.96
353.267	308.31
353.65	317.8
354.032	316.45
354.414	327.29
354.797	341.53
355.179	336.33
355.562	330.91
355.944	356.67
356.326	349.89
356.709	344.92
357.091	359.16
357.473	370.23
357.855	366.84
358.238	384.69
358.62	349.44
359.002	377.24
359.384	372.04
359.766	383.34
360.148	364.81
360.53	377.69
360.912	384.24
361.294	387.86
361.676	355.99
362.057	350.57
362.439	362.09
362.821	363.22
363.203	371.59
363.584	360.51
363.966	360.51
364.348	376.56
364.729	354.19
365.111	372.26
365.493	356.22
365.874	384.47
366.256	378.37
366.637	355.77
367.019	361.87
367.4	370.91
367.781	338.82
368.163	378.59
368.544	372.94
368.925	349.44
369.306	366.84
369.688	346.5
370.069	375.88
370.45	358.93
370.831	368.2
371.212	351.02
371.593	351.7
371.974	370.23
372.355	363.22
372.736	386.73
373.117	355.54
373.498	382.21
373.879	389.89
374.26	351.93
374.641	372.49
375.021	384.47
375.402	404.81
375.783	377.46
376.163	441.19
376.544	417.01
376.925	410.91
377.305	414.07
377.686	412.49
378.066	427.18
378.447	430.79
378.827	409.1
379.208	412.94
379.588	419.27
379.968	438.25
380.349	396.9
380.729	433.73
381.109	436.22
381.489	423.56
381.87	418.36
382.25	431.02
382.63	455.88
383.01	438.03
383.39	449.55
383.77	450
384.15	444.13
384.53	448.42
384.91	477.12
385.29	456.78
385.67	449.55
386.049	444.58
386.429	488.87
386.809	463.11
387.189	479.61
387.568	505.37
387.948	492.26
388.328	513.05
388.707	502.66
389.087	501.07
389.466	509.44
389.846	522.32
390.225	489.32
390.605	506.72
390.984	529.77
391.363	549.66
391.743	526.84
392.122	548.08
392.501	560.51
392.881	549.21
393.26	555.31
393.639	552.15
394.018	580.85
394.397	584.69
394.776	585.14
395.155	579.26
395.534	600.73
395.913	592.6
396.292	597.12
396.671	613.61
397.05	609.09
397.429	605.7
397.808	624.46
398.186	623.33
398.565	643.44
398.944	641.64
399.323	653.61
399.701	634.18
400.08	659.49
400.458	646.83
400.837	664.69
401.215	684.35
401.594	666.95
401.972	684.8
402.351	679.6
402.729	672.37
403.107	706.72
403.486	707.85
403.864	716.44
404.242	741.29
404.62	729.09
404.999	749.43
405.377	740.84
405.755	744.23
406.133	769.99
406.511	763.89
406.889	772.48
407.267	786.26
407.645	816.09
408.023	812.25
408.401	825.81
408.779	828.3
409.156	824
409.534	847.28
409.912	861.52
410.29	892.25
410.667	887.28
411.045	874.4
411.422	882.76
411.8	889.99
412.178	930.22
412.555	933.83
412.933	931.8
413.31	963.89
413.687	977.45
414.065	973.6
414.442	1001.17
414.819	1028.52
415.197	1003.43
415.574	1008.63
415.951	1035.98
416.328	1025.81
416.705	1071.68
417.082	1058.35
417.46	1062.87
417.837	1114.17
418.214	1126.37
418.591	1108.06
418.967	1111.45
419.344	1118.23
419.721	1143.77
420.098	1141.96
420.475	1187.38
420.852	1177.21
421.228	1201.39
421.605	1208.63
421.982	1209.53
422.358	1242.07
422.735	1236.65
423.111	1255.4
423.488	1267.61
423.864	1300.83
424.241	1308.51
424.617	1287.72
424.994	1307.15
425.37	1327.04
425.746	1326.36
426.123	1340.83
426.499	1382.18
426.875	1395.51
427.251	1409.98
427.627	1427.15
428.003	1480.48
428.379	1463.53
428.756	1497.21
429.132	1499.47
429.507	1530.88
429.883	1526.58
430.259	1565.68
430.635	1585.79
431.011	1593.48
431.387	1628.5
431.763	1681.38
432.138	1660.37
432.514	1674.6
432.89	1650.2
433.265	1730.87
433.641	1776.07
434.016	1761.38
434.392	1801.61
434.767	1829.4
435.143	1809.06
435.518	1844.32
435.894	1844.09
436.269	1901.72
436.644	1900.59
437.02	1929.29
437.395	1958.66
437.77	2020.13
438.145	1988.49
438.52	2026.68
438.895	2013.58
439.271	2073.01
439.646	2088.38
440.021	2093.12
440.395	2118.66
440.77	2101.48
441.145	2116.4
441.52	2170.18
441.895	2174.93
442.27	2215.38
442.645	2185.78
443.019	2226.68
443.394	2237.75
443.769	2252.21
444.143	2244.98
444.518	2312.55
444.892	2270.75
445.267	2298.32
445.641	2355.94
446.016	2371.08
446.39	2372.66
446.764	2364.3
447.139	2379.22
447.513	2392.55
447.887	2416.73
448.262	2468.48
448.636	2481.14
449.01	2511.42
449.384	2517.97
449.758	2505.99
450.132	2555.03
450.506	2538.99
450.88	2620.57
451.254	2616.05
451.628	2635.48
452.002	2684.07
452.376	2716.38
452.75	2715.03
453.123	2748.25
453.497	2768.13
453.871	2831.41
454.244	2835.48
454.618	2903.95
454.992	2908.02
455.365	2957.06
455.739	3007.68
456.112	3051.52
456.486	3038.63
456.859	3073.21
457.232	3140.78
457.606	3141.68
457.979	3186.2
458.352	3283.6
458.725	3276.82
459.099	3344.16
459.472	3422.13
459.845	3434.1
460.218	3455.8
460.591	3444.27
460.964	3513.42
461.337	3580.32
461.71	3615.34
462.083	3681.78
462.456	3690.6
462.829	3719.29
463.201	3803.81
463.574	3766.07
463.947	3834.55
464.32	3955.22
464.692	4014.88
465.065	3997.93
465.438	4081.32
465.81	4142.11
466.183	4191.82
466.555	4287.19
466.928	4251.03
467.3	4289.22
467.672	4325.38
468.045	4448.09
468.417	4522.21
468.789	4533.06
469.161	4583.9
469.534	4619.16
469.906	4757.46
470.278	4793.16
470.65	4913.16
471.022	4969.21
471.394	5010.79
471.766	5102.54
472.138	5146.83
472.51	5250.33
472.882	5302.53
473.253	5418.69
473.625	5432.02
473.997	5622.52
474.369	5611.45
474.74	5641.5
475.112	5765.12
475.484	5901.84
475.855	5997.65
476.227	6099.57
476.598	6223.18
476.97	6290.53
477.341	6452.78
477.713	6520.58
478.084	6563.97
478.455	6766.22
478.827	6763.28
479.198	7002.37
479.569	7045.76
479.94	7214.12
480.311	7315.81
480.682	7455.02
481.053	7601.23
481.424	7685.74
481.795	7768.68
482.166	7963.03
482.537	8051.84
482.908	8229.46
483.279	8306.29
483.65	8469
484.021	8612.95
484.391	8713.29
484.762	8704.25
485.133	8853.85
485.503	9004.13
485.874	9212.26
486.244	9310.33
486.615	9497.67
486.985	9619.93
487.356	9774.95
487.726	9822.64
488.097	10026.93
488.467	10062.63
488.837	10285.9
489.207	10459
489.578	10551.66
489.948	10698.77
490.318	10818.77
490.688	10850.18
491.058	11107.12
491.428	11196.61
491.798	11328.81
492.168	11555.92
492.538	11578.52
492.908	11768.8
493.278	11949.36
493.648	11888.57
494.017	12161.78
494.387	12325.4
494.757	12377.37
495.126	12510.25
495.496	12483.58
495.866	12693.75
496.235	12839.96
496.605	12856.68
496.974	12992.05
497.344	13121.76
497.713	13107.75
498.082	13328.99
498.452	13445.82
498.821	13445.59
499.19	13573.5
499.559	13718.81
499.928	13776.21
500.298	13948.86
500.667	14086.71
501.036	13954.96
501.405	14169.64
501.774	14212.35
502.143	14381.16
502.512	14418
502.88	14629.74
503.249	14601.49
503.618	14708.16
503.987	14840.58
504.356	14962.84
504.724	14970.07
505.093	15095.04
505.462	15134.14
505.83	15375.49
506.199	15516.5
506.567	15707
506.936	15582.03
507.304	15862.93
507.672	15860.67
508.041	16037.62
508.409	16075.13
508.777	16284.61
509.145	16466.08
509.514	16439.41
509.882	16594.66
510.25	16606.87
510.618	16829.91
510.986	16815.45
511.354	17067.19
511.722	17177.7
512.09	17323
512.458	17354.64
512.826	17469.89
513.193	17669.89
513.561	17746.72
513.929	17930.22
514.297	18114.85
514.664	18216.09
515.032	18163.43
515.4	18505.8
515.767	18556.64
516.135	18564.78
516.502	18623.76
516.869	18934.49
517.237	19029.4
517.604	19017.2
517.972	19291.09
518.339	19463.97
518.706	19633.23
519.073	19538.99
519.44	19806.56
519.808	19972.43
520.175	20048.13
520.542	20285.86
520.909	20404.51
521.276	20494
521.643	20751.62
522.009	20869.13
522.376	20962.23
522.743	21129.01
523.11	21366.97
523.477	21599.28
523.843	21640.18
524.21	22037.68
524.577	22039.49
524.943	22152.03
525.31	22317
525.676	22508.41
526.043	22664.11
526.409	22810.77
526.776	23105.68
527.142	23237.43
527.508	23307.71
527.874	23452.11
528.241	23599.45
528.607	23722.84
528.973	23887.58
529.339	23978.2
529.705	24154.46
530.071	24447.11
530.437	24429.94
530.803	24786.54
531.169	24911.05
531.535	24803.49
531.901	24955.12
532.267	25194.21
532.632	25342
532.998	25288.9
533.364	25676.91
533.73	25611.6
534.095	25862.67
534.461	26073.51
534.826	26191.92
535.192	26285.48
535.557	26440.96
535.923	26453.16
536.288	26583.55
536.653	26765.47
537.019	26609.54
537.384	26875.97
537.749	27027.83
538.114	27085.23
538.479	27037.55
538.845	27217.43
539.21	27200.26
539.575	27562.28
539.94	27574.26
540.305	27730.41
540.67	27728.16
541.034	27817.19
541.399	28024.87
541.764	28011.09
542.129	28226.67
542.494	28271.87
542.858	28338.53
543.223	28511.41
543.587	28626.44
543.952	28702.37
544.316	28808.8
544.681	28801.35
545.045	29049.93
545.41	29156.59
545.774	29196.59
546.138	29198.85
546.503	29412.18
546.867	29417.15
547.231	29816.24
547.595	29692.17
547.959	29816.24
548.324	29803.35
548.688	29908.66
549.052	30180.97
549.416	30152.05
549.779	30271.59
550.143	30385.94
550.507	30632.94
550.871	30730.11
551.235	30568.98
551.599	30993.61
551.962	31032.25
552.326	31090.55
552.689	31385.23
553.053	31223.88
553.417	31347.49
553.78	31775.51
554.143	31556.3
554.507	31918.33
554.87	31987.7
555.234	32146.8
555.597	32105.89
555.96	32419.33
556.323	32521.25
556.686	32587.91
557.05	32800.79
557.413	32862.48
557.776	32982.93
558.139	33346.99
558.502	33433.09
558.865	33402.58
559.228	33758.51
559.59	33776.58
559.953	33824.27
560.316	34171.6
560.679	34116.24
561.041	34483.91
561.404	34693.85
561.767	34853.84
562.129	34744.47
562.492	35153.72
562.854	35122.31
563.217	35125.02
563.579	35375.19
563.941	35689.75
564.304	35873.48
564.666	36128.84
565.028	36139.91
565.39	36242.06
565.753	36415.16
566.115	36715.49
566.477	36784.19
566.839	36828.03
567.201	36929.27
567.563	37052.43
567.925	37376.04
568.287	37317.28
568.648	37401.12
569.01	37626.2
569.372	37936.7
569.734	37757.5
570.095	38066.41
570.457	38235
570.819	38153.42
571.18	38347.76
571.542	38565.16
571.903	38649.9
572.265	38727.41
572.626	38883.57
572.987	39060.96
573.349	39243.78
573.71	39160.62
574.071	39336.44
574.432	39547.05
574.794	39722.42
575.155	39577.56
575.516	39655.53
575.877	39904.56
576.238	40011.22
576.599	40105.23
576.96	40199.69
577.32	40239.92
577.681	40305.9
578.042	40451.21
578.403	40407.82
578.763	40420.02
579.124	40610.98
579.485	40763.74
579.845	40706.8
580.206	40796.06
580.566	40692.33
580.927	40756.97
581.287	40985.66
581.648	40857.08
582.008	41004.19
582.368	40911.76
582.728	41050.06
583.089	40942.27
583.449	41009.84
583.809	41083.51
584.169	41208.48
584.529	40970.07
584.889	41407.12
585.249	41072.66
585.609	41080.35
585.969	41300.23
586.329	41240.12
586.688	41317.85
587.048	41300.68
587.408	41257.29
587.768	41174.58
588.127	41283.5
588.487	41215.48
588.846	41666.55
589.206	41287.57
589.565	41329.61
589.925	41337.97
590.284	41361.24
590.643	41503.39
591.003	41662.03
591.362	41641.69
591.721	41455.03
592.08	41577.06
592.44	41702.7
592.799	41660.22
593.158	41688.47
593.517	41743.38
593.876	41681.69
594.235	41694.34
594.593	41740.44
594.952	41856.37
595.311	41634.91
595.67	41746.09
596.029	41876.26
596.387	41816.37
596.746	41904.05
597.104	41785.86
597.463	41879.2
597.822	41931.85
598.18	41850.04
598.538	41866.09
598.897	42234.21
599.255	41929.82
599.613	42504.94
599.972	42194.89
600.33	42298.85
600.688	42078.29
601.046	42254.33
601.404	42364.83
601.762	42377.71
602.12	42468.78
602.478	42584.71
602.836	42496.58
603.194	42353.76
603.552	42557.6
603.91	42388.79
604.268	42657.48
604.625	42418.84
604.983	42772.51
605.341	42530.25
605.698	42730.7
606.056	42730.47
606.413	42751.71
606.771	42900.86
607.128	42926.85
607.485	42875.78
607.843	42888.66
608.2	43047.53
608.557	43154.42
608.914	43003.23
609.272	43104.7
609.629	43246.84
609.986	43377.91
610.343	43177.24
610.7	43561.19
611.057	43409.55
611.414	43308.99
611.771	43473.73
612.127	43680.96
612.484	43599.6
612.841	43772.25
613.198	43515.76
613.554	43656.55
613.911	43766.38
614.267	43700.39
614.624	43745.36
614.98	44005.69
615.337	44011.57
615.693	43993.26
616.05	43895.19
616.406	44215.41
616.762	43973.6
617.118	44015.64
617.475	44007.05
617.831	44123.88
618.187	44050.44
618.543	44141.73
618.899	44373.82
619.255	44389.86
619.611	44214.05
619.967	44444.1
620.323	44517.09
620.678	44405.23
621.034	44293.6
621.39	44374.27
621.746	44322.75
622.101	44767.26
622.457	44339.24
622.812	44448.62
623.168	44712.57
623.523	44523.19
623.879	44656.98
624.234	44362.52
624.589	44548.5
624.945	44492.91
625.3	44493.14
625.655	44543.08
626.01	44557.77
626.365	44535.17
626.72	44541.05
627.075	44704.21
627.43	44532.91
627.785	44435.51
628.14	44496.53
628.495	44489.07
628.85	44463.31
629.205	44307.83
629.559	44522.29
629.914	44287.49
630.269	44312.13
630.623	44227.61
630.978	44175.41
631.332	44302.41
631.687	44358.45
632.041	44062.19
632.396	44300.15
632.75	44054.73
633.104	44102.64
633.459	43884.34
633.813	43819.03
634.167	43922.76
634.521	43852.93
634.875	43921.4
635.229	43785.36
635.583	43581.75
635.937	43713.72
636.291	43549.43
636.645	43517.12
636.999	43489.55
637.352	43578.59
637.706	43310.34
638.06	43532.49
638.413	43376.78
638.767	43267.86
639.121	43283.45
639.474	42958.04
639.828	43180.4
640.181	43198.71
640.534	43260.63
640.888	43075.1
641.241	42793.75
641.594	42913.74
641.947	42937.02
642.301	42831.94
642.654	43015.44
643.007	42860.64
643.36	42887.76
643.713	42706.74
644.066	42906.74
644.419	42608.44
644.771	42264.5
645.124	42069.02
645.477	41836.26
645.83	41712.65
646.182	41383.84
646.535	41431.52
646.888	41341.58
647.24	41227.91
647.593	41560.56
647.945	41409.6
648.298	41232.88
648.65	41288.25
649.002	40965.55
649.355	41254.58
649.707	41135.71
650.059	41195.82
650.411	41803.94
650.763	41701.8
651.115	42088
651.467	41922.36
651.819	41931.85
652.171	41752.42
652.523	41664.96
652.875	41698.41
653.227	41538.87
653.578	41671.52
653.93	41587.45
654.282	41454.8
654.633	41452.31
654.985	41555.36
655.337	41524.4
655.688	41404.63
656.039	41676.94
656.391	41176.39
656.742	41278.53
657.094	41180.68
657.445	41387.91
657.796	41303.39
658.147	41253.22
658.498	41180.46
658.849	41213.68
659.2	41237.63
659.551	41085.77
659.902	41159.21
660.253	41079.22
660.604	41095.94
660.955	40982.04
661.306	41141.14
661.656	40971.2
662.007	40864.31
662.358	40854.36
662.708	40950.18
663.059	40952.44
663.409	40615.5
663.76	40905.44
664.11	40739.56
664.461	40897.75
664.811	40867.47
665.161	40863.85
665.511	40751.32
665.862	40657.98
666.212	40854.36
666.562	40988.82
666.912	40818.88
667.262	40767.36
667.612	40701.37
667.962	40751.99
668.312	40569.85
668.662	40892.33
669.011	40873.35
669.361	40707.93
669.711	40633.58
670.06	40616.86
670.41	40425.22
670.76	40431.78
671.109	40403.98
671.459	40367.14
671.808	40437.65
672.157	40523.75
672.507	40377.99
672.856	40271.33
673.205	40300.71
673.554	40325.34
673.904	40133.03
674.253	40379.12
674.602	40236.53
674.951	39655.53
675.3	39498.47
675.649	40066.59
675.998	39938.23
676.346	40115.63
676.695	40186.58
677.044	39848.06
677.393	40038.79
677.741	40121.5
678.09	39973.71
678.438	39993.6
678.787	39968.96
679.135	40016.19
679.484	39749.31
679.832	39823.88
680.181	39723.55
680.529	39816.2
680.877	39584.57
681.225	39495.08
681.573	39741.17
681.922	39458.47
682.27	39443.55
682.618	39281.3
682.966	39379.83
683.314	39319.49
683.661	39135.31
684.009	39013.73
684.357	38925.15
684.705	38925.15
685.053	39010.34
685.4	38982.77
685.748	38776.23
686.095	38791.59
686.443	38482.22
686.79	38485.16
687.138	38481.77
687.485	38539.85
687.832	38394.99
688.18	38513.18
688.527	38316.35
688.874	38235.9
689.221	38043.14
689.568	37951.39
689.915	37820.32
690.262	37824.16
690.609	37872.3
690.956	37736.48
691.303	37658.06
691.65	37557.28
691.997	37416.49
692.344	37305.98
692.69	37345.08
693.037	37344.17
693.383	36910.29
693.73	37095.82
694.077	36946.9
694.423	36949.83
694.769	36870.97
695.116	36776.96
695.462	36788.26
695.808	36575.38
696.155	36535.61
696.501	36320.25
696.847	36407.93
697.193	36117.09
697.539	36272.56
697.885	36028.95
698.231	35828.51
698.577	35853.59
698.923	35659.7
699.269	35437.56
699.614	35254.51
699.96	35352.14
700.306	35330.22
700.651	35338.58
700.997	35156.66
701.342	35047.74
701.688	34981.07
702.033	34894.07
702.379	34770.68
702.724	34718.93
703.069	34797.8
703.415	34451.82
703.76	34396.23
704.105	34368.88
704.45	34304.25
704.795	34050.02
705.14	34051.6
705.485	33889.35
705.83	33973.41
706.175	33791.05
706.52	33673.54
706.865	33679.86
707.209	33549.47
707.554	33497.49
707.899	33526.42
708.243	33350.83
708.588	33269.7
708.932	33058.41
709.277	33084.62
709.621	32971.63
709.966	32837.85
710.31	32979.77
710.654	32667.01
710.998	32803.28
711.342	32753.79
711.687	32723.5
712.031	32572.77
712.375	32438.31
712.719	32516.5
713.063	32421.59
713.407	32460.23
713.75	32262.27
714.094	32166.46
714.438	32137.53
714.782	32199.45
715.125	32047.14
715.469	32063.86
715.812	32067.93
716.156	31857.09
716.499	31861.83
716.843	31759.91
717.186	31499.81
717.53	31689.86
717.873	31679.92
718.216	31552.46
718.559	31437.89
718.902	31307.5
719.246	31316.99
719.589	31229.31
719.932	31176.88
720.275	31140.27
720.617	31026.15
720.96	31026.6
721.303	30855.76
721.646	31028.41
721.989	30819.37
722.331	30876.77
722.674	30646.27
723.016	30838.36
723.359	30630.45
723.701	30583.22
724.044	30437.91
724.386	30285.83
724.729	30419.16
725.071	30218.03
725.413	30270.69
725.755	30281.76
726.097	30175.1
726.439	30036.57
726.782	29917.7
727.124	30052.16
727.465	29924.48
727.807	29862.11
728.149	29810.36
728.491	29765.62
728.833	29773.75
729.175	29765.39
729.516	29625.51
729.858	29652.62
730.199	29660.31
730.541	29568.33
730.882	29520.42
731.224	29625.05
731.565	29397.04
731.906	29443.82
732.248	29417.38
732.589	29222.35
732.93	29184.39
733.271	29127.21
733.612	29119.08
733.953	29178.74
734.294	29062.36
734.635	29039.99
734.976	29164.73
735.317	28955.02
735.658	28831.18
735.999	28898.75
736.339	28723.38
736.68	28835.02
737.021	28714.12
737.361	28612.43
737.702	28815.13
738.042	28604.06
738.383	28542.6
738.723	28675.7
739.063	28472.77
739.404	28427.35
739.744	28388.93
740.084	28388.02
740.424	28312.32
740.764	28301.47
741.104	28492.88
741.444	28149.39
741.784	28115.49
742.124	28214.7
742.464	28165.43
742.804	28083.4
743.143	28048.82
743.483	27932.9
743.823	27780.58
744.162	27708.72
744.502	27807.25
744.841	27618.78
745.181	27695.84
745.52	27642.28
745.86	27555.05
746.199	27561.83
746.538	27496.3
746.877	27520.48
747.216	27456.07
747.556	27407.26
747.895	27392.8
748.234	27230.09
748.573	27090.66
748.911	27293.82
749.25	27155.51
749.589	26986.93
749.928	27031.68
750.267	27089.3
750.605	26850.66
750.944	26902.41
751.283	26777.45
751.621	26951.68
751.96	26634.62
752.298	26609.77
752.636	26722.08
752.975	26544.23
753.313	26499.49
753.651	26455.42
753.989	26315.54
754.327	26398.47
754.666	26295.2
755.004	26160.06
755.342	26307.63
755.679	26040.29
756.017	26080.74
756.355	26027.18
756.693	25897.92
757.031	25998.94
757.368	25638.49
757.706	25761.2
758.044	25605.73
758.381	25739.73
758.719	25536.8
759.056	25589.45
759.394	25560.98
759.731	25221.33
760.068	25305.39
760.405	25168.9
760.743	24973.2
761.08	25067.21
761.417	24925.29
761.754	24912.86
762.091	24894.78
762.428	24784.28
762.765	24643.72
763.102	24747.22
763.438	24567.56
763.775	24445.08
764.112	24504.96
764.449	24456.6
764.785	24154.24
765.122	24083.96
765.458	23925.54
765.795	24000.57
766.131	23960.57
766.467	23872.66
766.804	23697.98
767.14	23533.24
767.476	23650.52
767.812	23551.54
768.148	23535.95
768.485	23410.75
768.821	23249.85
769.157	23247.82
769.492	23306.58
769.828	23095.28
770.164	22930.09
770.5	23010.54
770.836	22921.5
771.171	22741.62
771.507	22634.28
771.842	22545.47
772.178	22544.11
772.513	22497.11
772.849	22330.56
773.184	22202.2
773.519	22201.29
773.855	22113.16
774.19	21971.47
774.525	21919.04
774.86	21953.84
775.195	21886.73
775.53	21743
775.865	21715.21
776.2	21458.04
776.535	21510.47
776.87	21367.64
777.205	21336.68
777.539	21254.88
777.874	21326.74
778.209	21027.77
778.543	20996.81
778.878	20889.46
779.212	20896.92
779.547	20874.78
779.881	20847.88
780.215	20644.05
780.55	20691.5
780.884	20456.03
781.218	20376.26
781.552	20522.02
781.886	20338.07
782.22	20350.27
782.554	20216.04
782.888	20084.51
783.222	19872.32
783.556	19895.59
783.889	19968.36
784.223	19681.14
784.557	19641.59
784.89	19688.14
785.224	19439.11
785.557	19382.61
785.891	19419
786.224	19364.53
786.558	19251.54
786.891	19175.84
787.224	19156.86
787.557	19114.6
787.891	19053.58
788.224	18984.2
788.557	18958.67
788.89	18852.23
789.223	18833.25
789.556	18630.99
789.888	18583.76
790.221	18553.48
790.554	18406.37
790.887	18351.9
791.219	18330.21
791.552	18302.64
791.884	18266.93
792.217	18098.8
792.549	18014.06
792.882	17990.78
793.214	17920.96
793.546	17880.5
793.879	17746.72
794.211	17779.72
794.543	17794.4
794.875	17661.3
795.207	17709.44
795.539	17560.96
795.871	17555.99
796.203	17390.35
796.535	17381.99
796.867	17299.73
797.198	17250.46
797.53	17226.96
797.862	17083.69
798.193	17162.78
798.525	17064.25
798.856	17116.46
799.188	16878.04
799.519	16815.22
799.85	16758.05
800.182	16690.48
800.513	16690.25
800.844	16572.29
801.175	16679.63
801.506	16639.18
801.837	16492.29
802.168	16504.72
802.499	16473.76
802.83	16344.5
803.161	16326.65
803.491	16278.74
803.822	16229.47
804.153	16183.37
804.483	15975.7
804.814	16041.46
805.145	16039.65
805.475	15957.39
805.805	15884.62
806.136	16005.07
806.466	15888.24
806.796	15868.35
807.126	15717.4
807.457	15729.15
807.787	15634.91
808.117	15605.76
808.447	15523.5
808.777	15420.91
809.107	15479.21
809.436	15337.75
809.766	15383.85
810.096	15393.79
810.426	15371.19
810.755	15255.71
811.085	15224.98
811.414	15122.61
811.744	15014.82
812.073	15007.36
812.403	14902.96
812.732	14926.23
813.061	14886.68
813.39	14848.95
813.719	14817.99
814.049	14800.36
814.378	14814.14
814.707	14766.46
815.036	14649.18
815.365	14721.72
815.693	14620.48
816.022	14552.91
816.351	14483.53
816.68	14381.84
817.008	14537.32
817.337	14348.39
817.665	14396.3
817.994	14401.05
818.322	14368.96
818.651	14279.7
818.979	14149.53
819.307	14208.96
819.636	14138.68
819.964	14031.11
820.292	14089.42
820.62	14072.92
820.948	14009.65
821.276	14067.27
821.604	14042.41
821.932	14071.34
822.259	14140.26
822.587	14071.57
822.915	13986.37
823.243	14091.68
823.57	14039.7
823.898	14036.54
824.225	13975.75
824.553	13883.32
824.88	13987.73
825.207	14020.49
825.535	13958.57
825.862	13958.35
826.189	13951.79
826.516	14027.5
826.843	14081.28
827.17	14032.02
827.497	14087.84
827.824	14056.65
828.151	14034.96
828.478	14100.72
828.805	14053.94
829.131	14004.22
829.458	13886.26
829.785	13847.84
830.111	13977.78
830.438	13936.88
830.764	13857.33
831.09	13894.17
831.417	13838.35
831.743	13948.4
832.069	13837.22
832.395	13823.21
832.722	13873.6
833.048	13906.82
833.374	13786.6
833.7	13732.59
834.026	13799.26
834.351	13889.87
834.677	13867.73
835.003	13751.57
835.329	13776.88
835.654	13723.1
835.98	13699.37
836.306	13661.41
836.631	13711.8
836.956	13690.33
837.282	13737.11
837.607	13635.64
837.932	13638.36
838.258	13538.02
838.583	13609.43
838.908	13478.13
839.233	13418.25
839.558	13489.89
839.883	13344.8
840.208	13397.91
840.533	13307.97
840.858	13278.59
841.182	13386.16
841.507	13437.01
841.832	13251.02
842.156	13309.1
842.481	13196.33
842.805	13198.14
843.13	13145.94
843.454	13171.7
843.778	13193.62
844.103	13068.43
844.427	13066.39
844.751	13177.13
845.075	13057.58
845.399	13031.59
845.723	12879.51
846.047	12933.97
846.371	12772.39
846.695	12793.86
847.019	12610.59
847.343	12626.41
847.666	12564.71
847.99	12458.95
848.313	12539.63
848.637	12420.08
848.96	12434.77
849.284	12369.46
849.607	12230.71
849.931	12188.45
850.254	12108.9
850.577	12064.84
850.9	12043.82
851.223	12133.08
851.546	11906.42
851.869	11887.67
852.192	11956.14
852.515	11887.89
852.838	11830.27
853.161	11744.85
853.483	11729.93
853.806	11627.34
854.129	11650.84
854.451	11585.08
854.774	11561.57
855.096	11486.32
855.419	11474.8
855.741	11501.92
856.063	11385.99
856.385	11342.6
856.708	11299.89
857.03	11292.66
857.352	11301.92
857.674	11187.8
857.996	11146.22
858.318	11139.21
858.64	11100.34
858.961	11067.35
859.283	11074.13
859.605	10911.65
859.926	11037.29
860.248	11048.37
860.57	10899.67
860.891	10967.24
861.212	10875.04
861.534	10892.89
861.855	10870.75
862.176	10876.85
862.498	10844.31
862.819	10831.65
863.14	10748.04
863.461	10807.47
863.782	10696.96
864.103	10684.99
864.424	10630.98
864.745	10693.8
865.065	10613.8
865.386	10621.49
865.707	10570.64
866.027	10584.2
866.348	10542.84
866.668	10537.65
866.989	10546.23
867.309	10447.48
867.63	10496.52
867.95	10548.72
868.27	10370.42
868.59	10353.92
868.91	10393.47
869.23	10380.14
869.55	10320.25
869.87	10463.07
870.19	10369.74
870.51	10398.44
870.83	10344.43
871.15	10186.02
871.469	10229.41
871.789	10221.5
872.109	10190.54
872.428	10187.6
872.748	10170.65
873.067	10114.61
873.386	10136.53
873.706	10122.06
874.025	10078.68
874.344	10141.05
874.663	10144.66
874.982	10034.16
875.301	10042.74
875.62	10026.47
875.939	9970.43
876.258	9969.98
876.577	9936.98
876.896	9988.73
877.214	9896.08
877.533	9878.91
877.852	9882.75
878.17	9924.33
878.489	9892.01
878.807	9830.09
879.125	9831.9
879.444	9820.83
879.762	9813.6
880.08	9812.02
880.398	9798.46
880.716	9747.16
881.034	9656.31
881.352	9737.89
881.67	9685.92
881.988	9702.87
882.306	9661.74
882.624	9639.59
882.941	9628.52
883.259	9585.13
883.577	9518.69
883.894	9509.43
884.212	9578.12
884.529	9538.8
884.846	9458.8
885.164	9457.9
885.481	9425.13
885.798	9443.89
886.115	9381.52
886.432	9295.65
886.75	9282.09
887.067	9267.85
887.383	9282.99
887.7	9307.17
888.017	9289.32
888.334	9304.91
888.651	9159.15
888.967	9182.88
889.284	9116.67
889.6	9085.03
889.917	9056.1
890.233	9076.44
890.55	9060.17
890.866	9038.48
891.182	9032.6
891.498	8971.13
891.815	8971.81
892.131	8890.01
892.447	8914.64
892.763	8869.67
893.079	8825.83
893.395	8821.08
893.71	8838.93
894.026	8731.14
894.342	8718.26
894.657	8700.86
894.973	8675.55
895.289	8636.23
895.604	8644.82
895.92	8549.9
896.235	8498.83
896.55	8530.24
896.865	8505.61
897.181	8502.22
897.496	8480.07
897.811	8463.8
898.126	8398.27
898.441	8383.35
898.756	8363.24
899.071	8289.57
899.386	8294.32
899.7	8255.45
900.015	8226.52
900.33	8210.25
900.644	8179.06
900.959	8128.22
901.273	8122.34
901.588	8099.74
901.902	8029.01
902.216	7963.7
902.531	8017.26
902.845	8014.1
903.159	7907.43
903.473	7901.33
903.787	7878.06
904.101	7854.33
904.415	7740.21
904.729	7724.61
905.042	7693.2
905.356	7722.58
905.67	7716.03
905.984	7690.26
906.297	7671.96
906.611	7568.23
906.924	7584.5
907.237	7566.65
907.551	7516.48
907.864	7511.74
908.177	7451.17
908.491	7473.77
908.804	7349.48
909.117	7320.78
909.43	7269.48
909.743	7299.99
910.056	7320.56
910.368	7228.81
910.681	7220.9
910.994	7231.07
911.307	7158.3
911.619	7093.67
911.932	7096.38
912.244	7041.47
912.557	7050.51
912.869	6977.51
913.181	7006.67
913.494	6984.07
913.806	6923.5
914.118	6960.57
914.43	6834.24
914.742	6836.28
915.054	6782.72
915.366	6802.6
915.678	6726.45
915.99	6751.53
916.302	6713.79
916.613	6711.31
916.925	6669.73
917.236	6634.25
917.548	6561.93
917.859	6575.04
918.171	6520.8
918.482	6485.32
918.794	6474.25
919.105	6493.01
919.416	6396.29
919.727	6386.57
920.038	6313.35
920.349	6373.91
920.66	6308.61
920.971	6344.99
921.282	6298.66
921.593	6288.49
921.903	6228.61
922.214	6195.39
922.525	6093.24
922.835	6101.83
923.146	6097.09
923.456	6093.02
923.767	6034.94
924.077	6022.29
924.387	5975.96
924.697	5966.02
925.008	5882.63
925.318	5971.89
925.628	5970.31
925.938	5888.28
926.248	5860.48
926.558	5833.36
926.867	5820.03
927.177	5742.74
927.487	5753.59
927.796	5683.31
928.106	5741.84
928.416	5664.1
928.725	5657.77
929.034	5579.58
929.344	5639.47
929.653	5591.34
929.962	5558.79
930.271	5576.42
930.581	5503.43
930.89	5509.98
931.199	5453.71
931.508	5452.58
931.817	5439.7
932.125	5411.23
932.434	5366.26
932.743	5327.84
933.051	5352.25
933.36	5238.12
933.669	5258.46
933.977	5280.84
934.286	5250.1
934.594	5199.03
934.902	5156.77
935.21	5164.91
935.519	5142.99
935.827	5099.37
936.135	5111.35
936.443	5071.35
936.751	5048.75
937.059	5070.67
937.367	5018.24
937.674	5012.59
937.982	4972.6
938.29	4926.04
938.597	4943.22
938.905	4910
939.213	4900.51
939.52	4851.02
939.827	4892.6
940.135	4821.19
940.442	4802.2
940.749	4786.16
941.056	4777.8
941.363	4750.23
941.67	4714.97
941.977	4619.16
942.284	4640.17
942.591	4707.07
942.898	4667.07
943.205	4618.25
943.511	4602.21
943.818	4577.35
944.125	4540.06
944.431	4537.58
944.738	4515.88
945.044	4460.74
945.35	4504.81
945.657	4447.41
945.963	4456
946.269	4403.8
946.575	4406.73
946.881	4398.6
947.187	4368.54
947.493	4336.23
947.799	4312.5
948.105	4309.79
948.41	4278.38
948.716	4317.92
949.022	4215.55
949.327	4268.43
949.633	4199.51
949.938	4261.2
950.244	4230.69
950.549	4191.6
950.854	4148.89
951.16	4183.69
951.465	4158.83
951.77	4120.64
952.075	4084.48
952.38	4099.85
952.685	4099.85
952.99	4047.42
953.294	3974.43
953.599	3995.22
953.904	3988.89
954.209	3906.63
954.513	3953.86
954.818	3917.93
955.122	3956.8
955.426	3893.53
955.731	3887.88
956.035	3866.86
956.339	3864.6
956.643	3847.43
956.948	3807.88
957.252	3774.43
957.556	3805.62
957.86	3738.05
958.163	3697.6
958.467	3722.91
958.771	3727.88
959.075	3699.86
959.378	3646.3
959.682	3676.13
959.985	3654.66
960.289	3636.13
960.592	3597.72
960.896	3592.07
961.199	3604.95
961.502	3569.92
961.805	3520.66
962.108	3546.64
962.411	3480.21
962.714	3444.27
963.017	3482.24
963.32	3457.61
963.623	3449.02
963.926	3459.87
964.228	3444.95
964.531	3399.3
964.833	3413.99
965.136	3420.77
965.438	3361.34
965.741	3340.77
966.043	3361.34
966.345	3312.07
966.648	3292.41
966.95	3347.78
967.252	3332.86
967.554	3282.7
967.856	3252.64
968.158	3237.05
968.46	3236.37
968.761	3222.36
969.063	3190.04
969.365	3149.14
969.666	3183.26
969.968	3152.3
970.269	3152.53
970.571	3134.45
970.872	3153.66
971.174	3082.7
971.475	3107.33
971.776	3063.49
972.077	3068.24
972.378	3041.12
972.679	3038.18
972.98	3028.92
973.281	3025.3
973.582	3021.23
973.883	3016.26
974.183	2971.29
974.484	3007.9
974.785	2960.67
975.085	2943.72
975.386	2926.77
975.686	2942.59
975.986	2935.36
976.287	2887.68
976.587	2852.88
976.887	2861.01
977.187	2814.23
977.487	2824.18
977.787	2805.87
978.087	2807
978.387	2765.65
978.687	2792.54
978.987	2786.89
979.286	2729.26
979.586	2722.03
979.885	2727.46
980.185	2733.11
980.484	2658.76
980.784	2694.69
981.083	2696.5
981.382	2695.37
981.682	2639.32
981.981	2645.42
982.28	2680
982.579	2656.27
982.878	2623.28
983.177	2616.5
983.475	2588.48
983.774	2580.79
984.073	2590.74
984.372	2537.18
984.67	2581.92
984.969	2559.55
985.267	2553.68
985.566	2520.68
985.864	2488.14
986.162	2506.9
986.461	2466.45
986.759	2446.56
987.057	2471.64
987.355	2446.56
987.653	2456.73
987.951	2457.18
988.249	2423.51
988.547	2463.06
988.844	2420.57
989.142	2371.08
989.44	2371.76
989.737	2351.65
990.035	2369.05
990.332	2371.31
990.63	2337.41
990.927	2312.33
991.224	2298.77
991.521	2303.96
991.819	2297.86
992.116	2301.03
992.413	2261.93
992.71	2270.29
993.006	2269.62
993.303	2193.69
993.6	2245.21
993.897	2217.19
994.193	2174.02
994.49	2193.23
994.787	2190.97
995.083	2174.7
995.379	2188.71
995.676	2156.17
995.972	2146.23
996.268	2150.97
996.565	2109.85
996.861	2100.13
997.157	2074.14
997.453	2068.26
997.749	2074.59
998.044	2055.84
998.34	2111.43
998.636	2043.18
998.932	2044.99
999.227	2040.02
999.523	2000.92
999.818	2017.87
1000.114	2005.44
1000.409	2008.38
1000.704	2003.63
1001	1946.91
1001.295	1967.25
1001.59	1951.66
1001.885	1927.03
1002.18	1941.94
1002.475	1903.07
1002.77	1916.4
1003.065	1903.75
1003.359	1884.09
1003.654	1862.85
1003.949	1869.63
1004.243	1891.09
1004.538	1840.02
1004.832	1829.18
1005.127	1824.2
1005.421	1825.33
1005.715	1808.16
1006.009	1800.25
1006.304	1816.75
1006.598	1774.49
1006.892	1775.39
1007.186	1790.31
1007.48	1734.71
1007.773	1773.36
1008.067	1726.8
1008.361	1719.12
1008.655	1724.55
1008.948	1714.83
1009.242	1682.29
1009.535	1653.81
1009.829	1673.92
1010.122	1655.17
1010.415	1668.28
1010.708	1646.58
1011.001	1645.23
1011.295	1634.83
1011.588	1607.49
1011.881	1605.9
1012.173	1605.9
1012.466	1621.5
1012.759	1583.98
1013.052	1603.19
1013.344	1582.63
1013.637	1545.34
1013.93	1533.36
1014.222	1510.54
1014.514	1525
1014.807	1534.95
1015.099	1527.94
1015.391	1502.4
1015.683	1489.3
1015.976	1488.85
1016.268	1476.19
1016.56	1487.26
1016.851	1460.15
1017.143	1451.78
1017.435	1441.61
1017.727	1460.15
1018.018	1408.4
1018.31	1428.96
1018.602	1418.11
1018.893	1443.42
1019.185	1398.9
1019.476	1372.01
1019.767	1376.98
1020.058	1329.75
1020.35	1365.91
1020.641	1336.98
1020.932	1299.7
1021.223	1298.57
1021.514	1291.79
1021.804	1282.52
1022.095	1291.56
1022.386	1278.23
1022.677	1263.99
1022.967	1274.61
1023.258	1278.23
1023.548	1264.44
1023.839	1236.87
1024.129	1241.39
1024.419	1247.27
1024.709	1239.59
1025	1231.9
1025.29	1214.05
1025.58	1201.85
1025.87	1184.45
1026.16	1196.65
1026.449	1174.95
1026.739	1187.84
1027.029	1175.63
1027.319	1165.24
1027.608	1149.19
1027.898	1133.83
1028.187	1130.21
1028.477	1132.24
1028.766	1146.03
1029.055	1134.73
1029.344	1129.53
1029.634	1092.25
1029.923	1092.7
1030.212	1077.56
1030.501	1104.67
1030.79	1081.85
1031.078	1082.3
1031.367	1078.69
1031.656	1047.73
1031.945	1044.56
1032.233	1025.35
1032.522	1035.98
1032.81	1038.24
1033.099	1021.96
1033.387	1019.7
1033.675	1023.77
1033.963	989.42
1034.251	1007.5
1034.54	1007.95
1034.828	970.89
1035.116	985.13
1035.403	978.35
1035.691	967.05
1035.979	967.05
1036.267	933.61
1036.554	965.69
1036.842	940.61
1037.129	945.81
1037.417	920.72
1037.704	919.82
1037.992	920.27
1038.279	918.46
1038.566	901.52
1038.853	901.52
1039.14	901.52
