Data from plate_porcelain_FLMS001491_081.txt Node
Date: Tue Feb 07 11:20:02 GMT 2017
User: dcchb
Spectrometer: FLMS00149
Trigger mode: 0
Integration Time (sec): 2.000000E-2
Scans to average: 10
Electric dark correction enabled: true
Nonlinearity correction enabled: false
Boxcar width: 0
XAxis mode: Wavelengths
Number of Pixels in Spectrum: 2048
>>>>>Begin Spectral Data<<<<<
341.393	-18.33
341.776	-18.33
342.16	-18.33
342.543	-87.94
342.927	-70.99
343.31	-68.73
343.693	-79.57
344.077	-54.26
344.46	-81.38
344.843	-35.51
345.226	-42.29
345.61	-31.67
345.993	-21.72
346.376	9.91
346.759	11.72
347.142	22.8
347.525	30.93
347.908	50.14
348.291	75.9
348.674	103.47
349.057	110.25
349.44	128.1
349.823	146.41
350.206	180.31
350.588	222.56
350.971	226.18
351.354	247.87
351.737	270.47
352.119	286.07
352.502	274.54
352.884	304.82
353.267	331.71
353.65	350.7
354.032	340.08
354.414	345.73
354.797	341.21
355.179	347.31
355.562	362
355.944	371.04
356.326	354.54
356.709	377.81
357.091	370.13
357.473	415.55
357.855	399.51
358.238	362.67
358.62	391.6
359.002	383.92
359.384	380.53
359.766	383.24
360.148	388.89
360.53	374.2
360.912	400.64
361.294	411.49
361.676	361.32
362.057	409.45
362.439	375.33
362.821	380.75
363.203	376.69
363.584	384.37
363.966	376.23
364.348	378.94
364.729	401.54
365.111	380.75
365.493	407.42
365.874	388.89
366.256	362.22
366.637	401.77
367.019	377.14
367.4	385.5
367.781	388.66
368.163	385.05
368.544	383.01
368.925	400.64
369.306	387.76
369.688	386.63
370.069	371.94
370.45	385.5
370.831	397.48
371.212	409.23
371.593	430.24
371.974	414.2
372.355	399.28
372.736	417.81
373.117	413.75
373.498	418.72
373.879	384.82
374.26	394.31
374.641	406.06
375.021	404.48
375.402	425.05
375.783	434.76
376.163	448.1
376.544	469.56
376.925	455.1
377.305	424.37
377.686	441.77
378.066	437.7
378.447	462.78
378.827	462.11
379.208	469.34
379.588	464.14
379.968	475.67
380.349	492.39
380.729	464.82
381.109	480.41
381.489	484.7
381.87	486.96
382.25	472.05
382.63	524.03
383.01	497.36
383.39	514.31
383.77	498.26
384.15	529.68
384.53	515.66
384.91	507.98
385.29	528.55
385.67	497.13
386.049	558.6
386.429	544.59
386.809	557.47
387.189	570.13
387.568	566.51
387.948	577.81
388.328	568.32
388.707	576
389.087	618.26
389.466	606.51
389.846	595.89
390.225	610.8
390.605	611.48
390.984	602.22
391.363	634.31
391.743	629.56
392.122	651.93
392.501	644.02
392.881	654.64
393.26	662.1
393.639	665.72
394.018	683.57
394.397	679.95
394.776	693.74
395.155	693.29
395.534	714.53
395.913	692.38
396.292	714.3
396.671	734.19
397.05	740.07
397.429	723.57
397.808	719.5
398.186	736
398.565	750.69
398.944	758.14
399.323	779.39
399.701	772.15
400.08	768.09
400.458	785.71
400.837	821.65
401.215	823.45
401.594	810.35
401.972	840.4
402.351	816.9
402.729	830.68
403.107	867.07
403.486	865.03
403.864	848.31
404.242	875.2
404.62	892.15
404.999	900.74
405.377	906.16
405.755	924.69
406.133	947.74
406.511	965.14
406.889	979.61
407.267	985.71
407.645	988.65
408.023	998.82
408.401	1049.21
408.779	1037.91
409.156	1048.53
409.534	1076.55
409.912	1084.69
410.29	1075.2
410.667	1122.65
411.045	1117
411.422	1109.77
411.8	1143.44
412.178	1167.17
412.555	1209.66
412.933	1177.57
413.31	1211.47
413.687	1217.11
414.065	1229.09
414.442	1276.55
414.819	1268.19
415.197	1311.58
415.574	1305.47
415.951	1289.66
416.328	1354.06
416.705	1354.51
417.082	1369.65
417.46	1371.01
417.837	1375.3
418.214	1365.36
418.591	1428.41
418.967	1422.53
419.344	1462.53
419.721	1482.87
420.098	1479.03
420.475	1490.33
420.852	1529.65
421.228	1505.02
421.605	1555.86
421.982	1567.84
422.358	1584.34
422.735	1631.79
423.111	1591.57
423.488	1634.28
423.864	1664.79
424.241	1685.35
424.617	1681.96
424.994	1707.05
425.37	1736.2
425.746	1740.04
426.123	1759.25
426.499	1753.15
426.875	1797.21
427.251	1826.36
427.627	1896.19
428.003	1897.32
428.379	1936.42
428.756	1934.84
429.132	1941.62
429.507	1983.65
429.883	2001.5
430.259	2037.43
430.635	2034.27
431.011	2070.2
431.387	2118.33
431.763	2184.32
432.138	2161.5
432.514	2235.39
432.89	2249.4
433.265	2269.74
433.641	2320.81
434.016	2367.82
434.392	2368.72
434.767	2424.31
435.143	2453.24
435.518	2427.48
435.894	2500.7
436.269	2507.48
436.644	2557.64
437.02	2562.16
437.395	2595.84
437.77	2631.77
438.145	2676.96
438.52	2706.57
438.895	2761.71
439.271	2750.41
439.646	2811.88
440.021	2825.89
440.395	2823.63
440.77	2802.38
441.145	2866.56
441.52	2895.71
441.895	2916.28
442.27	2946.11
442.645	2957.86
443.019	2994.47
443.394	2974.58
443.769	3050.96
444.143	3074.02
444.518	3093.9
444.892	3117.86
445.267	3142.71
445.641	3159.21
446.016	3185.65
446.39	3223.16
446.764	3243.05
447.139	3218.87
447.513	3283.05
447.887	3291.41
448.262	3314.91
448.636	3355.14
449.01	3401.24
449.384	3425.64
449.758	3423.61
450.132	3488.47
450.506	3523.27
450.88	3512.2
451.254	3531.4
451.628	3587.9
452.002	3662.02
452.376	3684.17
452.75	3718.07
453.123	3782.25
453.497	3862.7
453.871	3801
454.244	3944.95
454.618	3939.98
454.992	3969.13
455.365	4007.1
455.739	4148.11
456.112	4195.79
456.486	4196.02
456.859	4276.47
457.232	4324.15
457.606	4329.12
457.979	4425.62
458.352	4445.28
458.725	4557.37
459.099	4615.22
459.472	4651.83
459.845	4764.37
460.218	4764.59
460.591	4815.89
460.964	4862.89
461.337	4948.77
461.71	5030.57
462.083	5090.46
462.456	5111.93
462.829	5172.49
463.201	5260.17
463.574	5271.7
463.947	5372.03
464.32	5480.96
464.692	5520.05
465.065	5565.7
465.438	5687.73
465.81	5760.72
466.183	5786.26
466.555	5929.53
466.928	5971.57
467.3	5953.26
467.672	6066.03
468.045	6246.81
468.417	6324.78
468.789	6304.21
469.161	6431.67
469.534	6533.59
469.906	6654.94
470.278	6678.67
470.65	6779.23
471.022	6903.07
471.394	7051.54
471.766	7077.3
472.138	7153.23
472.51	7334.92
472.882	7465.09
473.253	7564.07
473.625	7711.86
473.997	7842.48
474.369	7872.53
474.74	7969.25
475.112	8177.38
475.484	8306.19
475.855	8396.81
476.227	8521.56
476.598	8816.69
476.97	8853.3
477.341	9048.55
477.713	9206.28
478.084	9270.46
478.455	9526.95
478.827	9619.15
479.198	9896.43
479.569	9916.32
479.94	10205.81
480.311	10244.67
480.682	10514.27
481.053	10665.23
481.424	10967.14
481.795	10984.77
482.166	11247.81
482.537	11419.78
482.908	11597.86
483.279	11781.58
483.65	11952.2
484.021	12131.86
484.391	12301.57
484.762	12484.62
485.133	12583.82
485.503	12798.05
485.874	13096.8
486.244	13194.43
486.615	13431.93
486.985	13643.91
487.356	13897.69
487.726	14010.9
488.097	14290.44
488.467	14261.29
488.837	14575.63
489.207	14788.28
489.578	15104.21
489.948	15265.33
490.318	15454.71
490.688	15547.13
491.058	15698.99
491.428	15978.99
491.798	16086.55
492.168	16393.21
492.538	16484.51
492.908	16752.75
493.278	16983.71
493.648	16903.48
494.017	17332.85
494.387	17418.5
494.757	17507.31
495.126	17782.1
495.496	17846.96
495.866	18016
496.235	18251.24
496.605	18326.72
496.974	18390.9
497.344	18611.91
497.713	18747.73
498.082	18986.82
498.452	19148.85
498.821	19187.94
499.19	19285.79
499.559	19596.52
499.928	19637.87
500.298	19862.27
500.667	20028.82
501.036	19969.84
501.405	20174.81
501.774	20301.58
502.143	20506.55
502.512	20476.04
502.88	20799.65
503.249	20917.16
503.618	21011.17
503.987	21152.41
504.356	21337.04
504.724	21452.06
505.093	21508.11
505.462	21662
505.83	21736.35
506.199	22069.9
506.567	22312.83
506.936	22252.72
507.304	22573.84
507.672	22638.02
508.041	22774.51
508.409	22989.65
508.777	23198.91
509.145	23338.57
509.514	23428.96
509.882	23622.4
510.25	23644.1
510.618	23893.13
510.986	23980.58
511.354	24248.37
511.722	24425.77
512.09	24622.15
512.458	24593
512.826	24903.27
513.193	25001.57
513.561	25206.77
513.929	25486.99
514.297	25718.39
514.664	25873.42
515.032	25992.51
515.4	26197.02
515.767	26336.91
516.135	26614.87
516.502	26391.82
516.869	26784.13
517.237	26906.16
517.604	27042.65
517.972	27359.93
518.339	27614.84
518.706	27673.14
519.073	27758.34
519.44	28057.31
519.808	28301.15
520.175	28442.61
520.542	28749.5
520.909	28911.3
521.276	28947.91
521.643	29269.48
522.009	29569.82
522.376	29773.43
522.743	30027.43
523.11	30224.71
523.477	30578.83
523.843	30745.38
524.21	31115.31
524.577	31309.66
524.943	31355.53
525.31	31527.28
525.676	31839.81
526.043	31980.83
526.409	32284.55
526.776	32679.11
527.142	32818.09
527.508	33002.72
527.874	33190.51
528.241	33475.48
528.607	33521.8
528.973	33860.1
529.339	33841.12
529.705	34267.09
530.071	34465.28
530.437	34686.52
530.803	34918.6
531.169	35097.58
531.535	35123.34
531.901	35215.32
532.267	35445.37
532.632	35710.9
532.998	35709.54
533.364	36037.89
533.73	36278.57
534.095	36565.34
534.461	36598.33
534.826	36856.63
535.192	36961.26
535.557	37299.1
535.923	37257.75
536.288	37426.78
536.653	37476.5
537.019	37437.63
537.384	37755.14
537.749	37987
538.114	38138.86
538.479	38171.62
538.845	38419.3
539.21	38316.48
539.575	38555.34
539.94	38723.93
540.305	38983.35
540.67	38971.38
541.034	39147.42
541.399	39335.66
541.764	39292.72
542.129	39652.71
542.494	39508.31
542.858	39855.87
543.223	39953.05
543.587	40173.83
543.952	40220.84
544.316	40330.89
544.681	40380.83
545.045	40552.8
545.41	40808.84
545.774	40928.61
546.138	40995.96
546.503	41030.76
546.867	41159.57
547.231	41487.47
547.595	41409.28
547.959	41669.16
548.324	41793.22
548.688	41662.61
549.052	41955.7
549.416	41978.98
549.779	42092.65
550.143	42316.83
550.507	42580.77
550.871	42586.65
551.235	42730.15
551.599	43159.51
551.962	43092.62
552.326	43312.05
552.689	43438.15
553.053	43424.37
553.417	43560.41
553.78	44185.25
554.143	43992.49
554.507	44195.19
554.87	44406.71
555.234	44742.75
555.597	44394.74
555.96	44801.05
556.323	44885.12
556.686	45067.26
557.05	45347.71
557.413	45401.04
557.776	45614.14
558.139	45722.39
558.502	45879.9
558.865	45909.95
559.228	46172.77
559.59	46346.78
559.953	46451.18
560.316	46823.6
560.679	46918.06
561.041	47242.35
561.404	47349.24
561.767	47589
562.129	47542.45
562.492	47878.94
562.854	47969.56
563.217	47960.07
563.579	48344.46
563.941	48518.92
564.304	48698.13
564.666	48868.07
565.028	48990.32
565.39	48982.64
565.753	49283.42
566.115	49336.3
566.477	49448.62
566.839	49596.86
567.201	49822.39
567.563	49814.93
567.925	50134.7
568.287	50108.26
568.648	50309.38
569.01	50504.86
569.372	50713.44
569.734	50569.94
570.095	50826.43
570.457	50980.55
570.819	50977.39
571.18	51015.35
571.542	51221.45
571.903	51247.89
572.265	51456.92
572.626	51491.95
572.987	51631.38
573.349	51694.43
573.71	51829.8
574.071	51849.46
574.432	52000.19
574.794	52222.78
575.155	52201.54
575.516	52173.06
575.877	52383
576.238	52452.38
576.599	52466.61
576.96	52442.21
577.32	52492.83
577.681	52640.4
578.042	52789.54
578.403	52770.79
578.763	52775.53
579.124	52782.99
579.485	52899.6
579.845	53050.78
580.206	52978.69
580.566	53041.29
580.927	53037.67
581.287	53133.94
581.648	53125.35
582.008	53217.1
582.368	53199.93
582.728	53272.7
583.089	53158.57
583.449	53156.99
583.809	53316.08
584.169	53354.73
584.529	53222.08
584.889	53517.89
585.249	53185.01
585.609	53155.18
585.969	53454.84
586.329	53332.13
586.688	53366.93
587.048	53421.84
587.408	53264.79
587.768	53294.62
588.127	53362.41
588.487	53302.53
588.846	53492.58
589.206	53406.48
589.565	53316.76
589.925	53527.38
590.284	53353.82
590.643	53495.74
591.003	53554.27
591.362	53562.63
591.721	53504.78
592.08	53528.28
592.44	53646.7
592.799	53734.15
593.158	53594.04
593.517	53601.95
593.876	53589.07
594.235	53573.7
594.593	53670.42
594.952	53709.97
595.311	53603.31
595.67	53677.43
596.029	53821.83
596.387	53844.43
596.746	53797.65
597.104	53795.62
597.463	53837.2
597.822	53895.73
598.18	53732.8
598.538	53817.54
598.897	53994.03
599.255	53678.33
599.613	54100.47
599.972	54016.63
600.33	54001.04
600.688	53957.88
601.046	53982.28
601.404	54166.01
601.762	54043.52
602.12	54240.13
602.478	54222.73
602.836	54197.87
603.194	54157.64
603.552	54196.06
603.91	54075.84
604.268	54239.9
604.625	54171.88
604.983	54375.27
605.341	54232.9
605.698	54340.46
606.056	54349.5
606.413	54413
606.771	54483.51
607.128	54481.25
607.485	54377.98
607.843	54446.68
608.2	54575.03
608.557	54675.14
608.914	54551.53
609.272	54698.87
609.629	54713.11
609.986	54764.63
610.343	54747.01
610.7	54921.47
611.057	54875.82
611.414	54903.61
611.771	54869.26
612.127	55008.47
612.484	54902.48
612.841	54999.2
613.198	55025.42
613.554	54984.51
613.911	55021.12
614.267	55129.37
614.624	55082.82
614.98	55108.58
615.337	55297.95
615.693	55295.24
616.05	55240.1
616.406	55347.67
616.762	55225.86
617.118	55262.93
617.475	55301.79
617.831	55332.3
618.187	55356.26
618.543	55362.81
618.899	55545.4
619.255	55475.58
619.611	55486.87
619.967	55547.89
620.323	55584.5
620.678	55499.08
621.034	55417.27
621.39	55465.18
621.746	55467.89
622.101	55783.59
622.457	55547.89
622.812	55579.08
623.168	55666.98
623.523	55624.95
623.879	55735.68
624.234	55531.39
624.589	55563.71
624.945	55611.62
625.3	55715.57
625.655	55591.28
626.01	55676.25
626.365	55747.43
626.72	55646.87
627.075	55652.07
627.43	55591.73
627.785	55521.22
628.14	55635.35
628.495	55554.9
628.85	55487.55
629.205	55405.75
629.559	55586.08
629.914	55527.55
630.269	55529.59
630.623	55447.78
630.978	55347.44
631.332	55495.46
631.687	55465.18
632.041	55405.29
632.396	55423.15
632.75	55221.57
633.104	55325.07
633.459	55224.06
633.813	55157.17
634.167	55195.81
634.521	55078.07
634.875	55215.7
635.229	55068.35
635.583	54920.79
635.937	54985.87
636.291	55000.56
636.645	55000.11
636.999	54892.31
637.352	54926.66
637.706	54791.3
638.06	54884.63
638.413	54848.93
638.767	54726.67
639.121	54793.11
639.474	54627.69
639.828	54577.29
640.181	54617.52
640.534	54631.08
640.888	54602.38
641.241	54434.25
641.594	54463.17
641.947	54636.05
642.301	54496.84
642.654	54492.1
643.007	54482.38
643.36	54371.2
643.713	54314.93
644.066	54440.8
644.419	54177.98
644.771	54007.82
645.124	53724.21
645.477	53718.11
645.83	53455.97
646.182	53311.79
646.535	53259.81
646.888	53322.86
647.24	53197.67
647.593	53378
647.945	53245.58
648.298	53011.01
648.65	53039.03
649.002	52952.25
649.355	53076.54
649.707	53029.54
650.059	53062.98
650.411	53474.95
650.763	53470.88
651.115	53711.33
651.467	53638.11
651.819	53568.05
652.171	53436.31
652.523	53542.07
652.875	53439.92
653.227	53349.08
653.578	53522.86
653.93	53353.6
654.282	53286.93
654.633	53229.76
654.985	53277.67
655.337	53216.2
655.688	53216.88
656.039	53425.23
656.391	53052.81
656.742	53137.78
657.094	53160.83
657.445	53328.97
657.796	53206.48
658.147	53114.06
658.498	53126.71
658.849	53155.18
659.2	53099.37
659.551	52972.36
659.902	53068.86
660.253	53046.26
660.604	53051.68
660.955	52907.73
661.306	53130.78
661.656	52891.91
662.007	52877.68
662.358	52926.94
662.708	52931.24
663.059	52869.99
663.409	52682.43
663.76	52865.93
664.11	52795.87
664.461	52788.87
664.811	52926.72
665.161	52817.34
665.511	52667.29
665.862	52801.3
666.212	52813.95
666.562	52935.53
666.912	52827.06
667.262	52769.66
667.612	52725.14
667.962	52763.33
668.312	52699.15
668.662	52766.95
669.011	52666.38
669.361	52597.01
669.711	52616.89
670.06	52495.99
670.41	52633.84
670.76	52538.03
671.109	52568.76
671.459	52527.86
671.808	52477.01
672.157	52609.21
672.507	52323.57
672.856	52403.57
673.205	52444.47
673.554	52545.03
673.904	52351.59
674.253	52517.91
674.602	52387.97
674.951	51904.82
675.3	51780.76
675.649	52362.66
675.998	52230.69
676.346	52267.98
676.695	52313.17
677.044	52108.66
677.393	52155.21
677.741	52276.34
678.09	52190.69
678.438	52070.92
678.787	52113.18
679.135	52139.17
679.484	51867.31
679.832	52073.63
680.181	51791.38
680.529	51915.89
680.877	51716.13
681.225	51754.32
681.573	51924.26
681.922	51686.3
682.27	51617.6
682.618	51590.48
682.966	51547.32
683.314	51592.51
683.661	51545.51
684.009	51263.48
684.357	51248.79
684.705	51207.89
685.053	51216.7
685.4	51221.22
685.748	51082.02
686.095	50918.86
686.443	50868.46
686.79	50734.23
687.138	50784.63
687.485	50793.21
687.832	50789.14
688.18	50715.47
688.527	50529.94
688.874	50523.16
689.221	50345.77
689.568	50273.68
689.915	50247.69
690.262	50235.04
690.609	50017.19
690.956	49962.05
691.303	49914.14
691.65	49710.08
691.997	49759.12
692.344	49507.14
692.69	49527.71
693.037	49500.37
693.383	49206.36
693.73	49444.32
694.077	49069.87
694.423	49086.59
694.769	49015.41
695.116	48921.62
695.462	48797.78
695.808	48911.91
696.155	48929.31
696.501	48527.06
696.847	48551.69
697.193	48228.53
697.539	48533.38
697.885	48035.54
698.231	48131.59
698.577	48101.98
698.923	48021.99
699.269	47769.56
699.614	47496.35
699.96	47412.96
700.306	47610.92
700.651	47344.26
700.997	47193.31
701.342	47193.31
701.688	47171.61
702.033	46941.34
702.379	46881.22
702.724	46727.1
703.069	46899.3
703.415	46314.46
703.76	46455.93
704.105	46379.09
704.45	46252.99
704.795	46027.69
705.14	45886.9
705.485	45975.94
705.83	45834.25
706.175	45833.79
706.52	45723.29
706.865	45584.54
707.209	45490.08
707.554	45310.87
707.899	45446.69
708.243	45321.72
708.588	45205.79
708.932	44851.9
709.277	44897.1
709.621	44928.96
709.966	44713.37
710.31	44937.1
710.654	44420.72
710.998	44499.82
711.342	44536.43
711.687	44347.96
712.031	44137.34
712.375	43981.19
712.719	44120.62
713.063	43905.94
713.407	44067.29
713.75	43836.56
714.094	43716.56
714.438	43703.68
714.782	43688.77
715.125	43484.93
715.469	43468.43
715.812	43409.9
716.156	43097.14
716.499	43097.37
716.843	43054.21
717.186	42970.59
717.53	43029.35
717.873	43052.4
718.216	42920.88
718.559	42793.42
718.902	42516.82
719.246	42648.57
719.589	42461.45
719.932	42294.9
720.275	42395.47
720.617	42213.78
720.96	42082.93
721.303	42223.95
721.646	42086.77
721.989	41918.87
722.331	42009.04
722.674	41879.55
723.016	41903.95
723.359	41774.47
723.701	41720.23
724.044	41517.3
724.386	41370.41
724.729	41383.06
725.071	41362.05
725.413	41403.85
725.755	41275.5
726.097	41089.29
726.439	40899.91
726.782	41028.5
727.124	41132
727.465	40831.21
727.807	40742.18
728.149	40563.65
728.491	40657.66
728.833	40646.59
729.175	40559.58
729.516	40569.53
729.858	40319.82
730.199	40412.92
730.541	40179.93
730.882	40127.96
731.224	40386.71
731.565	39990.33
731.906	39960.28
732.248	40027.62
732.589	39834.4
732.93	39819.72
733.271	39913.72
733.612	39935.19
733.953	39621.75
734.294	39703.33
734.635	39537.46
734.976	39654.3
735.317	39481.87
735.658	39322.33
735.999	39421.99
736.339	39232.39
736.68	39443.23
737.021	39048.21
737.361	39022.45
737.702	39186.29
738.042	39016.12
738.383	38829.69
738.723	38888.67
739.063	38751.5
739.404	38833.07
739.744	38763.7
740.084	38513.54
740.424	38755.34
740.764	38512.63
741.104	38602.12
741.444	38438.96
741.784	38174.34
742.124	38330.94
742.464	38245.97
742.804	38161.45
743.143	38081.91
743.483	38095.92
743.823	37962.59
744.162	37880.11
744.502	38022.7
744.841	37762.59
745.181	37960.1
745.52	37753.78
745.86	37717.4
746.199	37715.59
746.538	37615.71
746.877	37656.83
747.216	37459.78
747.556	37306.56
747.895	37327.58
748.234	37034.03
748.573	37206
748.911	36995.38
749.25	37112.67
749.589	36874.26
749.928	36971.43
750.267	36980.24
750.605	36743.19
750.944	36738.67
751.283	36650.99
751.621	36643.98
751.96	36472.46
752.298	36436.53
752.636	36540.25
752.975	36208.96
753.313	36039.02
753.651	36274.95
753.989	36006.71
754.327	36030.44
754.666	35780.95
755.004	35940.5
755.342	35834.06
755.679	35654.85
756.017	35630.67
756.355	35479.04
756.693	35365.6
757.031	35482.2
757.368	35244.92
757.706	35131.03
758.044	35118.37
758.381	35180.74
758.719	34983.91
759.056	34919.73
759.394	34797.93
759.731	34579.4
760.068	34543.24
760.405	34360.42
760.743	34300.99
761.08	34357.26
761.417	34071.84
761.754	34049.92
762.091	34024.16
762.428	33815.58
762.765	33618.07
763.102	33811.29
763.438	33446.32
763.775	33380.34
764.112	33482.26
764.449	33364.97
764.785	33145.09
765.122	32813.8
765.458	32914.13
765.795	32866.23
766.131	32853.35
766.467	32654.03
766.804	32397.99
767.14	32246.58
767.476	32350.08
767.812	32159.35
768.148	32166.13
768.485	31894.73
768.821	31806.14
769.157	31796.65
769.492	31724.11
769.828	31665.81
770.164	31344.68
770.5	31334.52
770.836	31357.57
771.171	31037.12
771.507	31099.49
771.842	30798.03
772.178	30915.77
772.513	30873.06
772.849	30733.63
773.184	30516.01
773.519	30589.9
773.855	30350.81
774.19	30194.66
774.525	30053.87
774.86	30069.69
775.195	29962.35
775.53	29806.87
775.865	29689.59
776.2	29471.74
776.535	29372.31
776.87	29307.68
777.205	29305.87
777.539	29287.11
777.874	29194.01
778.209	28889.83
778.543	28735.94
778.878	28652.55
779.212	28589.28
779.547	28603.51
779.881	28514.7
780.215	28327.81
780.55	28400.58
780.884	28120.81
781.218	28036.07
781.552	27947.03
781.886	27898.22
782.22	27716.98
782.554	27738.68
782.888	27401.74
783.222	27354.96
783.556	27335.3
783.889	27151.35
784.223	27071.12
784.557	26935.53
784.89	27012.14
785.224	26898.25
785.557	26723.34
785.891	26594.98
786.224	26566.73
786.558	26376
786.891	26283.8
787.224	26290.58
787.557	26098.27
787.891	26072.73
788.224	25990.7
788.557	26024.6
788.89	25773.31
789.223	25804.04
789.556	25544.84
789.888	25501.9
790.221	25526.08
790.554	25232.98
790.887	25260.32
791.219	25155.69
791.552	25109.59
791.884	24875.7
792.217	24867.79
792.549	24868.47
792.882	24702.15
793.214	24555.94
793.546	24649.27
793.879	24438.65
794.211	24350.52
794.543	24257.64
794.875	24230.75
795.207	24228.71
795.539	24091.54
795.871	24178.55
796.203	23943.75
796.535	23701.72
796.867	23649.07
797.198	23749.4
797.53	23626.7
797.862	23435.06
798.193	23400.49
798.525	23258.57
798.856	23530.88
799.188	23030.55
799.519	23097.9
799.85	22934.51
800.182	23068.97
800.513	22881.86
800.844	22659.04
801.175	22903.55
801.506	22776.32
801.837	22682.77
802.168	22539.72
802.499	22568.87
802.83	22545.37
803.161	22350.12
803.491	22316.22
803.822	22322.1
804.153	22150.8
804.483	21979.28
804.814	21904.71
805.145	21803.69
805.475	21917.81
805.805	21857.02
806.136	21702.23
806.466	21782
806.796	21711.04
807.126	21579.97
807.457	21519.63
807.787	21499.29
808.117	21307.43
808.447	21264.72
808.777	21283.93
809.107	21073.32
809.436	21213.65
809.766	21196.02
810.096	21101.56
810.426	20887.11
810.755	21035.58
811.085	20942.02
811.414	20815.02
811.744	20657.96
812.073	20609.15
812.403	20639.2
812.732	20501.81
813.061	20473.56
813.39	20413.9
813.719	20269.27
814.049	20483.27
814.378	20315.37
814.707	20241.25
815.036	20219.1
815.365	20119.89
815.693	19937.75
816.022	19983.18
816.351	19923.29
816.68	19777.3
817.008	19979.11
817.337	19730.07
817.665	19630.19
817.994	19814.37
818.322	19663.86
818.651	19612.56
818.979	19475.62
819.307	19535.73
819.636	19566.69
819.964	19375.28
820.292	19387.71
820.62	19388.84
820.948	19334.6
821.276	19390.65
821.604	19277.88
821.932	19354.27
822.259	19354.94
822.587	19243.31
822.915	19180.03
823.243	19290.54
823.57	19135.06
823.898	19204.21
824.225	19175.29
824.553	19175.96
824.88	19253.25
825.207	19334.6
825.535	19190.43
825.862	19223.2
826.189	19194.95
826.516	19318.79
826.843	19311.1
827.17	19299.13
827.497	19220.26
827.824	19126.25
828.151	19288.73
828.478	19216.19
828.805	19214.83
829.131	19211.22
829.458	19122.86
829.785	19088.28
830.111	19077.44
830.438	19196.76
830.764	19134.38
831.09	19152.46
831.417	19038.79
831.743	19111.33
832.069	19093.71
832.395	19001.51
832.722	19080.37
833.048	18963.99
833.374	19085.35
833.7	18987.27
834.026	18968.06
834.351	18923.32
834.677	18889.19
835.003	18900.04
835.329	18939.81
835.654	18839.93
835.98	18748.63
836.306	18835.18
836.631	18737.56
836.956	18795.64
837.282	18872.47
837.607	18685.13
837.932	18673.61
838.258	18705.69
838.583	18594.74
838.908	18413.72
839.233	18568.3
839.558	18565.81
839.883	18422.99
840.208	18350.45
840.533	18379.6
840.858	18429.54
841.182	18448.07
841.507	18449.66
841.832	18264.58
842.156	18191.58
842.481	18256.21
842.805	18194.52
843.13	18032.27
843.454	18040.63
843.778	17946.62
844.103	17902.1
844.427	17862.1
844.751	17925.6
845.075	17814.87
845.399	17825.27
845.723	17812.61
846.047	17686.96
846.371	17545.5
846.695	17573.07
847.019	17401.55
847.343	17319.06
847.666	17281.1
847.99	17175.57
848.313	17118.39
848.637	17017.15
848.96	17064.61
849.284	16953.65
849.607	16766.31
849.931	16736.48
850.254	16621.46
850.577	16576.94
850.9	16444.29
851.223	16475.7
851.546	16362.25
851.869	16244.52
852.192	16435.02
852.515	16258.98
852.838	16236.16
853.161	16121.81
853.483	16143.95
853.806	16040
854.129	15974.69
854.451	15913.9
854.774	15809.95
855.096	15776.96
855.419	15774.25
855.741	15742.61
856.063	15647.92
856.385	15539
856.708	15481.37
857.03	15503.52
857.352	15416.29
857.674	15299.23
857.996	15332.9
858.318	15183.3
858.64	15319.12
858.961	15181.72
859.283	15195.73
859.605	15094.72
859.926	15120.93
860.248	15017.2
860.57	14923.87
860.891	14961.16
861.212	14910.77
861.534	14847.26
861.855	14897.89
862.176	14817.66
862.498	14862.63
862.819	14816.08
863.14	14768.4
863.461	14682.98
863.782	14678.68
864.103	14631.45
864.424	14638.68
864.745	14634.84
865.065	14460.61
865.386	14536.54
865.707	14540.83
866.027	14527.5
866.348	14451.57
866.668	14523.88
866.989	14497.67
867.309	14252.48
867.63	14347.39
867.95	14273.49
868.27	14152.82
868.59	14271.23
868.91	14285.02
869.23	14281.86
869.55	14271.91
869.87	14209.99
870.19	14214.97
870.51	14171.35
870.83	14125.93
871.15	13979.04
871.469	14061.75
871.789	14125.48
872.109	14075.31
872.428	13894.52
872.748	14009.32
873.067	13913.5
873.386	13940.17
873.706	13913.73
874.025	13871.92
874.344	13794.86
874.663	13892.49
874.982	13777.46
875.301	13737.46
875.62	13738.82
875.939	13713.51
876.258	13726.16
876.577	13628.09
876.896	13672.15
877.214	13621.08
877.533	13583.8
877.852	13619.73
878.17	13627.86
878.489	13589.22
878.807	13537.92
879.125	13507.64
879.444	13525.27
879.762	13494.53
880.08	13443.01
880.398	13407.3
880.716	13376.8
881.034	13297.93
881.352	13369.11
881.67	13368.89
881.988	13269
882.306	13223.8
882.624	13209.79
882.941	13127.76
883.259	12993.75
883.577	13067.88
883.894	12999.86
884.212	13012.51
884.529	12891.16
884.846	12967.54
885.164	12912.85
885.481	12878.05
885.798	12934.09
886.115	12783.14
886.432	12839.41
886.75	12709.02
887.067	12844.61
887.383	12725.74
887.7	12745.4
888.017	12754.66
888.334	12686.19
888.651	12682.58
888.967	12626.76
889.284	12575.91
889.6	12539.08
889.917	12406.88
890.233	12442.81
890.55	12375.92
890.866	12298.63
891.182	12344.96
891.498	12256.6
891.815	12220.22
892.131	12077.85
892.447	12139.54
892.763	12158.52
893.079	12078.98
893.395	12016.38
893.71	12059.54
894.026	11958.3
894.342	11947.68
894.657	11862.71
894.973	11866.55
895.289	11822.94
895.604	11805.09
895.92	11740.45
896.235	11644.64
896.55	11688.7
896.865	11615.03
897.181	11629.5
897.496	11578.65
897.811	11497.97
898.126	11525.54
898.441	11447.13
898.756	11408.49
899.071	11369.39
899.386	11318.77
899.7	11290.07
900.015	11229.06
900.33	11200.13
900.644	11194.48
900.959	11149.74
901.273	11116.29
901.588	11084.88
901.902	10957.65
902.216	10928.27
902.531	10952
902.845	10845.11
903.159	10786.13
903.473	10768.95
903.787	10684.89
904.101	10666.36
904.415	10603.08
904.729	10597.89
905.042	10623.65
905.356	10599.69
905.67	10527.83
905.984	10525.8
906.297	10476.31
906.611	10438.79
906.924	10374.84
907.237	10281.28
907.551	10295.29
907.864	10255.07
908.177	10205.81
908.491	10235.18
908.804	10146.37
909.117	10056.43
909.43	10013.95
909.743	9984.12
910.056	9969.43
910.368	9875.19
910.681	9862.31
910.994	9794.29
911.307	9846.72
911.619	9724.01
911.932	9693.28
912.244	9705.03
912.557	9705.25
912.869	9637.68
913.181	9529.89
913.494	9513.62
913.806	9494.19
914.118	9468.2
914.43	9361.08
914.742	9407.41
915.054	9383
915.366	9358.6
915.678	9237.24
915.99	9160.86
916.302	9126.96
916.613	9147.53
916.925	9125.16
917.236	9081.09
917.548	8992.28
917.859	9052.39
918.171	8970.81
918.482	8926.52
918.794	8807.88
919.105	8832.28
919.416	8824.6
919.727	8737.14
920.038	8750.02
920.349	8676.58
920.66	8616.69
920.971	8612.63
921.282	8513.19
921.593	8490.82
921.903	8443.14
922.214	8414.21
922.525	8431.39
922.835	8335.12
923.146	8372.18
923.456	8317.04
923.767	8303.71
924.077	8195.01
924.387	8227.1
924.697	8155.01
925.008	8143.71
925.318	8140.32
925.628	7999.08
925.938	8028.24
926.248	7969.48
926.558	7928.35
926.867	8014.9
927.177	7882.25
927.487	7793.67
927.796	7727.45
928.106	7781.46
928.416	7693.33
928.725	7689.49
929.034	7643.39
929.344	7682.48
929.653	7629.83
929.962	7590.51
930.271	7513.67
930.581	7493.11
930.89	7483.39
931.199	7410.17
931.508	7455.37
931.817	7368.37
932.125	7337.86
932.434	7357.29
932.743	7250.4
933.051	7194.58
933.36	7194.81
933.669	7161.82
933.977	7135.38
934.286	7127.69
934.594	7054.02
934.902	6991.2
935.21	7019.67
935.519	6959.11
935.827	6929.51
936.135	6886.8
936.443	6873.24
936.751	6903.07
937.059	6817.42
937.367	6805.67
937.674	6760.7
937.982	6730.42
938.29	6682.28
938.597	6660.59
938.905	6651.77
939.213	6661.27
939.52	6570.87
939.827	6646.35
940.135	6498.33
940.442	6567.71
940.749	6492.68
941.056	6487.48
941.363	6419.69
941.67	6409.07
941.977	6364.32
942.284	6376.08
942.591	6358.22
942.898	6265.34
943.205	6283.87
943.511	6189.19
943.818	6149.87
944.125	6118.68
944.431	6108.51
944.738	6130.88
945.044	6072.35
945.35	6035.52
945.657	5987.38
945.963	5988.06
946.269	5997.55
946.575	5980.15
946.881	5924.79
947.187	5948.97
947.493	5888.86
947.799	5887.05
948.105	5786.03
948.41	5753.72
948.716	5793.72
949.022	5742.65
949.327	5716.43
949.633	5654.29
949.938	5673.27
950.244	5678.24
950.549	5596.21
950.854	5553.72
951.16	5585.36
951.465	5529.54
951.77	5516.21
952.075	5520.73
952.38	5481.86
952.685	5466.95
952.99	5429.21
953.294	5403.9
953.599	5353.28
953.904	5351.24
954.209	5282.77
954.513	5269.44
954.818	5251.81
955.122	5257.01
955.426	5255.88
955.731	5187.41
956.035	5149.21
956.339	5191.25
956.643	5168.2
956.948	5162.32
957.252	5108.99
957.556	5071.02
957.86	5039.84
958.163	5034.42
958.467	5007.52
958.771	5019.73
959.075	4934.08
959.378	4977.69
959.682	4967.07
959.985	4907.41
960.289	4862.22
960.592	4878.94
960.896	4827.19
961.199	4850.92
961.502	4810.01
961.805	4760.3
962.108	4728.66
962.411	4736.12
962.714	4689.11
963.017	4686.63
963.32	4695.44
963.623	4647.31
963.926	4636.91
964.228	4628.78
964.531	4616.57
964.833	4588.1
965.136	4544.03
965.438	4549.46
965.741	4488.22
966.043	4500.87
966.345	4510.14
966.648	4469.68
966.95	4466.75
967.252	4419.52
967.554	4379.97
967.856	4405.51
968.158	4353.3
968.46	4306.98
968.761	4295.45
969.063	4303.59
969.365	4257.94
969.666	4273.98
969.968	4204.38
970.269	4204.61
970.571	4222.46
970.872	4209.58
971.174	4151.5
971.475	4128.45
971.776	4116.02
972.077	4131.84
972.378	4072.86
972.679	4097.04
972.98	4086.87
973.281	3997.83
973.582	4010.26
973.883	3988.12
974.183	3957.83
974.484	3937.04
974.785	3920.77
975.085	3901.79
975.386	3925.74
975.686	3924.61
975.986	3872.41
976.287	3901.34
976.587	3842.13
976.887	3809.36
977.187	3814.33
977.487	3778.86
977.787	3749.03
978.087	3762.81
978.387	3748.8
978.687	3725.98
978.987	3678.75
979.286	3688.24
979.586	3650.05
979.885	3686.88
980.185	3615.92
980.484	3592.65
980.784	3600.78
981.083	3572.53
981.382	3588.35
981.682	3530.95
981.981	3562.14
982.28	3518.52
982.579	3488.47
982.878	3515.59
983.177	3480.11
983.475	3482.82
983.774	3457.96
984.073	3430.16
984.372	3426.77
984.67	3410.28
984.969	3386.55
985.267	3372.76
985.566	3359.21
985.864	3352.43
986.162	3373.22
986.461	3265.65
986.759	3290.96
987.057	3275.59
987.355	3246.44
987.653	3256.16
987.951	3245.99
988.249	3197.18
988.547	3168.93
988.844	3174.58
989.142	3209.6
989.44	3150.4
989.737	3123.28
990.035	3123.05
990.332	3104.07
990.63	3072.43
990.927	3103.39
991.224	3065.65
991.521	3033.56
991.819	3064.3
992.116	3030.17
992.413	3031.3
992.71	2999.44
993.006	2965.09
993.303	2966.45
993.6	2922.61
993.897	2944.53
994.193	2933.91
994.49	2924.64
994.787	2881.03
995.083	2861.14
995.379	2859.78
995.676	2819.78
995.972	2810.07
996.268	2817.52
996.565	2764.19
996.861	2780.92
997.157	2772.78
997.453	2728.49
997.749	2730.52
998.044	2689.39
998.34	2740.24
998.636	2709.51
998.932	2649.17
999.227	2665.21
999.523	2674.48
999.818	2655.27
1000.114	2625.67
1000.409	2598.77
1000.704	2540.24
1001	2571.2
1001.295	2578.89
1001.59	2571.88
1001.885	2539.11
1002.18	2502.96
1002.475	2525.33
1002.77	2515.61
1003.065	2498.66
1003.359	2487.14
1003.654	2484.65
1003.949	2448.49
1004.243	2425.22
1004.538	2405.33
1004.832	2391.55
1005.127	2384.99
1005.421	2389.74
1005.715	2373.92
1006.009	2342.96
1006.304	2307.71
1006.598	2328.05
1006.892	2285.56
1007.186	2277.88
1007.48	2292.34
1007.773	2269.06
1008.067	2306.58
1008.361	2250.08
1008.655	2200.37
1008.948	2233.36
1009.242	2203.98
1009.535	2211.44
1009.829	2199.24
1010.122	2159.01
1010.415	2134.83
1010.708	2150.65
1011.001	2135.96
1011.295	2117.2
1011.588	2090.54
1011.881	2071.33
1012.173	2081.5
1012.466	2084.21
1012.759	2079.47
1013.052	2049.18
1013.344	2021.84
1013.637	2002.86
1013.93	1993.82
1014.222	1993.14
1014.514	1975.51
1014.807	1995.4
1015.099	1959.92
1015.391	1935.97
1015.683	1898.45
1015.976	1885.12
1016.268	1898.23
1016.56	1875.18
1016.851	1867.04
1017.143	1905.46
1017.435	1850.54
1017.727	1845.57
1018.018	1860.49
1018.31	1843.31
1018.602	1808.51
1018.893	1798.12
1019.185	1790.43
1019.476	1754.95
1019.767	1748.85
1020.058	1737.78
1020.35	1751.79
1020.641	1733.71
1020.932	1724.22
1021.223	1691.68
1021.514	1695.29
1021.804	1675.86
1022.095	1666.37
1022.386	1679.93
1022.677	1660.04
1022.967	1637.89
1023.258	1648.97
1023.548	1606.94
1023.839	1601.29
1024.129	1597.22
1024.419	1604
1024.709	1576.65
1025	1570.78
1025.29	1571.68
1025.58	1554.96
1025.87	1536.2
1026.16	1513.83
1026.449	1505.02
1026.739	1501.18
1027.029	1475.19
1027.319	1482.64
1027.608	1477.22
1027.898	1440.16
1028.187	1478.58
1028.477	1459.14
1028.766	1420.27
1029.055	1420.27
1029.344	1422.53
1029.634	1406.94
1029.923	1383.44
1030.212	1373.72
1030.501	1358.13
1030.79	1400.16
1031.078	1360.84
1031.367	1347.28
1031.656	1331.91
1031.945	1345.25
1032.233	1304.34
1032.522	1296.89
1032.81	1287.17
1033.099	1294.85
1033.387	1274.06
1033.675	1257.79
1033.963	1271.58
1034.251	1257.34
1034.54	1248.98
1034.828	1225.02
1035.116	1207.4
1035.403	1239.49
1035.691	1206.95
1035.979	1206.72
1036.267	1198.58
1036.554	1214.63
1036.842	1190.67
1037.129	1165.36
1037.417	1146.16
1037.704	1154.07
1037.992	1149.55
1038.279	1128.08
1038.566	1107.97
1038.853	1107.97
1039.14	1107.97
