Data from plate_ceramic_FLMS001491_010.txt Node
Date: Tue Feb 07 11:16:15 GMT 2017
User: dcchb
Spectrometer: FLMS00149
Trigger mode: 0
Integration Time (sec): 2.000000E-2
Scans to average: 10
Electric dark correction enabled: true
Nonlinearity correction enabled: false
Boxcar width: 0
XAxis mode: Wavelengths
Number of Pixels in Spectrum: 2048
>>>>>Begin Spectral Data<<<<<
341.393	-1.09
341.776	-1.09
342.16	-1.09
342.543	-48.77
342.927	-51.93
343.31	-70.46
343.693	-79.5
344.077	-49.22
344.46	-49.9
344.843	-57.13
345.226	-53.29
345.61	-30.69
345.993	-18.94
346.376	-1.99
346.759	6.82
347.142	39.82
347.525	32.81
347.908	59.7
348.291	76.2
348.674	82.3
349.057	113.49
349.44	120.27
349.823	139.02
350.206	160.94
350.588	210.66
350.971	238.91
351.354	219.47
351.737	251.11
352.119	262.18
352.502	269.87
352.884	276.42
353.267	302.18
353.65	312.8
354.032	330.66
354.414	313.03
354.797	325.23
355.179	354.84
355.562	338.56
355.944	358.9
356.326	369.3
356.709	361.39
357.091	351.45
357.473	362.07
357.855	342.41
358.238	368.17
358.62	363.87
359.002	358.9
359.384	371.56
359.766	367.26
360.148	368.17
360.53	367.72
360.912	366.81
361.294	365.23
361.676	379.47
362.057	325.01
362.439	348.51
362.821	357.1
363.203	363.2
363.584	354.16
363.966	365.91
364.348	365.91
364.729	371.56
365.111	359.58
365.493	362.29
365.874	340.82
366.256	355.29
366.637	338.56
367.019	339.02
367.4	351.9
367.781	345.12
368.163	354.61
368.544	361.39
368.925	358.23
369.306	359.35
369.688	355.06
370.069	373.82
370.45	348.73
370.831	340.82
371.212	363.65
371.593	377.66
371.974	365.46
372.355	367.72
372.736	393.7
373.117	385.79
373.498	369.3
373.879	373.82
374.26	376.98
374.641	381.73
375.021	369.52
375.402	377.43
375.783	399.35
376.163	400.71
376.544	395.29
376.925	398.68
377.305	413.14
377.686	393.03
378.066	394.61
378.447	384.89
378.827	404.78
379.208	411.11
379.588	415.62
379.968	426.7
380.349	414.27
380.729	418.56
381.109	437.32
381.489	445.68
381.87	423.31
382.25	430.77
382.63	427.38
383.01	431.44
383.39	460.37
383.77	440.26
384.15	453.36
384.53	437.54
384.91	426.47
385.29	459.01
385.67	472.12
386.049	467.37
386.429	475.51
386.809	484.32
387.189	472.8
387.568	468.96
387.948	491.33
388.328	512.8
388.707	464.21
389.087	505.11
389.466	510.54
389.846	547.15
390.225	504.66
390.605	510.54
390.984	529.07
391.363	530.65
391.743	531.33
392.122	538.56
392.501	546.24
392.881	551.21
393.26	557.54
393.639	572
394.018	572.46
394.397	565.23
394.776	578.78
395.155	592.12
395.534	590.31
395.913	601.38
396.292	597.31
396.671	599.12
397.05	613.13
397.429	616.3
397.808	623.75
398.186	600.93
398.565	624.21
398.944	629.63
399.323	630.08
399.701	648.39
400.08	662.62
400.458	658.56
400.837	668.73
401.215	682.51
401.594	687.03
401.972	669.86
402.351	699.23
402.729	690.65
403.107	698.33
403.486	698.56
403.864	736.97
404.242	742.17
404.62	738.78
404.999	738.78
405.377	760.25
405.755	742.62
406.133	767.71
406.511	783.3
406.889	793.92
407.267	780.59
407.645	793.47
408.023	800.7
408.401	823.98
408.779	822.62
409.156	834.37
409.534	856.52
409.912	856.52
410.29	860.81
410.667	875.95
411.045	890.87
411.422	887.7
411.8	911.88
412.178	939.9
412.555	949.17
412.933	953.69
413.31	955.05
413.687	989.85
414.065	985.1
414.442	991.65
414.819	1001.6
415.197	983.75
415.574	1050.18
415.951	1037.53
416.328	1061.26
416.705	1077.53
417.082	1077.3
417.46	1099.45
417.837	1098.32
418.214	1101.93
418.591	1121.14
418.967	1135.83
419.344	1136.28
419.721	1132.44
420.098	1188.94
420.475	1163.63
420.852	1188.26
421.228	1226.45
421.605	1225.09
421.982	1222.61
422.358	1238.65
422.735	1247.47
423.111	1261.93
423.488	1290.86
423.864	1310.52
424.241	1308.26
424.617	1331.31
424.994	1311.87
425.37	1342.38
425.746	1385.99
426.123	1412.89
426.499	1396.39
426.875	1403.4
427.251	1439.1
427.627	1459.44
428.003	1466.67
428.379	1519.78
428.756	1515.26
429.132	1531.53
429.507	1539.44
429.883	1574.69
430.259	1617.63
430.635	1608.14
431.011	1611.53
431.387	1654.69
431.763	1679.32
432.138	1709.15
432.514	1710.51
432.89	1717.29
433.265	1759.54
433.641	1782.37
434.016	1817.85
434.392	1824.4
434.767	1857.85
435.143	1858.3
435.518	1905.98
435.894	1883.16
436.269	1917.73
436.644	1958.18
437.02	1992.08
437.395	2021.91
437.77	2046.77
438.145	2050.84
438.52	2072.53
438.895	2096.71
439.271	2130.83
439.646	2169.02
440.021	2156.14
440.395	2144.62
440.77	2179.19
441.145	2194.33
441.52	2243.83
441.895	2228.23
442.27	2254.22
442.645	2292.64
443.019	2273.88
443.394	2321.11
443.769	2317.5
444.143	2330.38
444.518	2349.59
444.892	2338.29
445.267	2393.65
445.641	2431.39
446.016	2443.82
446.39	2460.09
446.764	2465.51
447.139	2439.98
447.513	2478.17
447.887	2519.52
448.262	2532.18
448.636	2523.59
449.01	2584.16
449.384	2594.55
449.758	2610.37
450.132	2636.58
450.506	2646.53
450.88	2674.32
451.254	2695.11
451.628	2732.17
452.002	2741.21
452.376	2793.19
452.75	2806.3
453.123	2838.84
453.497	2892.17
453.871	2904.82
454.244	2981.88
454.618	3008.32
454.992	3043.8
455.365	2990.02
455.739	3114.08
456.112	3174.87
456.486	3156.12
456.859	3240.41
457.232	3277.24
457.606	3270.92
457.979	3344.14
458.352	3358.6
458.725	3418.71
459.099	3435.21
459.472	3495.77
459.845	3571.7
460.218	3619.83
460.591	3682.21
460.964	3657.35
461.337	3713.84
461.71	3783.9
462.083	3839.49
462.456	3846.95
462.829	3875.19
463.201	3916.1
463.574	3943.44
463.947	4044.68
464.32	4082.19
464.692	4172.36
465.065	4179.14
465.438	4246.03
465.81	4329.42
466.183	4373.49
466.555	4439.25
466.928	4454.16
467.3	4525.35
467.672	4547.49
468.045	4668.17
468.417	4699.35
468.789	4754.95
469.161	4781.16
469.534	4863.19
469.906	5016.41
470.278	4974.37
470.65	5063.64
471.022	5157.42
471.394	5261.15
471.766	5294.14
472.138	5362.16
472.51	5460.46
472.882	5590.18
473.253	5632.21
473.625	5759.21
473.997	5877.63
474.369	5909.94
474.74	5968.47
475.112	6128.69
475.484	6185.19
475.855	6291.63
476.227	6318.75
476.598	6483.49
476.97	6552.19
477.341	6740.2
477.713	6840.77
478.084	6861.1
478.455	7089.8
478.827	7090.25
479.198	7366.63
479.569	7364.14
479.94	7593.06
480.311	7643.23
480.682	7802.78
481.053	7942.88
481.424	8079.6
481.795	8205.48
482.166	8344.68
482.537	8504.9
482.908	8614.05
483.279	8720.49
483.65	8869.87
484.021	9025.79
484.391	9171.1
484.762	9260.36
485.133	9368.16
485.503	9461.26
485.874	9664.65
486.244	9744.64
486.615	9962.49
486.985	10115.03
487.356	10280.22
487.726	10320.67
488.097	10568.13
488.467	10578.75
488.837	10847.44
489.207	11043.37
489.578	11109.58
489.948	11305.51
490.318	11437.93
490.688	11398.16
491.058	11665.72
491.428	11834.08
491.798	11909.11
492.168	12207.63
492.538	12256.9
492.908	12416.44
493.278	12512.48
493.648	12552.93
494.017	12827.5
494.387	12857.11
494.757	13048.74
495.126	13119.02
495.496	13154.05
495.866	13336.87
496.235	13461.16
496.605	13641.49
496.974	13690.3
497.344	13845.78
497.713	13880.58
498.082	14001.71
498.452	14198.54
498.821	14269.72
499.19	14444.86
499.559	14453.67
499.928	14497.97
500.298	14725.08
500.667	14890.72
501.036	14747.9
501.405	15002.36
501.774	15057.27
502.143	15135.69
502.512	15255.91
502.88	15381.33
503.249	15456.81
503.618	15680.99
503.987	15687.54
504.356	15760.98
504.724	15891.38
505.093	15935.89
505.462	16094.53
505.83	16196.23
506.199	16298.37
506.567	16526.84
506.936	16625.14
507.304	16770.45
507.672	16852.71
508.041	16886.83
508.409	17044.11
508.777	17179.25
509.145	17273.71
509.514	17393.26
509.882	17564.1
510.25	17595.51
510.618	17751.44
510.986	17751.89
511.354	17998.89
511.722	18185.55
512.09	18347.81
512.458	18430.74
512.826	18519.1
513.193	18661.47
513.561	18793.67
513.929	19021.69
514.297	19101.01
514.664	19188.01
515.032	19366.76
515.4	19552.75
515.767	19522.69
516.135	19704.83
516.502	19679.75
516.869	20050.36
517.237	20122.9
517.604	20036.8
517.972	20460.3
518.339	20556.34
518.706	20580.97
519.073	20741.42
519.44	20770.8
519.808	21133.27
520.175	21188.41
520.542	21480.38
520.909	21594.95
521.276	21621.17
521.643	21809.19
522.009	21979.13
522.376	22111.33
522.743	22283.07
523.11	22540.69
523.477	22655.04
523.843	22904.52
524.21	23193.1
524.577	23297.51
524.943	23402.59
525.31	23515.36
525.676	23780.66
526.043	23930.71
526.409	24001.67
526.776	24313.08
527.142	24396.69
527.508	24570.47
527.874	24770.46
528.241	24944.02
528.607	24975.2
528.973	25381.3
529.339	25248.42
529.705	25518.69
530.071	25719.59
530.437	25802.53
530.803	26085.01
531.169	26271.67
531.535	26169.75
531.901	26324.77
532.267	26545.11
532.632	26636.86
532.998	26822.39
533.364	26957.07
533.73	27188.93
534.095	27327.91
534.461	27423.95
534.826	27609.26
535.192	27649.48
535.557	27811.06
535.923	27909.82
536.288	28035.92
536.653	28260.32
537.019	28173.54
537.384	28399.52
537.749	28366.08
538.114	28533.3
538.479	28578.27
538.845	28752.28
539.21	28711.83
539.575	28955.89
539.94	29124.02
540.305	29268.88
540.67	29171.48
541.034	29455.09
541.399	29547.06
541.764	29634.74
542.129	29690.34
542.494	29837
542.858	29856.43
543.223	29984.56
543.587	30237.21
543.952	30072.47
544.316	30183.2
544.681	30449.41
545.045	30451.9
545.41	30686.47
545.774	30841.72
546.138	30738.22
546.503	30871.32
546.867	30889.4
547.231	31254.81
547.595	31324.19
547.959	31410.06
548.324	31392.44
548.688	31531.42
549.052	31726.89
549.416	31761.24
549.779	31821.13
550.143	32012.53
550.507	32323.03
550.871	32307.67
551.235	32222.02
551.599	32563.48
551.962	32612.97
552.326	32761.89
552.689	32966.18
553.053	32771.84
553.417	33039.4
553.78	33455.43
554.143	33275.33
554.507	33399.39
554.87	33653.62
555.234	33997.34
555.597	33862.2
555.96	34033.95
556.323	34199.6
556.686	34101.52
557.05	34361.62
557.413	34579.92
557.776	34697.89
558.139	34986.69
558.502	34885.9
558.865	35080.02
559.228	35423.97
559.59	35411.54
559.953	35475.49
560.316	35892.66
560.679	35853.56
561.041	36012.88
561.404	36170.39
561.767	36675.46
562.129	36388.69
562.492	36916.81
562.854	36861.22
563.217	36834.1
563.579	36962.69
563.941	37357.93
564.304	37436.57
564.666	37688.32
565.028	37711.14
565.39	37995.65
565.753	38167.85
566.115	38287.4
566.477	38375.08
566.839	38519.48
567.201	38710.66
567.563	38747.95
567.925	39014.61
568.287	38968.51
568.648	39196.3
569.01	39269.07
569.372	39600.58
569.734	39568.95
570.095	39846.45
570.457	39927.81
570.819	39984.08
571.18	40143.85
571.542	40403.73
571.903	40497.96
572.265	40603.72
572.626	40688.92
572.987	40796.03
573.349	40892.07
573.71	40948.12
574.071	41070.6
574.432	40970.94
574.794	41317.83
575.155	41453.64
575.516	41389.69
575.877	41662.9
576.238	41703.58
576.599	41870.13
576.96	41881.43
577.32	41927.3
577.681	42042.55
578.042	42220.18
578.403	42197.8
578.763	42280.29
579.124	42383.11
579.485	42491.13
579.845	42433.73
580.206	42433.05
580.566	42525.93
580.927	42640.96
581.287	42779.48
581.648	42768.86
582.008	42841.63
582.368	42583.56
582.728	42925.92
583.089	42864.23
583.449	42639.6
583.809	42892.7
584.169	42966.14
584.529	42858.58
584.889	43127.27
585.249	42818.8
585.609	42775.64
585.969	43137.67
586.329	42972.25
586.688	43073.26
587.048	43034.62
587.408	42982.87
587.768	42964.11
588.127	43092.92
588.487	42967.5
588.846	43387.6
589.206	43079.36
589.565	42984
589.925	43192.58
590.284	43025.58
590.643	43299.47
591.003	43202.52
591.362	43371.56
591.721	43226.25
592.08	43278.23
592.44	43471.22
592.799	43598.44
593.158	43408.17
593.517	43428.73
593.876	43544.21
594.235	43313.93
594.593	43445.45
594.952	43641.83
595.311	43482.06
595.67	43539.46
596.029	43755.73
596.387	43563.19
596.746	43679.35
597.104	43692.9
597.463	43665.11
597.822	43864.88
598.18	43600.25
598.538	43625.11
598.897	43863.3
599.255	43630.76
599.613	44162.5
599.972	43985.55
600.33	44081.37
600.688	43797.53
601.046	44150.52
601.404	44172.89
601.762	43922.96
602.12	44191.2
602.478	44264.19
602.836	44302.61
603.194	44131.31
603.552	44261.03
603.91	44109.62
604.268	44276.17
604.625	44264.87
604.983	44482.94
605.341	44170.86
605.698	44543.28
606.056	44477.97
606.413	44400.46
606.771	44672.09
607.128	44668.02
607.485	44604.97
607.843	44500.79
608.2	44819.65
608.557	44841.12
608.914	44739.66
609.272	44860.56
609.629	45082.02
609.986	45077.73
610.343	44955.7
610.7	45251.73
611.057	45134
611.414	45055.58
611.771	45228.68
612.127	45368.12
612.484	45352.3
612.841	45423.03
613.198	45220.55
613.554	45450.15
613.911	45520.65
614.267	45458.28
614.624	45532.86
614.98	45410.15
615.337	45698.5
615.693	45743.47
616.05	45755
616.406	45954.31
616.762	45779.86
617.118	45847.65
617.475	45880.87
617.831	46152.05
618.187	45883.81
618.543	45931.72
618.899	46128.32
619.255	45988.44
619.611	46093.29
619.967	46311.59
620.323	46239.5
620.678	46099.62
621.034	46060.07
621.39	46165.38
621.746	46170.13
622.101	46475.2
622.457	46180.52
622.812	46208.32
623.168	46270.24
623.523	46249.67
623.879	46409.22
624.234	46177.36
624.589	46269.79
624.945	46353.63
625.3	46258.04
625.655	46376.45
626.01	46166.06
626.365	46386.85
626.72	46376.45
627.075	46258.04
627.43	46152.28
627.785	46086.29
628.14	46201.09
628.495	46234.76
628.85	46167.19
629.205	46056.68
629.559	46265.94
629.914	45996.8
630.269	46196.57
630.623	45990.47
630.978	45944.37
631.332	46053.97
631.687	46162.22
632.041	45863.02
632.396	46104.82
632.75	45790.93
633.104	45894.65
633.459	45544.61
633.813	45653.08
634.167	45617.37
634.521	45524.27
634.875	45465.74
635.229	45513.42
635.583	45196.14
635.937	45374.67
636.291	45270.49
636.645	45188.46
636.999	45176.03
637.352	45256.71
637.706	45060.1
638.06	45369.47
638.413	45132.64
638.767	45033.89
639.121	45039.99
639.474	44809.71
639.828	44834.57
640.181	44888.13
640.534	44879.54
640.888	44670.51
641.241	44580.34
641.594	44574.69
641.947	44729.49
642.301	44629.83
642.654	44705.08
643.007	44709.83
643.36	44517.74
643.713	44333.57
644.066	44564.52
644.419	44325.66
644.771	44017.19
645.124	43718.89
645.477	43541.5
645.83	43245.46
646.182	43145.8
646.535	43080.49
646.888	43100.38
647.24	42946.48
647.593	43153.26
647.945	42996.43
648.298	42818.58
648.65	42704.46
649.002	42678.24
649.355	42760.27
649.707	42654.06
650.059	42923.89
650.411	43426.92
650.763	43317.55
651.115	43816.74
651.467	43494.94
651.819	43572.46
652.171	43354.38
652.523	43424.89
652.875	43386.02
653.227	43162.3
653.578	43438.22
653.93	43390.54
654.282	43129.76
654.633	43191.22
654.985	43221.5
655.337	43206.14
655.688	43248.62
656.039	43249.07
656.391	42897.45
656.742	43039.36
657.094	42895.64
657.445	42994.84
657.796	42965.01
658.147	42958.46
658.498	42814.28
658.849	42979.93
659.2	42829.42
659.551	42714.85
659.902	42882.98
660.253	42706.72
660.604	42679.37
660.955	42438.25
661.306	42711.91
661.656	42758.24
662.007	42731.12
662.358	42561.41
662.708	42648.41
663.059	42564.35
663.409	42259.72
663.76	42450.9
664.11	42527.29
664.461	42398.48
664.811	42533.16
665.161	42413.16
665.511	42395.09
665.862	42523.22
666.212	42579.04
666.562	42656.1
666.912	42573.16
667.262	42474.41
667.612	42337.23
667.962	42446.16
668.312	42347.63
668.662	42431.02
669.011	42369.78
669.361	42325.94
669.711	42277.8
670.06	42195.54
670.41	42136.79
670.76	42047.3
671.109	42141.53
671.459	42075.77
671.808	42140.86
672.157	42196.9
672.507	41834.42
672.856	42039.39
673.205	42016.79
673.554	42058.6
673.904	41843.01
674.253	42072.83
674.602	41832.84
674.951	41360.08
675.3	41045.52
675.649	41692.96
675.998	41720.75
676.346	41654.77
676.695	41721.43
677.044	41528.89
677.393	41725.95
677.741	41774.54
678.09	41658.83
678.438	41468.33
678.787	41716.69
679.135	41678.95
679.484	41325.06
679.832	41513.75
680.181	41288.45
680.529	41191.5
680.877	41130.94
681.225	41175.91
681.573	41452.29
681.922	41073.76
682.27	40875.13
682.618	41064.5
682.966	40848.69
683.314	40895.01
683.661	40939.98
684.009	40563.04
684.357	40511.52
684.705	40464.29
685.053	40605.75
685.4	40548.35
685.748	40260.9
686.095	40442.82
686.443	40103.85
686.79	39938.2
687.138	40003.96
687.485	40114.24
687.832	39909.95
688.18	40054.81
688.527	39731.88
688.874	39659.56
689.221	39523.07
689.568	39589.74
689.915	39276.98
690.262	39353.13
690.609	39226.58
690.956	39247.82
691.303	39121.5
691.65	38924.22
691.997	38817.78
692.344	38620.72
692.69	38706.14
693.037	38873.82
693.383	38548.63
693.73	38704.34
694.077	38385.7
694.423	38465.47
694.769	38376.43
695.116	38207.85
695.462	38273.16
695.808	38118.59
696.155	37946.62
696.501	37724.25
696.847	37730.8
697.193	37539.17
697.539	37584.82
697.885	37215.34
698.231	37176.69
698.577	37352.96
698.923	37124.72
699.269	36999.75
699.614	36788
699.96	36770.15
700.306	36887.89
700.651	36574.45
700.997	36542.58
701.342	36534.22
701.688	36310.5
702.033	36137.4
702.379	36256.04
702.724	36145.31
703.069	36097.85
703.415	35718.2
703.76	35738.76
704.105	35658.09
704.45	35570.18
704.795	35362.05
705.14	35268.04
705.485	35180.36
705.83	35359.56
706.175	35214.48
706.52	35176.74
706.865	34955.73
707.209	35036.41
707.554	34969.74
707.899	34987.37
708.243	34776.3
708.588	34709.86
708.932	34510.1
709.277	34374.28
709.621	34466.25
709.966	34270.1
710.31	34266.49
710.654	33988.08
710.998	34186.26
711.342	34106.94
711.687	33902.88
712.031	33800.96
712.375	33754.41
712.719	33694.98
713.063	33725.48
713.407	33727.29
713.75	33548.31
714.094	33547.18
714.438	33378.37
714.782	33365.04
715.125	33349.67
715.469	33361.88
715.812	33284.36
716.156	33106.52
716.499	33046.41
716.843	32961.21
717.186	32809.58
717.53	32870.14
717.873	32784.04
718.216	32827.2
718.559	32834.66
718.902	32509.02
719.246	32489.81
719.589	32536.36
719.932	32387.89
720.275	32407.33
720.617	32417.72
720.96	32342.69
721.303	32237.16
721.646	32291.4
721.989	32049.37
722.331	32113.77
722.674	31894.34
723.016	31897.73
723.359	31883.72
723.701	31863.16
724.044	31624.52
724.386	31362.38
724.729	31610.96
725.071	31623.62
725.413	31441.48
725.755	31355.15
726.097	31311.54
726.439	31137.98
726.782	31212.1
727.124	31159.45
727.465	31170.3
727.807	31170.07
728.149	31058.43
728.491	31092.56
728.833	31024.99
729.175	31059.34
729.516	30811.44
729.858	30832.23
730.199	30785.45
730.541	30726.69
730.882	30730.53
731.224	30848.5
731.565	30538.22
731.906	30551.78
732.248	30596.3
732.589	30312.47
732.93	30249.64
733.271	30302.97
733.612	30347.94
733.953	30332.58
734.294	30148.18
734.635	30044.68
734.976	30176.65
735.317	29945.92
735.658	29997.22
735.999	29940.5
736.339	29969.42
736.68	29985.24
737.021	29845.59
737.361	29738.24
737.702	29921.52
738.042	29645.14
738.383	29640.84
738.723	29690.34
739.063	29510.23
739.404	29609.43
739.744	29532.37
740.084	29393.39
740.424	29460.74
740.764	29427.97
741.104	29577.8
741.444	29308.42
741.784	29222.55
742.124	29197.47
742.464	29193.85
742.804	29067.53
743.143	28940.3
743.483	28983.46
743.823	28939.39
744.162	28831.15
744.502	28817.36
744.841	28662.11
745.181	28821.43
745.52	28697.37
745.86	28619.18
746.199	28634.09
746.538	28502.57
746.877	28481.33
747.216	28447.43
747.556	28352.07
747.895	28398.84
748.234	28301.22
748.573	28265.97
748.911	28161.56
749.25	28290.6
749.589	28090.83
749.928	27994.11
750.267	28189.58
750.605	28095.12
750.944	27891.96
751.283	27721.57
751.621	27868.46
751.96	27687.68
752.298	27722.93
752.636	27728.8
752.975	27636.6
753.313	27550.05
753.651	27460.79
753.989	27419.89
754.327	27446.1
754.666	27129.27
755.004	27099.44
755.342	27332.88
755.679	27236.16
756.017	27026
756.355	27057.41
756.693	26816.74
757.031	27072.55
757.368	26784.65
757.706	26707.36
758.044	26665.33
758.381	26699.91
758.719	26741.71
759.056	26572.68
759.394	26500.14
759.731	26353.7
760.068	26247.49
760.405	26130.43
760.743	26000.04
761.08	26047.27
761.417	25935.86
761.754	25941.96
762.091	25937.21
762.428	25834.84
762.765	25638.92
763.102	25654.74
763.438	25482.08
763.775	25343.78
764.112	25293.84
764.449	25323.22
764.785	25161.19
765.122	24977.46
765.458	24978.82
765.795	24904.02
766.131	24789
766.467	24804.81
766.804	24719.39
767.14	24511.26
767.476	24593.07
767.812	24444.6
768.148	24523.01
768.485	24285.05
768.821	24228.33
769.157	24080.09
769.492	24181.78
769.828	24101.33
770.164	23853.65
770.5	23809.59
770.836	23666.54
771.171	23592.64
771.507	23645.75
771.842	23391.74
772.178	23333.21
772.513	23432.19
772.849	23196.72
773.184	23080.11
773.519	23078.76
773.855	23086.44
774.19	22951.53
774.525	22831.76
774.86	22840.8
775.195	22750.63
775.53	22679.67
775.865	22539.79
776.2	22369.85
776.535	22208.72
776.87	22237.88
777.205	22168.05
777.539	22066.81
777.874	22227.48
778.209	21929.86
778.543	21846.93
778.878	21662.98
779.212	21746.82
779.547	21544.79
779.881	21645.8
780.215	21430.21
780.55	21437.22
780.884	21307.5
781.218	21288.52
781.552	21185.25
781.886	21092.6
782.22	21001.75
782.554	20863.9
782.888	20710.23
783.222	20752.94
783.556	20545.26
783.889	20559.5
784.223	20463.23
784.557	20373.07
784.89	20532.84
785.224	20255.78
785.557	20193.41
785.891	20242.9
786.224	20127.42
786.558	20141.89
786.891	19870.48
787.224	19791.61
787.557	19812.63
787.891	19660.09
788.224	19633.2
788.557	19590.71
788.89	19530.15
789.223	19456.48
789.556	19435.24
789.888	19331.06
790.221	19277.28
790.554	19217.84
790.887	19168.8
791.219	19096.26
791.552	19063.04
791.884	18937.85
792.217	18921.13
792.549	18889.49
792.882	18639.33
793.214	18571.98
793.546	18662.15
793.879	18466.9
794.211	18440.69
794.543	18466.45
794.875	18313.91
795.207	18416.06
795.539	18198.66
795.871	18286.12
796.203	18159.79
796.535	17926.8
796.867	17973.81
797.198	17845.67
797.53	17930.64
797.862	17753.25
798.193	17776.75
798.525	17695.62
798.856	17711.89
799.188	17450.88
799.519	17472.35
799.85	17356.42
800.182	17407.72
800.513	17398.68
800.844	17248.4
801.175	17393.71
801.506	17241.85
801.837	17194.17
802.168	17144.22
802.499	17119.37
802.83	16881.63
803.161	16887.06
803.491	16940.16
803.822	16940.39
804.153	16800.5
804.483	16701.07
804.814	16599.61
805.145	16635.99
805.475	16577.01
805.805	16527.52
806.136	16542.66
806.466	16440.74
806.796	16476.45
807.126	16364.58
807.457	16296.34
807.787	16307.86
808.117	16144.25
808.447	16068.77
808.777	16052.95
809.107	15956.23
809.436	15986.51
809.766	15953.07
810.096	15890.92
810.426	15789.46
810.755	15852.96
811.085	15774.54
811.414	15746.75
811.744	15645.28
812.073	15628.11
812.403	15528.22
812.732	15502.23
813.061	15452.97
813.39	15340.43
813.719	15397.83
814.049	15446.42
814.378	15356.93
814.707	15327.32
815.036	15276.93
815.365	15180.89
815.693	15083.26
816.022	15152.19
816.351	14974.56
816.68	15017.5
817.008	14967.33
817.337	14898.41
817.665	14884.62
817.994	14880.33
818.322	14873.1
818.651	14771.41
818.979	14730.73
819.307	14762.14
819.636	14685.98
819.964	14611.86
820.292	14623.16
820.62	14633.56
820.948	14579.55
821.276	14681.92
821.604	14552.65
821.932	14543.39
822.259	14593.56
822.587	14554.46
822.915	14532.99
823.243	14542.48
823.57	14514.24
823.898	14580.68
824.225	14454.8
824.553	14441.47
824.88	14556.04
825.207	14612.31
825.535	14460.23
825.862	14544.07
826.189	14453.9
826.516	14549.04
826.843	14627.45
827.17	14556.5
827.497	14536.38
827.824	14496.38
828.151	14545.42
828.478	14460.23
828.805	14460.23
829.131	14436.27
829.458	14439.21
829.785	14402.83
830.111	14404.64
830.438	14546.55
830.764	14477.4
831.09	14464.97
831.417	14394.24
831.743	14369.38
832.069	14410.28
832.395	14388.59
832.722	14341.13
833.048	14285.54
833.374	14321.7
833.7	14237.18
834.026	14334.81
834.351	14332.32
834.677	14252.77
835.003	14305.2
835.329	14305.88
835.654	14311.76
835.98	14234.24
836.306	14191.99
836.631	14075.83
836.956	14261.81
837.282	14225.21
837.607	14111.99
837.932	14113.57
838.258	14043.29
838.583	14173.23
838.908	13930.52
839.233	13944.99
839.558	13915.38
839.883	13850.75
840.208	13801.71
840.533	13882.16
840.858	13927.36
841.182	13906.57
841.507	13831.32
841.832	13850.3
842.156	13768.95
842.481	13833.58
842.805	13683.52
843.13	13683.3
843.454	13586.58
843.778	13511.55
844.103	13558.1
844.427	13425.9
844.751	13546.35
845.075	13508.39
845.399	13472.91
845.723	13344.55
846.047	13428.39
846.371	13317.43
846.695	13286.25
847.019	13147.95
847.343	13048.29
847.666	12928.74
847.99	12921.96
848.313	12902.3
848.637	12845.58
848.96	12814.85
849.284	12744.79
849.607	12727.39
849.931	12698.01
850.254	12579.37
850.577	12528.3
850.9	12435.2
851.223	12378.47
851.546	12365.14
851.869	12297.57
852.192	12304.35
852.515	12193.17
852.838	12224.13
853.161	12214.86
853.483	12128.09
853.806	12083.34
854.129	12099.39
854.451	12016.22
854.774	11984.81
855.096	11910.24
855.419	11835.21
855.741	11891.26
856.063	11794.08
856.385	11786.17
856.708	11753.18
857.03	11638.83
857.352	11686.06
857.674	11587.31
857.996	11542.56
858.318	11400.19
858.64	11488.1
858.961	11479.74
859.283	11450.14
859.605	11351.83
859.926	11370.36
860.248	11308.67
860.57	11301.89
860.891	11295.79
861.212	11216.7
861.534	11266.86
861.855	11126.08
862.176	11268.67
862.498	11286.75
862.819	11202.46
863.14	11117.49
863.461	11083.82
863.782	11039.07
864.103	11072.07
864.424	11059.41
864.745	11119.75
865.065	11033.88
865.386	10946.42
865.707	10996.14
866.027	10995.46
866.348	10957.27
866.668	11019.64
866.989	10965.63
867.309	10832.3
867.63	10842.47
867.95	10736.94
868.27	10770.15
868.59	10704.62
868.91	10710.5
869.23	10733.32
869.55	10693.09
869.87	10782.13
870.19	10716.37
870.51	10667.33
870.83	10653.55
871.15	10563.61
871.469	10600.44
871.789	10572.19
872.109	10610.61
872.428	10489.26
872.748	10535.13
873.067	10507.79
873.386	10513.66
873.706	10494.68
874.025	10428.24
874.344	10355.25
874.663	10423.27
874.982	10341.92
875.301	10395.02
875.62	10364.52
875.939	10352.99
876.258	10319.55
876.577	10271.18
876.896	10268.92
877.214	10174.46
877.533	10262.82
877.852	10231.41
878.17	10274.57
878.489	10276.38
878.807	10227.57
879.125	10182.37
879.444	10207.68
879.762	10093.79
880.08	10187.57
880.398	10147.57
880.716	10141.02
881.034	10066.22
881.352	10102.15
881.67	10073
881.988	9948.26
882.306	10105.54
882.624	10026.45
882.941	9891.53
883.259	9889.05
883.577	9891.53
883.894	9880.91
884.212	9839.33
884.529	9873.46
884.846	9815.83
885.164	9773.12
885.481	9744.42
885.798	9726.57
886.115	9663.52
886.432	9665.32
886.75	9571.77
887.067	9623.97
887.383	9574.03
887.7	9645.66
888.017	9660.58
888.334	9567.47
888.651	9524.99
888.967	9575.84
889.284	9464.88
889.6	9471.88
889.917	9336.52
890.233	9371.1
890.55	9353.69
890.866	9376.74
891.182	9295.62
891.498	9241.38
891.815	9200.7
892.131	9183.76
892.447	9200.48
892.763	9145.34
893.079	9201.38
893.395	9111.67
893.71	9108.28
894.026	9082.06
894.342	9057.88
894.657	8972.24
894.973	8976.98
895.289	8951.9
895.604	8959.81
895.92	8861.05
896.235	8827.38
896.55	8860.6
896.865	8794.61
897.181	8765.69
897.496	8768.4
897.811	8744.22
898.126	8675.97
898.441	8641.85
898.756	8640.95
899.071	8540.61
899.386	8582.19
899.7	8509.42
900.015	8449.99
900.33	8419.93
900.644	8418.35
900.959	8490.67
901.273	8405.25
901.588	8346.94
901.902	8316.43
902.216	8257.68
902.531	8282.99
902.845	8203.44
903.159	8203.89
903.473	8150.11
903.787	8091.13
904.101	8013.17
904.415	8006.61
904.729	8076.44
905.042	8014.07
905.356	7957.8
905.67	7975.2
905.984	7973.84
906.297	7979.04
906.611	7877.8
906.924	7842.32
907.237	7807.75
907.551	7807.07
907.864	7757.58
908.177	7772.27
908.491	7702.89
908.804	7649.78
909.117	7736.56
909.43	7546.28
909.743	7488.66
910.056	7565.04
910.368	7493.18
910.681	7456.8
910.994	7452.5
911.307	7407.08
911.619	7361.88
911.932	7398.72
912.244	7246.41
912.557	7255.44
912.869	7218.38
913.181	7268.1
913.494	7249.34
913.806	7160.53
914.118	7088.67
914.43	7085.73
914.742	7143.58
915.054	7072.62
915.366	7028.33
915.678	6991.72
915.99	6947.2
916.302	6935.68
916.613	6863.82
916.925	6904.49
917.236	6856.13
917.548	6743.14
917.859	6860.43
918.171	6790.15
918.482	6784.95
918.794	6693.2
919.105	6669.02
919.416	6650.94
919.727	6615.91
920.038	6582.92
920.349	6566.88
920.66	6525.97
920.971	6526.42
921.282	6500.66
921.593	6373.43
921.903	6384.28
922.214	6389.93
922.525	6364.17
922.835	6303.83
923.146	6328.92
923.456	6308.13
923.767	6252.76
924.077	6207.34
924.387	6199.65
924.697	6215.7
925.008	6162.14
925.318	6093.67
925.628	6129.15
925.938	6076.27
926.248	6048.02
926.558	5995.36
926.867	5994.69
927.177	5990.39
927.487	5971.41
927.796	5936.16
928.106	5934.12
928.416	5872.66
928.725	5812.09
929.034	5739.1
929.344	5765.99
929.653	5792.43
929.962	5735.94
930.271	5715.6
930.581	5741.36
930.89	5685.32
931.199	5627.92
931.508	5642.83
931.817	5619.78
932.125	5572.1
932.434	5566.22
932.743	5509.5
933.051	5509.5
933.36	5506.79
933.669	5421.14
933.977	5403.06
934.286	5355.38
934.594	5374.59
934.902	5399.45
935.21	5341.6
935.519	5362.39
935.827	5312.22
936.135	5280.36
936.443	5208.27
936.751	5199
937.059	5213.69
937.367	5121.72
937.674	5156.06
937.982	5142.05
938.29	5132.56
938.597	5112.68
938.905	5069.51
939.213	5064.54
939.52	5078.33
939.827	5027.03
940.135	4984.54
940.442	4998.1
940.749	4915.39
941.056	4959.91
941.363	4885.79
941.67	4863.64
941.977	4850.31
942.284	4825.68
942.591	4835.62
942.898	4846.24
943.205	4792.23
943.511	4750.43
943.818	4777.54
944.125	4711.1
944.431	4659.35
944.738	4640.6
945.044	4634.04
945.35	4601.5
945.657	4620.26
945.963	4599.92
946.269	4553.14
946.575	4562.63
946.881	4527.83
947.187	4524.44
947.493	4433.37
947.799	4449.42
948.105	4433.15
948.41	4414.62
948.716	4439.93
949.022	4410.32
949.327	4411.23
949.633	4329.87
949.938	4358.35
950.244	4348.18
950.549	4314.96
950.854	4274.51
951.16	4275.41
951.465	4259.82
951.77	4195.41
952.075	4209.65
952.38	4220.95
952.685	4178.69
952.99	4177.56
953.294	4147.5
953.599	4105.02
953.904	4121.29
954.209	4072.7
954.513	4074.29
954.818	4033.38
955.122	4027.28
955.426	3957.45
955.731	4020.05
956.035	3988.86
956.339	3935.98
956.643	3985.47
956.948	3893.95
957.252	3895.08
957.556	3912.48
957.86	3898.7
958.163	3816.44
958.467	3839.04
958.771	3841.07
959.075	3815.99
959.378	3822.31
959.682	3771.69
959.985	3778.25
960.289	3805.14
960.592	3703.22
960.896	3687.86
961.199	3661.42
961.502	3700.96
961.805	3666.16
962.108	3637.69
962.411	3624.13
962.714	3583.68
963.017	3565.37
963.32	3609.21
963.623	3599.5
963.926	3548.65
964.228	3535.54
964.531	3587.07
964.833	3557.46
965.136	3503
965.438	3480.85
965.741	3494.64
966.043	3446.73
966.345	3441.08
966.648	3405.38
966.95	3417.81
967.252	3411.7
967.554	3337.81
967.856	3389.78
968.158	3344.14
968.46	3317.92
968.761	3306.4
969.063	3294.42
969.365	3279.73
969.666	3252.39
969.968	3251.03
970.269	3285.38
970.571	3245.15
970.872	3223.46
971.174	3179.39
971.475	3217.81
971.776	3201.77
972.077	3141.65
972.378	3156.57
972.679	3159.96
972.98	3106.4
973.281	3116.57
973.582	3131.71
973.883	3072.05
974.183	3020.75
974.484	3063.92
974.785	3061.88
975.085	3024.6
975.386	3046.06
975.686	3023.24
975.986	2957.03
976.287	3003.13
976.587	2968.55
976.887	2961.09
977.187	2942.34
977.487	2933.3
977.787	2903.69
978.087	2916.35
978.387	2861.89
978.687	2881.1
978.987	2853.98
979.286	2838.16
979.586	2816.24
979.885	2835.45
980.185	2822.79
980.484	2771.04
980.784	2738.95
981.083	2740.76
981.382	2770.82
981.682	2762.68
981.981	2735.11
982.28	2716.13
982.579	2716.13
982.878	2700.54
983.177	2668.45
983.475	2692.4
983.774	2666.41
984.073	2656.7
984.372	2660.31
984.67	2627.54
984.969	2647.2
985.267	2647.2
985.566	2580.31
985.864	2578.73
986.162	2611.73
986.461	2559.52
986.759	2563.59
987.057	2530.15
987.355	2523.14
987.653	2524.5
987.951	2503.71
988.249	2498.73
988.547	2497.83
988.844	2450.15
989.142	2488.56
989.44	2478.85
989.737	2416.93
990.035	2419.19
990.332	2410.6
990.63	2395.91
990.927	2384.16
991.224	2398.17
991.521	2365.18
991.819	2361.11
992.116	2356.82
992.413	2314.78
992.71	2341
993.006	2300.55
993.303	2342.35
993.6	2309.36
993.897	2303.48
994.193	2284.05
994.49	2288.57
994.787	2244.96
995.083	2244.05
995.379	2242.47
995.676	2229.36
995.972	2235.92
996.268	2210.83
996.565	2197.27
996.861	2159.08
997.157	2167.44
997.453	2158.4
997.749	2142.58
998.044	2169.02
998.34	2108.01
998.636	2096.03
998.932	2102.81
999.227	2078.41
999.523	2110.5
999.818	2058.75
1000.114	2079.99
1000.409	2045.41
1000.704	2033.89
1001	2038.41
1001.295	2013.77
1001.59	2007.9
1001.885	2012.64
1002.18	1991.18
1002.475	1956.15
1002.77	1974.23
1003.065	1941.69
1003.359	1941.23
1003.654	1953.44
1003.949	1929.03
1004.243	1931.97
1004.538	1876.38
1004.832	1896.26
1005.127	1874.34
1005.421	1846.1
1005.715	1883.16
1006.009	1813.78
1006.304	1853.33
1006.598	1875.02
1006.892	1816.04
1007.186	1821.01
1007.48	1815.59
1007.773	1778.07
1008.067	1784.18
1008.361	1792.99
1008.655	1765.42
1008.948	1761.58
1009.242	1717.96
1009.535	1734.01
1009.829	1742.82
1010.122	1712.54
1010.415	1713.9
1010.708	1695.59
1011.001	1701.47
1011.295	1677.96
1011.588	1638.64
1011.881	1648.81
1012.173	1630.28
1012.466	1629.83
1012.759	1585.99
1013.052	1637.51
1013.344	1624.41
1013.637	1583.96
1013.93	1563.17
1014.222	1570.17
1014.514	1574.01
1014.807	1553.9
1015.099	1547.57
1015.391	1543.96
1015.683	1535.37
1015.976	1517.52
1016.268	1525.2
1016.56	1541.24
1016.851	1516.61
1017.143	1481.81
1017.435	1525.65
1017.727	1475.94
1018.018	1463.05
1018.31	1445.2
1018.602	1444.3
1018.893	1416.73
1019.185	1439.55
1019.476	1438.2
1019.767	1420.57
1020.058	1386.9
1020.35	1370.18
1020.641	1382.6
1020.932	1379.89
1021.223	1361.14
1021.514	1349.61
1021.804	1331.76
1022.095	1323.4
1022.386	1312.32
1022.677	1324.53
1022.967	1307.13
1023.258	1302.61
1023.548	1290.4
1023.839	1291.08
1024.129	1313.45
1024.419	1274.81
1024.709	1259.67
1025	1270.52
1025.29	1238.65
1025.58	1256.28
1025.87	1233.23
1026.16	1226
1026.449	1214.25
1026.739	1227.81
1027.029	1178.77
1027.319	1177.64
1027.608	1194.14
1027.898	1155.27
1028.187	1153.68
1028.477	1167.7
1028.766	1136.06
1029.055	1141.26
1029.344	1154.36
1029.634	1126.11
1029.923	1133.35
1030.212	1117.53
1030.501	1106.91
1030.79	1103.52
1031.078	1098.54
1031.367	1104.19
1031.656	1112.33
1031.945	1065.1
1032.233	1076.85
1032.522	1081.14
1032.81	1080.24
1033.099	1053.12
1033.387	1028.49
1033.675	1032.33
1033.963	1039.79
1034.251	1024.65
1034.54	1013.8
1034.828	1034.37
1035.116	1024.87
1035.403	1028.94
1035.691	1005.89
1035.979	984.88
1036.267	990.52
1036.554	958.44
1036.842	932.22
1037.129	979
1037.417	961.82
1037.704	968.6
1037.992	935.84
1038.279	929.28
1038.566	929.51
1038.853	929.51
1039.14	929.51
