Data from plate_ceramic_FLMS001491_049.txt Node
Date: Tue Feb 07 11:16:50 GMT 2017
User: dcchb
Spectrometer: FLMS00149
Trigger mode: 0
Integration Time (sec): 2.000000E-2
Scans to average: 10
Electric dark correction enabled: true
Nonlinearity correction enabled: false
Boxcar width: 0
XAxis mode: Wavelengths
Number of Pixels in Spectrum: 2048
>>>>>Begin Spectral Data<<<<<
341.393	-5.85
341.776	-5.85
342.16	-5.85
342.543	-62.57
342.927	-62.57
343.31	-66.18
343.693	-75.22
344.077	-56.69
344.46	-58.28
344.843	-55.11
345.226	-58.05
345.61	-28.67
345.993	-11.27
346.376	9.07
346.759	12.46
347.142	17.65
347.525	49.52
347.908	57.2
348.291	51.55
348.674	96.3
349.057	115.73
349.44	121.61
349.823	147.37
350.206	174.49
350.588	206.12
350.971	214.94
351.354	238.89
351.737	257.87
352.119	249.97
352.502	295.61
352.884	244.77
353.267	295.84
353.65	308.27
354.032	318.44
354.414	301.49
354.797	334.71
355.179	325.9
355.562	324.54
355.944	330.64
356.326	354.82
356.709	346.23
357.091	342.39
357.473	354.14
357.855	360.24
358.238	351.21
358.62	350.75
359.002	341.71
359.384	372.67
359.766	355.05
360.148	364.54
360.53	363.63
360.912	337.87
361.294	361.6
361.676	346.91
362.057	356.18
362.439	336.74
362.821	334.26
363.203	358.21
363.584	350.53
363.966	341.71
364.348	353.47
364.729	366.57
365.111	336.74
365.493	348.95
365.874	335.61
366.256	347.14
366.637	331.09
367.019	342.84
367.4	339
367.781	333.35
368.163	344.2
368.544	350.08
368.925	341.71
369.306	342.17
369.688	356.86
370.069	356.63
370.45	355.95
370.831	348.95
371.212	359.34
371.593	336.52
371.974	363.63
372.355	375.84
372.736	355.05
373.117	350.08
373.498	351.66
373.879	357.98
374.26	351.43
374.641	366.12
375.021	344.65
375.402	375.61
375.783	365.22
376.163	378.32
376.544	368.38
376.925	350.53
377.305	378.1
377.686	386.68
378.066	393.69
378.447	384.2
378.827	395.72
379.208	366.8
379.588	378.78
379.968	407.7
380.349	395.72
380.729	407.02
381.109	420.81
381.489	404.54
381.87	407.02
382.25	383.52
382.63	402.28
383.01	414.03
383.39	420.13
383.77	414.71
384.15	413.58
384.53	442.73
384.91	433.46
385.29	421.94
385.67	421.03
386.049	442.73
386.429	440.47
386.809	438.66
387.189	474.14
387.568	455.84
387.948	432.11
388.328	458.1
388.707	474.59
389.087	462.16
389.466	469.62
389.846	487.02
390.225	466.46
390.605	463.97
390.984	489.96
391.363	485.21
391.743	511.65
392.122	482.05
392.501	505.78
392.881	495.83
393.26	527.25
393.639	528.15
394.018	525.21
394.397	512.33
394.776	532.44
395.155	540.13
395.534	519.11
395.913	562.27
396.292	560.69
396.671	534.93
397.05	551.65
397.429	576.96
397.808	545.32
398.186	563.86
398.565	552.1
398.944	570.18
399.323	583.29
399.701	590.97
400.08	570.63
400.458	584.19
400.837	617.19
401.215	607.02
401.594	607.92
401.972	615.38
402.351	641.82
402.729	624.64
403.107	619
403.486	626.45
403.864	644.98
404.242	644.53
404.62	650.63
404.999	653.12
405.377	669.62
405.755	670.29
406.133	688.82
406.511	677.98
406.889	695.15
407.267	710.07
407.645	726.79
408.023	702.83
408.401	702.83
408.779	730.4
409.156	748.94
409.534	743.74
409.912	764.53
410.29	786
410.667	772.44
411.045	764.3
411.422	802.72
411.8	802.72
412.178	803.62
412.555	839.1
412.933	819.67
413.31	837.52
413.687	851.76
414.065	859.89
414.442	855.15
414.819	878.42
415.197	884.07
415.574	911.64
415.951	914.81
416.328	915.26
416.705	947.35
417.082	931.08
417.46	954.13
417.837	972.43
418.214	967.46
418.591	972.21
418.967	1000
419.344	1020.79
419.721	1018.31
420.098	1021.92
420.475	1023.73
420.852	1042.03
421.228	1047.46
421.605	1082.49
421.982	1067.12
422.358	1049.04
422.735	1086.55
423.111	1092.43
423.488	1112.09
423.864	1082.49
424.241	1140.56
424.617	1117.29
424.994	1140.79
425.37	1153.9
425.746	1160.22
426.123	1168.59
426.499	1202.93
426.875	1210.84
427.251	1231.18
427.627	1256.94
428.003	1232.99
428.379	1253.55
428.756	1264.4
429.132	1305.98
429.507	1319.54
429.883	1334.68
430.259	1314.57
430.635	1354.79
431.011	1353.66
431.387	1412.42
431.763	1412.65
432.138	1415.58
432.514	1470.05
432.89	1448.35
433.265	1476.6
433.641	1489.03
434.016	1515.02
434.392	1556.82
434.767	1575.35
435.143	1568.8
435.518	1598.86
435.894	1611.96
436.269	1637.5
436.644	1669.81
437.02	1670.72
437.395	1694.67
437.77	1714.33
438.145	1687.89
438.52	1718.85
438.895	1762.24
439.271	1759.53
439.646	1785.52
440.021	1808.34
440.395	1790.26
440.77	1798.17
441.145	1851.28
441.52	1867.55
441.895	1880.2
442.27	1882.69
442.645	1875.91
443.019	1897.38
443.394	1905.51
443.769	1931.73
444.143	1922.24
444.518	1957.49
444.892	1946.19
445.267	1970.6
445.641	1973.08
446.016	1974.44
446.39	2009.92
446.764	2060.31
447.139	2017.6
447.513	2046.3
447.887	2060.77
448.262	2071.39
448.636	2050.6
449.01	2077.71
449.384	2099.41
449.758	2156.36
450.132	2163.81
450.506	2144.38
450.88	2183.7
451.254	2200.65
451.628	2234.32
452.002	2273.64
452.376	2262.57
452.75	2291.95
453.123	2319.06
453.497	2346.63
453.871	2361.32
454.244	2385.73
454.618	2446.97
454.992	2428.44
455.365	2457.59
455.739	2530.36
456.112	2568.1
456.486	2564.93
456.859	2629.34
457.232	2649.22
457.606	2646.74
457.979	2710.01
458.352	2797.02
458.725	2785.72
459.099	2781.2
459.472	2830.46
459.845	2829.33
460.218	2877.24
460.591	2936.9
460.964	2957.46
461.337	3008.99
461.71	3049.89
462.083	3139.15
462.456	3139.15
462.829	3124.47
463.201	3192.94
463.574	3213.05
463.947	3230
464.32	3380.73
464.692	3373.72
465.065	3380.73
465.438	3432.93
465.81	3469.32
466.183	3489.88
466.555	3587.28
466.928	3578.47
467.3	3623.21
467.672	3651.46
468.045	3776.43
468.417	3797.67
468.789	3786.37
469.161	3839.7
469.534	3906.14
469.906	3996.31
470.278	4047.83
470.65	4065.91
471.022	4121.95
471.394	4236.75
471.766	4276.75
472.138	4320.14
472.51	4419.57
472.882	4472
473.253	4524.88
473.625	4599
473.997	4647.82
474.369	4746.8
474.74	4761.26
475.112	4881.93
475.484	4922.38
475.855	5052.55
476.227	5076.05
476.598	5214.35
476.97	5232.21
477.341	5338.19
477.713	5457.06
478.084	5442.82
478.455	5633.1
478.827	5708.13
479.198	5881.46
479.569	5853.89
479.94	5981.11
480.311	6073.31
480.682	6230.15
481.053	6348.79
481.424	6478.95
481.795	6489.8
482.166	6601.44
482.537	6630.36
482.908	6782.22
483.279	6942.67
483.65	6969.56
484.021	7149.44
484.391	7232.15
484.762	7354.86
485.133	7349.67
485.503	7462.43
485.874	7619.71
486.244	7801.41
486.615	7975.19
486.985	8045.24
487.356	8139.25
487.726	8225.57
488.097	8398
488.467	8385.12
488.837	8606.13
489.207	8706.01
489.578	8838.89
489.948	8909.85
490.318	9063.29
490.688	9068.72
491.058	9123.86
491.428	9329.95
491.798	9462.6
492.168	9658.31
492.538	9625.76
492.908	9754.57
493.278	9929.26
493.648	9896.94
494.017	10076.6
494.387	10202.02
494.757	10263.49
495.126	10409.47
495.496	10411.28
495.866	10442.24
496.235	10696.92
496.605	10705.74
496.974	10797.03
497.344	10906.63
497.713	10934.88
498.082	11069.12
498.452	11125.84
498.821	11237.92
499.19	11335.55
499.559	11405.38
499.928	11512.27
500.298	11533.96
500.667	11674.98
501.036	11690.57
501.405	11820.06
501.774	11849.21
502.143	11973.27
502.512	12023.44
502.88	12186.83
503.249	12229.99
503.618	12210.78
503.987	12380.95
504.356	12441.74
504.724	12488.06
505.093	12501.39
505.462	12630.66
505.83	12726.93
506.199	12849.41
506.567	12986.35
506.936	13039.46
507.304	13219.34
507.672	13242.84
508.041	13261.6
508.409	13470.86
508.777	13565.1
509.145	13672.21
509.514	13648.48
509.882	13830.85
510.25	13833.56
510.618	13885.76
510.986	13983.84
511.354	14211.63
511.722	14321.23
512.09	14412.08
512.458	14491.17
512.826	14559.42
513.193	14676.03
513.561	14730.49
513.929	14929.58
514.297	15045.06
514.664	15152.17
515.032	15101.78
515.4	15315.56
515.767	15467.42
516.135	15483.24
516.502	15490.47
516.869	15794.87
517.237	15860.18
517.604	15841.87
517.972	15968.87
518.339	16213.84
518.706	16201.64
519.073	16270.11
519.44	16496.09
519.808	16560.72
520.175	16653.83
520.542	16897.89
520.909	16957.77
521.276	16980.37
521.643	17235.06
522.009	17234.83
522.376	17480.47
522.743	17626.23
523.11	17747.81
523.477	17934.25
523.843	18073.9
524.21	18270.73
524.577	18418.08
524.943	18458.98
525.31	18585.3
525.676	18837.73
526.043	18909.36
526.409	18992.3
526.776	19190.48
527.142	19315.45
527.508	19342.12
527.874	19505.73
528.241	19599.96
528.607	19720.64
528.973	19863.23
529.339	19996.11
529.705	20185.26
530.071	20235.43
530.437	20468.42
530.803	20607.17
531.169	20698.24
531.535	20664.34
531.901	20831.8
532.267	20870.89
532.632	21051
532.998	21143.43
533.364	21227.04
533.73	21356.53
534.095	21617.31
534.461	21625
534.826	21679.68
535.192	21784.09
535.557	21999.9
535.923	21924.2
536.288	22052.56
536.653	22174.59
537.019	22136.4
537.384	22363.96
537.749	22408.03
538.114	22409.16
538.479	22600.11
538.845	22549.27
539.21	22651.18
539.575	22805.98
539.94	22897.51
540.305	23010.95
540.67	23026.99
541.034	23127.78
541.399	23341.34
541.764	23305.18
542.129	23453.65
542.494	23445.06
542.858	23536.58
543.223	23650.03
543.587	23873.52
543.952	23856.12
544.316	23915.78
544.681	23980.64
545.045	24135.21
545.41	24162.1
545.774	24169.11
546.138	24250.46
546.503	24342.21
546.867	24416.79
547.231	24634.63
547.595	24620.17
547.959	24734.52
548.324	24770
548.688	24882.54
549.052	24974.51
549.416	25053.38
549.779	25193.72
550.143	25252.7
550.507	25382.19
550.871	25517.1
551.235	25461.28
551.599	25755.74
551.962	25703.31
552.326	25893.58
552.689	26067.59
553.053	25898.78
553.417	25936.52
553.78	26361.82
554.143	26284.53
554.507	26464.19
554.87	26517.75
555.234	26743.28
555.597	26737.4
555.96	26825.54
556.323	26946.89
556.686	27094.68
557.05	27224.62
557.413	27364.28
557.776	27353.21
558.139	27633.88
558.502	27609.47
558.865	27761.78
559.228	27861.67
559.59	27966.52
559.953	28123.58
560.316	28441.54
560.679	28474.76
561.041	28545.94
561.404	28676.34
561.767	28883.79
562.129	28913.84
562.492	29176.89
562.854	29253.95
563.217	29258.92
563.579	29318.81
563.941	29523.32
564.304	29555.18
564.666	29776.19
565.028	29863.65
565.39	30046.47
565.753	30220.7
566.115	30380.02
566.477	30457.76
566.839	30490.07
567.201	30712.44
567.563	30880.12
567.925	31041.25
568.287	31114.24
568.648	30958.99
569.01	31258.64
569.372	31466.09
569.734	31398.98
570.095	31575.24
570.457	31793.32
570.819	31917.38
571.18	31907.66
571.542	32176.36
571.903	32147.88
572.265	32327.99
572.626	32360.76
572.987	32470.13
573.349	32551.49
573.71	32705.38
574.071	32751.03
574.432	32810.46
574.794	33094.75
575.155	33089.55
575.516	32908.32
575.877	33172.26
576.238	33152.6
576.599	33224.24
576.96	33289.55
577.32	33396.44
577.681	33557.79
578.042	33702.87
578.403	33553.5
578.763	33755.98
579.124	33770.67
579.485	33951.9
579.845	34006.82
580.206	33851.79
580.566	34046.14
580.927	33938.57
581.287	34100.15
581.648	33988.51
582.008	34106.02
582.368	33989.19
582.728	34195.06
583.089	34157.32
583.449	34056.76
583.809	34216.3
584.169	34360.93
584.529	34246.36
584.889	34536.3
585.249	34365.45
585.609	34239.13
585.969	34485.68
586.329	34383.08
586.688	34653.81
587.048	34463.75
587.408	34365.45
587.768	34441.16
588.127	34445
588.487	34332.91
588.846	34661.26
589.206	34345.11
589.565	34480.7
589.925	34515.5
590.284	34482.96
590.643	34480.03
591.003	34586.92
591.362	34642.51
591.721	34561.38
592.08	34623.07
592.44	34650.19
592.799	34787.36
593.158	34612.9
593.517	34696.97
593.876	34719.57
594.235	34602.06
594.593	34694.48
594.952	34934.02
595.311	34613.36
595.67	34733.35
596.029	34943.06
596.387	35013.34
596.746	34988.94
597.104	34960.92
597.463	34851.99
597.822	35011.31
598.18	34884.53
598.538	34804.76
598.897	35070.74
599.255	34936.51
599.613	35370.4
599.972	35212.21
600.33	35215.37
600.688	35155.26
601.046	35235.49
601.404	35369.27
601.762	35274.13
602.12	35514.57
602.478	35504.41
602.836	35412.66
603.194	35273.23
603.552	35460.34
603.91	35352.77
604.268	35509.6
604.625	35306.44
604.983	35507.57
605.341	35376.73
605.698	35586.66
606.056	35632.09
606.413	35550.05
606.771	35908.01
607.128	35790.73
607.485	35597.96
607.843	35760.44
608.2	35818.3
608.557	36023.04
608.914	35806.77
609.272	36072.07
609.629	36014.45
609.986	36105.52
610.343	35885.19
610.7	36220.77
611.057	36258.96
611.414	36277.72
611.771	36232.52
612.127	36350.26
612.484	36370.37
612.841	36541.21
613.198	36374.67
613.554	36390.03
613.911	36575.56
614.267	36533.53
614.624	36539.63
614.98	36482.68
615.337	36744.37
615.693	36711.15
616.05	36664.37
616.406	36803.81
616.762	36693.07
617.118	36764.49
617.475	36860.08
617.831	36967.19
618.187	36916.8
618.543	36991.37
618.899	37114.31
619.255	37221.42
619.611	37006.51
619.967	37048.55
620.323	37212.16
620.678	37094.19
621.034	36963.58
621.39	37032.05
621.746	36951.37
622.101	37367.41
622.457	37114.08
622.812	37036.12
623.168	37160.86
623.523	37232.27
623.879	37338.71
624.234	36938.04
624.589	37157.02
624.945	37240.4
625.3	37155.44
625.655	37159.5
626.01	37278.6
626.365	37270.23
626.72	37179.39
627.075	37171.48
627.43	37219.16
627.785	37084.02
628.14	37144.59
628.495	37045.38
628.85	37023.24
629.205	36989.56
629.559	37168.32
629.914	36889.23
630.269	36923.13
630.623	37028.89
630.978	36743.92
631.332	36962.45
631.687	36983.69
632.041	36945.5
632.396	36840.87
632.75	36613.98
633.104	36634.09
633.459	36509.12
633.813	36467.54
634.167	36519.75
634.521	36534.66
634.875	36525.62
635.229	36370.6
635.583	36439.3
635.937	36389.81
636.291	36216.25
636.645	36299.41
636.999	36231.39
637.352	36264.39
637.706	36166.99
638.06	36253.09
638.413	36034.11
638.767	36072.98
639.121	36085.86
639.474	35871.18
639.828	35856.26
640.181	35872.98
640.534	35802.02
640.888	35728.35
641.241	35694.46
641.594	35631.63
641.947	35839.99
642.301	35642.25
642.654	35612.88
643.007	35695.36
643.36	35557.06
643.713	35441.13
644.066	35496.27
644.419	35287.01
644.771	35036.17
645.124	34793.46
645.477	34657.65
645.83	34529.74
646.182	34294.04
646.535	34372.01
646.888	34340.82
647.24	34187.38
647.593	34513.25
647.945	34380.59
648.298	34060.15
648.65	33989.64
649.002	33923.66
649.355	33966.59
649.707	33935.41
650.059	34149.86
650.411	34459.01
650.763	34524.32
651.115	34825.1
651.467	34674.82
651.819	34644.77
652.171	34606.8
652.523	34509.86
652.875	34582.62
653.227	34353.25
653.578	34636.63
653.93	34536.52
654.282	34456.98
654.633	34371.55
654.985	34329.52
655.337	34427.37
655.688	34374.72
656.039	34468.05
656.391	34142.63
656.742	34249.52
657.094	34296.98
657.445	34306.02
657.796	34201.39
658.147	34187.83
658.498	34012.24
658.849	34029.42
659.2	34193.71
659.551	33959.59
659.902	34180.82
660.253	33998.68
660.604	34104.22
660.955	33925.92
661.306	33963.65
661.656	33893.37
662.007	33989.42
662.358	33889.53
662.708	33809.31
663.059	33895.86
663.409	33654.28
663.76	33975.41
664.11	33703.55
664.461	33837.33
664.811	33831.23
665.161	33775.64
665.511	33692.48
665.862	33656.32
666.212	33761.4
666.562	33746.71
666.912	33648.41
667.262	33675.75
667.612	33561.18
667.962	33552.37
668.312	33638.01
668.662	33682.31
669.011	33667.17
669.361	33598.01
669.711	33485.93
670.06	33499.26
670.41	33428.3
670.76	33376.78
671.109	33481.41
671.459	33414.97
671.808	33393.27
672.157	33422.88
672.507	33262.88
672.856	33178.14
673.205	33182.66
673.554	33286.84
673.904	33170.91
674.253	33418.81
674.602	33116.67
674.951	32836.9
675.3	32680.07
675.649	33215.2
675.998	33111.7
676.346	33096.11
676.695	33219.04
677.044	32945.83
677.393	33076.9
677.741	33068.31
678.09	32922.33
678.438	32963.91
678.787	33000.97
679.135	32935.43
679.484	32705.83
679.832	32787.64
680.181	32750.13
680.529	32706.51
680.877	32649.34
681.225	32555.1
681.573	32777.47
681.922	32454.99
682.27	32444.6
682.618	32319.18
682.966	32393.53
683.314	32466.52
683.661	32335.45
684.009	32055.46
684.357	32130.48
684.705	32007.32
685.053	32045.06
685.4	32020.66
685.748	31873.54
686.095	31894.78
686.443	31837.38
686.79	31791.28
687.138	31718.97
687.485	31737.05
687.832	31606.43
688.18	31598.07
688.527	31375.02
688.874	31349.49
689.221	31370.5
689.568	31285.08
689.915	31170.51
690.262	31251.64
690.609	31060
690.956	31184.07
691.303	30959.67
691.65	30818.65
691.997	30831.08
692.344	30670.86
692.69	30706.57
693.037	30859.33
693.383	30451.2
693.73	30591.99
694.077	30403.52
694.423	30426.35
694.769	30377.08
695.116	30185.45
695.462	30221.61
695.808	30013.02
696.155	30026.81
696.501	29848.51
696.847	29692.13
697.193	29530.55
697.539	29697.33
697.885	29378.69
698.231	29282.42
698.577	29275.64
698.923	29332.59
699.269	29054.18
699.614	28930.34
699.96	28860.29
700.306	28968.31
700.651	28944.58
700.997	28731.93
701.342	28606.51
701.688	28686.51
702.033	28499.17
702.379	28585.72
702.724	28442.9
703.069	28543.01
703.415	28220.98
703.76	28178.27
704.105	28191.15
704.45	28028.67
704.795	27949.12
705.14	27840.43
705.485	27894.66
705.83	27795.46
706.175	27898.96
706.52	27653.54
706.865	27585.29
707.209	27541
707.554	27471.85
707.899	27472.3
708.243	27310.72
708.588	27371.06
708.932	27030.96
709.277	27251.74
709.621	27178.97
709.966	26899.66
710.31	27009.94
710.654	26750.51
710.998	26890.17
711.342	26865.54
711.687	26740.79
712.031	26615.15
712.375	26587.35
712.719	26600.01
713.063	26507.58
713.407	26537.64
713.75	26471.42
714.094	26340.35
714.438	26224.88
714.782	26416.51
715.125	26193.69
715.469	26272.78
715.812	26066.01
716.156	25983.98
716.499	25886.58
716.843	26027.59
717.186	25791.89
717.53	25852.23
717.873	25899.91
718.216	25861.95
718.559	25645.91
718.902	25565.68
719.246	25569.75
719.589	25483.88
719.932	25360.04
720.275	25334.28
720.617	25272.13
720.96	25311
721.303	25340.15
721.646	25256.77
721.989	25118.01
722.331	25158.91
722.674	25136.77
723.016	25074.62
723.359	24972.25
723.701	24973.38
724.044	24927.51
724.386	24674.63
724.729	24924.57
725.071	24819.71
725.413	24730.45
725.755	24864.91
726.097	24641.41
726.439	24535.65
726.782	24560.06
727.124	24742.65
727.465	24499.27
727.807	24550.8
728.149	24456.56
728.491	24368.43
728.833	24375.43
729.175	24371.36
729.516	24313.06
729.858	24282.33
730.199	24101.77
730.541	24076.23
730.882	24056.34
731.224	23958.95
731.565	23919.17
731.906	23996.01
732.248	23984.93
732.589	23874.43
732.93	23813.87
733.271	23781.1
733.612	23849.12
733.953	23778.39
734.294	23691.83
734.635	23657.26
734.976	23675.56
735.317	23637.6
735.658	23604.38
735.999	23550.37
736.339	23483.7
736.68	23373.65
737.021	23304.05
737.361	23363.03
737.702	23396.25
738.042	23313.31
738.383	23246.42
738.723	23296.59
739.063	23088.46
739.404	23194.67
739.744	23110.16
740.084	23060.66
740.424	23050.27
740.764	23056.6
741.104	23235.58
741.444	22946.54
741.784	22950.16
742.124	22963.72
742.464	22841.69
742.804	22846.43
743.143	22747
743.483	22775.47
743.823	22622.03
744.162	22628.81
744.502	22641.24
744.841	22504.75
745.181	22716.27
745.52	22524.86
745.86	22525.54
746.199	22417.74
746.538	22452.09
746.877	22485.99
747.216	22446.22
747.556	22264.98
747.895	22302.49
748.234	22218.88
748.573	22163.06
748.911	22023.63
749.25	22114.02
749.589	22004.2
749.928	22016.62
750.267	22026.79
750.605	21885.33
750.944	21870.87
751.283	21846.91
751.621	21816.63
751.96	21732.34
752.298	21582.06
752.636	21610.08
752.975	21654.37
753.313	21461.16
753.651	21543.19
753.989	21507.71
754.327	21414.83
754.666	21342.29
755.004	21345.91
755.342	21284.44
755.679	21270.43
756.017	21187.95
756.355	21131.68
756.693	21123.99
757.031	21074.5
757.368	20929.42
757.706	20874.96
758.044	20778.69
758.381	20881.06
758.719	20727.17
759.056	20728.07
759.394	20719.26
759.731	20648.07
760.068	20566.27
760.405	20400.62
760.743	20322.43
761.08	20512.03
761.417	20351.36
761.754	20291.25
762.091	20194.07
762.428	20103
762.765	20018.26
763.102	20027.07
763.438	19895.32
763.775	19935.78
764.112	19806.51
764.449	19863.91
764.785	19668.44
765.122	19593.19
765.458	19547.31
765.795	19482.45
766.131	19513.19
766.467	19385.28
766.804	19298.05
767.14	19199.98
767.476	19223.48
767.812	19105.97
768.148	19146.87
768.485	19025.06
768.821	18936.48
769.157	18871.4
769.492	18838.18
769.828	18793.88
770.164	18665.75
770.5	18571.07
770.836	18529.03
771.171	18472.08
771.507	18395.02
771.842	18285.88
772.178	18296.72
772.513	18274.8
772.849	18148.03
773.184	18006.11
773.519	18084.52
773.855	17959.1
774.19	17860.8
774.525	17876.17
774.86	17762.27
775.195	17711.2
775.53	17693.8
775.865	17627.59
776.2	17419.23
776.535	17381.49
776.87	17382.4
777.205	17261.72
777.539	17141.72
777.874	17232.12
778.209	17055.4
778.543	17055.62
778.878	16898.34
779.212	16944.22
779.547	16749.42
779.881	16939.7
780.215	16712.36
780.55	16689.76
780.884	16568.63
781.218	16550.1
781.552	16546.71
781.886	16393.72
782.22	16360.5
782.554	16342.2
782.888	16119.15
783.222	16101.3
783.556	16002.77
783.889	15991.92
784.223	15930.23
784.557	15902.21
784.89	15897.69
785.224	15804.13
785.557	15718.26
785.891	15646.4
786.224	15663.12
786.558	15610.92
786.891	15424.93
787.224	15459.73
787.557	15445.5
787.891	15397.59
788.224	15380.87
788.557	15262
788.89	15197.59
789.223	15193.3
789.556	15106.75
789.888	15043.93
790.221	14967.09
790.554	14889.35
790.887	14904.04
791.219	14793.54
791.552	14718.06
791.884	14730.71
792.217	14710.83
792.549	14588.57
792.882	14477.84
793.214	14499.53
793.546	14421.34
793.879	14309.93
794.211	14269.94
794.543	14294.79
794.875	14213.89
795.207	14336.6
795.539	14161.24
795.871	14211.18
796.203	14042.37
796.535	14000.11
796.867	14018.42
797.198	13949.04
797.53	13921.24
797.862	13761.93
798.193	13844.86
798.525	13639.44
798.856	13735.26
799.188	13540.69
799.519	13640.35
799.85	13468.37
800.182	13536.62
800.513	13465.66
800.844	13375.04
801.175	13474.7
801.506	13404.42
801.837	13322.62
802.168	13273.13
802.499	13227.93
802.83	13088.72
803.161	13059.57
803.491	13068.16
803.822	13045.79
804.153	12977.09
804.483	12863.64
804.814	12876.75
805.145	12836.07
805.475	12868.16
805.805	12769.18
806.136	12806.47
806.466	12806.92
806.796	12719.24
807.126	12596.99
807.457	12613.03
807.787	12588.85
808.117	12442.86
808.447	12429.98
808.777	12574.39
809.107	12432.24
809.436	12392.02
809.766	12487.61
810.096	12403.09
810.426	12292.81
810.755	12256.2
811.085	12347.73
811.414	12245.36
811.744	12068.64
812.073	12069.32
812.403	12055.76
812.732	12041.29
813.061	12020.05
813.39	11977.79
813.719	11869.32
814.049	12006.27
814.378	11928.53
814.707	11899.38
815.036	11817.8
815.365	11780.51
815.693	11643.56
816.022	11733.05
816.351	11674.07
816.68	11647.18
817.008	11699.16
817.337	11575.09
817.665	11503.68
817.994	11570.35
818.322	11514.53
818.651	11449.22
818.979	11414.87
819.307	11463.23
819.636	11342.78
819.964	11362.22
820.292	11369.67
820.62	11368.54
820.948	11322.44
821.276	11329.22
821.604	11337.58
821.932	11316.57
822.259	11314.98
822.587	11244.7
822.915	11216.91
823.243	11348.2
823.57	11205.84
823.898	11245.83
824.225	11210.58
824.553	11177.59
824.88	11283.12
825.207	11240.41
825.535	11197.02
825.862	11223.01
826.189	11221.43
826.516	11229.79
826.843	11176.91
827.17	11227.08
827.497	11235.89
827.824	11219.62
828.151	11266.17
828.478	11199.96
828.805	11213.07
829.131	11169
829.458	11138.04
829.785	11109.57
830.111	11209.9
830.438	11195.89
830.764	11131.94
831.09	11131.94
831.417	11086.52
831.743	11127.19
832.069	11137.14
832.395	11014.88
832.722	11107.08
833.048	11046.07
833.374	11080.87
833.7	11045.39
834.026	11023.92
834.351	11072.05
834.677	11039.06
835.003	11021.43
835.329	11048.1
835.654	10979.85
835.98	10909.8
836.306	10990.93
836.631	10927.65
836.956	10966.52
837.282	10919.29
837.607	10892.4
837.932	10912.96
838.258	10884.04
838.583	10810.59
838.908	10816.69
839.233	10849.69
839.558	10760.2
839.883	10686.98
840.208	10726.75
840.533	10736.92
840.858	10686.07
841.182	10665.51
841.507	10641.78
841.832	10608.56
842.156	10632.29
842.481	10608.11
842.805	10567.43
843.13	10480.2
843.454	10517.04
843.778	10457.38
844.103	10447.89
844.427	10456.02
844.751	10399.75
845.075	10356.59
845.399	10325.18
845.723	10290.38
846.047	10354.56
846.371	10238.4
846.695	10186.65
847.019	10167.9
847.343	10061.23
847.666	10040.67
847.99	9980.33
848.313	10033.44
848.637	9885.64
848.96	9946.21
849.284	9854.01
849.607	9840.9
849.931	9753.44
850.254	9774.91
850.577	9663.28
850.9	9556.61
851.223	9579.66
851.546	9554.58
851.869	9476.16
852.192	9532.88
852.515	9436.39
852.838	9467.35
853.161	9457.18
853.483	9354.36
853.806	9259.67
854.129	9396.39
854.451	9256.73
854.774	9263.97
855.096	9178.09
855.419	9147.13
855.741	9181.71
856.063	9121.37
856.385	9080.92
856.708	9075.95
857.03	9050.41
857.352	9068.72
857.674	8972.9
857.996	8902.62
858.318	8899.68
858.64	8890.42
858.961	8855.84
859.283	8866.91
859.605	8798.21
859.926	8856.52
860.248	8740.82
860.57	8709.63
860.891	8779.68
861.212	8683.42
861.534	8724.32
861.855	8642.29
862.176	8667.82
862.498	8660.82
862.819	8649.29
863.14	8563.64
863.461	8585.34
863.782	8566.58
864.103	8553.48
864.424	8551.22
864.745	8601.84
865.065	8471.22
865.386	8490.65
865.707	8485.45
866.027	8477.77
866.348	8413.14
866.668	8436.87
866.989	8353.93
867.309	8346.02
867.63	8388.06
867.95	8343.31
868.27	8226.25
868.59	8300.15
868.91	8332.01
869.23	8287.04
869.55	8216.99
869.87	8301.5
870.19	8234.16
870.51	8261.05
870.83	8270.09
871.15	8190.32
871.469	8121.17
871.789	8174.28
872.109	8172.02
872.428	8120.94
872.748	8151.9
873.067	8111.23
873.386	8175.86
873.706	8122.53
874.025	8061.29
874.344	8009.08
874.663	8033.72
874.982	8038.91
875.301	7995.3
875.62	8036.65
875.939	7968.18
876.258	7948.52
876.577	7934.73
876.896	7960.72
877.214	7958.69
877.533	7960.27
877.852	7890.22
878.17	7875.08
878.489	7869.88
878.807	7852.48
879.125	7835.53
879.444	7837.34
879.762	7842.76
880.08	7857.22
880.398	7805.25
880.716	7747.17
881.034	7746.49
881.352	7724.57
881.67	7708.53
881.988	7684.12
882.306	7660.17
882.624	7672.82
882.941	7624.91
883.259	7624.01
883.577	7630.34
883.894	7600.05
884.212	7484.8
884.529	7515.99
884.846	7514.86
885.164	7535.65
885.481	7492.71
885.798	7549.43
886.115	7447.74
886.432	7446.61
886.75	7375.88
887.067	7408.65
887.383	7300.18
887.7	7378.59
888.017	7258.59
888.334	7374.98
888.651	7312.6
888.967	7323.23
889.284	7215.88
889.6	7278.03
889.917	7230.12
890.233	7171.82
890.55	7116.68
890.866	7180.86
891.182	7145.15
891.498	7099.95
891.815	7101.08
892.131	7058.6
892.447	7054.98
892.763	7004.36
893.079	7016.57
893.395	7038.49
893.71	7006.4
894.026	6874.2
894.342	6956.23
894.657	6918.26
894.973	6900.64
895.289	6877.81
895.604	6894.31
895.92	6826.97
896.235	6772.28
896.55	6777.48
896.865	6770.02
897.181	6728.21
897.496	6698.61
897.811	6670.14
898.126	6699.97
898.441	6597.37
898.756	6625.16
899.071	6612.96
899.386	6567.77
899.7	6563.92
900.015	6504.26
900.33	6469.24
900.644	6531.61
900.959	6512.85
901.273	6464.04
901.588	6424.72
901.902	6387.43
902.216	6391.05
902.531	6359.18
902.845	6385.4
903.159	6236.47
903.473	6248.68
903.787	6224.95
904.101	6205.74
904.415	6216.14
904.729	6164.39
905.042	6091.85
905.356	6124.16
905.67	6118.06
905.984	6100.88
906.297	6068.34
906.611	6061.11
906.924	5988.8
907.237	6047.78
907.551	5964.84
907.864	5960.1
908.177	5924.17
908.491	5914.22
908.804	5841
909.117	5885.3
909.43	5854.34
909.743	5807.56
910.056	5805.98
910.368	5766.43
910.681	5757.62
910.994	5776.6
911.307	5683.04
911.619	5636.04
911.932	5561.01
912.244	5606.43
912.557	5581.58
912.869	5593.1
913.181	5564.85
913.494	5560.56
913.806	5470.62
914.118	5480.34
914.43	5477.85
914.742	5435.14
915.054	5427
915.366	5382.03
915.678	5380.45
915.99	5354.46
916.302	5299.1
916.613	5270.85
916.925	5305.88
917.236	5321.24
917.548	5215.03
917.859	5226.56
918.171	5175.26
918.482	5181.81
918.794	5144.3
919.105	5139.1
919.416	5098.88
919.727	5060.69
920.038	5055.26
920.349	5049.61
920.66	5029.95
920.971	4991.08
921.282	5003.74
921.593	4951.54
921.903	4953.12
922.214	4994.7
922.525	4904.76
922.835	4840.35
923.146	4853.46
923.456	4831.31
923.767	4813.24
924.077	4773.24
924.387	4763.97
924.697	4769.39
925.008	4724.42
925.318	4706.12
925.628	4737.98
925.938	4704.09
926.248	4683.52
926.558	4641.71
926.867	4634.26
927.177	4566.24
927.487	4579.79
927.796	4560.81
928.106	4540.7
928.416	4546.58
928.725	4488.95
929.034	4473.13
929.344	4459.35
929.653	4411.89
929.962	4377.09
930.271	4404.21
930.581	4379.57
930.89	4378.9
931.199	4325.34
931.508	4330.31
931.817	4318.56
932.125	4299.58
932.434	4294.38
932.743	4274.27
933.051	4239.92
933.36	4219.58
933.669	4170.09
933.977	4159.24
934.286	4127.38
934.594	4150.65
934.902	4138
935.21	4081.05
935.519	4101.62
935.827	4088.28
936.135	4067.27
936.443	4062.97
936.751	4051.67
937.059	4008.96
937.367	4001.96
937.674	3975.97
937.982	3963.54
938.29	3900.04
938.597	3960.83
938.905	3853.49
939.213	3883.09
939.52	3851.68
939.827	3866.14
940.135	3850.55
940.442	3844.22
940.749	3844.67
941.056	3833.15
941.363	3756.31
941.67	3741.85
941.977	3765.13
942.284	3739.36
942.591	3728.29
942.898	3727.61
943.205	3699.14
943.511	3660.05
943.818	3669.08
944.125	3657.79
944.431	3605.13
944.738	3623.66
945.044	3606.94
945.35	3606.94
945.657	3552.7
945.963	3507.05
946.269	3515.64
946.575	3529.43
946.881	3486.94
947.187	3493.04
947.493	3450.56
947.799	3439.26
948.105	3436.55
948.41	3455.08
948.716	3383.67
949.022	3352.48
949.327	3383.89
949.633	3340.05
949.938	3365.36
950.244	3361.3
950.549	3299.15
950.854	3335.76
951.16	3289.66
951.465	3259.38
951.77	3244.46
952.075	3274.52
952.38	3267.29
952.685	3223.9
952.99	3218.47
953.294	3201.07
953.599	3205.59
953.904	3150.23
954.209	3181.64
954.513	3144.13
954.818	3144.35
955.122	3123.11
955.426	3094.64
955.731	3061.19
956.035	3085.82
956.339	3106.16
956.643	3073.62
956.948	3033.17
957.252	3046.05
957.556	2992.72
957.86	3012.15
958.163	2997.01
958.467	2956.33
958.771	2940.74
959.075	2941.65
959.378	2900.06
959.682	2925.6
959.985	2921.31
960.289	2865.72
960.592	2881.31
960.896	2852.83
961.199	2890.35
961.502	2867.3
961.805	2862.55
962.108	2814.64
962.411	2803.57
962.714	2801.54
963.017	2822.78
963.32	2747.75
963.623	2782.55
963.926	2761.09
964.228	2768.32
964.531	2753.63
964.833	2724.25
965.136	2709.79
965.438	2695.1
965.741	2690.35
966.043	2652.84
966.345	2664.14
966.648	2650.35
966.95	2652.16
967.252	2626.4
967.554	2666.85
967.856	2613.52
968.158	2572.16
968.46	2574.2
968.761	2541.2
969.063	2575.33
969.365	2544.59
969.666	2573.07
969.968	2536.23
970.269	2532.84
970.571	2504.14
970.872	2525.39
971.174	2524.26
971.475	2469.34
971.776	2474.31
972.077	2445.84
972.378	2442.9
972.679	2468.66
972.98	2471.6
973.281	2419.63
973.582	2403.81
973.883	2427.31
974.183	2381.21
974.484	2414.65
974.785	2371.94
975.085	2353.86
975.386	2342.11
975.686	2302.34
975.986	2337.82
976.287	2316.58
976.587	2309.8
976.887	2324.49
977.187	2266.86
977.487	2267.99
977.787	2285.17
978.087	2263.47
978.387	2264.83
978.687	2238.84
978.987	2212.63
979.286	2205.85
979.586	2193.87
979.885	2196.35
980.185	2159.75
980.484	2181.21
980.784	2165.85
981.083	2147.32
981.382	2153.87
981.682	2165.62
981.981	2103.25
982.28	2148.67
982.579	2090.59
982.878	2083.82
983.177	2087.43
983.475	2120.88
983.774	2078.17
984.073	2070.71
984.372	2054.21
984.67	2064.38
984.969	2057.83
985.267	2017.83
985.566	2043.14
985.864	1986.64
986.162	2018.28
986.461	1983.25
986.759	1985.96
987.057	1982.8
987.355	1936.47
987.653	1984.38
987.951	1964.04
988.249	1952.75
988.547	1944.16
988.844	1936.93
989.142	1942.58
989.44	1931.73
989.737	1900.77
990.035	1894.67
990.332	1891.28
990.63	1897.38
990.927	1853.76
991.224	1860.54
991.521	1858.28
991.819	1860.54
992.116	1853.09
992.413	1837.49
992.71	1805.63
993.006	1828.45
993.303	1817.16
993.6	1778.74
993.897	1798.63
994.193	1827.1
994.49	1771.06
994.787	1779.87
995.083	1769.02
995.379	1748.23
995.676	1767.44
995.972	1729.47
996.268	1723.82
996.565	1701.68
996.861	1734.9
997.157	1716.82
997.453	1712.75
997.749	1673.2
998.044	1642.24
998.34	1667.33
998.636	1669.36
998.932	1665.07
999.227	1664.84
999.523	1636.37
999.818	1637.95
1000.114	1621.91
1000.409	1627.56
1000.704	1597.27
1001	1589.59
1001.295	1550.5
1001.59	1612.42
1001.885	1598.86
1002.18	1573.55
1002.475	1572.19
1002.77	1527.67
1003.065	1545.07
1003.359	1508.24
1003.654	1535.13
1003.949	1503.94
1004.243	1484.96
1004.538	1492.87
1004.832	1505.75
1005.127	1495.36
1005.421	1467.79
1005.715	1460.55
1006.009	1467.11
1006.304	1451.74
1006.598	1455.81
1006.892	1457.84
1007.186	1427.79
1007.48	1433.89
1007.773	1414
1008.067	1460.55
1008.361	1409.03
1008.655	1392.53
1008.948	1392.53
1009.242	1380.56
1009.535	1391.18
1009.829	1352.54
1010.122	1392.31
1010.415	1370.84
1010.708	1375.59
1011.001	1363.38
1011.295	1343.72
1011.588	1317.96
1011.881	1301.01
1012.173	1313.89
1012.466	1295.59
1012.759	1314.57
1013.052	1294.68
1013.344	1264.85
1013.637	1293.1
1013.93	1275.25
1014.222	1275.02
1014.514	1235.48
1014.807	1263.72
1015.099	1230.96
1015.391	1236.38
1015.683	1225.31
1015.976	1195.93
1016.268	1204.74
1016.56	1216.27
1016.851	1203.16
1017.143	1191.86
1017.435	1163.39
1017.727	1178.75
1018.018	1203.39
1018.31	1185.08
1018.602	1158.87
1018.893	1144.63
1019.185	1156.16
1019.476	1134.69
1019.767	1122.26
1020.058	1096.27
1020.35	1105.08
1020.641	1114.8
1020.932	1109.38
1021.223	1095.37
1021.514	1081.81
1021.804	1093.78
1022.095	1079.32
1022.386	1062.83
1022.677	1066.67
1022.967	1055.37
1023.258	1063.05
1023.548	1028.02
1023.839	1054.92
1024.129	1035.03
1024.419	1026.67
1024.709	1022.83
1025	1027.35
1025.29	1006.1
1025.58	994.35
1025.87	1004.52
1026.16	1005.43
1026.449	1012.66
1026.739	952.55
1027.029	970.62
1027.319	966.33
1027.608	948.03
1027.898	946.9
1028.187	976.05
1028.477	929.04
1028.766	943.73
1029.055	945.09
1029.344	930.63
1029.634	921.81
1029.923	913.68
1030.212	910.74
1030.501	927.01
1030.79	904.41
1031.078	893.11
1031.367	931.08
1031.656	866.67
1031.945	875.94
1032.233	873.45
1032.522	867.58
1032.81	869.84
1033.099	854.24
1033.387	849.27
1033.675	842.27
1033.963	826.22
1034.251	862.15
1034.54	844.98
1034.828	829.84
1035.116	819.89
1035.403	823.28
1035.691	818.31
1035.979	811.98
1036.267	813.79
1036.554	812.21
1036.842	797.97
1037.129	788.03
1037.417	812.66
1037.704	800.01
1037.992	787.13
1038.279	768.82
1038.566	747.81
1038.853	747.81
1039.14	747.81
