Data from plate_porcelain_FLMS001491_002.txt Node
Date: Tue Feb 07 11:18:38 GMT 2017
User: dcchb
Spectrometer: FLMS00149
Trigger mode: 0
Integration Time (sec): 2.000000E-2
Scans to average: 10
Electric dark correction enabled: true
Nonlinearity correction enabled: false
Boxcar width: 0
XAxis mode: Wavelengths
Number of Pixels in Spectrum: 2048
>>>>>Begin Spectral Data<<<<<
341.393	-20.49
341.776	-20.49
342.16	-20.49
342.543	-49.87
342.927	-73.6
343.31	-60.72
343.693	-57.33
344.077	-50.55
344.46	-44.9
344.843	-59.36
345.226	-44
345.61	-45.58
345.993	-26.14
346.376	2.33
346.759	-6.03
347.142	19.05
347.525	30.35
347.908	57.47
348.291	89.79
348.674	92.5
349.057	103.12
349.44	117.58
349.823	164.36
350.206	162.55
350.588	213.62
350.971	261.31
351.354	248.2
351.737	278.03
352.119	280.06
352.502	275.77
352.884	301.53
353.267	321.64
353.65	334.3
354.032	347.41
354.414	361.42
354.797	366.39
355.179	365.48
355.562	368.42
355.944	372.04
356.326	391.7
356.709	379.04
357.091	401.64
357.473	405.94
357.855	374.98
358.238	398.25
358.62	411.59
359.002	403.45
359.384	396.22
359.766	397.12
360.148	403.9
360.53	392.6
360.912	384.69
361.294	399.61
361.676	409.55
362.057	400.74
362.439	405.26
362.821	397.35
363.203	391.47
363.584	397.8
363.966	364.13
364.348	414.75
364.729	390.57
365.111	388.99
365.493	393.51
365.874	406.61
366.256	394.64
366.637	395.31
367.019	400.29
367.4	389.21
367.781	415.65
368.163	383.79
368.544	412.72
368.925	412.72
369.306	437.8
369.688	401.64
370.069	425.6
370.45	391.25
370.831	408.42
371.212	407.29
371.593	437.35
371.974	427.86
372.355	414.3
372.736	425.14
373.117	427.18
373.498	438.48
373.879	427.63
374.26	417.91
374.641	413.39
375.021	429.89
375.402	429.89
375.783	459.72
376.163	479.15
376.544	474.41
376.925	460.17
377.305	487.06
377.686	468.53
378.066	444.13
378.447	462.21
378.827	480.51
379.208	488.65
379.588	505.14
379.968	499.04
380.349	499.94
380.729	505.59
381.109	500.85
381.489	512.37
381.87	516.44
382.25	492.49
382.63	499.72
383.01	530.45
383.39	523.45
383.77	534.07
384.15	559.38
384.53	543.79
384.91	542.2
385.29	571.81
385.67	548.08
386.049	566.84
386.429	588.76
386.809	579.94
387.189	591.02
387.568	594.18
387.948	592.15
388.328	579.94
388.707	592.6
389.087	611.13
389.466	640.96
389.846	633.5
390.225	644.12
390.605	648.42
390.984	660.84
391.363	678.02
391.743	683.67
392.122	659.49
392.501	678.92
392.881	704.68
393.26	693.84
393.639	694.97
394.018	740.16
394.397	706.27
394.776	724.35
395.155	733.84
395.534	733.38
395.913	744.01
396.292	748.98
396.671	726.15
397.05	779.49
397.429	781.97
397.808	796.43
398.186	799.82
398.565	798.69
398.944	797.11
399.323	794.4
399.701	806.38
400.08	811.35
400.458	842.08
400.837	853.83
401.215	853.16
401.594	845.7
401.972	884.34
402.351	875.3
402.729	905.58
403.107	920.27
403.486	927.5
403.864	919.82
404.242	941.74
404.62	959.37
404.999	975.41
405.377	953.49
405.755	970.89
406.133	991.91
406.511	1011.12
406.889	1024.22
407.267	1042.53
407.645	1034.62
408.023	1055.41
408.401	1090.89
408.779	1097.22
409.156	1100.15
409.534	1137.44
409.912	1149.87
410.29	1168.18
410.667	1168.4
411.045	1178.57
411.422	1210.66
411.8	1203.88
412.178	1260.38
412.555	1233.26
412.933	1291.11
413.31	1288.62
413.687	1331.56
414.065	1331.34
414.442	1349.87
414.819	1339.92
415.197	1365.01
415.574	1370.43
415.951	1425.57
416.328	1421.5
416.705	1420.15
417.082	1466.47
417.46	1468.51
417.837	1489.75
418.214	1502.63
418.591	1520.71
418.967	1511.67
419.344	1524.32
419.721	1541.27
420.098	1548.73
420.475	1580.14
420.852	1616.3
421.228	1609.07
421.605	1607.03
421.982	1645.45
422.358	1693.59
422.735	1712.79
423.111	1718.22
423.488	1734.49
423.864	1746.24
424.241	1757.09
424.617	1788.05
424.994	1808.38
425.37	1800.48
425.746	1829.63
426.123	1887.93
426.499	1850.87
426.875	1925.67
427.251	1968.15
427.627	1995.95
428.003	2005.22
428.379	2051.09
428.756	2065.33
429.132	2108.04
429.507	2113.24
429.883	2135.83
430.259	2175.61
430.635	2216.51
431.011	2215.61
431.387	2250.86
431.763	2290.86
432.138	2320.46
432.514	2374.25
432.89	2375.83
433.265	2435.03
433.641	2470.97
434.016	2506.67
434.392	2531.98
434.767	2582.83
435.143	2579.21
435.518	2585.99
435.894	2644.97
436.269	2689.72
436.644	2743.28
437.02	2736.04
437.395	2758.64
437.77	2807
438.145	2844.74
438.52	2886.1
438.895	2891.07
439.271	2919.09
439.646	2975.13
440.021	2981.91
440.395	3036.83
440.77	2981.24
441.145	3072.53
441.52	3110.27
441.895	3108.24
442.27	3144.17
442.645	3139.2
443.019	3191.63
443.394	3190.72
443.769	3251.28
444.143	3199.31
444.518	3264.84
444.892	3289.93
445.267	3305.52
445.641	3336.25
446.016	3390.72
446.39	3430.71
446.764	3443.14
447.139	3411.51
447.513	3476.36
447.887	3488.79
448.262	3519.07
448.636	3570.37
449.01	3624.16
449.384	3638.62
449.758	3679.75
450.132	3707.09
450.506	3745.73
450.88	3785.73
451.254	3746.64
451.628	3878.39
452.002	3867.99
452.376	3881.55
452.75	3945.28
453.123	4028.67
453.497	4056.46
453.871	4080.42
454.244	4120.64
454.618	4214.65
454.992	4260.07
455.365	4295.1
455.739	4401.76
456.112	4387.3
456.486	4463.68
456.859	4493.06
457.232	4578.26
457.606	4610.8
457.979	4705.48
458.352	4727.86
458.725	4838.81
459.099	4849.43
459.472	4911.35
459.845	5010.33
460.218	5053.95
460.591	5098.02
460.964	5150.67
461.337	5249.42
461.71	5347.27
462.083	5396.09
462.456	5404
462.829	5451.23
463.201	5568.06
463.574	5615.74
463.947	5665.46
464.32	5833.36
464.692	5887.83
465.065	5897.77
465.438	5972.57
465.81	6070.65
466.183	6126.01
466.555	6300.02
466.928	6299.79
467.3	6290.75
467.672	6446.91
468.045	6628.82
468.417	6612.55
468.789	6667.92
469.161	6732.32
469.534	6849.83
469.906	7067.23
470.278	7038.08
470.65	7160.56
471.022	7325.53
471.394	7484.39
471.766	7478.07
472.138	7649.59
472.51	7768.91
472.882	7940.2
473.253	8025.17
473.625	8127.77
473.997	8263.58
474.369	8385.39
474.74	8486.4
475.112	8629.9
475.484	8764.81
475.855	8957.58
476.227	9043
476.598	9278.47
476.97	9377.9
477.341	9597.56
477.713	9763.43
478.084	9741.51
478.455	10068.73
478.827	10139.69
479.198	10499.46
479.569	10476.86
479.94	10761.14
480.311	10940.8
480.682	11119.55
481.053	11321.13
481.424	11555.02
481.795	11684.74
482.166	11863.04
482.537	11969.93
482.908	12263.03
483.279	12388.67
483.65	12564.49
484.021	12963.57
484.391	12979.62
484.762	13146.17
485.133	13322.66
485.503	13514.74
485.874	13734.4
486.244	13898.69
486.615	14259.81
486.985	14338.45
487.356	14579.57
487.726	14761.26
488.097	15082.16
488.467	15171.88
488.837	15471.3
489.207	15657.51
489.578	15920.56
489.948	15969.59
490.318	16306.99
490.688	16350.38
491.058	16548.11
491.428	16871.49
491.798	17004.14
492.168	17379.05
492.538	17457.46
492.908	17559.83
493.278	17836.66
493.648	18027.62
494.017	18148.97
494.387	18325.24
494.757	18534.5
495.126	18698.11
495.496	18767.71
495.866	18992.79
496.235	19120.7
496.605	19363.4
496.974	19582.83
497.344	19670.06
497.713	19794.58
498.082	19998.87
498.452	20239.99
498.821	20345.75
499.19	20430.27
499.559	20582.13
499.928	20729.7
500.298	20863.02
500.667	21129.68
501.036	21042
501.405	21277.03
501.774	21425.72
502.143	21644.47
502.512	21647.86
502.88	21922.43
503.249	21971.02
503.618	22259.82
503.987	22235.87
504.356	22439.71
504.724	22591.12
505.093	22665.92
505.462	22797.89
505.83	22998.34
506.199	23207.37
506.567	23497.31
506.936	23547.7
507.304	23855.49
507.672	23885.54
508.041	24077.86
508.409	24151.53
508.777	24346.32
509.145	24629.03
509.514	24772.3
509.882	24808.46
510.25	24982.46
510.618	25194.21
510.986	25237.83
511.354	25539.06
511.722	25839.39
512.09	25971.59
512.458	26031.02
512.826	26250.68
513.193	26324.58
513.561	26525.25
513.929	26816.09
514.297	27102.18
514.664	27227.6
515.032	27235.29
515.4	27701.94
515.767	27779.68
516.135	28001.59
516.502	27753.01
516.869	28430.74
517.237	28434.35
517.604	28435.26
517.972	28836.15
518.339	29078.18
518.706	29177.83
519.073	29334.44
519.44	29537.15
519.808	29871.6
520.175	29929
520.542	30279.27
520.909	30450.8
521.276	30572.83
521.643	30938.69
522.009	31137.78
522.376	31256.42
522.743	31544.1
523.11	31849.4
523.477	32227.92
523.843	32278.77
524.21	32759.66
524.577	32929.37
524.943	33249.14
525.31	33208.01
525.676	33635.57
526.043	33826.98
526.409	34072.62
526.776	34405.49
527.142	34440.07
527.508	34690.01
527.874	35047.28
528.241	35254.51
528.607	35318.92
528.973	35698.79
529.339	35643.65
529.705	35999.58
530.071	36457.42
530.437	36580.58
530.803	36769.05
531.169	36989.15
531.535	36986.89
531.901	37154.12
532.267	37312.99
532.632	37632.53
532.998	37698.06
533.364	38050.14
533.73	38200.42
534.095	38420.53
534.461	38624.59
534.826	38708.88
535.192	38971.93
535.557	39192.71
535.923	39239.72
536.288	39418.24
536.653	39709.53
537.019	39657.11
537.384	39758.12
537.749	39868.85
538.114	40063.42
538.479	40021.17
538.845	40420.93
539.21	40382.51
539.575	40591.55
539.94	40829.73
540.305	40890.97
540.67	41070.4
541.034	41263.39
541.399	41436.72
541.764	41394.46
542.129	41533.22
542.494	41625.64
542.858	41879.65
543.223	41909.48
543.587	42225.4
543.952	42283.48
544.316	42390.14
544.681	42382.46
545.045	42604.37
545.41	42839.62
545.774	42877.81
546.138	43100.86
546.503	43162.33
546.867	43160.74
547.231	43538.81
547.595	43622.43
547.959	43813.83
548.324	43879.14
548.688	44031.23
549.052	44134.28
549.416	44136.54
549.779	44266.48
550.143	44478.9
550.507	44723.87
550.871	44900.36
551.235	44982.16
551.599	45269.39
551.962	45251.08
552.326	45433.68
552.689	45592.77
553.053	45491.76
553.417	45788.02
553.78	46222.13
554.143	46080.44
554.507	46351.39
554.87	46481.56
555.234	46941.21
555.597	46644.27
555.96	46860.76
556.323	47112.5
556.686	47129.45
557.05	47541.42
557.413	47591.36
557.776	47637.01
558.139	47906.83
558.502	47881.52
558.865	48055.53
559.228	48441.06
559.59	48389.31
559.953	48560.6
560.316	48947.03
560.679	49031.78
561.041	49230.19
561.404	49416.17
561.767	49595.38
562.129	49466.11
562.492	49870.62
562.854	49937.29
563.217	49937.97
563.579	50135.7
563.941	50334.57
564.304	50601.23
564.666	50836.02
565.028	50838.51
565.39	50907.43
565.753	51194.2
566.115	51337.7
566.477	51438.27
566.839	51439.62
567.201	51668.32
567.563	51780.18
567.925	52023.34
568.287	51977.24
568.648	52029.21
569.01	52273.72
569.372	52423.55
569.734	52358.92
570.095	52621.51
570.457	52731.57
570.819	52794.84
571.18	52836.65
571.542	53005.46
571.903	53031.9
572.265	53133.81
572.626	53197.09
572.987	53262.4
573.349	53404.09
573.71	53492.68
574.071	53607.47
574.432	53657.19
574.794	53819.22
575.155	53864.64
575.516	53829.84
575.877	53949.16
576.238	53925.21
576.599	54108.03
576.96	54148.25
577.32	54164.3
577.681	54254.24
578.042	54341.47
578.403	54411.07
578.763	54388.47
579.124	54468.69
579.485	54575.36
579.845	54653.32
580.206	54574.68
580.566	54660.78
580.927	54633.21
581.287	54721.34
581.648	54612.87
582.008	54729.25
582.368	54716.37
582.728	54810.61
583.089	54724.51
583.449	54763.38
583.809	54858.06
584.169	54872.75
584.529	54728.8
584.889	55008.57
585.249	54799.99
585.609	54753.21
585.969	54888.8
586.329	54843.83
586.688	54870.94
587.048	54910.49
587.408	54823.26
587.768	54875.46
588.127	54887.44
588.487	54775.58
588.846	54971.96
589.206	54891.96
589.565	54861.45
589.925	54964.28
590.284	54938.29
590.643	55066.42
591.003	54967.44
591.362	55126.3
591.721	55072.07
592.08	55014.22
592.44	55244.04
592.799	55216.25
593.158	55032.75
593.517	55127.21
593.876	55138.51
594.235	55091.5
594.593	55075.01
594.952	55128.11
595.311	55060.09
595.67	55117.27
596.029	55323.36
596.387	55271.61
596.746	55324.94
597.104	55237.04
597.463	55207.66
597.822	55379.41
598.18	55305.96
598.538	55291.95
598.897	55401.55
599.255	55204.49
599.613	55628.21
599.972	55336.69
600.33	55422.57
600.688	55440.42
601.046	55563.81
601.404	55604.26
601.762	55539.85
602.12	55716.12
602.478	55639.51
602.836	55642
603.194	55607.42
603.552	55649
603.91	55570.59
604.268	55683.58
604.625	55606.07
604.983	55766.74
605.341	55653.07
605.698	55827.53
606.056	55827.08
606.413	55791.37
606.771	55839.96
607.128	55863.23
607.485	55854.87
607.843	55810.81
608.2	56056.22
608.557	56091.48
608.914	55948.2
609.272	56217.35
609.629	56131.48
609.986	56281.08
610.343	56100.29
610.7	56296.44
611.057	56249.21
611.414	56269.78
611.771	56292.38
612.127	56368.98
612.484	56343.45
612.841	56349.78
613.198	56341.87
613.554	56358.81
613.911	56522.65
614.267	56540.96
614.624	56506.83
614.98	56544.57
615.337	56680.84
615.693	56620.28
616.05	56643.55
616.406	56709.77
616.762	56655.76
617.118	56621.63
617.475	56678.13
617.831	56872.93
618.187	56719.48
618.543	56669.32
618.899	56915.41
619.255	56865.47
619.611	56816.66
619.967	56884.45
620.323	56919.25
620.678	56831.57
621.034	56848.75
621.39	56849.65
621.746	56858.91
622.101	57072.24
622.457	56830.44
622.812	56886.03
623.168	56967.84
623.523	56979.36
623.879	57044.45
624.234	56876.32
624.589	56968.74
624.945	56992.7
625.3	56879.03
625.655	56959.7
626.01	56974.17
626.365	56975.07
626.72	56949.53
627.075	56940.04
627.43	56927.39
627.785	56900.95
628.14	56921.06
628.495	56898.91
628.85	56838.8
629.205	56723.55
629.559	56868.86
629.914	56792.48
630.269	56863.43
630.623	56757.45
630.978	56641.29
631.332	56781.63
631.687	56823.21
632.041	56665.02
632.396	56762.65
632.75	56632.93
633.104	56705.92
633.459	56585.25
633.813	56598.36
634.167	56478.81
634.521	56531.69
634.875	56562.88
635.229	56515.42
635.583	56356.78
635.937	56339.38
636.291	56337.12
636.645	56331.92
636.999	56243.56
637.352	56283.11
637.706	56105.04
638.06	56208.08
638.413	56164.7
638.767	56108.65
639.121	56191.14
639.474	55964.47
639.828	55933.29
640.181	55998.15
640.534	55968.32
640.888	55879.96
641.241	55808.09
641.594	55902.1
641.947	55962.21
642.301	55789.11
642.654	55780.98
643.007	55904.59
643.36	55751.37
643.713	55747.53
644.066	55745.27
644.419	55615.33
644.771	55428.67
645.124	55161.78
645.477	55138.06
645.83	54937.61
646.182	54789.59
646.535	54757.95
646.888	54773.55
647.24	54675.24
647.593	54761.57
647.945	54769.7
648.298	54548.47
648.65	54470.05
649.002	54376.72
649.355	54501.91
649.707	54384.63
650.059	54569.94
650.411	54884.5
650.763	54918.63
651.115	55224.61
651.467	55129.47
651.819	55012.64
652.171	54936.93
652.523	54862.13
652.875	54906.2
653.227	54748.46
653.578	54876.14
653.93	54787.56
654.282	54671.18
654.633	54580.78
654.985	54759.31
655.337	54693.32
655.688	54679.08
656.039	54810.61
656.391	54569.48
656.742	54677.73
657.094	54680.21
657.445	54782.36
657.796	54626.2
658.147	54584.62
658.498	54519.99
658.849	54626.66
659.2	54492.65
659.551	54492.65
659.902	54609.03
660.253	54470.73
660.604	54510.5
660.955	54375.59
661.306	54496.72
661.656	54325.65
662.007	54370.62
662.358	54339.21
662.708	54350.96
663.059	54307.34
663.409	54088.37
663.76	54328.81
664.11	54251.3
664.461	54249.04
664.811	54250.17
665.161	54222.83
665.511	54264.86
665.862	54261.02
666.212	54358.19
666.562	54292.43
666.912	54242.03
667.262	54194.58
667.612	54256.72
667.962	54267.8
668.312	54158.87
668.662	54275.48
669.011	54212.2
669.361	54075.48
669.711	54141.47
670.06	54078.87
670.41	54009.5
670.76	53951.65
671.109	53970.18
671.459	54046.56
671.808	53929.95
672.157	54037.29
672.507	53738.32
672.856	53861.25
673.205	53921.36
673.554	53944.87
673.904	53858.77
674.253	53988.26
674.602	53808.37
674.951	53398.44
675.3	53307.6
675.649	53776.28
675.998	53768.6
676.346	53751.2
676.695	53864.42
677.044	53608.38
677.393	53692.9
677.741	53785.32
678.09	53606.34
678.438	53480.7
678.787	53602.5
679.135	53622.62
679.484	53370.87
679.832	53466.46
680.181	53295.39
680.529	53369.06
680.877	53299.23
681.225	53249.29
681.573	53492.68
681.922	53308.95
682.27	53141.72
682.618	53222.85
682.966	53102.86
683.314	53087.94
683.661	53013.37
684.009	52776.76
684.357	52789.19
684.705	52770.43
685.053	52766.14
685.4	52719.14
685.748	52549.88
686.095	52488.41
686.443	52445.02
686.79	52255.87
687.138	52444.79
687.485	52347.62
687.832	52267.17
688.18	52285.7
688.527	52037.12
688.874	52093.62
689.221	51898.14
689.568	51822.21
689.915	51823.79
690.262	51828.76
690.609	51789.44
690.956	51538.6
691.303	51528.89
691.65	51365.27
691.997	51330.7
692.344	51197.14
692.69	51214.32
693.037	51246.18
693.383	50926.64
693.73	51023.14
694.077	50857.26
694.423	50895.23
694.769	50638.97
695.116	50563.49
695.462	50574.11
695.808	50540.66
696.155	50519.87
696.501	50322.82
696.847	50309.03
697.193	50029.72
697.539	50072.88
697.885	49947.91
698.231	49730.51
698.577	49789.95
698.923	49815.03
699.269	49436.74
699.614	49243.52
699.96	49313.12
700.306	49366
700.651	49093.92
700.997	49166.46
701.342	48975.51
701.688	48861.84
702.033	48643.99
702.379	48716.08
702.724	48511.34
703.069	48652.12
703.415	48197
703.76	48244.45
704.105	48118.58
704.45	47978.7
704.795	47790.23
705.14	47750.68
705.485	47749.32
705.83	47541.87
706.175	47694.18
706.52	47561.76
706.865	47451.03
707.209	47278.83
707.554	47252.84
707.899	47188.21
708.243	47108.44
708.588	46950.02
708.932	46690.82
709.277	46776.02
709.621	46685.4
709.966	46530.82
710.31	46614.21
710.654	46181.91
710.998	46315.91
711.342	46379.64
711.687	46163.15
712.031	45873.21
712.375	45856.04
712.719	45899.88
713.063	45823.72
713.407	45962.03
713.75	45704.63
714.094	45696.04
714.438	45470.51
714.782	45488.59
715.125	45164.31
715.469	45402.49
715.812	45009.96
716.156	44973.8
716.499	44812.23
716.843	44912.56
717.186	44733.13
717.53	44783.53
717.873	44788.5
718.216	44712.12
718.559	44572.68
718.902	44323.88
719.246	44286.14
719.589	44386.47
719.932	44149.19
720.275	44212.47
720.617	44079.14
720.96	44028.07
721.303	43896.77
721.646	43954.85
721.989	43644.8
722.331	43781.07
722.674	43577
723.016	43628.98
723.359	43504.92
723.701	43542.2
724.044	43321.42
724.386	43112.38
724.729	43192.83
725.071	43104.7
725.413	43199.16
725.755	42998.04
726.097	42868.77
726.439	42639.4
726.782	42667.65
727.124	42893.41
727.465	42598.5
727.807	42591.95
728.149	42457.71
728.491	42395.79
728.833	42480.54
729.175	42393.08
729.516	42152.18
729.858	42145.4
730.199	42237.6
730.541	42171.17
730.882	42094.78
731.224	42073.99
731.565	41901.57
731.906	41804.4
732.248	41787.9
732.589	41732.98
732.93	41615.25
733.271	41446.66
733.612	41460.68
733.953	41536.83
734.294	41528.02
734.635	41273.79
734.976	41340.23
735.317	41162.6
735.658	41212.55
735.999	41080.35
736.339	40899.11
736.68	41079.67
737.021	40967.58
737.361	40721.49
737.702	40902.05
738.042	40824.31
738.383	40735.27
738.723	40803.07
739.063	40553.81
739.404	40453.47
739.744	40488.5
740.084	40327.6
740.424	40404.66
740.764	40190.65
741.104	40368.95
741.444	39982.97
741.784	40050.99
742.124	39940.94
742.464	39957.44
742.804	39750.21
743.143	39779.14
743.483	39749.08
743.823	39544.79
744.162	39531.69
744.502	39665.69
744.841	39382.09
745.181	39632.93
745.52	39438.13
745.86	39518.81
746.199	39284.46
746.538	39261.19
746.877	39317.68
747.216	39235.65
747.556	39053.73
747.895	39015.09
748.234	38807.19
748.573	38780.75
748.911	38634.99
749.25	38663.46
749.589	38526.06
749.928	38572.39
750.267	38571.49
750.605	38412.62
750.944	38174.89
751.283	38233.42
751.621	38188.67
751.96	38099.63
752.298	37962.46
752.636	38055.12
752.975	37944.16
753.313	37639.53
753.651	37900.99
753.989	37578.97
754.327	37556.15
754.666	37316.6
755.004	37399.31
755.342	37427.11
755.679	37349.6
756.017	37188.7
756.355	37070.73
756.693	37033.22
757.031	37057.85
757.368	36774.92
757.706	36690.86
758.044	36537.87
758.381	36669.61
758.719	36499
759.056	36423.75
759.394	36320.7
759.731	36101.49
760.068	36032.8
760.405	35873.03
760.743	35745.35
761.08	35837.77
761.417	35624.9
761.754	35611.56
762.091	35503.32
762.428	35391.46
762.765	35201.18
763.102	35240.73
763.438	35105.59
763.775	34824.24
764.112	34864.24
764.449	34720.74
764.785	34616.79
765.122	34448.66
765.458	34253.41
765.795	34353.07
766.131	34299.51
766.467	34121.89
766.804	33916.01
767.14	33765.28
767.476	33824.72
767.812	33607.55
768.148	33668.79
768.485	33354.9
768.821	33317.16
769.157	33163.94
769.492	33135.47
769.828	33212.08
770.164	32768.02
770.5	32788.36
770.836	32805.31
771.171	32458.88
771.507	32371.2
771.842	32211.88
772.178	32131.66
772.513	32294.59
772.849	32029.96
773.184	31923.98
773.519	31920.59
773.855	31654.83
774.19	31542.74
774.525	31476.31
774.86	31489.64
775.195	31279.02
775.53	31159.7
775.865	31037.67
776.2	30780.5
776.535	30680.39
776.87	30761.52
777.205	30463.22
777.539	30390.23
777.874	30485.6
778.209	30129
778.543	30167.86
778.878	29877.7
779.212	29964.48
779.547	29718.61
779.881	29832.73
780.215	29515.45
780.55	29633.42
780.884	29392.07
781.218	29306.42
781.552	29270.04
781.886	29166.31
782.22	28890.38
782.554	28963.6
782.888	28561.35
783.222	28565.2
783.556	28444.97
783.889	28336.27
784.223	28136.73
784.557	28044.98
784.89	28103.74
785.224	27916.85
785.557	27819.23
785.891	27771.54
786.224	27677.08
786.558	27644.99
786.891	27442.51
787.224	27305.79
787.557	27236.19
787.891	27214.5
788.224	27117.1
788.557	27006.14
788.89	27024.9
789.223	26981.28
789.556	26781.06
789.888	26625.36
790.221	26603.44
790.554	26353.95
790.887	26425.82
791.219	26267.85
791.552	26247.52
791.884	26078.93
792.217	25940.86
792.549	25864.48
792.882	25764.14
793.214	25737.7
793.546	25748.32
793.879	25401.21
794.211	25379.29
794.543	25400.31
794.875	25296.81
795.207	25318.5
795.539	25135.91
795.871	25268.56
796.203	24921.22
796.535	24807.78
796.867	24752.87
797.198	24646.65
797.53	24601.46
797.862	24512.87
798.193	24493.66
798.525	24362.14
798.856	24391.52
799.188	24066.1
799.519	23989.72
799.85	23850.52
800.182	23968.03
800.513	24021.81
800.844	23734.14
801.175	23860.69
801.506	23810.07
801.837	23600.81
802.168	23627.92
802.499	23455.5
802.83	23353.58
803.161	23344.77
803.491	23226.58
803.822	23218.9
804.153	23024.1
804.483	22938
804.814	22825.46
805.145	22943.65
805.475	22817.78
805.805	22752.69
806.136	22739.59
806.466	22772.81
806.796	22688.29
807.126	22477.22
807.457	22518.8
807.787	22351.12
808.117	22218.92
808.447	22121.3
808.777	22208.98
809.107	22202.42
809.436	22054.63
809.766	22149.77
810.096	22013.5
810.426	21906.16
810.755	21854.19
811.085	21891.92
811.414	21774.64
811.744	21492.61
812.073	21528.32
812.403	21637.02
812.732	21310.24
813.061	21472.95
813.39	21310.92
813.719	21280.19
814.049	21339.4
814.378	21235.9
814.707	21120.42
815.036	21091.95
815.365	21007.2
815.693	20787.55
816.022	20897.37
816.351	20812.4
816.68	20689.47
817.008	20778.28
817.337	20624.61
817.665	20456.26
817.994	20590.26
818.322	20589.36
818.651	20435.69
818.979	20316.37
819.307	20502.81
819.636	20311.17
819.964	20122.71
820.292	20270.5
820.62	20157.05
820.948	20115.02
821.276	20195.47
821.604	20088.58
821.932	20203.61
822.259	20217.17
822.587	20127
822.915	20120.9
823.243	20099.2
823.57	20059.66
823.898	20068.24
824.225	19974.46
824.553	19911.64
824.88	20054.23
825.207	20047
825.535	19889.27
825.862	19952.77
826.189	19934.01
826.516	20146.21
826.843	20163.83
827.17	20117.73
827.497	20108.92
827.824	20023.95
828.151	20107.56
828.478	19965.2
828.805	20007
829.131	19883.39
829.458	19945.31
829.785	19883.39
830.111	19913.22
830.438	20071.86
830.764	20063.27
831.09	19973.56
831.417	19858.98
831.743	19884.07
832.069	19960.68
832.395	19829.83
832.722	19908.47
833.048	19776.05
833.374	19784.41
833.7	19732.21
834.026	19761.36
834.351	19759.78
834.677	19769.72
835.003	19751.19
835.329	19767.01
835.654	19702.6
835.98	19554.58
836.306	19546.22
836.631	19559.78
836.956	19641.36
837.282	19560.23
837.607	19447.24
837.932	19488.37
838.258	19482.27
838.583	19496.06
838.908	19383.29
839.233	19397.3
839.558	19239.11
839.883	19178.78
840.208	19258.55
840.533	19167.25
840.858	19244.76
841.182	19167.7
841.507	19105.78
841.832	19098.33
842.156	18982.85
842.481	19032.34
842.805	18880.25
843.13	18869.18
843.454	18770.42
843.778	18752.57
844.103	18670.77
844.427	18715.51
844.751	18678
845.075	18634.83
845.399	18513.26
845.723	18409.53
846.047	18424.67
846.371	18351.23
846.695	18299.93
847.019	18099.26
847.343	18063.32
847.666	17982.87
847.99	17841.86
848.313	17892.03
848.637	17796.66
848.96	17751.92
849.284	17721.64
849.607	17558.7
849.931	17585.82
850.254	17455.2
850.577	17315.1
850.9	17128.43
851.223	17050.92
851.546	17064.71
851.869	16998.95
852.192	17098.6
852.515	16881.21
852.838	16894.54
853.161	16813.64
853.483	16731.61
853.806	16731.61
854.129	16610.71
854.451	16647.77
854.774	16583.82
855.096	16505.17
855.419	16418.62
855.741	16281.68
856.063	16310.6
856.385	16255.91
856.708	16148.12
857.03	16111.06
857.352	16112.42
857.674	16035.36
857.996	15953.55
858.318	15926.66
858.64	15861.35
858.961	15819.09
859.283	15762.14
859.605	15711.3
859.926	15791.29
860.248	15669.94
860.57	15690.51
860.891	15620.22
861.212	15494.35
861.534	15456.16
861.855	15404.86
862.176	15540.68
862.498	15435.14
862.819	15360.8
863.14	15337.75
863.461	15351.08
863.782	15300.69
864.103	15347.24
864.424	15194.02
864.745	15218.88
865.065	15175.94
865.386	15147.69
865.707	15124.19
866.027	15197.19
866.348	15111.99
866.668	15097.53
866.989	15118.09
867.309	14928.49
867.63	14973.24
867.95	14922.39
868.27	14797.2
868.59	14866.35
868.91	14892.56
869.23	14825.22
869.55	14813.92
869.87	14847.36
870.19	14787.93
870.51	14821.83
870.83	14726.01
871.15	14589.52
871.469	14584.32
871.789	14652.34
872.109	14647.82
872.428	14530.54
872.748	14529.18
873.067	14428.62
873.386	14508.62
873.706	14459.8
874.025	14442.63
874.344	14427.71
874.663	14390.2
874.982	14373.93
875.301	14380.48
875.62	14304.1
875.939	14239.7
876.258	14283.99
876.577	14262.29
876.896	14255.06
877.214	14111.56
877.533	14253.93
877.852	14154.95
878.17	14210.32
878.489	14153.6
878.807	14080.15
879.125	13995.63
879.444	14085.12
879.762	13988.18
880.08	14053.94
880.398	14038.8
880.716	13994.05
881.034	13899.37
881.352	13924.22
881.67	13852.81
881.988	13951.34
882.306	13862.53
882.624	13757.67
882.941	13666.15
883.259	13687.62
883.577	13629.32
883.894	13605.59
884.212	13440.85
884.529	13529.43
884.846	13520.85
885.164	13490.11
885.481	13377.8
885.798	13428.64
886.115	13351.13
886.432	13312.49
886.75	13252.38
887.067	13362.43
887.383	13234.75
887.7	13308.65
888.017	13226.39
888.334	13182.32
888.651	13136.67
888.967	13152.72
889.284	13021.88
889.6	12933.74
889.917	12937.58
890.233	12955.66
890.55	12943.01
890.866	12947.98
891.182	12820.52
891.498	12696.69
891.815	12719.96
892.131	12645.61
892.447	12617.82
892.763	12660.53
893.079	12595.22
893.395	12595.22
893.71	12491.95
894.026	12473.87
894.342	12429.12
894.657	12380.08
894.973	12428.67
895.289	12359.07
895.604	12352.97
895.92	12242.46
896.235	12143.03
896.55	12159.3
896.865	12149.36
897.181	12071.84
897.496	12105.74
897.811	12021.9
898.126	12033.2
898.441	11964.95
898.756	11897.84
899.071	11848.8
899.386	11810.16
899.7	11699.42
900.015	11773.09
900.33	11631.86
900.644	11608.35
900.959	11618.97
901.273	11554.8
901.588	11369.94
901.902	11398.19
902.216	11489.03
902.531	11316.38
902.845	11331.3
903.159	11211.53
903.473	11209.49
903.787	11149.61
904.101	11096.5
904.415	11075.26
904.729	11037.97
905.042	10960.91
905.356	10971.31
905.67	10976.28
905.984	10969.73
906.297	10921.59
906.611	10802.95
906.924	10788.71
907.237	10714.14
907.551	10686.57
907.864	10654.71
908.177	10617.87
908.491	10572.67
908.804	10492.22
909.117	10464.2
909.43	10412.23
909.743	10329.74
910.056	10363.64
910.368	10357.54
910.681	10276.41
910.994	10207.94
911.307	10235.28
911.619	10140.37
911.932	10130.43
912.244	10003.88
912.557	10031.22
912.869	9955.74
913.181	9940.15
913.494	9961.62
913.806	9929.98
914.118	9833.03
914.43	9720.27
914.742	9753.26
915.054	9741.28
915.366	9698.8
915.678	9610.44
915.99	9587.62
916.302	9512.14
916.613	9499.26
916.925	9431.46
917.236	9415.42
917.548	9364.34
917.859	9360.5
918.171	9290.45
918.482	9317.79
918.794	9233.95
919.105	9264.01
919.416	9150.34
919.727	9115.09
920.038	9119.38
920.349	9045.26
920.66	8949.89
920.971	9025.37
921.282	9018.14
921.593	8819.73
921.903	8761.42
922.214	8781.99
922.525	8760.97
922.835	8755.09
923.146	8628.54
923.456	8695.89
923.767	8618.83
924.077	8577.92
924.387	8496.8
924.697	8490.69
925.008	8522.11
925.318	8425.16
925.628	8427.42
925.938	8383.35
926.248	8298.38
926.558	8241.21
926.867	8233.07
927.177	8194.43
927.487	8115.34
927.796	8122.79
928.106	8080.76
928.416	8030.14
928.725	8012.06
929.034	7995.11
929.344	7959.18
929.653	7964.15
929.962	7869.47
930.271	7880.09
930.581	7750.6
930.89	7780.66
931.199	7801.22
931.508	7706.76
931.817	7674.22
932.125	7662.47
932.434	7588.57
932.743	7545.18
933.051	7524.17
933.36	7485.07
933.669	7424.28
933.977	7390.61
934.286	7358.75
934.594	7417.73
934.902	7303.61
935.21	7285.53
935.519	7289.82
935.827	7269.71
936.135	7201.24
936.443	7122.14
936.751	7092.77
937.059	7106.78
937.367	7069.94
937.674	7129.6
937.982	7066.33
938.29	7014.12
938.597	7031.07
938.905	6910.62
939.213	6936.61
939.52	6840.79
939.827	6918.76
940.135	6842.83
940.442	6808.71
940.749	6780.68
941.056	6728.71
941.363	6665.88
941.67	6655.04
941.977	6709.5
942.284	6608.26
942.591	6536.85
942.898	6566
943.205	6509.73
943.511	6470.18
943.818	6447.81
944.125	6352.22
944.431	6373.91
944.738	6366.68
945.044	6321.49
945.35	6356.97
945.657	6285.33
945.963	6259.57
946.269	6230.42
946.575	6215.95
946.881	6212.11
947.187	6110.19
947.493	6109.06
947.799	6102.28
948.105	5999.46
948.41	6003.98
948.716	5998.33
949.022	5932.8
949.327	5962.63
949.633	5904.77
949.938	5914.04
950.244	5899.35
950.549	5833.36
950.854	5808.96
951.16	5824.55
951.465	5799.92
951.77	5733.25
952.075	5715.4
952.38	5685.34
952.685	5666.81
952.99	5603.09
953.294	5617.78
953.599	5594.95
953.904	5552.02
954.209	5469.53
954.513	5521.73
954.818	5420.49
955.122	5454.62
955.426	5420.04
955.731	5409.42
956.035	5347.5
956.339	5375.3
956.643	5356.54
956.948	5299.82
957.252	5307.95
957.556	5319.93
957.86	5243.55
958.163	5273.15
958.467	5193.38
958.771	5181.18
959.075	5183.89
959.378	5163.78
959.682	5182.08
959.985	5081.74
960.289	5050.33
960.592	5078.81
960.896	5019.15
961.199	4961.75
961.502	4923.78
961.805	4950.9
962.108	4927.85
962.411	4878.36
962.714	4862.77
963.017	4865.03
963.32	4865.03
963.623	4849.89
963.926	4860.06
964.228	4797.23
964.531	4822.77
964.833	4786.84
965.136	4742.09
965.438	4744.35
965.741	4717.46
966.043	4671.81
966.345	4638.59
966.648	4634.07
966.95	4665.26
967.252	4646.05
967.554	4563.34
967.856	4541.42
968.158	4492.61
968.46	4535.09
968.761	4474.53
969.063	4420.97
969.365	4462.33
969.666	4451.03
969.968	4376.68
970.269	4429.11
970.571	4371.48
970.872	4361.09
971.174	4319.96
971.475	4269.79
971.776	4306.4
972.077	4234.31
972.378	4236.12
972.679	4239.28
972.98	4189.34
973.281	4179.62
973.582	4166.51
973.883	4149.79
974.183	4161.54
974.484	4151.37
974.785	4098.72
975.085	4031.83
975.386	4061.43
975.686	4045.39
975.986	3993.64
976.287	3982.34
976.587	3994.09
976.887	3958.61
977.187	3947.99
977.487	3970.36
977.787	3973.53
978.087	3885.62
978.387	3841.33
978.687	3898.5
978.987	3823.47
979.286	3801.78
979.586	3817.6
979.885	3767.66
980.185	3750.03
980.484	3719.52
980.784	3690.37
981.083	3692.4
981.382	3668.67
981.682	3703.93
981.981	3733.31
982.28	3670.03
982.579	3592.97
982.878	3643.36
983.177	3588.45
983.475	3627.32
983.774	3596.81
984.073	3532.41
984.372	3548.45
984.67	3542.12
984.969	3516.14
985.267	3477.04
985.566	3479.53
985.864	3473.2
986.162	3456.25
986.461	3420.32
986.759	3431.17
987.057	3383.94
987.355	3360.89
987.653	3357.5
987.951	3359.3
988.249	3343.26
988.547	3296.93
988.844	3305.75
989.142	3256.71
989.44	3277.27
989.737	3271.62
990.035	3206.31
990.332	3217.16
990.63	3178.74
990.927	3178.52
991.224	3146.65
991.521	3136.71
991.819	3133.1
992.116	3148.69
992.413	3109.14
992.71	3091.06
993.006	3112.31
993.303	3050.39
993.6	3012.42
993.897	3045.64
994.193	3044.51
994.49	2981.01
994.787	2972.2
995.083	2966.32
995.379	2975.59
995.676	2961.12
995.972	2944.4
996.268	2903.72
996.565	2870.73
996.861	2852.88
997.157	2870.28
997.453	2845.42
997.749	2820.79
998.044	2815.36
998.34	2780.34
998.636	2822.37
998.932	2783.27
999.227	2722.26
999.523	2765.87
999.818	2735.82
1000.114	2729.49
1000.409	2692.2
1000.704	2680.23
1001	2685.88
1001.295	2657.85
1001.59	2682.49
1001.885	2649.04
1002.18	2625.31
1002.475	2584.18
1002.77	2594.35
1003.065	2581.25
1003.359	2595.93
1003.654	2541.92
1003.949	2506.67
1004.243	2503.96
1004.538	2516.84
1004.832	2512.55
1005.127	2506.9
1005.421	2459.67
1005.715	2444.07
1006.009	2423.06
1006.304	2406.79
1006.598	2411.76
1006.892	2391.87
1007.186	2370.18
1007.48	2381.25
1007.773	2314.13
1008.067	2343.96
1008.361	2311.65
1008.655	2308.26
1008.948	2279.56
1009.242	2317.75
1009.535	2262.38
1009.829	2238.66
1010.122	2209.73
1010.415	2237.75
1010.708	2222.16
1011.001	2194.14
1011.295	2188.49
1011.588	2174.25
1011.881	2150.3
1012.173	2144.87
1012.466	2123.18
1012.759	2105.78
1013.052	2108.72
1013.344	2099
1013.637	2074.59
1013.93	2080.24
1014.222	2097.64
1014.514	2041.15
1014.807	2033.92
1015.099	2015.84
1015.391	2012
1015.683	1994.37
1015.976	1991.66
1016.268	1992.56
1016.56	1949.4
1016.851	1969.51
1017.143	1945.1
1017.435	1923.86
1017.727	1869.4
1018.018	1932.22
1018.31	1884.31
1018.602	1854.71
1018.893	1885.22
1019.185	1853.81
1019.476	1840.02
1019.767	1833.47
1020.058	1825.11
1020.35	1802.51
1020.641	1782.17
1020.932	1791.21
1021.223	1763.41
1021.514	1755.05
1021.804	1732.23
1022.095	1750.31
1022.386	1688.39
1022.677	1655.62
1022.967	1697.43
1023.258	1698.11
1023.548	1681.83
1023.839	1679.35
1024.129	1637.77
1024.419	1624.66
1024.709	1629.18
1025	1602.97
1025.29	1579.69
1025.58	1568.16
1025.87	1576.3
1026.16	1561.39
1026.449	1593.02
1026.739	1539.47
1027.029	1538.34
1027.319	1520.48
1027.608	1505.34
1027.898	1483.87
1028.187	1501.27
1028.477	1464.44
1028.766	1488.17
1029.055	1451.56
1029.344	1444.55
1029.634	1455.63
1029.923	1440.94
1030.212	1415.63
1030.501	1399.13
1030.79	1406.81
1031.078	1399.36
1031.367	1374.95
1031.656	1364.78
1031.945	1360.94
1032.233	1375.4
1032.522	1321.39
1032.81	1362.75
1033.099	1336.31
1033.387	1313.03
1033.675	1308.28
1033.963	1289.3
1034.251	1308.28
1034.54	1296.08
1034.828	1276.65
1035.116	1258.57
1035.403	1242.52
1035.691	1226.25
1035.979	1233.03
1036.267	1212.47
1036.554	1199.59
1036.842	1205.91
1037.129	1189.42
1037.417	1203.2
1037.704	1178.12
1037.992	1154.39
1038.279	1174.73
1038.566	1155.75
1038.853	1155.75
1039.14	1155.75
