Data from plate_porcelain_FLMS001491_082.txt Node
Date: Tue Feb 07 11:20:02 GMT 2017
User: dcchb
Spectrometer: FLMS00149
Trigger mode: 0
Integration Time (sec): 2.000000E-2
Scans to average: 10
Electric dark correction enabled: true
Nonlinearity correction enabled: false
Boxcar width: 0
XAxis mode: Wavelengths
Number of Pixels in Spectrum: 2048
>>>>>Begin Spectral Data<<<<<
341.393	-4.94
341.776	-4.94
342.16	-4.94
342.543	-66.86
342.927	-68.67
343.31	-54.43
343.693	-92.17
344.077	-74.32
344.46	-50.82
344.843	-53.98
345.226	-29.35
345.61	-44.26
345.993	-24.15
346.376	15.4
346.759	0.25
347.142	27.15
347.525	23.53
347.908	73.7
348.291	84.55
348.674	82.51
349.057	116.41
349.44	118.9
349.823	149.4
350.206	140.59
350.588	223.07
350.971	218.1
351.354	252.9
351.737	270.53
352.119	274.6
352.502	291.09
352.884	306.69
353.267	317.31
353.65	328.61
354.032	332.67
354.414	343.75
354.797	360.02
355.179	371.54
355.562	361.6
355.944	375.39
356.326	367.02
356.709	388.04
357.091	380.58
357.473	387.81
357.855	365.89
358.238	414.25
358.62	367.93
359.002	389.17
359.384	392.11
359.766	390.53
360.148	396.63
360.53	394.82
360.912	391.88
361.294	393.46
361.676	398.21
362.057	407.02
362.439	386.01
362.821	398.21
363.203	375.16
363.584	403.41
363.966	368.83
364.348	374.93
364.729	389.85
365.111	395.95
365.493	413.12
365.874	386.68
366.256	401.15
366.637	381.94
367.019	369.96
367.4	395.05
367.781	399.34
368.163	406.12
368.544	391.88
368.925	394.37
369.306	418.77
369.688	397.98
370.069	381.49
370.45	386.91
370.831	398.21
371.212	394.82
371.593	412.67
371.974	395.05
372.355	413.35
372.736	410.86
373.117	410.64
373.498	401.15
373.879	428.49
374.26	414.71
374.641	408.61
375.021	389.4
375.402	437.3
375.783	451.09
376.163	460.13
376.544	453.58
376.925	426.46
377.305	436.85
377.686	435.05
378.066	453.35
378.447	434.82
378.827	436.63
379.208	461.94
379.588	466.91
379.968	464.42
380.349	475.72
380.729	471.65
381.109	486.57
381.489	481.37
381.87	496.51
382.25	472.56
382.63	496.51
383.01	499
383.39	508.94
383.77	529.05
384.15	526.79
384.53	515.27
384.91	529.51
385.29	536.06
385.67	538.77
386.049	537.19
386.429	533.35
386.809	577.19
387.189	568.15
387.568	558.88
387.948	567.92
388.328	550.97
388.707	592.1
389.087	599.33
389.466	582.39
389.846	587.13
390.225	605.44
390.605	626.23
390.984	612.44
391.363	635.94
391.743	631.88
392.122	660.58
392.501	653.57
392.881	682.72
393.26	674.13
393.639	684.76
394.018	668.26
394.397	660.58
394.776	670.52
395.155	699.9
395.534	693.8
395.913	705.55
396.292	729.95
396.671	766.34
397.05	753.45
397.429	744.87
397.808	739.9
398.186	755.49
398.565	762.49
398.944	766.79
399.323	786.22
399.701	769.27
400.08	801.82
400.458	789.16
400.837	800.69
401.215	827.13
401.594	832.32
401.972	834.58
402.351	849.05
402.729	859.44
403.107	861.47
403.486	886.56
403.864	868.25
404.242	844.75
404.62	911.64
404.999	916.16
405.377	944.86
405.755	925.43
406.133	941.47
406.511	955.03
406.889	964.75
407.267	981.25
407.645	980.57
408.023	995.48
408.401	1036.39
408.779	1073.45
409.156	1057.63
409.534	1047.91
409.912	1083.84
410.29	1101.69
410.667	1087.46
411.045	1105.31
411.422	1138.53
411.8	1138.76
412.178	1182.82
412.555	1197.51
412.933	1183.27
413.31	1233.67
413.687	1271.41
414.065	1252.42
414.442	1249.94
414.819	1286.77
415.197	1290.62
415.574	1307.34
415.951	1326.1
416.328	1340.78
416.705	1348.47
417.082	1357.73
417.46	1383.04
417.837	1383.49
418.214	1393.21
418.591	1377.62
418.967	1438.18
419.344	1438.63
419.721	1470.72
420.098	1466.2
420.475	1493.32
420.852	1526.77
421.228	1556.15
421.605	1557.95
421.982	1564.28
422.358	1574
422.735	1592.53
423.111	1586.2
423.488	1657.39
423.864	1628.69
424.241	1687.89
424.617	1678.4
424.994	1704.16
425.37	1720.43
425.746	1719.76
426.123	1771.73
426.499	1796.59
426.875	1804.95
427.251	1831.17
427.627	1857.15
428.003	1868.68
428.379	1922.46
428.756	1915.68
429.132	1993.87
429.507	1977.15
429.883	2035.91
430.259	2067.09
430.635	2072.74
431.011	2097.15
431.387	2147.32
431.763	2166.75
432.138	2171.04
432.514	2204.49
432.89	2217.37
433.265	2273.64
433.641	2315.22
434.016	2324.03
434.392	2354.32
434.767	2408.55
435.143	2395.9
435.518	2477.25
435.894	2471.6
436.269	2550.7
436.644	2573.75
437.02	2574.42
437.395	2585.5
437.77	2670.01
438.145	2646.96
438.52	2697.58
438.895	2741.2
439.271	2733.52
439.646	2817.58
440.021	2780.75
440.395	2852.38
440.77	2799.5
441.145	2862.55
441.52	2920.86
441.895	2956.56
442.27	2949.33
442.645	2954.53
443.019	3001.53
443.394	3001.31
443.769	3051.02
444.143	3067.97
444.518	3086.95
444.892	3047.63
445.267	3137.57
445.641	3134.64
446.016	3166.72
446.39	3184.13
446.764	3192.94
447.139	3246.95
447.513	3292.15
447.887	3298.92
448.262	3327.4
448.636	3355.19
449.01	3407.62
449.384	3427.06
449.758	3461.63
450.132	3463.89
450.506	3555.41
450.88	3526.26
451.254	3578.24
451.628	3613.27
452.002	3662.3
452.376	3698.24
452.75	3724.68
453.123	3773.04
453.497	3857.33
453.871	3825.46
454.244	3926.25
454.618	3914.73
454.992	4055.29
455.365	4069.07
455.739	4143.87
456.112	4160.82
456.486	4183.65
456.859	4243.08
457.232	4348.39
457.606	4364.21
457.979	4395.39
458.352	4450.53
458.725	4544.77
459.099	4558.78
459.472	4668.61
459.845	4755.38
460.218	4746.34
460.591	4784.99
460.964	4817.53
461.337	4984.53
461.71	5037.86
462.083	5110.63
462.456	5116.05
462.829	5150.85
463.201	5216.61
463.574	5285.54
463.947	5349.72
464.32	5469.71
464.692	5539.77
465.065	5603.5
465.438	5637.62
465.81	5758.52
466.183	5813.43
466.555	5962.58
466.928	5951.06
467.3	5981.79
467.672	6097.95
468.045	6241.45
468.417	6237.83
468.789	6290.94
469.161	6442.34
469.534	6472.4
469.906	6613.19
470.278	6682.34
470.65	6808.21
471.022	6908.1
471.394	7052.05
471.766	7178.37
472.138	7205.04
472.51	7346.05
472.882	7525.25
473.253	7571.35
473.625	7707.4
473.997	7884.79
474.369	7922.98
474.74	8026.26
475.112	8229.19
475.484	8236.2
475.855	8444.55
476.227	8496.98
476.598	8780.36
476.97	8912.11
477.341	9046.12
477.713	9216.74
478.084	9245.21
478.455	9501.47
478.827	9582.83
479.198	9874.12
479.569	9835.02
479.94	10226.43
480.311	10310.94
480.682	10519.53
481.053	10707.54
481.424	10938.5
481.795	11013.07
482.166	11260.75
482.537	11372.61
482.908	11661.19
483.279	11687.18
483.65	11877.46
484.021	12153.83
484.391	12281.74
484.762	12437.44
485.133	12574.16
485.503	12829.3
485.874	13037.43
486.244	13169.17
486.615	13443.29
486.985	13617.52
487.356	13913.33
487.726	13970.06
488.097	14211.86
488.467	14292.99
488.837	14711.05
489.207	14789.24
489.578	15043.7
489.948	15178.61
490.318	15349.46
490.688	15445.05
491.058	15764.81
491.428	15999.61
491.798	16168.87
492.168	16464
492.538	16549.65
492.908	16714.39
493.278	16975.63
493.648	16970.43
494.017	17238.9
494.387	17374.94
494.757	17564.76
495.126	17771.31
495.496	17830.07
495.866	17934.47
496.235	18166.1
496.605	18359.55
496.974	18360.22
497.344	18658.07
497.713	18784.85
498.082	18944.61
498.452	19110.03
498.821	19178.06
499.19	19296.47
499.559	19489.23
499.928	19670.02
500.298	19757.93
500.667	20027.75
501.036	19915.66
501.405	20173.28
501.774	20320.17
502.143	20384.58
502.512	20623.67
502.88	20764.45
503.249	20822.76
503.618	20975.52
503.987	21179.36
504.356	21206.25
504.724	21432.69
505.093	21461.84
505.462	21682.17
505.83	21875.84
506.199	21987.92
506.567	22268.14
506.936	22301.59
507.304	22456.39
507.672	22692.54
508.041	22776.83
508.409	22889.6
508.777	23195.35
509.145	23318.74
509.514	23345.63
509.882	23607.32
510.25	23751.27
510.618	23877.82
510.986	23958.04
511.354	24247.07
511.722	24430.57
512.09	24694.75
512.458	24657.91
512.826	24969.32
513.193	25042.76
513.561	25144
513.929	25437.1
514.297	25743.31
514.664	25782.4
515.032	26043.86
515.4	26224.42
515.767	26375.61
516.135	26599.1
516.502	26310.3
516.869	26853.11
517.237	27045.87
517.604	27046.32
517.972	27346.65
518.339	27628.45
518.706	27667.1
519.073	27784.83
519.44	28067.31
519.808	28288.78
520.175	28409.45
520.542	28771.48
520.909	28869.55
521.276	29096.44
521.643	29286.49
522.009	29556.54
522.376	29687.16
522.743	29996.98
523.11	30232.45
523.477	30594.93
523.843	30703.85
524.21	30941.14
524.577	31213.44
524.943	31505.64
525.31	31615.47
525.676	31804.39
526.043	32162.12
526.409	32306.75
526.776	32670.36
527.142	32685.27
527.508	32985.15
527.874	33172.49
528.241	33388.3
528.607	33423.56
528.973	33938.34
529.339	33890.44
529.705	34284.32
530.071	34505.56
530.437	34601.38
530.803	34903.74
531.169	35106.9
531.535	35025.55
531.901	35330.4
532.267	35523.39
532.632	35565.65
532.998	35714.57
533.364	36088.34
533.73	36164.05
534.095	36496.24
534.461	36651.72
534.826	36714.77
535.192	36894.88
535.557	37107.08
535.923	37103.01
536.288	37365.37
536.653	37578.02
537.019	37611.69
537.384	37696.44
537.749	37876.55
538.114	38039.03
538.479	38105.02
538.845	38460.03
539.21	38243.09
539.575	38545
539.94	38680.82
540.305	39002.84
540.67	38896.41
541.034	39065.44
541.399	39321.71
541.764	39327.58
542.129	39447.13
542.494	39503.17
542.858	39885.99
543.223	39860.45
543.587	40080.33
543.952	40167.33
544.316	40279.87
544.681	40392.86
545.045	40625.4
545.41	40644.38
545.774	40897.94
546.138	40929.12
546.503	41061.77
546.867	41127.76
547.231	41541.99
547.595	41530.69
547.959	41509.9
548.324	41661.53
548.688	41773.39
549.052	42122.99
549.416	42101.07
549.779	42202.99
550.143	42357.33
550.507	42594.16
550.871	42843.65
551.235	42815.17
551.599	43062.62
551.962	43126.58
552.326	43209.06
552.689	43579
553.053	43446.12
553.417	43632.33
553.78	44120.9
554.143	43975.14
554.507	44185.08
554.87	44291.29
555.234	44739.42
555.597	44427.79
555.96	44793.43
556.323	44981.9
556.686	44992.07
557.05	45281.55
557.413	45387.31
557.776	45562.22
558.139	45835.21
558.502	45822.78
558.865	45967.18
559.228	46312.26
559.59	46343.67
559.953	46490.33
560.316	46939.36
560.679	46870.66
561.041	47124.89
561.404	47403.53
561.767	47574.6
562.129	47537.76
562.492	47921.71
562.854	47895.04
563.217	47973.68
563.579	48221.81
563.941	48423.39
564.304	48728.69
564.666	48810.04
565.028	48895.69
565.39	48950.83
565.753	49111.05
566.115	49284.38
566.477	49522.79
566.839	49612.06
567.201	49888.89
567.563	49924.59
567.925	50096.34
568.287	50135.66
568.648	50201.87
569.01	50405.71
569.372	50628.53
569.734	50613.84
570.095	50898.58
570.457	50918.01
570.819	51028.07
571.18	51101.06
571.542	51294.72
571.903	51259.92
572.265	51448.62
572.626	51532.68
572.987	51582.17
573.349	51761.83
573.71	51786.01
574.071	51953.24
574.432	52088.6
574.794	52243.63
575.155	52246.34
575.516	52105.55
575.877	52293.34
576.238	52350.06
576.599	52498.53
576.96	52441.59
577.32	52495.82
577.681	52647.23
578.042	52758.42
578.403	52737.17
578.763	52843.84
579.124	52845.87
579.485	52932.87
579.845	53028.46
580.206	52971.52
580.566	52987.11
580.927	53077.73
581.287	53152.75
581.648	53012.42
582.008	53104.85
582.368	53093.55
582.728	53274.56
583.089	53177.39
583.449	53229.82
583.809	53274.79
584.169	53340.09
584.529	53349.59
584.889	53407.21
585.249	53230.72
585.609	53183.94
585.969	53444.72
586.329	53210.15
586.688	53366.99
587.048	53322.02
587.408	53277.95
587.768	53321.56
588.127	53362.01
588.487	53311.39
588.846	53466.42
589.206	53256.26
589.565	53342.13
589.925	53493.08
590.284	53400.88
590.643	53471.39
591.003	53555.68
591.362	53549.35
591.721	53420.54
592.08	53519.75
592.44	53644.95
592.799	53605.17
593.158	53600.2
593.517	53589.58
593.876	53562.69
594.235	53545.29
594.593	53613.31
594.952	53682.23
595.311	53452.41
595.67	53651.05
596.029	53815.56
596.387	53779.63
596.746	53806.07
597.104	53685.17
597.463	53778.28
597.822	53853.75
598.18	53751.16
598.538	53743.47
598.897	53914.54
599.255	53668.67
599.613	54055.56
599.972	53901.89
600.33	53989.12
600.688	53912.73
601.046	54111.83
601.404	54188.43
601.762	54042.68
602.12	54271.14
602.478	54257.58
602.836	54238.6
603.194	54105.72
603.552	54101.66
603.91	54113.63
604.268	54307.53
604.625	54157.02
604.983	54369.67
605.341	54158.83
605.698	54364.25
606.056	54369.9
606.413	54338.26
606.771	54419.39
607.128	54503
607.485	54306.4
607.843	54377.58
608.2	54580.51
608.557	54593.17
608.914	54578.48
609.272	54708.87
609.629	54696.9
609.986	54796.33
610.343	54627.07
610.7	54877.23
611.057	54842.65
611.414	54776.67
611.771	54837.46
612.127	54937.34
612.484	54922.43
612.841	55077.45
613.198	54979.6
613.554	55000.16
613.911	55196.32
614.267	55134.17
614.624	54989.54
614.98	55151.57
615.337	55301.17
615.693	55248.29
616.05	55180.5
616.406	55371.68
616.762	55309.76
617.118	55275.64
617.475	55248.75
617.831	55337.56
618.187	55361.51
618.543	55366.03
618.899	55496.87
619.255	55523.31
619.611	55461.39
619.967	55501.85
620.323	55624.33
620.678	55498
621.034	55420.49
621.39	55537.78
621.746	55429.76
622.101	55812.57
622.457	55585.01
622.812	55545.46
623.168	55672.24
623.523	55598.57
623.879	55723.53
624.234	55514.73
624.589	55687.83
624.945	55646.47
625.3	55597.44
625.655	55566.93
626.01	55616.42
626.365	55667.27
626.72	55661.84
627.075	55621.84
627.43	55557.21
627.785	55482.19
628.14	55514.95
628.495	55506.14
628.85	55515.63
629.205	55420.49
629.559	55624.1
629.914	55516.76
630.269	55503.2
630.623	55418.46
630.978	55278.57
631.332	55456.42
631.687	55515.18
632.041	55309.31
632.396	55407.38
632.75	55282.64
633.104	55269.31
633.459	55215.3
633.813	55192.25
634.167	55115.87
634.521	55173.94
634.875	55176.66
635.229	55131.23
635.583	54909.32
635.937	54960.84
636.291	54994.06
636.645	54961.52
636.999	54834.52
637.352	54961.07
637.706	54816.67
638.06	54808.3
638.413	54829.1
638.767	54811.92
639.121	54783.22
639.474	54682.66
639.828	54635.65
640.181	54650.79
640.534	54611.93
640.888	54590.68
641.241	54447.18
641.594	54473.85
641.947	54530.57
642.301	54417.58
642.654	54453.74
643.007	54415.09
643.36	54344.81
643.713	54334.87
644.066	54450.12
644.419	54161.77
644.771	53998.61
645.124	53727.66
645.477	53640.2
645.83	53485.4
646.182	53333.09
646.535	53198.63
646.888	53320.66
647.24	53197.95
647.593	53348.91
647.945	53227.78
648.298	53036.37
648.65	52996.15
649.002	52884.51
649.355	53002.93
649.707	52998.18
650.059	53108.24
650.411	53417.83
650.763	53419.19
651.115	53719.52
651.467	53607.88
651.819	53556.13
652.171	53528.79
652.523	53534.21
652.875	53370.83
653.227	53352.07
653.578	53539.86
653.93	53298.74
654.282	53213.32
654.633	53180.1
654.985	53268.91
655.337	53289.93
655.688	53270.04
656.039	53362.69
656.391	53044.51
656.742	53129.93
657.094	53202.92
657.445	53314.33
657.796	53207.89
658.147	53077.73
658.498	53061.68
658.849	53121.34
659.2	53073.89
659.551	52958.86
659.902	53081.8
660.253	53036.15
660.604	52985.53
660.955	52963.38
661.306	53035.47
661.656	52938.3
662.007	52921.8
662.358	52841.8
662.708	52988.69
663.059	52858.75
663.409	52623.5
663.76	52857.85
664.11	52877.96
664.461	52809.71
664.811	52856.04
665.161	52810.62
665.511	52793.67
665.862	52783.5
666.212	52882.03
666.562	52830.28
666.912	52785.08
667.262	52796.83
667.612	52734.91
667.962	52747.57
668.312	52758.64
668.662	52715.25
669.011	52675.71
669.361	52557.29
669.711	52715.7
670.06	52630.06
670.41	52544.18
670.76	52596.61
671.109	52568.36
671.459	52517.97
671.808	52479.55
672.157	52493.34
672.507	52320.69
672.856	52303.06
673.205	52437.97
673.554	52449.27
673.904	52383.96
674.253	52474.81
674.602	52315.94
674.951	51923.18
675.3	51694.26
675.649	52327.92
675.998	52271.2
676.346	52226
676.695	52343.74
677.044	52097.19
677.393	52140.8
677.741	52283.17
678.09	52127.7
678.438	51929.06
678.787	52070.07
679.135	52055.38
679.484	51860.59
679.832	52010.19
680.181	51805.22
680.529	51908.27
680.877	51748.72
681.225	51731.1
681.573	51947.81
681.922	51656.98
682.27	51581.72
682.618	51628.05
682.966	51575.4
683.314	51548.96
683.661	51542.85
684.009	51248.85
684.357	51202.98
684.705	51198
685.053	51294.95
685.4	51243.2
685.748	50966.82
686.095	50915.3
686.443	50934.28
686.79	50758.69
687.138	50843.89
687.485	50874.17
687.832	50690.22
688.18	50729.54
688.527	50434.86
688.874	50435.99
689.221	50320.06
689.568	50275.99
689.915	50248.2
690.262	50199.84
690.609	50026.74
690.956	49997.81
691.303	49859.51
691.65	49723.92
691.997	49695.9
692.344	49436.69
692.69	49437.6
693.037	49498.61
693.383	49216.81
693.73	49368.9
694.077	49116.48
694.423	49250.26
694.769	48900.21
695.116	48913.32
695.462	48916.71
695.808	48826.54
696.155	48827.44
696.501	48528.02
696.847	48435.59
697.193	48225.65
697.539	48336.38
697.885	48104.75
698.231	48043.51
698.577	48062.72
698.923	47913.12
699.269	47760.35
699.614	47602.62
699.96	47462.28
700.306	47612.34
700.651	47305.9
700.997	47205.57
701.342	47246.92
701.688	47162.18
702.033	46945.01
702.379	46864.56
702.724	46752.7
703.069	46788.18
703.415	46405.81
703.76	46280.62
704.105	46329.88
704.45	46301.41
704.795	46093.28
705.14	46031.59
705.485	45961.98
705.83	45732.39
706.175	45815.77
706.52	45637.47
706.865	45610.58
707.209	45445.84
707.554	45327.65
707.899	45466.86
708.243	45263.47
708.588	45171.95
708.932	44798.85
709.277	45032.29
709.621	44957.49
709.966	44672.98
710.31	44796.36
710.654	44408.58
710.998	44392.76
711.342	44440.44
711.687	44261.24
712.031	44076.84
712.375	43914.35
712.719	43938.53
713.063	44035.25
713.407	44044.07
713.75	43713.23
714.094	43832.77
714.438	43642.27
714.782	43604.76
715.125	43381.49
715.469	43498.77
715.812	43216.07
716.156	43060.59
716.499	43020.59
716.843	43077.77
717.186	42825.12
717.53	43003.19
717.873	42974.49
718.216	42937.2
718.559	42800.03
718.902	42472.13
719.246	42537.89
719.589	42618.34
719.932	42382.87
720.275	42333.6
720.617	42315.98
720.96	42160.05
721.303	42043.67
721.646	42228.75
721.989	41825.6
722.331	41901.53
722.674	41900.4
723.016	41938.81
723.359	41801.19
723.701	41610.01
724.044	41385.83
724.386	41314.42
724.729	41547.64
725.071	41325.95
725.413	41264.03
725.755	41245.72
726.097	40985.62
726.439	40967.99
726.782	40908.33
727.124	41161.66
727.465	40800.76
727.807	40782.46
728.149	40719.18
728.491	40575.91
728.833	40775.91
729.175	40508.57
729.516	40582.69
729.858	40253.89
730.199	40459.53
730.541	40393.99
730.882	40236.48
731.224	40245.3
731.565	40024.29
731.906	40077.39
732.248	40022.25
732.589	39894.12
732.93	39855.25
733.271	39764.63
733.612	39899.32
733.953	39774.58
734.294	39643.73
734.635	39567.35
734.976	39651.19
735.317	39302.05
735.658	39493.91
735.999	39435.83
736.339	39123.52
736.68	39375.94
737.021	39092.56
737.361	39045.1
737.702	39203.97
738.042	39075.61
738.383	38890.31
738.723	38989.06
739.063	38772.57
739.404	38843.07
739.744	38712.68
740.084	38533.48
740.424	38703.19
740.764	38430.88
741.104	38578
741.444	38434.72
741.784	38246.25
742.124	38228.63
742.464	38169.19
742.804	38189.53
743.143	38168.52
743.483	38137.78
743.823	37993.83
744.162	37940.95
744.502	37919.94
744.841	37801.52
745.181	37909.09
745.52	37717.45
745.86	37646.5
746.199	37717.91
746.538	37547.06
746.877	37626.61
747.216	37521.75
747.556	37317.69
747.895	37366.28
748.234	37155.21
748.573	37089.22
748.911	37159.96
749.25	37068.88
749.589	36806.07
749.928	36900.75
750.267	36898.95
750.605	36820.98
750.944	36546.41
751.283	36577.82
751.621	36733.53
751.96	36455.79
752.298	36501.22
752.636	36481.33
752.975	36132.64
753.313	36171.05
753.651	36247.89
753.989	35982.58
754.327	35894.9
754.666	35814.45
755.004	35930.83
755.342	35882.7
755.679	35797.73
756.017	35512.77
756.355	35621.24
756.693	35402.26
757.031	35479.32
757.368	35257.41
757.706	35105.77
758.044	35053.34
758.381	35005.89
758.719	34923.4
759.056	34856.51
759.394	34813.12
759.731	34523.87
760.068	34533.58
760.405	34397.99
760.743	34340.37
761.08	34268.96
761.417	34090.66
761.754	33924.79
762.091	34023.31
762.428	33859.02
762.765	33653.15
763.102	33761.17
763.438	33507.17
763.775	33370.45
764.112	33439.83
764.449	33218.82
764.785	33153.73
765.122	32920.07
765.458	32880.52
765.795	32888.66
766.131	32907.19
766.467	32674.42
766.804	32438.5
767.14	32332.51
767.476	32250.93
767.812	32097.26
768.148	32120.54
768.485	31964.84
768.821	31772.98
769.157	31764.16
769.492	31756.03
769.828	31649.82
770.164	31433.55
770.5	31132.54
770.836	31224.52
771.171	31042.83
771.507	31123.96
771.842	30807.58
772.178	30804.19
772.513	30685.55
772.849	30671.31
773.184	30597.19
773.519	30476.52
773.855	30312.23
774.19	30159.01
774.525	29988.39
774.86	30025.68
775.195	29919.47
775.53	29897.77
775.865	29605.35
776.2	29501.17
776.535	29307.28
776.87	29313.83
777.205	29164.46
777.539	29027.97
777.874	29138.7
778.209	28870.91
778.543	28787.52
778.878	28635.43
779.212	28604.47
779.547	28360.64
779.881	28443.8
780.215	28216.69
780.55	28299.62
780.884	28113.64
781.218	28012.85
781.552	28059.86
781.886	27816.92
782.22	27779.86
782.554	27648.79
782.888	27502.58
783.222	27409.25
783.556	27263.49
783.889	27123.38
784.223	26985.76
784.557	27037.74
784.89	26959.09
785.224	26811.53
785.557	26679.1
785.891	26630.97
786.224	26521.82
786.558	26492.44
786.891	26154.37
787.224	26162.73
787.557	25980.59
787.891	26019.46
788.224	26136.29
788.557	25936.75
788.89	25797.77
789.223	25751.67
789.556	25563.2
789.888	25526.14
790.221	25401.85
790.554	25275.97
790.887	25209.31
791.219	25137.22
791.552	25040.5
791.884	24968.86
792.217	24833.27
792.549	24727.97
792.882	24675.09
793.214	24512.15
793.546	24734.52
793.879	24349.44
794.211	24293.63
794.543	24432.38
794.875	24312.61
795.207	24181.99
795.539	24097.47
795.871	24044.37
796.203	23854.77
796.535	23905.16
796.867	23635.56
797.198	23680.08
797.53	23662.91
797.862	23485.96
798.193	23497.04
798.525	23239.64
798.856	23415.23
799.188	23173.43
799.519	23034.45
799.85	22947.22
800.182	22968.69
800.513	22941.35
800.844	22707.68
801.175	22893.89
801.506	22730.73
801.837	22613.22
802.168	22543.16
802.499	22518.53
802.83	22330.06
803.161	22357.86
803.491	22226.11
803.822	22303.17
804.153	22147.24
804.483	21888.72
804.814	21991.99
805.145	21851.88
805.475	21846.46
805.805	21815.5
806.136	21790.64
806.466	21775.05
806.796	21736.63
807.126	21448.05
807.457	21426.13
807.787	21523.3
808.117	21284.21
808.447	21358.56
808.777	21229.07
809.107	21195.18
809.436	21157.66
809.766	21140.72
810.096	21046.25
810.426	20974.62
810.755	20968.29
811.085	20905.24
811.414	20762.65
811.744	20666.6
812.073	20710.44
812.403	20745.7
812.732	20539.6
813.061	20551.35
813.39	20329.89
813.719	20332.83
814.049	20449.21
814.378	20332.37
814.707	20240.63
815.036	20131.25
815.365	19986.85
815.693	20021.2
816.022	19923.35
816.351	19872.27
816.68	19804.25
817.008	19951.14
817.337	19664.14
817.665	19706.85
817.994	19713.41
818.322	19630.47
818.651	19526.07
818.979	19533.07
819.307	19571.72
819.636	19522.68
819.964	19326.3
820.292	19353.87
820.62	19423.02
820.948	19218.51
821.276	19380.99
821.604	19288.11
821.932	19331.27
822.259	19220.31
822.587	19355.9
822.915	19186.42
823.243	19326.75
823.57	19240.2
823.898	19229.58
824.225	19212.18
824.553	19228.45
824.88	19233.42
825.207	19340.76
825.535	19171.05
825.862	19390.93
826.189	19180.31
826.516	19239.07
826.843	19214.44
827.17	19299.86
827.497	19242.69
827.824	19197.72
828.151	19217.6
828.478	19153.2
828.805	19275
829.131	19203.14
829.458	19183.25
829.785	19042.92
830.111	19034.1
830.438	19217.15
830.764	19174.44
831.09	19154.78
831.417	18990.72
831.743	19097.15
832.069	19080.66
832.395	18982.58
832.722	18963.82
833.048	19086.53
833.374	19050.6
833.7	18918.85
834.026	18939.64
834.351	18894.9
834.677	18963.37
835.003	18910.04
835.329	18921.79
835.654	18848.12
835.98	18836.37
836.306	18844.05
836.631	18766.54
836.956	18793.21
837.282	18830.95
837.607	18674.11
837.932	18726.09
838.258	18679.09
838.583	18616.26
838.908	18512.31
839.233	18496.49
839.558	18470.28
839.883	18402.03
840.208	18294.91
840.533	18436.15
840.858	18489.94
841.182	18371.3
841.507	18397.28
841.832	18261.24
842.156	18269.38
842.481	18173.11
842.805	18171.53
843.13	18030.97
843.454	17976.28
843.778	17977.86
844.103	17929.5
844.427	17894.92
844.751	17814.7
845.075	17780.8
845.399	17753.91
845.723	17678.89
846.047	17687.47
846.371	17500.81
846.695	17677.98
847.019	17400.02
847.343	17325.45
847.666	17188.73
847.99	17226.69
848.313	17139.69
848.637	17073.25
848.96	17002.75
849.284	16941.05
849.607	16802.98
849.931	16802.75
850.254	16676.2
850.577	16626.94
850.9	16465.13
851.223	16502.19
851.546	16365.47
851.869	16251.13
852.192	16429.2
852.515	16287.74
852.838	16186.27
853.161	16180.85
853.483	16081.19
853.806	15971.81
854.129	15965.03
854.451	15906.28
854.774	15859.05
855.096	15806.17
855.419	15756.22
855.741	15787.18
856.063	15673.29
856.385	15593.29
856.708	15566.85
857.03	15523.69
857.352	15505.84
857.674	15421.09
857.996	15355.78
858.318	15247.76
858.64	15222.68
858.961	15270.14
859.283	15169.35
859.605	15109.91
859.926	15131.38
860.248	15083.93
860.57	14942.23
860.891	14980.88
861.212	14786.08
861.534	14870.37
861.855	14816.81
862.176	14890.94
862.498	14903.37
862.819	14854.55
863.14	14745.63
863.461	14757.61
863.782	14647.33
864.103	14667.44
864.424	14575.92
864.745	14570.49
865.065	14496.82
865.386	14572.98
865.707	14501.57
866.027	14537.95
866.348	14442.59
866.668	14485.98
866.989	14422.02
867.309	14332.98
867.63	14322.14
867.95	14316.26
868.27	14220.45
868.59	14299.99
868.91	14179.32
869.23	14202.82
869.55	14186.1
869.87	14199.88
870.19	14209.37
870.51	14142.93
870.83	14149.26
871.15	14034.69
871.469	14001.69
871.789	14036.5
872.109	14095.48
872.428	14016.83
872.748	13972.99
873.067	13930.28
873.386	13988.81
873.706	13937.29
874.025	13901.13
874.344	13844.18
874.663	13846.44
874.982	13804.64
875.301	13709.27
875.62	13739.1
875.939	13706.11
876.258	13711.08
876.577	13684.87
876.896	13557.19
877.214	13625.43
877.533	13686.9
877.852	13649.61
878.17	13575.72
878.489	13561.71
878.807	13568.94
879.125	13535.94
879.444	13505.66
879.762	13491.65
880.08	13453.23
880.398	13368.94
880.716	13452.56
881.034	13351.54
881.352	13424.53
881.67	13298.89
881.988	13319.9
882.306	13229.96
882.624	13188.38
882.941	13144.32
883.259	13163.3
883.577	13142.96
883.894	13025.22
884.212	13038.33
884.529	13013.47
884.846	12909.52
885.164	12919.69
885.481	12846.02
885.798	12869.75
886.115	12752.46
886.432	12785.91
886.75	12752.01
887.067	12768.73
887.383	12707.04
887.7	12770.31
888.017	12696.42
888.334	12781.39
888.651	12646.25
888.967	12527.38
889.284	12521.28
889.6	12479.7
889.917	12445.8
890.233	12499.59
890.55	12354.51
890.866	12334.62
891.182	12352.25
891.498	12190.44
891.815	12183.44
892.131	12186.83
892.447	12136.21
892.763	12097.11
893.079	12032.48
893.395	12022.99
893.71	12025.93
894.026	11951.58
894.342	11937.79
894.657	11846.5
894.973	11884.24
895.289	11913.39
895.604	11792.26
895.92	11597.69
896.235	11662.09
896.55	11637.24
896.865	11661.64
897.181	11600.4
897.496	11666.39
897.811	11624.36
898.126	11519.95
898.441	11409.67
898.756	11472.72
899.071	11328.77
899.386	11398.37
899.7	11245.16
900.015	11206.97
900.33	11198.83
900.644	11076.8
900.959	11109.11
901.273	11055.56
901.588	10987.99
901.902	10990.25
902.216	10981.66
902.531	10909.35
902.845	10893.98
903.159	10812.63
903.473	10839.29
903.787	10726.53
904.101	10650.6
904.415	10665.51
904.729	10591.39
905.042	10555.91
905.356	10564.5
905.67	10511.39
905.984	10508.9
906.297	10514.78
906.611	10415.57
906.924	10336.48
907.237	10340.1
907.551	10300.32
907.864	10246.09
908.177	10194.79
908.491	10200.89
908.804	10174.45
909.117	10072.53
909.43	10023.49
909.743	10010.39
910.056	9903.72
910.368	9866.21
910.681	9840.22
910.994	9842.93
911.307	9765.65
911.619	9756.38
911.932	9749.38
912.244	9658.98
912.557	9649.27
912.869	9580.12
913.181	9515.48
913.494	9538.99
913.806	9490.4
914.118	9442.49
914.43	9396.62
914.742	9425.09
915.054	9280.24
915.366	9269.62
915.678	9314.59
915.99	9266.23
916.302	9176.74
916.613	9069.39
916.925	9158.66
917.236	9009.73
917.548	9055.16
917.859	8967.48
918.171	8965.67
918.482	8876.18
918.794	8859.68
919.105	8794.15
919.416	8758.89
919.727	8757.76
920.038	8741.04
920.349	8590.76
920.66	8649.29
920.971	8630.31
921.282	8595.28
921.593	8517.32
921.903	8446.13
922.214	8429.41
922.525	8365.01
922.835	8308.28
923.146	8263.31
923.456	8314.84
923.767	8261.73
924.077	8289.53
924.387	8195.97
924.697	8188.06
925.008	8092.47
925.318	8084.56
925.628	8056.31
925.938	8045.01
926.248	7910.78
926.558	7919.37
926.867	7899.93
927.177	7854.51
927.487	7865.81
927.796	7754.63
928.106	7798.02
928.416	7736.55
928.725	7732.25
929.034	7621.75
929.344	7652.93
929.653	7592.37
929.962	7556.89
930.271	7491.58
930.581	7520.96
930.89	7438.7
931.199	7444.13
931.508	7410.68
931.817	7358.7
932.125	7317.8
932.434	7353.96
932.743	7252.94
933.051	7272.61
933.36	7223.12
933.669	7155.32
933.977	7083.23
934.286	7096.79
934.594	7080.97
934.902	7001.2
935.21	7013.4
935.519	6986.51
935.827	6951.94
936.135	6904.03
936.443	6894.31
936.751	6779.51
937.059	6775.22
937.367	6775.22
937.674	6695.45
937.982	6733.64
938.29	6733.18
938.597	6737.7
938.905	6634.43
939.213	6675.11
939.52	6617.03
939.827	6608.44
940.135	6562.12
940.442	6526.18
940.749	6458.84
941.056	6459.52
941.363	6403.48
941.67	6452.29
941.977	6371.84
942.284	6320.99
942.591	6316.92
942.898	6316.47
943.205	6300.2
943.511	6228.11
943.818	6178.62
944.125	6172.07
944.431	6152.41
944.738	6127.1
945.044	6102.69
945.35	6033.77
945.657	5982.7
945.963	5946.54
946.269	5956.71
946.575	5938.4
946.881	5889.36
947.187	5940.89
947.493	5909.7
947.799	5858.18
948.105	5811.4
948.41	5803.27
948.716	5802.59
949.022	5759.88
949.327	5742.25
949.633	5664.51
949.938	5643.95
950.244	5653.66
950.549	5633.1
950.854	5559.2
951.16	5576.38
951.465	5578.86
951.77	5517.17
952.075	5543.84
952.38	5513.56
952.685	5457.51
952.99	5397.85
953.294	5440.11
953.599	5392.43
953.904	5340.68
954.209	5316.5
954.513	5317.63
954.818	5320.11
955.122	5257.29
955.426	5222.72
955.731	5189.27
956.035	5138.2
956.339	5183.62
956.643	5157.41
956.948	5094.36
957.252	5045.32
957.556	5098.65
957.86	5064.53
958.163	5039.22
958.467	4974.13
958.771	5002.16
959.075	4982.95
959.378	5001.25
959.682	4924.42
959.985	4916.51
960.289	4870.18
960.592	4862.27
960.896	4784.54
961.199	4798.55
961.502	4800.35
961.805	4777.98
962.108	4671.32
962.411	4717.64
962.714	4692.79
963.017	4700.92
963.32	4658.89
963.623	4632.45
963.926	4632.9
964.228	4629.29
964.531	4620.7
964.833	4573.02
965.136	4550.87
965.438	4544.32
965.741	4484.88
966.043	4495.96
966.345	4419.57
966.648	4423.64
966.95	4442.17
967.252	4423.87
967.554	4396.97
967.856	4355.62
968.158	4308.84
968.46	4343.87
968.761	4331.67
969.063	4275.4
969.365	4288.73
969.666	4273.81
969.968	4222.06
970.269	4221.84
970.571	4168.05
970.872	4175.29
971.174	4131.67
971.475	4142.29
971.776	4141.84
972.077	4071.56
972.378	4068.85
972.679	4071.33
972.98	4057.1
973.281	3984.56
973.582	4027.72
973.883	3995.4
974.183	3985.69
974.484	3955.18
974.785	3937.1
975.085	3901.85
975.386	3926.03
975.686	3935.97
975.986	3879.47
976.287	3859.59
976.587	3805.35
976.887	3819.36
977.187	3792.24
977.487	3785.69
977.787	3758.57
978.087	3714.05
978.387	3736.65
978.687	3723.55
978.987	3676.77
979.286	3629.54
979.586	3695.52
979.885	3618.92
980.185	3659.59
980.484	3587.28
980.784	3576.88
981.083	3548.41
981.382	3595.19
981.682	3552.03
981.981	3537.11
982.28	3549.31
982.579	3519.48
982.878	3508.86
983.177	3508.86
983.475	3464.57
983.774	3446.04
984.073	3454.4
984.372	3409.2
984.67	3377.79
984.969	3366.27
985.267	3364.91
985.566	3330.56
985.864	3344.8
986.162	3286.95
986.461	3303.67
986.759	3280.39
987.057	3288.98
987.355	3253.05
987.653	3264.8
987.951	3232.49
988.249	3175.76
988.547	3182.54
988.844	3174.18
989.142	3192.03
989.44	3158.36
989.737	3128.99
990.035	3142.09
990.332	3103.45
990.63	3081.53
990.927	3102.77
991.224	3033.39
991.521	3046.95
991.819	3060.06
992.116	3052.6
992.413	3008.31
992.71	3011.47
993.006	2997.01
993.303	2958.14
993.6	2923.79
993.897	2931.25
994.193	2868.65
994.49	2906.84
994.787	2886.05
995.083	2863
995.379	2835.43
995.676	2804.7
995.972	2827.52
996.268	2770.8
996.565	2790.92
996.861	2796.79
997.157	2763.12
997.453	2770.8
997.749	2731.03
998.044	2717.7
998.34	2720.41
998.636	2698.71
998.932	2659.85
999.227	2642.67
999.523	2617.59
999.818	2667.3
1000.114	2657.36
1000.409	2601.99
1000.704	2580.98
1001	2576.68
1001.295	2576.01
1001.59	2575.78
1001.885	2543.01
1002.18	2544.82
1002.475	2553.63
1002.77	2510.47
1003.065	2495.33
1003.359	2439.06
1003.654	2472.05
1003.949	2459.17
1004.243	2454.65
1004.538	2414.88
1004.832	2419.4
1005.127	2371.94
1005.421	2411.04
1005.715	2411.04
1006.009	2329.01
1006.304	2353.41
1006.598	2315
1006.892	2339.4
1007.186	2283.58
1007.48	2279.74
1007.773	2291.95
1008.067	2245.84
1008.361	2228.67
1008.655	2242.91
1008.948	2197.71
1009.242	2187.77
1009.535	2216.02
1009.829	2186.64
1010.122	2173.76
1010.415	2154.32
1010.708	2108.9
1011.001	2122.46
1011.295	2096.92
1011.588	2079.3
1011.881	2048.34
1012.173	2053.76
1012.466	2046.75
1012.759	2020.31
1013.052	2058.28
1013.344	2063.48
1013.637	2067.77
1013.93	2005.63
1014.222	2011.95
1014.514	1993.2
1014.807	1978.06
1015.099	1953.88
1015.391	1938.96
1015.683	1920.43
1015.976	1920.88
1016.268	1903.26
1016.56	1868.23
1016.851	1908.68
1017.143	1868.68
1017.435	1869.81
1017.727	1865.97
1018.018	1833.2
1018.31	1839.3
1018.602	1779.42
1018.893	1783.26
1019.185	1785.52
1019.476	1792.3
1019.767	1755.69
1020.058	1755.24
1020.35	1748.23
1020.641	1725.41
1020.932	1712.75
1021.223	1704.62
1021.514	1709.81
1021.804	1663.04
1022.095	1683.6
1022.386	1684.28
1022.677	1631.85
1022.967	1651.06
1023.258	1605.18
1023.548	1628.01
1023.839	1593.21
1024.129	1616.71
1024.419	1606.31
1024.709	1598.18
1025	1571.51
1025.29	1562.02
1025.58	1539.2
1025.87	1559.31
1026.16	1534.68
1026.449	1513.89
1026.739	1485.64
1027.029	1474.57
1027.319	1489.03
1027.608	1453.1
1027.898	1455.81
1028.187	1442.93
1028.477	1448.58
1028.766	1444.51
1029.055	1400.44
1029.344	1395.47
1029.634	1401.35
1029.923	1387.11
1030.212	1388.69
1030.501	1348.69
1030.79	1371.07
1031.078	1354.34
1031.367	1367.9
1031.656	1327.22
1031.945	1355.47
1032.233	1344.85
1032.522	1324.29
1032.81	1292.42
1033.099	1287.45
1033.387	1271.63
1033.675	1255.36
1033.963	1245.87
1034.251	1242.93
1034.54	1228.7
1034.828	1255.81
1035.116	1239.09
1035.403	1217.85
1035.691	1230.28
1035.979	1210.84
1036.267	1182.37
1036.554	1186.21
1036.842	1167.46
1037.129	1177.4
1037.417	1164.07
1037.704	1154.8
1037.992	1159.09
1038.279	1124.52
1038.566	1145.08
1038.853	1145.08
1039.14	1145.08
