Data from plate_ceramic_FLMS001491_016.txt Node
Date: Tue Feb 07 11:16:23 GMT 2017
User: dcchb
Spectrometer: FLMS00149
Trigger mode: 0
Integration Time (sec): 2.000000E-2
Scans to average: 10
Electric dark correction enabled: true
Nonlinearity correction enabled: false
Boxcar width: 0
XAxis mode: Wavelengths
Number of Pixels in Spectrum: 2048
>>>>>Begin Spectral Data<<<<<
341.393	-27.3
341.776	-27.3
342.16	-27.3
342.543	-65.72
342.927	-68.43
343.31	-61.2
343.693	-73.63
344.077	-60.07
344.46	-47.64
344.843	-65.72
345.226	-39.05
345.61	-39.96
345.993	-28.43
346.376	-16.23
346.759	14.28
347.142	40.49
347.525	30.1
347.908	75.97
348.291	82.98
348.674	87.72
349.057	100.38
349.44	111.23
349.823	132.24
350.206	154.39
350.588	223.09
350.971	250.66
351.354	240.94
351.737	252.01
352.119	266.7
352.502	272.58
352.884	298.11
353.267	298.34
353.65	310.99
354.032	314.84
354.414	325.46
354.797	343.08
355.179	360.03
355.562	364.33
355.944	332.24
356.326	359.81
356.709	346.47
357.091	347.6
357.473	360.48
357.855	381.05
358.238	340.37
358.62	366.59
359.002	354.84
359.384	379.02
359.766	357.1
360.148	368.17
360.53	334.04
360.912	369.98
361.294	379.02
361.676	357.32
362.057	365.91
362.439	354.16
362.821	383.08
363.203	365.91
363.584	343.76
363.966	353.25
364.348	353.25
364.729	360.71
365.111	350.32
365.493	359.13
365.874	367.94
366.256	342.18
366.637	349.19
367.019	371.56
367.4	369.98
367.781	358.9
368.163	399.35
368.544	373.37
368.925	356.19
369.306	364.78
369.688	352.8
370.069	380.15
370.45	353.71
370.831	371.78
371.212	368.17
371.593	358.23
371.974	360.48
372.355	390.77
372.736	370.43
373.117	359.35
373.498	360.71
373.879	355.97
374.26	366.36
374.641	374.04
375.021	378.56
375.402	365.91
375.783	403.2
376.163	402.29
376.544	395.51
376.925	408.62
377.305	402.52
377.686	379.69
378.066	414.49
378.447	420.14
378.827	413.59
379.208	410.2
379.588	405
379.968	407.49
380.349	425.57
380.729	411.56
381.109	431.44
381.489	430.31
381.87	434.83
382.25	437.77
382.63	424.89
383.01	439.8
383.39	462.18
383.77	448.17
384.15	440.26
384.53	466.47
384.91	461.5
385.29	469.41
385.67	474.61
386.049	480.26
386.429	479.8
386.809	506.47
387.189	484.78
387.568	475.96
387.948	498.56
388.328	477.77
388.707	505.57
389.087	492.68
389.466	507.37
389.846	516.64
390.225	531.1
390.605	495.62
390.984	553.02
391.363	525.45
391.743	531.78
392.122	537.43
392.501	555.28
392.881	563.64
393.26	579.01
393.639	571.78
394.018	585.11
394.397	553.7
394.776	586.92
395.155	585.79
395.534	572.91
395.913	578.11
396.292	601.61
396.671	626.92
397.05	633.25
397.429	616.3
397.808	620.59
398.186	626.47
398.565	629.86
398.944	615.85
399.323	630.53
399.701	633.25
400.08	656.07
400.458	684.77
400.837	687.26
401.215	690.19
401.594	675.05
401.972	684.77
402.351	670.31
402.729	713.02
403.107	717.31
403.486	710.98
403.864	710.98
404.242	696.07
404.62	718.44
404.999	747.14
405.377	752.79
405.755	736.75
406.133	756.41
406.511	770.87
406.889	787.59
407.267	794.15
407.645	797.99
408.023	829.4
408.401	814.71
408.779	811.55
409.156	823.98
409.534	859.68
409.912	858.78
410.29	883.63
410.667	882.05
411.045	900.58
411.422	917.76
411.8	926.8
412.178	899
412.555	950.75
412.933	954.14
413.31	950.3
413.687	974.03
414.065	944.2
414.442	1003.86
414.819	1021.26
415.197	1025.1
415.574	1026.91
415.951	1043.86
416.328	1029.62
416.705	1065.78
417.082	1066.46
417.46	1105.32
417.837	1100.13
418.214	1114.14
418.591	1105.32
418.967	1129.5
419.344	1124.08
419.721	1135.83
420.098	1178.99
420.475	1183.74
420.852	1192.1
421.228	1199.11
421.605	1228.03
421.982	1235.26
422.358	1217.86
422.735	1271.42
423.111	1247.47
423.488	1272.55
423.864	1277.97
424.241	1286.11
424.617	1295.15
424.994	1330.4
425.37	1339.89
425.746	1355.94
426.123	1368.37
426.499	1344.64
426.875	1390.51
427.251	1409.04
427.627	1452.43
428.003	1442.72
428.379	1472.55
428.756	1489.95
429.132	1501.92
429.507	1532.66
429.883	1574.92
430.259	1581.92
430.635	1572.88
431.011	1602.94
431.387	1654.01
431.763	1673.9
432.138	1673.67
432.514	1727.45
432.89	1711.41
433.265	1733.1
433.641	1760.67
434.016	1808.36
434.392	1816.27
434.767	1825.53
435.143	1815.59
435.518	1863.27
435.894	1878.86
436.269	1897.39
436.644	1928.13
437.02	1933.78
437.395	1956.38
437.77	1972.19
438.145	2020.55
438.52	2015.58
438.895	2045.86
439.271	2066.65
439.646	2123.83
440.021	2140.55
440.395	2126.54
440.77	2112.08
441.145	2141.68
441.52	2221.45
441.895	2215.58
442.27	2179.42
442.645	2200.89
443.019	2261.68
443.394	2263.26
443.769	2289.93
444.143	2271.4
444.518	2322.02
444.892	2312.75
445.267	2353.43
445.641	2372.41
446.016	2439.3
446.39	2397.49
446.764	2436.81
447.139	2399.75
447.513	2444.5
447.887	2462.8
448.262	2470.94
448.636	2459.19
449.01	2520.43
449.384	2567.66
449.758	2580.09
450.132	2608.11
450.506	2597.49
450.88	2627.32
451.254	2624.38
451.628	2661.22
452.002	2725.62
452.376	2722.68
452.75	2751.38
453.123	2777.37
453.497	2839.74
453.871	2823.47
454.244	2901.89
454.618	2940.98
454.992	2984.37
455.365	2964.03
455.739	3032.96
456.112	3072.5
456.486	3111.37
456.859	3096.91
457.232	3188.66
457.606	3179.85
457.979	3220.3
458.352	3311.82
458.725	3366.96
459.099	3338.26
459.472	3432.04
459.845	3429.33
460.218	3477.47
460.591	3528.54
460.964	3514.07
461.337	3632.49
461.71	3693.28
462.083	3734.63
462.456	3712.04
462.829	3718.14
463.201	3808.08
463.574	3841.75
463.947	3892.82
464.32	4034.96
464.692	4020.5
465.065	4048.3
465.438	4125.81
465.81	4180.72
466.183	4232.02
466.555	4312.7
466.928	4326.48
467.3	4363.09
467.672	4440.83
468.045	4538
468.417	4580.94
468.789	4587.94
469.161	4683.76
469.534	4771.67
469.906	4855.96
470.278	4933.47
470.65	4874.72
471.022	5014.37
471.394	5129.85
471.766	5179.34
472.138	5224.31
472.51	5322.61
472.882	5394.7
473.253	5518.77
473.625	5584.75
473.997	5691.19
474.369	5717.41
474.74	5811.41
475.112	5867.01
475.484	5956.27
475.855	6061.35
476.227	6161.46
476.598	6311.97
476.97	6359.65
477.341	6544.96
477.713	6628.34
478.084	6659.53
478.455	6852.74
478.827	6941.1
479.198	7080.53
479.569	7104.49
479.94	7318.49
480.311	7393.29
480.682	7565.04
481.053	7723.23
481.424	7862.89
481.795	7917.8
482.166	8047.97
482.537	8160.73
482.908	8324.34
483.279	8371.12
483.65	8530.44
484.021	8739.47
484.391	8841.84
484.762	8908.96
485.133	8998.45
485.503	9131.55
485.874	9353.24
486.244	9434.37
486.615	9651.99
486.985	9702.16
487.356	9943.74
487.726	10084.07
488.097	10182.6
488.467	10268.47
488.837	10466.43
489.207	10671.85
489.578	10867.33
489.948	10864.39
490.318	11005.85
490.688	11125.4
491.058	11215.57
491.428	11417.82
491.798	11519.97
492.168	11790.92
492.538	11792.73
492.908	11916.11
493.278	12005.38
493.648	12111.14
494.017	12278.82
494.387	12313.84
494.757	12537.57
495.126	12662.99
495.496	12756.54
495.866	12789.99
496.235	12953.15
496.605	13138.68
496.974	13178.68
497.344	13263.87
497.713	13384.32
498.082	13432.91
498.452	13610.31
498.821	13726.01
499.19	13763.07
499.559	13919.22
499.928	14033.35
500.298	14126.45
500.667	14294.36
501.036	14193.12
501.405	14431.3
501.774	14422.71
502.143	14630.62
502.512	14660.9
502.88	14790.61
503.249	14796.72
503.618	14976.37
503.987	15105.18
504.356	15164.62
504.724	15341.11
505.093	15370.71
505.462	15407.09
505.83	15535.45
506.199	15661.1
506.567	15989.68
506.936	15918.49
507.304	16117.13
507.672	16234.64
508.041	16277.35
508.409	16414.3
508.777	16516.44
509.145	16671.24
509.514	16718.25
509.882	16878.92
510.25	16910.11
510.618	17072.81
510.986	17128.41
511.354	17352.35
511.722	17490.43
512.09	17668.05
512.458	17646.36
512.826	17849.29
513.193	17946.69
513.561	18037.99
513.929	18254.7
514.297	18390.52
514.664	18513.68
515.032	18600.68
515.4	18805.65
515.767	18903.27
516.135	19021.69
516.502	19026.43
516.869	19208.58
517.237	19361.34
517.604	19354.11
517.972	19416.26
518.339	19702.58
518.706	19825.06
519.073	19944.15
519.44	20014.43
519.808	20373.52
520.175	20380.3
520.542	20644.02
520.909	20788.87
521.276	20739.84
521.643	20967.63
522.009	21145.02
522.376	21265.7
522.743	21443.09
523.11	21631.56
523.477	21908.17
523.843	22077.88
524.21	22243.98
524.577	22449.62
524.943	22540.01
525.31	22629.96
525.676	22919.44
526.043	23059.32
526.409	23162.6
526.776	23465.87
527.142	23455.92
527.508	23750.15
527.874	23818.17
528.241	24004.16
528.607	24062.91
528.973	24354.43
529.339	24385.84
529.705	24690.24
530.071	24793.74
530.437	24954.87
530.803	25181.53
531.169	25300.17
531.535	25318.25
531.901	25334.07
532.267	25562.08
532.632	25654.28
532.998	25809.99
533.364	26022.63
533.73	26165.23
534.095	26386.02
534.461	26508.72
534.826	26639.12
535.192	26708.94
535.557	27007.02
535.923	26897.41
536.288	27108.26
536.653	27226.22
537.019	27033.46
537.384	27262.15
537.749	27401.58
538.114	27461.24
538.479	27552.99
538.845	27752.76
539.21	27729.93
539.575	27972.41
539.94	28011.51
540.305	28246.53
540.67	28110.49
541.034	28338.96
541.399	28418.05
541.764	28540.31
542.129	28652.85
542.494	28733.75
542.858	28805.61
543.223	28918.6
543.587	29049.22
543.952	29132.84
544.316	29234.98
544.681	29366.73
545.045	29493.73
545.41	29606.04
545.774	29670.45
546.138	29733.95
546.503	29842.87
546.867	29969.65
547.231	30203.99
547.595	30269.75
547.959	30246.93
548.324	30342.52
548.688	30478.79
549.052	30569.63
549.416	30669.07
549.779	30791.32
550.143	30802.85
550.507	31148.15
550.871	31304.76
551.235	31247.81
551.599	31508.59
551.962	31486.9
552.326	31686.67
552.689	31812.09
553.053	31745.2
553.417	31911.75
553.78	32267.44
554.143	32145.64
554.507	32322.13
554.87	32508.34
555.234	32897.03
555.597	32772.06
555.96	33000.76
556.323	33181.54
556.686	33142.67
557.05	33310.58
557.413	33516.9
557.776	33562.1
558.139	33824.01
558.502	33955.08
558.865	34087.51
559.228	34215.19
559.59	34372.02
559.953	34393.94
560.316	34783.53
560.679	34785.57
561.041	35041.83
561.404	35307.81
561.767	35336.51
562.129	35331.77
562.492	35783.28
562.854	35710.52
563.217	35787.12
563.579	36025.31
563.941	36207.9
564.304	36357.5
564.666	36570.15
565.028	36679.76
565.39	36898.73
565.753	37083.14
566.115	37130.59
566.477	37277.25
566.839	37315.67
567.201	37860.74
567.563	37677.24
567.925	37922.89
568.287	37907.75
568.648	38020.06
569.01	38256.21
569.372	38528.07
569.734	38374.4
570.095	38814.39
570.457	38963.31
570.819	39009.19
571.18	39046.25
571.542	39176.41
571.903	39364.88
572.265	39467.71
572.626	39590.41
572.987	39614.14
573.349	39669.51
573.71	39857.3
574.071	39923.06
574.432	40052.77
574.794	40242.15
575.155	40287.8
575.516	40258.19
575.877	40537.28
576.238	40547.45
576.599	40594.68
576.96	40752.42
577.32	40776.37
577.681	40937.5
578.042	40995.35
578.403	41057.72
578.763	41185.4
579.124	41254.32
579.485	41320.09
579.845	41414.77
580.206	41366.19
580.566	41434.66
580.927	41554.66
581.287	41669.46
581.648	41645.95
582.008	41720.08
582.368	41628.55
582.728	41709.23
583.089	41667.87
583.449	41572.28
583.809	41693.64
584.169	41755.78
584.529	41713.75
584.889	42038.03
585.249	41607.08
585.609	41707.42
585.969	41840.3
586.329	41871.48
586.688	42045.49
587.048	41904.25
587.408	41951.03
587.768	41986.73
588.127	41894.53
588.487	41934.31
588.846	42220.85
589.206	41894.76
589.565	41857.02
589.925	42165.49
590.284	42077.58
590.643	42109.44
591.003	42332.94
591.362	42254.75
591.721	42046.39
592.08	42130.01
592.44	42430.34
592.799	42389.66
593.158	42394.18
593.517	42333.62
593.876	42341.08
594.235	42216.56
594.593	42435.31
594.952	42478.93
595.311	42353.05
595.67	42421.3
596.029	42638.02
596.387	42569.54
596.746	42695.19
597.104	42362.77
597.463	42593.05
597.822	42671.01
598.18	42545.82
598.538	42564.35
598.897	42751.01
599.255	42572.26
599.613	43108.51
599.972	42874.62
600.33	42895.19
600.688	42669.65
601.046	42972.02
601.404	43084.79
601.762	42969.31
602.12	43242.07
602.478	43187.38
602.836	43216.31
603.194	42873.27
603.552	43016.99
603.91	42988.06
604.268	43229.87
604.625	43186.48
604.983	43361.39
605.341	43239.81
605.698	43446.13
606.056	43517.32
606.413	43385.12
606.771	43547.15
607.128	43566.81
607.485	43381.73
607.843	43471.44
608.2	43660.36
608.557	43850.87
608.914	43593.47
609.272	43895.39
609.629	43816.97
609.986	44012.9
610.343	43840.02
610.7	44136.73
611.057	44051.99
611.414	44122.95
611.771	44051.54
612.127	44305.09
612.484	44172.67
612.841	44250.4
613.198	44329.95
613.554	44298.99
613.911	44506.67
614.267	44428.25
614.624	44506.89
614.98	44606.78
615.337	44834.12
615.693	44753.22
616.05	44625.99
616.406	44808.13
616.762	44696.49
617.118	44621.47
617.475	44861.01
617.831	44877.73
618.187	44910.05
618.543	44900.56
618.899	45057.39
619.255	44978.07
619.611	44855.81
619.967	45131.74
620.323	45339.64
620.678	45056.71
621.034	45082.02
621.39	45014
621.746	44912.08
622.101	45600.2
622.457	45112.3
622.812	45242.24
623.168	45323.37
623.523	45237.5
623.879	45380.09
624.234	45076.82
624.589	45366.99
624.945	45261.9
625.3	45309.36
625.655	45125.86
626.01	45175.8
626.365	45355.69
626.72	45267.55
627.075	45310.94
627.43	45242.47
627.785	45098.07
628.14	45107.78
628.495	45235.92
628.85	45190.49
629.205	44962.93
629.559	45254.67
629.914	44986.43
630.269	44987.79
630.623	44993.21
630.978	44892.87
631.332	45025.53
631.687	45006.09
632.041	44845.87
632.396	44843.16
632.75	44631.64
633.104	44709.83
633.459	44516.84
633.813	44544.41
634.167	44535.82
634.521	44595.93
634.875	44609.26
635.229	44469.83
635.583	44326.33
635.937	44313.91
636.291	44339.67
636.645	44296.73
636.999	44209.05
637.352	44340.12
637.706	44064.42
638.06	44294.24
638.413	44038.21
638.767	44037.98
639.121	44001.6
639.474	43788.72
639.828	43787.14
640.181	43869.62
640.534	43891.32
640.888	43754.15
641.241	43614.94
641.594	43618.56
641.947	43802.51
642.301	43703.98
642.654	43606.58
643.007	43592.34
643.36	43485
643.713	43548.73
644.066	43469.86
644.419	43367.94
644.771	43151.22
645.124	42545.14
645.477	42583.1
645.83	42320.29
646.182	41991.48
646.535	41967.75
646.888	42066.28
647.24	41973.4
647.593	42344.92
647.945	42057.47
648.298	41876.23
648.65	41830.58
649.002	41683.01
649.355	41878.72
649.707	41621.77
650.059	41991.48
650.411	42357.35
650.763	42339.49
651.115	42781.29
651.467	42466.95
651.819	42443.45
652.171	42462.43
652.523	42376.33
652.875	42310.12
653.227	42123.23
653.578	42483.9
653.93	42290.23
654.282	42173.85
654.633	42099.5
654.985	42174.53
655.337	42269.21
655.688	42239.38
656.039	42203
656.391	41881.2
656.742	41995.32
657.094	41935.66
657.445	41986.96
657.796	42017.92
658.147	41848.21
658.498	41843.24
658.849	42013.85
659.2	41884.14
659.551	41703.58
659.902	41827.64
660.253	41847.53
660.604	41718.95
660.955	41594.43
661.306	41882.1
661.656	41678.72
662.007	41584.71
662.358	41634.65
662.708	41524.6
663.059	41482.12
663.409	41226.08
663.76	41506.07
664.11	41481.89
664.461	41412.51
664.811	41387.43
665.161	41459.97
665.511	41421.1
665.862	41508.1
666.212	41542.68
666.562	41653.41
666.912	41404.6
667.262	41409.35
667.612	41440.99
667.962	41568.44
668.312	41252.07
668.662	41408.9
669.011	41387.88
669.361	41302.69
669.711	41312.4
670.06	41325.06
670.41	41359.63
670.76	41086.19
671.109	41169.81
671.459	41083.03
671.808	41189.02
672.157	41217.04
672.507	41004.61
672.856	41077.38
673.205	41035.57
673.554	41081.22
673.904	40795.13
674.253	41049.58
674.602	40906.76
674.951	40349.94
675.3	40341.35
675.649	40903.37
675.998	40777.5
676.346	40834
676.695	40912.41
677.044	40484.63
677.393	40823.38
677.741	40714.68
678.09	40709.71
678.438	40581.12
678.787	40651.63
679.135	40652.76
679.484	40539.99
679.832	40544.51
680.181	40236.72
680.529	40441.24
680.877	40347
681.225	40126.44
681.573	40451.41
681.922	40117.18
682.27	40198.99
682.618	40187.69
682.966	40039.89
683.314	40033.34
683.661	39787.7
684.009	39693.69
684.357	39734.82
684.705	39490.3
685.053	39623.41
685.4	39638.32
685.748	39453.24
686.095	39344.77
686.443	39200.37
686.79	39154.04
687.138	39150.43
687.485	39229.97
687.832	39035.4
688.18	39025
688.527	38995.4
688.874	38843.09
689.221	38742.53
689.568	38495.3
689.915	38314.52
690.262	38476.32
690.609	38430.44
690.956	38352.03
691.303	38237.46
691.65	38139.38
691.997	37990.91
692.344	37897.13
692.69	37826.39
693.037	38052.38
693.383	37749.78
693.73	37746.85
694.077	37542.33
694.423	37507.98
694.769	37535.1
695.116	37415.56
695.462	37336.01
695.808	37192.74
696.155	37174.88
696.501	36828.45
696.847	36903.7
697.193	36613.77
697.539	36861.45
697.885	36430.5
698.231	36443.83
698.577	36533.09
698.923	36438.41
699.269	36158.41
699.614	35952.32
699.96	35880.91
700.306	36149.6
700.651	35866.9
700.997	35809.95
701.342	35706
701.688	35531.31
702.033	35410.86
702.379	35422.84
702.724	35336.51
703.069	35426
703.415	35035.51
703.76	34995.28
704.105	34910.99
704.45	34812.69
704.795	34683.42
705.14	34445.01
705.485	34562.98
705.83	34394.84
706.175	34552.35
706.52	34429.42
706.865	34240.5
707.209	34250.22
707.554	34105.81
707.899	34229.65
708.243	34048.19
708.588	33994.85
708.932	33712.6
709.277	33560.74
709.621	33728.2
709.966	33551.7
710.31	33627.41
710.654	33302.67
710.998	33405.04
711.342	33483.23
711.687	33134.54
712.031	33152.39
712.375	33132.5
712.719	33137.02
713.063	32965.05
713.407	33130.92
713.75	32766.19
714.094	32885.96
714.438	32673.99
714.782	32791.5
715.125	32709.01
715.469	32707.2
715.812	32542.69
716.156	32431.28
716.499	32325.75
716.843	32302.92
717.186	32130.95
717.53	32313.54
717.873	32228.35
718.216	32181.8
718.559	32139.76
718.902	31883.27
719.246	31989.48
719.589	31778.42
719.932	31724.18
720.275	31644.86
720.617	31629.95
720.96	31697.74
721.303	31606.89
721.646	31570.51
721.989	31358.99
722.331	31395.6
722.674	31396.28
723.016	31297.3
723.359	31319.44
723.701	31193.8
724.044	31014.14
724.386	30924.88
724.729	31089.39
725.071	30915.16
725.413	30942.28
725.755	30816.86
726.097	30882.39
726.439	30627.94
726.782	30687.15
727.124	30740.48
727.465	30705.45
727.807	30586.81
728.149	30552.01
728.491	30523.08
728.833	30517.88
729.175	30324.22
729.516	30235.63
729.858	30268.17
730.199	30251.9
730.541	30134.84
730.882	30205.35
731.224	30311.79
731.565	30167.38
731.906	30001.74
732.248	30055.52
732.589	29845.81
732.93	29767.4
733.271	29712.03
733.612	29860.5
733.953	29747.51
734.294	29696.66
734.635	29580.96
734.976	29657.12
735.317	29582.77
735.658	29562.88
735.999	29516.55
736.339	29373.28
736.68	29536.21
737.021	29374.41
737.361	29187.07
737.702	29344.13
738.042	29327.86
738.383	29112.72
738.723	29183
739.063	29129.45
739.404	28998.6
739.744	29032.27
740.084	28980.52
740.424	28944.37
740.764	29084.25
741.104	28920.41
741.444	28742.11
741.784	28719.06
742.124	28725.16
742.464	28568.56
742.804	28652.17
743.143	28698.72
743.483	28656.24
743.823	28437.26
744.162	28418.96
744.502	28393.87
744.841	28193.88
745.181	28370.6
745.52	28262.58
745.86	28213.54
746.199	28158.4
746.538	28032.07
746.877	28122.24
747.216	28093.31
747.556	27887.22
747.895	28008.12
748.234	27776.71
748.573	27842.7
748.911	27834.34
749.25	27768.58
749.589	27690.39
749.928	27702.14
750.267	27667.79
750.605	27544.18
750.944	27433.22
751.283	27575.36
751.621	27544.4
751.96	27352.54
752.298	27261.7
752.636	27230.29
752.975	27109.84
753.313	27108.48
753.651	27125.66
753.989	26912.1
754.327	26927.02
754.666	26708.72
755.004	26875.72
755.342	26835.04
755.679	26742.84
756.017	26681.37
756.355	26638.44
756.693	26400.93
757.031	26543.3
757.368	26503.75
757.706	26437.09
758.044	26260.59
758.381	26415.39
758.719	26224.44
759.056	26166.59
759.394	26187.83
759.731	25875.29
760.068	25785.35
760.405	25784
760.743	25778.12
761.08	25728.18
761.417	25607.96
761.754	25554.62
762.091	25396.44
762.428	25395.53
762.765	25191.7
763.102	25346.72
763.438	25205.03
763.775	25094.75
764.112	24970.23
764.449	24913.29
764.785	24725.04
765.122	24674.87
765.458	24563.92
765.795	24583.8
766.131	24553.97
766.467	24426.29
766.804	24215.45
767.14	24233.08
767.476	24290.48
767.812	24153.53
768.148	24150.14
768.485	24062.69
768.821	23851.62
769.157	23874.67
769.492	23813.88
769.828	23709.02
770.164	23629.93
770.5	23554
770.836	23468.35
771.171	23318.3
771.507	23252.09
771.842	23272.65
772.178	23129.15
772.513	22963.51
772.849	22909.95
773.184	22900.68
773.519	22681.48
773.855	22658.88
774.19	22607.58
774.525	22531.65
774.86	22453.69
775.195	22433.12
775.53	22250.3
775.865	22195.39
776.2	22031.78
776.535	21987.26
776.87	21921.27
777.205	21828.62
777.539	21810.54
777.874	21848.28
778.209	21534.84
778.543	21503.21
778.878	21458.24
779.212	21438.8
779.547	21420.95
779.881	21359.48
780.215	21121.75
780.55	21150.67
780.884	20961.07
781.218	20994.29
781.552	20888.98
781.886	20852.83
782.22	20706.62
782.554	20659.61
782.888	20520.18
783.222	20474.98
783.556	20352.73
783.889	20387.53
784.223	20200.19
784.557	20024.83
784.89	20219.4
785.224	20041.55
785.557	19993.41
785.891	19873.64
786.224	19902.12
786.558	19793.87
786.891	19683.37
787.224	19532.64
787.557	19452.64
787.891	19439.76
788.224	19463.49
788.557	19372.41
788.89	19382.81
789.223	19305.75
789.556	19101.01
789.888	19167.45
790.221	19172.65
790.554	18898.98
790.887	18940.34
791.219	18790.06
791.552	18763.16
791.884	18753.9
792.217	18535.37
792.549	18568.82
792.882	18410.41
793.214	18401.14
793.546	18350.29
793.879	18299.67
794.211	18115.05
794.543	18150.53
794.875	18170.19
795.207	18098.78
795.539	18024.2
795.871	17993.24
796.203	17836.18
796.535	17791.89
796.867	17719.8
797.198	17674.15
797.53	17616.75
797.862	17563.65
798.193	17608.17
798.525	17497.89
798.856	17492.92
799.188	17258.8
799.519	17228.97
799.85	17200.27
800.182	17262.19
800.513	17038.92
800.844	17002.08
801.175	17109.42
801.506	17098.12
801.837	16968.86
802.168	16870.56
802.499	16866.72
802.83	16720.96
803.161	16655.42
803.491	16716.66
803.822	16691.81
804.153	16516.9
804.483	16422.21
804.814	16403.68
805.145	16436.22
805.475	16464.92
805.805	16319.39
806.136	16363.91
806.466	16299.95
806.796	16340.63
807.126	16094.99
807.457	16120.75
807.787	16106.29
808.117	15992.84
808.447	15880.08
808.777	15903.13
809.107	15850.47
809.436	15825.16
809.766	15843.47
810.096	15717.6
810.426	15651.38
810.755	15741.78
811.085	15609.58
811.414	15536.81
811.744	15451.84
812.073	15336.14
812.403	15438.28
812.732	15151.73
813.061	15207.78
813.39	15161.45
813.719	15103.15
814.049	15253.65
814.378	15267.66
814.707	15059.08
815.036	15143.6
815.365	15027.22
815.693	14858.41
816.022	14996.71
816.351	14954.9
816.68	14790.61
817.008	14837.39
817.337	14688.7
817.665	14721.46
817.994	14787.68
818.322	14714.46
818.651	14652.76
818.979	14604.86
819.307	14634.91
819.636	14568.92
819.964	14477.63
820.292	14455.93
820.62	14412.32
820.948	14408.7
821.276	14456.61
821.604	14432.88
821.932	14494.58
822.259	14438.98
822.587	14376.39
822.915	14288.25
823.243	14384.07
823.57	14362.83
823.898	14370.51
824.225	14324.64
824.553	14372.32
824.88	14309.5
825.207	14324.41
825.535	14294.58
825.862	14351.08
826.189	14272.21
826.516	14431.53
826.843	14485.09
827.17	14469.27
827.497	14450.51
827.824	14380.68
828.151	14383.39
828.478	14346.33
828.805	14363.51
829.131	14295.03
829.458	14262.49
829.785	14220.46
830.111	14303.85
830.438	14328.25
830.764	14339.33
831.09	14283.73
831.417	14174.13
831.743	14281.02
832.069	14148.6
832.395	14125.32
832.722	14183.85
833.048	14117.41
833.374	14172.78
833.7	14108.82
834.026	14173.68
834.351	14100.69
834.677	14073.57
835.003	14113.8
835.329	14178.88
835.654	14108.6
835.98	14036.06
836.306	14008.26
836.631	13948.6
836.956	14051.65
837.282	14094.14
837.607	13952.22
837.932	13954.7
838.258	13915.16
838.583	13839
838.908	13902.28
839.233	13841.26
839.558	13776.18
839.883	13705.67
840.208	13662.73
840.533	13790.19
840.858	13731.43
841.182	13761.04
841.507	13787.25
841.832	13634.71
842.156	13601.49
842.481	13548.84
842.805	13513.81
843.13	13474.72
843.454	13487.15
843.778	13419.12
844.103	13428.84
844.427	13389.75
844.751	13403.76
845.075	13441.5
845.399	13314.27
845.723	13267.94
846.047	13277.66
846.371	13164.44
846.695	13074.73
847.019	12942.75
847.343	12884
847.666	12885.81
847.99	12700.05
848.313	12803.77
848.637	12681.74
848.96	12744.79
849.284	12656.21
849.607	12569.2
849.931	12496.44
850.254	12473.39
850.577	12338.25
850.9	12315.2
851.223	12346.38
851.546	12246.95
851.869	12138.25
852.192	12212.38
852.515	12181.64
852.838	12069.33
853.161	11996.11
853.483	11984.36
853.806	11917.47
854.129	11989.56
854.451	11940.97
854.774	11818.26
855.096	11811.94
855.419	11794.53
855.741	11743.01
856.063	11674.99
856.385	11698.27
856.708	11620.75
857.03	11522.45
857.352	11529.68
857.674	11519.06
857.996	11460.31
858.318	11369.91
858.64	11355.45
858.961	11406.75
859.283	11276.13
859.605	11260.31
859.926	11206.98
860.248	11242.68
860.57	11206.08
860.891	11209.92
861.212	11119.75
861.534	11171.5
861.855	11171.73
862.176	11155.23
862.498	11182.8
862.819	11150.94
863.14	11064.84
863.461	10996.59
863.782	10917.72
864.103	10991.84
864.424	10885.86
864.745	10973.54
865.065	10896.93
865.386	10867.1
865.707	10905.29
866.027	10911.85
866.348	10896.93
866.668	10880.66
866.989	10856.93
867.309	10689.25
867.63	10713.21
867.95	10684.96
868.27	10663.94
868.59	10658.75
868.91	10661.91
869.23	10653.77
869.55	10599.31
869.87	10568.13
870.19	10628.24
870.51	10595.7
870.83	10531.52
871.15	10473.89
871.469	10443.38
871.789	10571.06
872.109	10470.95
872.428	10358.64
872.748	10457.85
873.067	10508.01
873.386	10402.71
873.706	10373.55
874.025	10306.21
874.344	10349.6
874.663	10405.19
874.982	10363.61
875.301	10368.36
875.62	10247.46
875.939	10215.59
876.258	10249.26
876.577	10161.58
876.896	10242.94
877.214	10120.45
877.533	10139.21
877.852	10048.37
878.17	10155.71
878.489	10134.24
878.807	10066.22
879.125	10105.54
879.444	10128.14
879.762	10029.61
880.08	10048.82
880.398	10035.03
880.716	10051.3
881.034	10036.39
881.352	9943.74
881.67	9960.68
881.988	9935.83
882.306	9896.28
882.624	9846.34
882.941	9833
883.259	9800.01
883.577	9753.23
883.894	9807.24
884.212	9804.3
884.529	9786.9
884.846	9759.33
885.164	9707.58
885.481	9632.11
885.798	9628.72
886.115	9561.15
886.432	9626
886.75	9560.24
887.067	9566.34
887.383	9476.18
887.7	9596.85
888.017	9466.46
888.334	9492.45
888.651	9469.62
888.967	9419.46
889.284	9364.99
889.6	9405.22
889.917	9263.08
890.233	9310.31
890.55	9199.12
890.866	9285.9
891.182	9163.19
891.498	9179.91
891.815	9116.86
892.131	9076.19
892.447	9064.21
892.763	9102.4
893.079	9090.65
893.395	9061.05
893.71	9074.61
894.026	8932.24
894.342	9012.69
894.657	8970.43
894.973	8889.98
895.289	8860.6
895.604	8848.62
895.92	8761.17
896.235	8748.51
896.55	8773.15
896.865	8636.43
897.181	8715.07
897.496	8700.15
897.811	8650.66
898.126	8641.17
898.441	8624.45
898.756	8546.48
899.071	8527.28
899.386	8508.07
899.7	8519.37
900.015	8361.18
900.33	8410.44
900.644	8393.04
900.959	8424.68
901.273	8330.9
901.588	8244.35
901.902	8259.71
902.216	8236.21
902.531	8226.27
902.845	8122.99
903.159	8125.7
903.473	8041.64
903.787	8082.77
904.101	7975.2
904.415	7980.4
904.729	7934.75
905.042	7949.21
905.356	7892.72
905.67	7913.96
905.984	7900.17
906.297	7886.39
906.611	7859.5
906.924	7774.3
907.237	7783.11
907.551	7720.07
907.864	7724.59
908.177	7726.17
908.491	7668.77
908.804	7586.51
909.117	7538.83
909.43	7485.72
909.743	7567.3
910.056	7490.01
910.368	7367.08
910.681	7380.41
910.994	7321.21
911.307	7334.54
911.619	7225.62
911.932	7222.45
912.244	7198.72
912.557	7259.74
912.869	7165.96
913.181	7131.83
913.494	7136.13
913.806	7142.91
914.118	7052.96
914.43	7061.55
914.742	7073.53
915.054	7017.94
915.366	6946.75
915.678	6976.58
915.99	6900.65
916.302	6929.8
916.613	6831.95
916.925	6832.63
917.236	6786.76
917.548	6767.32
917.859	6826.98
918.171	6749.92
918.482	6681
918.794	6633.09
919.105	6659.3
919.416	6591.51
919.727	6574.56
920.038	6567.33
920.349	6534.11
920.66	6484.62
920.971	6435.13
921.282	6410.5
921.593	6344.73
921.903	6358.75
922.214	6371.17
922.525	6307.22
922.835	6328.92
923.146	6252.99
923.456	6246.43
923.767	6268.8
924.077	6208.69
924.387	6168.69
924.697	6174.34
925.008	6121.92
925.318	6043.05
925.628	6023.61
925.938	6021.13
926.248	5991.52
926.558	5999.88
926.867	5918.98
927.177	5872.2
927.487	5889.38
927.796	5861.58
928.106	5888.25
928.416	5801.02
928.725	5761.92
929.034	5751.53
929.344	5752.43
929.653	5711.76
929.962	5690.74
930.271	5669.95
930.581	5669.72
930.89	5605.09
931.199	5571.65
931.508	5542.72
931.817	5581.14
932.125	5530.97
932.434	5533.91
932.743	5489.39
933.051	5448.71
933.36	5367.13
933.669	5407.58
933.977	5419.33
934.286	5373.01
934.594	5360.58
934.902	5279.45
935.21	5317.87
935.519	5288.04
935.827	5297.08
936.135	5227.93
936.443	5151.32
936.751	5194.93
937.059	5129.85
937.367	5147.7
937.674	5092.34
937.982	5119.91
938.29	5107.93
938.597	5129.63
938.905	5033.36
939.213	5035.84
939.52	4983.64
939.827	5012.57
940.135	4935.73
940.442	4935.28
940.749	4914.04
941.056	4913.13
941.363	4839.01
941.67	4832.01
941.977	4807.83
942.284	4765.57
942.591	4746.36
942.898	4743.19
943.205	4783.65
943.511	4745.91
943.818	4718.79
944.125	4653.71
944.431	4630.2
944.738	4634.27
945.044	4611.67
945.35	4564.44
945.657	4554.95
945.963	4530.09
946.269	4512.69
946.575	4492.81
946.881	4488.51
947.187	4456.2
947.493	4408.29
947.799	4410.1
948.105	4412.81
948.41	4366.48
948.716	4410.1
949.022	4392.7
949.327	4428.85
949.633	4336.88
949.938	4324.22
950.244	4306.6
950.549	4257.78
950.854	4268.86
951.16	4232.47
951.465	4236.54
951.77	4208.97
952.075	4231.8
952.38	4162.64
952.685	4168.07
952.99	4123.78
953.294	4152.7
953.599	4050.78
953.904	4042.65
954.209	4061.63
954.513	4025.7
954.818	4019.6
955.122	4006.72
955.426	3965.36
955.731	3926.27
956.035	3927.4
956.339	3888.98
956.643	3944.8
956.948	3877
957.252	3878.13
957.556	3897.79
957.86	3856.44
958.163	3803.56
958.467	3819.6
958.771	3789.77
959.075	3764.46
959.378	3732.37
959.682	3763.79
959.985	3697.35
960.289	3687.63
960.592	3692.15
960.896	3695.31
961.199	3666.39
961.502	3662.09
961.805	3652.83
962.108	3594.07
962.411	3618.03
962.714	3562.43
963.017	3560.4
963.32	3542.77
963.623	3566.05
963.926	3527.86
964.228	3504.81
964.531	3514.07
964.833	3475.88
965.136	3495.32
965.438	3489.22
965.741	3413.29
966.043	3461.87
966.345	3422.33
966.648	3378.03
966.95	3374.64
967.252	3404.25
967.554	3341.42
967.856	3321.31
968.158	3292.16
968.46	3310.01
968.761	3326.28
969.063	3309.33
969.365	3241.31
969.666	3260.97
969.968	3270.46
970.269	3215.1
970.571	3232.73
970.872	3224.14
971.174	3173.97
971.475	3163.12
971.776	3128.77
972.077	3124.25
972.378	3122.22
972.679	3111.15
972.98	3063.69
973.281	3099.85
973.582	3079.51
973.883	3067.76
974.183	3042
974.484	3025.73
974.785	3030.25
975.085	3017.82
975.386	2990.02
975.686	2985.5
975.986	2998.61
976.287	2989.79
976.587	2943.92
976.887	2936.69
977.187	2888.1
977.487	2896.69
977.787	2874.77
978.087	2831.38
978.387	2853.98
978.687	2848.56
978.987	2852.4
979.286	2812.4
979.586	2831.83
979.885	2774.66
980.185	2778.05
980.484	2781.66
980.784	2740.54
981.083	2726.98
981.382	2749.57
981.682	2728.56
981.981	2707.99
982.28	2712.51
982.579	2724.49
982.878	2693.76
983.177	2683.59
983.475	2663.25
983.774	2636.58
984.073	2650.37
984.372	2647.88
984.67	2632.74
984.969	2602.01
985.267	2575.12
985.566	2574.89
985.864	2585.96
986.162	2559.75
986.461	2543.48
986.759	2518.62
987.057	2526.3
987.355	2497.15
987.653	2505.97
987.951	2495.57
988.249	2485.4
988.547	2464.38
988.844	2482.91
989.142	2445.4
989.44	2433.88
989.737	2381.67
990.035	2393.65
990.332	2420.32
990.63	2365.18
990.927	2384.84
991.224	2359.75
991.521	2359.08
991.819	2364.05
992.116	2305.74
992.413	2293.77
992.71	2303.94
993.006	2307.33
993.303	2288.12
993.6	2286.76
993.897	2244.96
994.193	2273.2
994.49	2261.9
994.787	2248.34
995.083	2188.69
995.379	2222.13
995.676	2192.53
995.972	2192.08
996.268	2200.89
996.565	2178.52
996.861	2157.5
997.157	2142.81
997.453	2108.46
997.749	2147.1
998.044	2121.57
998.34	2104.17
998.636	2088.12
998.932	2061.46
999.227	2053.1
999.523	2045.64
999.818	2046.99
1000.114	2024.62
1000.409	1996.15
1000.704	2035.47
1001	2042.7
1001.295	1991.85
1001.59	1968.13
1001.885	1967.67
1002.18	1962.48
1002.475	1942.14
1002.77	1964.06
1003.065	1932.87
1003.359	1915.92
1003.654	1936.71
1003.949	1903.5
1004.243	1892.2
1004.538	1892.65
1004.832	1887.45
1005.127	1892.42
1005.421	1873.21
1005.715	1845.19
1006.009	1853.78
1006.304	1839.32
1006.598	1845.64
1006.892	1811.52
1007.186	1827.79
1007.48	1784.63
1007.773	1776.27
1008.067	1777.4
1008.361	1746.66
1008.655	1762.03
1008.948	1722.48
1009.242	1688.81
1009.535	1725.65
1009.829	1707.34
1010.122	1731.97
1010.415	1653.11
1010.708	1639.77
1011.001	1684.07
1011.295	1670.51
1011.588	1639.32
1011.881	1644.97
1012.173	1618.53
1012.466	1600.9
1012.759	1625.99
1013.052	1610.62
1013.344	1590.96
1013.637	1597.29
1013.93	1566.33
1014.222	1569.04
1014.514	1552.54
1014.807	1558.19
1015.099	1538.08
1015.391	1543.96
1015.683	1527.01
1015.976	1522.26
1016.268	1508.25
1016.56	1503.73
1016.851	1480.68
1017.143	1476.61
1017.435	1500.34
1017.727	1454.47
1018.018	1453.34
1018.31	1432.77
1018.602	1433.9
1018.893	1439.33
1019.185	1438.42
1019.476	1418.31
1019.767	1405.88
1020.058	1408.37
1020.35	1381.47
1020.641	1377.18
1020.932	1355.26
1021.223	1339.44
1021.514	1355.49
1021.804	1334.02
1022.095	1309.61
1022.386	1301.03
1022.677	1330.85
1022.967	1303.96
1023.258	1269.39
1023.548	1282.49
1023.839	1270.97
1024.129	1272.1
1024.419	1261.03
1024.709	1257.41
1025	1214.47
1025.29	1260.35
1025.58	1215.83
1025.87	1216.28
1026.16	1223.29
1026.449	1176.96
1026.739	1228.03
1027.029	1210.86
1027.319	1194.14
1027.608	1169.05
1027.898	1199.33
1028.187	1152.33
1028.477	1168.15
1028.766	1141.26
1029.055	1150.07
1029.344	1124.98
1029.634	1155.94
1029.923	1110.3
1030.212	1097.19
1030.501	1122.05
1030.79	1086.12
1031.078	1075.49
1031.367	1087.47
1031.656	1056.74
1031.945	1068.71
1032.233	1031.65
1032.522	1052.9
1032.81	1028.94
1033.099	1034.37
1033.387	1041.82
1033.675	1025.78
1033.963	1037.76
1034.251	1008.83
1034.54	988.04
1034.828	986.46
1035.116	1016.96
1035.403	972.45
1035.691	972.67
1035.979	973.58
1036.267	971.54
1036.554	964.08
1036.842	948.04
1037.129	946.46
1037.417	938.1
1037.704	935.61
1037.992	919.11
1038.279	948.49
1038.566	917.08
1038.853	917.08
1039.14	917.08
