Data from plate_porcelain_FLMS001491_068.txt Node
Date: Tue Feb 07 11:19:42 GMT 2017
User: dcchb
Spectrometer: FLMS00149
Trigger mode: 0
Integration Time (sec): 2.000000E-2
Scans to average: 10
Electric dark correction enabled: true
Nonlinearity correction enabled: false
Boxcar width: 0
XAxis mode: Wavelengths
Number of Pixels in Spectrum: 2048
>>>>>Begin Spectral Data<<<<<
341.393	-12.6
341.776	-12.6
342.16	-12.6
342.543	-65.25
342.927	-74.29
343.31	-94.86
343.693	-70
344.077	-57.34
344.46	-59.15
344.843	-54.41
345.226	-42.43
345.61	-37.23
345.993	-28.87
346.376	4.35
346.759	16.78
347.142	26.72
347.525	24.46
347.908	55.42
348.291	66.5
348.674	118.25
349.057	131.8
349.44	115.31
349.823	153.72
350.206	162.76
350.588	218.36
350.971	249.32
351.354	277.56
351.737	271.46
352.119	305.81
352.502	296.32
352.884	305.59
353.267	326.15
353.65	354.85
354.032	351.46
354.414	341.52
354.797	375.41
355.179	350.56
355.562	389.2
355.944	364.11
356.326	384
356.709	381.52
357.091	374.96
357.473	384.23
357.855	394.17
358.238	388.07
358.62	387.62
359.002	405.92
359.384	367.28
359.766	372.48
360.148	395.75
360.53	386.04
360.912	393.94
361.294	396.66
361.676	382.87
362.057	414.73
362.439	373.61
362.821	378.8
363.203	390.33
363.584	386.49
363.966	395.75
364.348	376.54
364.729	393.72
365.111	384.23
365.493	388.29
365.874	378.58
366.256	383.78
366.637	380.61
367.019	392.14
367.4	382.87
367.781	399.14
368.163	388.52
368.544	393.04
368.925	387.62
369.306	388.52
369.688	391.01
370.069	432.14
370.45	403.21
370.831	427.62
371.212	411.8
371.593	403.21
371.974	407.96
372.355	404.79
372.736	433.72
373.117	431.68
373.498	417.45
373.879	419.03
374.26	410.22
374.641	414.96
375.021	408.18
375.402	428.52
375.783	447.05
376.163	479.14
376.544	456.54
376.925	437.33
377.305	462.19
377.686	473.72
378.066	458.12
378.447	470.33
378.827	470.33
379.208	467.84
379.588	491.79
379.968	497.67
380.349	477.11
380.729	515.52
381.109	503.32
381.489	499.7
381.87	503.09
382.25	518.23
382.63	508.29
383.01	525.92
383.39	537.44
383.77	541.29
384.15	539.7
384.53	550.1
384.91	533.83
385.29	563.43
385.67	544.9
386.049	572.24
386.429	540.61
386.809	577.22
387.189	573.83
387.568	563.43
387.948	577.89
388.328	592.36
388.707	609.53
389.087	615.86
389.466	605.92
389.846	611.57
390.225	648.4
390.605	621.51
390.984	632.36
391.363	621.28
391.743	645.69
392.122	631.9
392.501	651.11
392.881	685.24
393.26	677.33
393.639	689.53
394.018	673.71
394.397	706.48
394.776	726.59
395.155	739.25
395.534	732.47
395.913	736.53
396.292	740.15
396.671	761.62
397.05	755.29
397.429	754.39
397.808	760.71
398.186	794.39
398.565	792.35
398.944	793.48
399.323	800.94
399.701	807.27
400.08	823.31
400.458	812.24
400.837	854.72
401.215	862.18
401.594	846.81
401.972	868.28
402.351	853.14
402.729	861.73
403.107	886.36
403.486	901.73
403.864	909.64
404.242	905.8
404.62	918.45
404.999	941.27
405.377	947.15
405.755	956.64
406.133	969.52
406.511	997.32
406.889	1004.32
407.267	1016.75
407.645	1021.72
408.023	1028.73
408.401	1046.81
408.779	1058.56
409.156	1095.17
409.534	1109.18
409.912	1092.23
410.29	1149.86
410.667	1149.4
411.045	1159.8
411.422	1187.37
411.8	1181.27
412.178	1212.23
412.555	1243.41
412.933	1248.39
413.31	1267.82
413.687	1288.38
414.065	1278.89
414.442	1310.98
414.819	1305.78
415.197	1323.19
415.574	1350.76
415.951	1355.05
416.328	1372.22
416.705	1405.44
417.082	1411.32
417.46	1387.14
417.837	1460.36
418.214	1455.61
418.591	1478.44
418.967	1499.68
419.344	1523.41
419.721	1500.58
420.098	1509.85
420.475	1528.15
420.852	1564.76
421.228	1593.46
421.605	1632.1
421.982	1599.34
422.358	1632.33
422.735	1669.84
423.111	1670.75
423.488	1708.94
423.864	1702.61
424.241	1757.3
424.617	1747.13
424.994	1775.83
425.37	1798.2
425.746	1790.74
426.123	1834.81
426.499	1841.82
426.875	1870.29
427.251	1899.22
427.627	1948.03
428.003	1934.47
428.379	1983.06
428.756	1996.61
429.132	2034.35
429.507	2089.49
429.883	2062.83
430.259	2100.11
430.635	2155.93
431.011	2188.25
431.387	2236.38
431.763	2266.44
432.138	2270.96
432.514	2302.59
432.89	2289.04
433.265	2359.32
433.641	2397.06
434.016	2433.21
434.392	2483.38
434.767	2503.27
435.143	2511.18
435.518	2529.93
435.894	2581.68
436.269	2626.43
436.644	2635.69
437.02	2701.23
437.395	2715.01
437.77	2726.54
438.145	2751.85
438.52	2797.5
438.895	2819.87
439.271	2841.79
439.646	2922.69
440.021	2864.84
440.395	2938.28
440.77	2950.71
441.145	2998.4
441.52	3018.06
441.895	3075.23
442.27	3076.13
442.645	3039.75
443.019	3080.2
443.394	3103.03
443.769	3186.87
444.143	3078.62
444.518	3220.76
444.892	3168.33
445.267	3235.45
445.641	3297.14
446.016	3307.09
446.39	3297.6
446.764	3347.54
447.139	3343.02
447.513	3411.94
447.887	3418.72
448.262	3463.24
448.636	3449.23
449.01	3499.17
449.384	3554.99
449.758	3542.34
450.132	3598.83
450.506	3621.66
450.88	3710.69
451.254	3698.04
451.628	3697.81
452.002	3780.52
452.376	3825.72
452.75	3852.38
453.123	3919.05
453.497	3945.26
453.871	3984.58
454.244	4082.66
454.618	4081.98
454.992	4152.49
455.365	4171.92
455.739	4267.97
456.112	4266.38
456.486	4396.33
456.859	4368.53
457.232	4477.68
457.606	4476.77
457.979	4512.93
458.352	4623.44
458.725	4726.03
459.099	4733.72
459.472	4825.01
459.845	4879.7
460.218	4908.18
460.591	4966.93
460.964	4992.02
461.337	5133.71
461.71	5176.19
462.083	5243.53
462.456	5278.11
462.829	5333.93
463.201	5461.83
463.574	5451.89
463.947	5528.27
464.32	5683.97
464.692	5723.07
465.065	5726.69
465.438	5826.12
465.81	5926.68
466.183	5981.59
466.555	6130.29
466.928	6174.58
467.3	6180.91
467.672	6302.72
468.045	6448.7
468.417	6439.66
468.789	6499.77
469.161	6568.25
469.534	6731.63
469.906	6858.18
470.278	6890.04
470.65	6990.38
471.022	7111.73
471.394	7237.38
471.766	7356.02
472.138	7387.88
472.51	7577.48
472.882	7746.29
473.253	7793.3
473.625	7878.04
473.997	8059.28
474.369	8163.91
474.74	8304.47
475.112	8479.16
475.484	8547.18
475.855	8662.65
476.227	8813.61
476.598	9010.22
476.97	9112.59
477.341	9320.26
477.713	9458.79
478.084	9444.78
478.455	9792.79
478.827	9868.05
479.198	10203.63
479.569	10235.49
479.94	10491.53
480.311	10645.2
480.682	10818.98
481.053	11039.54
481.424	11216.94
481.795	11362.47
482.166	11428.68
482.537	11635
482.908	11984.15
483.279	12042.68
483.65	12203.13
484.021	12540.52
484.391	12662.32
484.762	12803.56
485.133	12987.06
485.503	13115.64
485.874	13460.72
486.244	13566.71
486.615	13768.06
486.985	13962.4
487.356	14213.02
487.726	14365.1
488.097	14658.43
488.467	14684.87
488.837	15071.75
489.207	15253.67
489.578	15465.41
489.948	15632.87
490.318	15747.89
490.688	15895.23
491.058	16159.86
491.428	16312.62
491.798	16562.33
492.168	16933.4
492.538	16968.65
492.908	17237.34
493.278	17423.78
493.648	17537.22
494.017	17721.17
494.387	17811.34
494.757	18003.88
495.126	18249.07
495.496	18245
495.866	18459.68
496.235	18681.6
496.605	18821.71
496.974	19013.57
497.344	19190.96
497.713	19246.56
498.082	19459.21
498.452	19669.82
498.821	19820.55
499.19	19861.68
499.559	20049.47
499.928	20185.74
500.298	20360.88
500.667	20479.29
501.036	20503.7
501.405	20693.75
501.774	20802.67
502.143	21004.93
502.512	21137.35
502.88	21315.43
503.249	21349.55
503.618	21564.91
503.987	21710.9
504.356	21854.85
504.724	22011.68
505.093	22062.08
505.462	22206.03
505.83	22455.51
506.199	22548.16
506.567	22878.32
506.936	22897.08
507.304	23207.81
507.672	23178.2
508.041	23364.87
508.409	23594.24
508.777	23805.98
509.145	23946.77
509.514	24099.99
509.882	24253.2
510.25	24174.34
510.618	24546.08
510.986	24615.23
511.354	24840.31
511.722	25186.74
512.09	25352.16
512.458	25291.59
512.826	25626.73
513.193	25753.96
513.561	25965.48
513.929	26070.78
514.297	26339.93
514.664	26542.41
515.032	26558.45
515.4	26881.84
515.767	26979.91
516.135	27113.47
516.502	27083.19
516.869	27622.83
517.237	27621.25
517.604	27696.5
517.972	28077.28
518.339	28229.6
518.706	28350.05
519.073	28490.61
519.44	28757.94
519.808	29065.73
520.175	29136.24
520.542	29525.38
520.909	29651.48
521.276	29712.72
521.643	30119.94
522.009	30309.54
522.376	30527.84
522.743	30775.07
523.11	30919.47
523.477	31408.04
523.843	31573.92
524.21	31764.65
524.577	32025.66
524.943	32189.27
525.31	32371.86
525.676	32730.04
526.043	32908.8
526.409	33170.26
526.776	33439.63
527.142	33647.31
527.508	33872.61
527.874	34053.62
528.241	34310.79
528.607	34487.74
528.973	34781.06
529.339	34722.08
529.705	35095.86
530.071	35405.23
530.437	35536.98
530.803	35789.17
531.169	36057.64
531.535	36073.46
531.901	36039.11
532.267	36327.24
532.632	36697.17
532.998	36754.57
533.364	37053.77
533.73	37094
534.095	37574.21
534.461	37482.69
534.826	37685.85
535.192	37940.3
535.557	38280.63
535.923	38210.8
536.288	38347.07
536.653	38612.37
537.019	38532.15
537.384	38644.01
537.749	38957.9
538.114	38982.99
538.479	39156.09
538.845	39321.96
539.21	39267.5
539.575	39651.44
539.94	39688.05
540.305	39848.27
540.67	39973.24
541.034	40135.5
541.399	40332.78
541.764	40337.53
542.129	40462.5
542.494	40591.53
542.858	40783.84
543.223	40930.05
543.587	41162.14
543.952	41148.13
544.316	41205.75
544.681	41302.93
545.045	41630.6
545.41	41683.48
545.774	41872.63
546.138	42014.54
546.503	42075.33
546.867	42236.01
547.231	42695.66
547.595	42653.85
547.959	42684.58
548.324	42681.42
548.688	42854.52
549.052	43141.07
549.416	43220.16
549.779	43184.46
550.143	43360.05
550.507	43587.38
550.871	43840.03
551.235	43829.19
551.599	44263.98
551.962	44334.26
552.326	44299
552.689	44582.16
553.053	44658.09
553.417	44685.89
553.78	45215.36
554.143	45029.15
554.507	45242.71
554.87	45483.61
555.234	45856.03
555.597	45573.55
555.96	45773.54
556.323	46055.57
556.686	46117.26
557.05	46313.87
557.413	46455.33
557.776	46587.76
558.139	46927.86
558.502	46870.01
558.865	47039.5
559.228	47330.34
559.59	47502.08
559.953	47545.25
560.316	47890.1
560.679	47874.96
561.041	48207.38
561.404	48343.19
561.767	48641.49
562.129	48528.05
562.492	48895.95
562.854	48933.69
563.217	48984.31
563.579	49253.45
563.941	49478.76
564.304	49576.83
564.666	49841.01
565.028	49995.35
565.39	50120.55
565.753	50237.83
566.115	50399.41
566.477	50475.34
566.839	50570.25
567.201	50861.32
567.563	50842.79
567.925	51131.37
568.287	51130.24
568.648	51224.92
569.01	51298.14
569.372	51605.71
569.734	51521.87
570.095	51799.15
570.457	51848.64
570.819	51928.86
571.18	51941.06
571.542	52263.09
571.903	52244.56
572.265	52329.98
572.626	52400.03
572.987	52526.13
573.349	52547.38
573.71	52707.82
574.071	52812.23
574.432	52901.72
574.794	53132.44
575.155	53054.93
575.516	52972.67
575.877	53107.13
576.238	53214.93
576.599	53429.39
576.96	53338.77
577.32	53458.09
577.681	53489.27
578.042	53603.84
578.403	53555.48
578.763	53700.57
579.124	53672.32
579.485	53801.58
579.845	53853.78
580.206	53812.65
580.566	53882.03
580.927	53852.65
581.287	53967
581.648	53830.96
582.008	54049.71
582.368	53964.29
582.728	54044.06
583.089	53954.8
583.449	54004.96
583.809	54045.19
584.169	54114.34
584.529	54078.86
584.889	54300.78
585.249	54128.35
585.609	53994.79
585.969	54222.59
586.329	54117.73
586.688	54207.22
587.048	54165.19
587.408	54147.11
587.768	54226.88
588.127	54203.6
588.487	54144.62
588.846	54328.35
589.206	54078.41
589.565	54151.4
589.925	54276.14
590.284	54261.68
590.643	54298.52
591.003	54306.88
591.362	54409.02
591.721	54330.61
592.08	54342.13
592.44	54441.79
592.799	54524.05
593.158	54372.41
593.517	54328.12
593.876	54466.42
594.235	54331.06
594.593	54442.47
594.952	54581.22
595.311	54359.31
595.67	54511.84
596.029	54583.48
596.387	54553.42
596.746	54638.85
597.104	54508.45
597.463	54495.8
597.822	54659.18
598.18	54576.02
598.538	54599.52
598.897	54751.16
599.255	54517.49
599.613	54874.55
599.972	54667.55
600.33	54821.44
600.688	54703.25
601.046	54852.4
601.404	54916.8
601.762	54865.28
602.12	54921.32
602.478	54955.45
602.836	55026.86
603.194	54842.23
603.552	54882.91
603.91	54842.46
604.268	55041.55
604.625	54860.53
604.983	55147.08
605.341	54904.15
605.698	55118.16
606.056	55186.63
606.413	55126.52
606.771	55216.46
607.128	55354.31
607.485	55168.55
607.843	55155.67
608.2	55390.92
608.557	55400.63
608.914	55295.33
609.272	55458.94
609.629	55459.62
609.986	55501.65
610.343	55458.26
610.7	55630.01
611.057	55558.37
611.414	55573.96
611.771	55659.61
612.127	55662.32
612.484	55669.33
612.841	55842.66
613.198	55662.77
613.554	55729.21
613.911	55867.74
614.267	55843.11
614.624	55851.92
614.98	55872.03
615.337	56023.44
615.693	56014.63
616.05	55914.07
616.406	56078.36
616.762	55971.92
617.118	55997.45
617.475	56040.39
617.831	56104.12
618.187	56042.65
618.543	56107.96
618.899	56183.21
619.255	56192.93
619.611	56210.78
619.967	56269.31
620.323	56257.11
620.678	56158.58
621.034	56157.22
621.39	56157
621.746	56158.81
622.101	56423.43
622.457	56216.66
622.812	56232.02
623.168	56390.89
623.523	56283.77
623.879	56411.23
624.234	56222.98
624.589	56353.6
624.945	56249.65
625.3	56323.55
625.655	56283.1
626.01	56290.1
626.365	56352.7
626.72	56281.51
627.075	56312.93
627.43	56253.72
627.785	56174.62
628.14	56243.55
628.495	56215.75
628.85	56180.27
629.205	56105.93
629.559	56218.01
629.914	56149.09
630.269	56175.3
630.623	56065.93
630.978	56049.66
631.332	56199.03
631.687	56171.01
632.041	56030
632.396	56109.09
632.75	55908.42
633.104	55976.21
633.459	55907.74
633.813	55840.17
634.167	55876.33
634.521	55894.86
634.875	55846.05
635.229	55819.61
635.583	55719.5
635.937	55694.64
636.291	55657.35
636.645	55689.67
636.999	55625.49
637.352	55618.03
637.706	55546.17
638.06	55563.12
638.413	55455.1
638.767	55444.93
639.121	55523.34
639.474	55242.67
639.828	55325.38
640.181	55341.88
640.534	55325.16
640.888	55250.13
641.241	55065.5
641.594	55171.04
641.947	55242.45
642.301	55169
642.654	55080.19
643.007	55124.26
643.36	55154.31
643.713	54992.96
644.066	55154.31
644.419	54931.95
644.771	54731.72
645.124	54442.92
645.477	54416.48
645.83	54262.58
646.182	54042.7
646.535	53933.55
646.888	54012.65
647.24	53909.6
647.593	54118.63
647.945	53991.63
648.298	53794.12
648.65	53710.06
649.002	53602.04
649.355	53859.88
649.707	53751.41
650.059	53797.51
650.411	54194.79
650.763	54253.32
651.115	54425.52
651.467	54387.33
651.819	54320.21
652.171	54255.35
652.523	54244.96
652.875	54145.98
653.227	53980.33
653.578	54229.59
653.93	54095.58
654.282	53978.98
654.633	53910.05
654.985	54018.75
655.337	54043.16
655.688	53996.15
656.039	54048.13
656.391	53817.4
656.742	53890.16
657.094	53896.72
657.445	54027.34
657.796	53933.33
658.147	53940.79
658.498	53818.98
658.849	53888.13
659.2	53796.16
659.551	53730.17
659.902	53841.58
660.253	53746.44
660.604	53789.15
660.955	53704.18
661.306	53716.61
661.656	53686.1
662.007	53665.54
662.358	53590.51
662.708	53671.41
663.059	53607.69
663.409	53374.7
663.76	53530.4
664.11	53579.44
664.461	53550.96
664.811	53595.03
665.161	53588.48
665.511	53551.87
665.862	53497.18
666.212	53556.16
666.562	53559.33
666.912	53531.76
667.262	53455.6
667.612	53489.72
667.962	53473.45
668.312	53426.67
668.662	53504.19
669.011	53467.58
669.361	53459.89
669.711	53330.86
670.06	53306.68
670.41	53259.45
670.76	53247.02
671.109	53337.19
671.459	53195.95
671.808	53230.97
672.157	53234.81
672.507	53147.13
672.856	53100.58
673.205	53146.68
673.554	53173.57
673.904	53105.33
674.253	53381.93
674.602	53079.11
674.951	52639.8
675.3	52500.37
675.649	53008.83
675.998	53006.57
676.346	52977.65
676.695	53081.6
677.044	52847.25
677.393	53045.67
677.741	52954.14
678.09	52875.28
678.438	52725.22
678.787	52833.24
679.135	52871.66
679.484	52666.92
679.832	52727.94
680.181	52544.66
680.529	52667.37
680.877	52520.26
681.225	52434.61
681.573	52693.13
681.922	52463.99
682.27	52292.47
682.618	52306.93
682.966	52299.47
683.314	52324.78
683.661	52167.05
684.009	52084.56
684.357	51934.06
684.705	52064.45
685.053	51967.28
685.4	51983.77
685.748	51817.9
686.095	51737
686.443	51512.6
686.79	51534.52
687.138	51614.52
687.485	51551.24
687.832	51455.65
688.18	51494.3
688.527	51401.42
688.874	51227.41
689.221	51200.52
689.568	51130.24
689.915	50997.81
690.262	51065.61
690.609	50874.65
690.956	50630.82
691.303	50693.64
691.65	50541.33
691.997	50563.47
692.344	50323.71
692.69	50409.35
693.037	50451.61
693.383	50146.31
693.73	50175.69
694.077	50014.33
694.423	49937.27
694.769	49833.32
695.116	49736.83
695.462	49819.54
695.808	49690.5
696.155	49707.45
696.501	49331.19
696.847	49526.89
697.193	49168.48
697.539	49406.67
697.885	49126.22
698.231	48977.07
698.577	48905.44
698.923	48900.47
699.269	48625.9
699.614	48298
699.96	48378.67
700.306	48428.16
700.651	48238.11
700.997	48197.43
701.342	48118.57
701.688	48002.64
702.033	47881.51
702.379	47793.83
702.724	47697.79
703.069	47644.68
703.415	47309.1
703.76	47268.42
704.105	47317
704.45	47170.79
704.795	46903.91
705.14	46777.58
705.485	46824.81
705.83	46653.07
706.175	46744.59
706.52	46662.11
706.865	46483.35
707.209	46385.28
707.554	46237.71
707.899	46380.08
708.243	46169.01
708.588	46130.82
708.932	45804.95
709.277	45690.61
709.621	45874.1
709.966	45604.06
710.31	45662.36
710.654	45414
710.998	45357.73
711.342	45269.83
711.687	45166.33
712.031	45101.7
712.375	44957.74
712.719	45077.97
713.063	44880.91
713.407	45006.33
713.75	44632.1
714.094	44656.51
714.438	44485.89
714.782	44631.2
715.125	44359.57
715.469	44351.21
715.812	43945.34
716.156	43880.71
716.499	43906.47
716.843	43901.95
717.186	43515.75
717.53	43979.69
717.873	43821.5
718.216	43800.94
718.559	43690.66
718.902	43406.6
719.246	43466.48
719.589	43477.11
719.932	43136.32
720.275	43241.18
720.617	43123.67
720.96	42962.77
721.303	43075.76
721.646	42878.25
721.989	42637.81
722.331	42797.12
722.674	42612.27
723.016	42649.33
723.359	42571.37
723.701	42673.51
724.044	42316.68
724.386	42278.72
724.729	42330.92
725.071	42210.02
725.413	42168.89
725.755	42102
726.097	41928.22
726.439	41777.49
726.782	41797.83
727.124	41891.61
727.465	41615.23
727.807	41630.37
728.149	41581.79
728.491	41368.91
728.833	41481
729.175	41354
729.516	41292.08
729.858	41180.22
730.199	41273.77
730.541	41055.47
730.882	41099.77
731.224	41019.77
731.565	40898.87
731.906	40975.93
732.248	40904.29
732.589	40682.83
732.93	40669.72
733.271	40625.2
733.612	40707.46
733.953	40698.2
734.294	40480.8
734.635	40225.44
734.976	40530.06
735.317	40144.76
735.658	40104.09
735.999	40257.53
736.339	40004.2
736.68	40237.19
737.021	39855.28
737.361	39850.53
737.702	40031.32
738.042	39927.82
738.383	39698.9
738.723	39852.57
739.063	39575.74
739.404	39783.42
739.744	39598.79
740.084	39487.83
740.424	39498
740.764	39403.09
741.104	39535.97
741.444	39178.69
741.784	39013.49
742.124	38906.83
742.464	39105.92
742.804	39005.36
743.143	38868.86
743.483	39033.61
743.823	38677.91
744.162	38621.64
744.502	38677.46
744.841	38558.59
745.181	38744.12
745.52	38389.33
745.86	38533.05
746.199	38503.22
746.538	38246.28
746.877	38289.67
747.216	38255.1
747.556	38015.55
747.895	38088.32
748.234	37854.88
748.573	37784.15
748.911	37741.21
749.25	37839.06
749.589	37679.97
749.928	37817.82
750.267	37597.26
750.605	37363.59
750.944	37576.47
751.283	37344.39
751.621	37295.8
751.96	36979.88
752.298	37134
752.636	37110.04
752.975	36844.96
753.313	36765.87
753.651	36905.75
753.989	36769.94
754.327	36782.59
754.666	36572.65
755.004	36497.85
755.342	36619.43
755.679	36505.54
756.017	36216.96
756.355	36344.41
756.693	36128.37
757.031	36185.09
757.368	35940.13
757.706	35992.78
758.044	35760.47
758.381	35793.01
758.719	35672.11
759.056	35630.31
759.394	35508.28
759.731	35212.01
760.068	35219.47
760.405	34935.41
760.743	34947.16
761.08	34894.05
761.417	34687.96
761.754	34664
762.091	34699.26
762.428	34555.08
762.765	34254.98
763.102	34548.07
763.438	34220.85
763.775	34087.07
764.112	34066.28
764.449	33956.45
764.785	33877.36
765.122	33610.92
765.458	33415.45
765.795	33475.56
766.131	33382.46
766.467	33164.38
766.804	33086.64
767.14	32946.53
767.476	32951.05
767.812	32866.76
768.148	32845.75
768.485	32574.57
768.821	32426.55
769.157	32463.16
769.492	32429.94
769.828	32299.32
770.164	31986.56
770.5	32008.48
770.836	31987.69
771.171	31728.71
771.507	31547.25
771.842	31503.86
772.178	31487.59
772.513	31412.34
772.849	31374.15
773.184	31209.18
773.519	31243.3
773.855	30933.25
774.19	30845.57
774.525	30744.33
774.86	30661.85
775.195	30561.74
775.53	30470.22
775.865	30209.43
776.2	30135.76
776.535	29906.39
776.87	29789.56
777.205	29724.25
777.539	29724.25
777.874	29811.48
778.209	29452.62
778.543	29396.12
778.878	29209.91
779.212	29177.82
779.547	28900.77
779.881	29082.46
780.215	28738.28
780.55	28765.85
780.884	28705.29
781.218	28663.48
781.552	28669.81
781.886	28337.39
782.22	28347.11
782.554	28146.66
782.888	27953.45
783.222	27795.48
783.556	27684.07
783.889	27725.2
784.223	27557.3
784.557	27477.98
784.89	27550.52
785.224	27287.25
785.557	27041.15
785.891	27106.24
786.224	26989.18
786.558	27064.2
786.891	26648.85
787.224	26668.73
787.557	26649.07
787.891	26663.99
788.224	26427.61
788.557	26498.57
788.89	26439.81
789.223	26319.36
789.556	26187.84
789.888	26141.97
790.221	25945.36
790.554	25790.79
790.887	25791.24
791.219	25652.72
791.552	25547.86
791.884	25472.38
792.217	25393.97
792.549	25328.43
792.882	25208.21
793.214	24983.35
793.546	25075.78
793.879	25005.95
794.211	24845.5
794.543	24725.73
794.875	24749.46
795.207	24706.07
795.539	24551.5
795.871	24448.68
796.203	24363.71
796.535	24153.32
796.867	24216.59
797.198	24115.13
797.53	24029.48
797.862	23913.78
798.193	23850.73
798.525	23796.27
798.856	23885.3
799.188	23560.79
799.519	23531.87
799.85	23341.59
800.182	23458.65
800.513	23408.48
800.844	23167.81
801.175	23372.78
801.506	23158.77
801.837	23179.33
802.168	23016.17
802.499	22996.74
802.83	22857.08
803.161	22717.43
803.491	22733.7
803.822	22739.8
804.153	22490.99
804.483	22343.42
804.814	22377.32
805.145	22291.9
805.475	22311.33
805.805	22276.98
806.136	22299.13
806.466	22154.73
806.796	22195.18
807.126	21930.33
807.457	21817.34
807.787	21903.66
808.117	21794.96
808.447	21718.36
808.777	21775.98
809.107	21665.25
809.436	21608.53
809.766	21666.15
810.096	21490.11
810.426	21430.91
810.755	21323.79
811.085	21327.18
811.414	21361.75
811.744	21121.99
812.073	21050.8
812.403	21117.02
812.732	20947.3
813.061	20928.77
813.39	20763.8
813.719	20804.71
814.049	20839.73
814.378	20735.78
814.707	20603.58
815.036	20582.11
815.365	20461.67
815.693	20312.74
816.022	20438.16
816.351	20292.86
816.68	20154.1
817.008	20256.7
817.337	20154.78
817.665	20030.72
817.994	20194.55
818.322	20111.84
818.651	19858.07
818.979	19871.85
819.307	19866.43
819.636	19876.37
819.964	19772.42
820.292	19853.55
820.62	19757.96
820.948	19711.85
821.276	19814.68
821.604	19570.62
821.932	19730.61
822.259	19689.03
822.587	19616.04
822.915	19621.01
823.243	19691.97
823.57	19625.08
823.898	19590.05
824.225	19552.76
824.553	19545.98
824.88	19572.42
825.207	19598.41
825.535	19494.23
825.862	19660.56
826.189	19530.84
826.516	19639.31
826.843	19660.78
827.17	19581.46
827.497	19643.61
827.824	19567
828.151	19604.06
828.478	19506.44
828.805	19647.68
829.131	19570.39
829.458	19423.73
829.785	19443.84
830.111	19480.9
830.438	19561.35
830.764	19510.05
831.09	19601.12
831.417	19446.78
831.743	19478.41
832.069	19463.95
832.395	19303.05
832.722	19435.25
833.048	19394.8
833.374	19255.37
833.7	19298.53
834.026	19362.03
834.351	19368.13
834.677	19316.38
835.003	19276.61
835.329	19372.2
835.654	19202.94
835.98	19038.88
836.306	19193.9
836.631	19127.24
836.956	19127.69
837.282	19169.27
837.607	19007.24
837.932	19059.22
838.258	19012.44
838.583	18980.12
838.908	18903.97
839.233	18847.7
839.558	18873.68
839.883	18783.07
840.208	18779.68
840.533	18729.73
840.858	18685.89
841.182	18725.67
841.507	18639.79
841.832	18564.31
842.156	18590.3
842.481	18572.22
842.805	18386.01
843.13	18345.34
843.454	18307.15
843.778	18210.88
844.103	18279.58
844.427	18280.03
844.751	18216.75
845.075	18121.39
845.399	18144.21
845.723	18009.53
846.047	18034.16
846.371	17893.6
846.695	17837.1
847.019	17805.92
847.343	17730.89
847.666	17571.35
847.99	17597.79
848.313	17417.23
848.637	17391.69
848.96	17308.53
849.284	17257.23
849.607	17253.16
849.931	17143.79
850.254	16986.73
850.577	16906.05
850.9	16763.23
851.223	16714.87
851.546	16593.07
851.869	16495.89
852.192	16656.79
852.515	16569.79
852.838	16471.26
853.161	16379.29
853.483	16385.84
853.806	16195.56
854.129	16337.71
854.451	16233.75
854.774	16046.19
855.096	16084.83
855.419	16052.06
855.741	16071.72
856.063	15965.29
856.385	15913.31
856.708	15833.99
857.03	15696.59
857.352	15773.88
857.674	15701.79
857.996	15619.98
858.318	15582.25
858.64	15570.95
858.961	15460.67
859.283	15413.21
859.605	15400.1
859.926	15518.52
860.248	15336.15
860.57	15279.2
860.891	15224.51
861.212	15190.17
861.534	15114.46
861.855	15151.07
862.176	15068.36
862.498	15116.04
862.819	15056.16
863.14	15069.26
863.461	15010.28
863.782	15026.55
864.103	14958.08
864.424	14883.96
864.745	14914.69
865.065	14827.92
865.386	14712.44
865.707	14753.79
866.027	14752.89
866.348	14763.51
866.668	14736.84
866.989	14662.72
867.309	14568.94
867.63	14602.38
867.95	14531.88
868.27	14483.29
868.59	14570.29
868.91	14551.31
869.23	14547.24
869.55	14472.22
869.87	14518.54
870.19	14462.05
870.51	14453.01
870.83	14423.41
871.15	14248.72
871.469	14243.52
871.789	14272.9
872.109	14264.99
872.428	14245.78
872.748	14264.09
873.067	14210.3
873.386	14199.01
873.706	14218.67
874.025	14122.4
874.344	14134.6
874.663	14124.2
874.982	14105.22
875.301	14008.05
875.62	14003.76
875.939	13902.97
876.258	13911.33
876.577	13810.31
876.896	13880.6
877.214	13818.22
877.533	13790.2
877.852	13847.6
878.17	13841.5
878.489	13846.25
878.807	13826.13
879.125	13660.71
879.444	13687.83
879.762	13640.6
880.08	13689.64
880.398	13705.68
880.716	13660.04
881.034	13675.86
881.352	13664.1
881.67	13577.55
881.988	13538.23
882.306	13534.16
882.624	13433.6
882.941	13371.23
883.259	13295.53
883.577	13277
883.894	13251.91
884.212	13269.31
884.529	13256.88
884.846	13258.46
885.164	13190.44
885.481	13078.58
885.798	13034.06
886.115	13074.06
886.432	13004.23
886.75	12964.01
887.067	12999.94
887.383	12901.19
887.7	12966.5
888.017	12897.12
888.334	12856.22
888.651	12845.14
888.967	12872.26
889.284	12742.55
889.6	12721.76
889.917	12640.85
890.233	12665.03
890.55	12594.3
890.866	12619.39
891.182	12511.37
891.498	12461.88
891.815	12415.78
892.131	12375.1
892.447	12409.9
892.763	12296.91
893.079	12354.76
893.395	12271.15
893.71	12187.31
894.026	12194.99
894.342	12142.11
894.657	12058.72
894.973	12147.31
895.289	12024.37
895.604	11947.54
895.92	11976.24
896.235	11916.35
896.55	11850.59
896.865	11865.51
897.181	11791.61
897.496	11864.6
897.811	11807.43
898.126	11718.62
898.441	11679.3
898.756	11646.08
899.071	11603.59
899.386	11621.45
899.7	11491.73
900.015	11445.18
900.33	11378.29
900.644	11355.46
900.959	11337.39
901.273	11312.08
901.588	11264.17
901.902	11191.4
902.216	11170.61
902.531	11104.4
902.845	11046.77
903.159	11056.49
903.473	11021.91
903.787	10912.76
904.101	10813.33
904.415	10814.69
904.729	10756.61
905.042	10781.02
905.356	10723.39
905.67	10688.14
905.984	10699.66
906.297	10694.92
906.611	10577.63
906.924	10547.8
907.237	10569.72
907.551	10476.84
907.864	10405.88
908.177	10433.91
908.491	10410.63
908.804	10291.31
909.117	10227.13
909.43	10191.65
909.743	10154.82
910.056	10077.31
910.368	10076.85
910.681	9992.34
910.994	9988.04
911.307	9958.89
911.619	9943.98
911.932	9967.03
912.244	9829.4
912.557	9832.34
912.869	9767.48
913.181	9709.18
913.494	9689.52
913.806	9656.75
914.118	9613.82
914.43	9574.49
914.742	9516.64
915.054	9524.55
915.366	9452.24
915.678	9395.74
915.99	9379.02
916.302	9342.41
916.613	9294.28
916.925	9203.66
917.236	9201.62
917.548	9116.43
917.859	9182.41
918.171	9058.8
918.482	9082.3
918.794	9021.97
919.105	8902.65
919.416	8892.03
919.727	8940.16
920.038	8863.55
920.349	8860.84
920.66	8830.56
920.971	8752.37
921.282	8727.28
921.593	8645.7
921.903	8570
922.214	8579.04
922.525	8631.47
922.835	8517.35
923.146	8410.23
923.456	8510.34
923.767	8415.2
924.077	8436.22
924.387	8352.15
924.697	8298.14
925.008	8250.24
925.318	8264.92
925.628	8196.9
925.938	8146.51
926.248	8053.63
926.558	8029.68
926.867	8110.35
927.177	7984.03
927.487	7945.38
927.796	7880.53
928.106	7879.85
928.416	7866.97
928.725	7892.5
929.034	7831.26
929.344	7822
929.653	7723.47
929.962	7757.82
930.271	7638.27
930.581	7568.67
930.89	7577.94
931.199	7473.31
931.508	7514.89
931.817	7493.42
932.125	7504.04
932.434	7447.54
932.743	7372.74
933.051	7379.52
933.36	7364.38
933.669	7294.78
933.977	7230.15
934.286	7208.23
934.594	7187.89
934.902	7158.06
935.21	7108.34
935.519	7068.12
935.827	7125.07
936.135	7054.56
936.443	6964.39
936.751	6973.21
937.059	6940.21
937.367	6833.1
937.674	6912.42
937.982	6873.55
938.29	6881.23
938.597	6871.74
938.905	6789.48
939.213	6778.18
939.52	6703.61
939.827	6739.09
940.135	6694.12
940.442	6647.34
940.749	6612.54
941.056	6580.45
941.363	6496.83
941.67	6509.94
941.977	6486.67
942.284	6482.6
942.591	6438.31
942.898	6403.96
943.205	6399.21
943.511	6303.17
943.818	6341.58
944.125	6233.79
944.431	6248.71
944.738	6227.46
945.044	6177.3
945.35	6161.25
945.657	6079.44
945.963	6138.2
946.269	6060.01
946.575	6090.52
946.881	6042.84
947.187	5980.24
947.493	5966.45
947.799	5935.49
948.105	5886
948.41	5867.02
948.716	5860.92
949.022	5837.87
949.327	5833.8
949.633	5808.72
949.938	5814.37
950.244	5723.3
950.549	5694.82
950.854	5657.76
951.16	5719.91
951.465	5677.87
951.77	5615.28
952.075	5611.89
952.38	5557.2
952.685	5562.17
952.99	5544.32
953.294	5488.5
953.599	5479.23
953.904	5463.64
954.209	5390.88
954.513	5399.01
954.818	5370.08
955.122	5333.7
955.426	5312.01
955.731	5308.62
956.035	5281.95
956.339	5215.06
956.643	5260.03
956.948	5162.18
957.252	5232.46
957.556	5126.93
957.86	5144.1
958.163	5150.43
958.467	5064.33
958.771	5070.21
959.075	5061.62
959.378	5011.68
959.682	4989.53
959.985	4974.39
960.289	4938.46
960.592	4930.32
960.896	4912.47
961.199	4890.1
961.502	4875.41
961.805	4824.56
962.108	4792.92
962.411	4798.12
962.714	4761.74
963.017	4779.37
963.32	4799.25
963.623	4734.4
963.926	4767.61
964.228	4693.49
964.531	4672.93
964.833	4660.95
965.136	4625.7
965.438	4595.42
965.741	4554.29
966.043	4592.7
966.345	4531.69
966.648	4520.16
966.95	4482.65
967.252	4489.43
967.554	4470
967.856	4486.72
968.158	4428.19
968.46	4414.18
968.761	4401.3
969.063	4345.25
969.365	4329.43
969.666	4370.11
969.968	4312.03
970.269	4284.01
970.571	4241.75
970.872	4260.74
971.174	4180.74
971.475	4239.95
971.776	4211.02
972.077	4194.97
972.378	4118.82
972.679	4126.05
972.98	4108.42
973.281	4061.19
973.582	4095.09
973.883	4048.54
974.183	4048.76
974.484	4008.54
974.785	3984.36
975.085	3942.33
975.386	3988.65
975.686	3937.81
975.986	3930.57
976.287	3957.47
976.587	3878.6
976.887	3866.4
977.187	3877.47
977.487	3850.58
977.787	3797.7
978.087	3797.92
978.387	3806.06
978.687	3810.8
978.987	3773.52
979.286	3723.8
979.586	3734.42
979.885	3710.47
980.185	3673.86
980.484	3642.67
980.784	3652.62
981.083	3607.87
981.382	3628.89
981.682	3578.95
981.981	3544.82
982.28	3578.72
982.579	3566.52
982.878	3541.21
983.177	3515.9
983.475	3514.09
983.774	3451.27
984.073	3480.19
984.372	3444.03
984.67	3454.88
984.969	3461.43
985.267	3432.73
985.566	3441.32
985.864	3406.52
986.162	3369.91
986.461	3356.13
986.759	3301.44
987.057	3313.87
987.355	3289.91
987.653	3284.94
987.951	3268.9
988.249	3269.12
988.547	3261.67
988.844	3232.06
989.142	3241.33
989.44	3179.18
989.737	3174.21
990.035	3139.86
990.332	3149.35
990.63	3160.65
990.927	3136.7
991.224	3124.49
991.521	3110.71
991.819	3060.32
992.116	3078.85
992.413	3075.46
992.71	3037.26
993.006	3017.6
993.303	3017.15
993.6	2980.32
993.897	2959.75
994.193	2975.57
994.49	2945.74
994.787	2904.39
995.083	2914.1
995.379	2904.61
995.676	2893.31
995.972	2852.18
996.268	2844.73
996.565	2801.56
996.861	2798.18
997.157	2823.94
997.453	2809.93
997.749	2791.4
998.044	2751.85
998.34	2736.71
998.636	2740.32
998.932	2720.44
999.227	2708.23
999.523	2666.88
999.818	2664.85
1000.114	2672.53
1000.409	2662.59
1000.704	2645.41
1001	2650.61
1001.295	2628.91
1001.59	2616.48
1001.885	2593.43
1002.18	2559.31
1002.475	2540.1
1002.77	2564.28
1003.065	2484.96
1003.359	2511.85
1003.654	2492.19
1003.949	2461.23
1004.243	2470.95
1004.538	2432.31
1004.832	2448.35
1005.127	2428.92
1005.421	2391.63
1005.715	2382.82
1006.009	2382.14
1006.304	2409.94
1006.598	2392.31
1006.892	2326.55
1007.186	2302.82
1007.48	2301.69
1007.773	2299.88
1008.067	2247.68
1008.361	2286.78
1008.655	2286.55
1008.948	2240.45
1009.242	2233.44
1009.535	2211.75
1009.829	2199.55
1010.122	2161.13
1010.415	2212.65
1010.708	2181.47
1011.001	2175.14
1011.295	2153.45
1011.588	2112.54
1011.881	2126.55
1012.173	2113
1012.466	2089.27
1012.759	2079.78
1013.052	2059.21
1013.344	2065.09
1013.637	2058.76
1013.93	2051.75
1014.222	2021.7
1014.514	2009.5
1014.807	1985.99
1015.099	1972.21
1015.391	1968.82
1015.683	1951.64
1015.976	1935.6
1016.268	1911.64
1016.56	1919.55
1016.851	1910.06
1017.143	1891.53
1017.435	1903.28
1017.727	1878.88
1018.018	1866.9
1018.31	1821.25
1018.602	1837.97
1018.893	1820.8
1019.185	1795.04
1019.476	1822.38
1019.767	1792.33
1020.058	1769.28
1020.35	1753.46
1020.641	1758.65
1020.932	1735.6
1021.223	1720.46
1021.514	1722.72
1021.804	1715.72
1022.095	1684.53
1022.386	1682.27
1022.677	1687.92
1022.967	1676.85
1023.258	1634.14
1023.548	1626.45
1023.839	1609.05
1024.129	1626.23
1024.419	1590.75
1024.709	1608.38
1025	1562.73
1025.29	1551.65
1025.58	1546.23
1025.87	1526.12
1026.16	1534.03
1026.449	1542.61
1026.739	1493.58
1027.029	1499
1027.319	1499
1027.608	1482.96
1027.898	1455.61
1028.187	1448.15
1028.477	1454.71
1028.766	1442.96
1029.055	1419
1029.344	1435.05
1029.634	1425.78
1029.923	1429.62
1030.212	1429.62
1030.501	1394.14
1030.79	1382.17
1031.078	1349.4
1031.367	1317.31
1031.656	1359.34
1031.945	1322.73
1032.233	1336.07
1032.522	1328.38
1032.81	1321.15
1033.099	1320.25
1033.387	1304.65
1033.675	1270.76
1033.963	1257.65
1034.251	1239.8
1034.54	1269.85
1034.828	1249.06
1035.116	1237.99
1035.403	1235.05
1035.691	1235.05
1035.979	1203.19
1036.267	1188.5
1036.554	1204.09
1036.842	1189.18
1037.129	1156.64
1037.417	1180.36
1037.704	1154.83
1037.992	1156.86
1038.279	1153.02
1038.566	1129.74
1038.853	1129.74
1039.14	1129.74
