Data from plate_ceramic_FLMS001491_064.txt Node
Date: Tue Feb 07 11:17:08 GMT 2017
User: dcchb
Spectrometer: FLMS00149
Trigger mode: 0
Integration Time (sec): 2.000000E-2
Scans to average: 10
Electric dark correction enabled: true
Nonlinearity correction enabled: false
Boxcar width: 0
XAxis mode: Wavelengths
Number of Pixels in Spectrum: 2048
>>>>>Begin Spectral Data<<<<<
341.393	-9.35
341.776	-9.35
342.16	-9.35
342.543	-60.65
342.927	-62.91
343.31	-66.52
343.693	-68.78
344.077	-71.27
344.46	-49.8
344.843	-62.91
345.226	-25.62
345.61	-40.76
345.993	-24.26
346.376	-7.77
346.759	13.47
347.142	25.45
347.525	37.43
347.908	62.29
348.291	78.56
348.674	89.86
349.057	110.65
349.44	121.95
349.823	137.31
350.206	162.85
350.588	207.82
350.971	235.39
351.354	234.49
351.737	268.16
352.119	258.21
352.502	290.53
352.884	306.12
353.267	318.32
353.65	334.6
354.032	320.13
354.414	319
354.797	346.12
355.179	337.31
355.562	354.93
355.944	354.03
356.326	364.88
356.709	357.87
357.091	357.65
357.473	352.22
357.855	379.79
358.238	377.53
358.62	368.72
359.002	377.98
359.384	375.27
359.766	380.92
360.148	379.11
360.53	380.92
360.912	354.48
361.294	368.04
361.676	366.23
362.057	348.83
362.439	359.91
362.821	372.79
363.203	359.23
363.584	357.65
363.966	356.97
364.348	366.01
364.729	371.2
365.111	356.52
365.493	359.91
365.874	365.78
366.256	342.96
366.637	350.41
367.019	353.35
367.4	354.48
367.781	369.4
368.163	358.1
368.544	369.62
368.925	352.9
369.306	357.42
369.688	364.65
370.069	380.92
370.45	372.33
370.831	359.45
371.212	378.66
371.593	386.12
371.974	368.49
372.355	370.3
372.736	381.15
373.117	364.43
373.498	387.48
373.879	379.11
374.26	367.14
374.641	387.93
375.021	378.44
375.402	384.54
375.783	396.74
376.163	407.81
376.544	407.14
376.925	401.26
377.305	410.3
377.686	415.27
378.066	431.77
378.447	438.1
378.827	420.92
379.208	424.31
379.588	409.17
379.968	438.32
380.349	417.76
380.729	433.8
381.109	437.19
381.489	430.86
381.87	438.55
382.25	443.75
382.63	430.41
383.01	448.04
383.39	432.45
383.77	458.66
384.15	472.22
384.53	453.91
384.91	449.85
385.29	486.46
385.67	457.76
386.049	484.2
386.429	492.56
386.809	474.93
387.189	482.16
387.568	484.42
387.948	502.73
388.328	518.32
388.707	533.23
389.087	512.44
389.466	509.28
389.846	503.18
390.225	522.84
390.605	526
390.984	529.39
391.363	531.65
391.743	537.53
392.122	542.27
392.501	549.05
392.881	544.99
393.26	570.3
393.639	571.65
394.018	559.45
394.397	584.08
394.776	562.61
395.155	596.28
395.534	573.01
395.913	580.92
396.292	606.9
396.671	593.12
397.05	631.09
397.429	624.08
397.808	634.25
398.186	619.56
398.565	641.48
398.944	651.42
399.323	655.04
399.701	648.03
400.08	657.07
400.458	671.08
400.837	653.46
401.215	678.77
401.594	676.73
401.972	678.54
402.351	702.5
402.729	694.59
403.107	713.79
403.486	701.82
403.864	698.2
404.242	724.42
404.62	740.23
404.999	734.36
405.377	770.29
405.755	769.84
406.133	757.64
406.511	788.6
406.889	792.66
407.267	811.42
407.645	808.48
408.023	818.42
408.401	811.65
408.779	838.76
409.156	850.29
409.534	862.94
409.912	864.53
410.29	905.65
410.667	907.91
411.045	899.78
411.422	929.83
411.8	906.56
412.178	940.68
412.555	952.66
412.933	948.36
413.31	971.87
413.687	987.46
414.065	995.6
414.442	1001.92
414.819	996.95
415.197	1013.67
415.574	1045.54
415.951	1045.99
416.328	1070.85
416.705	1073.79
417.082	1083.5
417.46	1099.1
417.837	1112.65
418.214	1132.77
418.591	1126.67
418.967	1149.72
419.344	1120.56
419.721	1178.64
420.098	1154.01
420.475	1183.16
420.852	1183.16
421.228	1195.82
421.605	1202.37
421.982	1235.81
422.358	1242.37
422.735	1252.31
423.111	1273.78
423.488	1294.12
423.864	1281.24
424.241	1321.01
424.617	1309.26
424.994	1338.19
425.37	1348.35
425.746	1344.96
426.123	1351.07
426.499	1392.2
426.875	1381.35
427.251	1422.02
427.627	1450.05
428.003	1498.86
428.379	1463.38
428.756	1500.44
429.132	1516.03
429.507	1567.33
429.883	1575.92
430.259	1571.85
430.635	1614.56
431.011	1600.78
431.387	1632.64
431.763	1679.42
432.138	1678.74
432.514	1711.51
432.89	1677.61
433.265	1753.32
433.641	1772.52
434.016	1803.48
434.392	1846.19
434.767	1831.51
435.143	1856.59
435.518	1898.85
435.894	1867.66
436.269	1900.66
436.644	1960.99
437.02	1949.24
437.395	1951.73
437.77	2019.98
438.145	2010.94
438.52	2047.32
438.895	2074.89
439.271	2052.97
439.646	2092.06
440.021	2092.97
440.395	2129.58
440.77	2140.88
441.145	2148.33
441.52	2178.62
441.895	2203.02
442.27	2198.73
442.645	2218.16
443.019	2260.19
443.394	2299.06
443.769	2323.02
444.143	2292.51
444.518	2318.95
444.892	2340.19
445.267	2338.38
445.641	2386.52
446.016	2412.96
446.39	2419.74
446.764	2423.81
447.139	2436.91
447.513	2441.21
447.887	2446.63
448.262	2520.75
448.636	2504.26
449.01	2521.2
449.384	2572.95
449.758	2552.62
450.132	2587.87
450.506	2607.76
450.88	2637.59
451.254	2645.72
451.628	2688.88
452.002	2713.74
452.376	2747.87
452.75	2756.23
453.123	2789.67
453.497	2848.65
453.871	2849.56
454.244	2913.96
454.618	2919.84
454.992	2969.33
455.365	2971.81
455.739	3048.87
456.112	3047.97
456.486	3122.09
456.859	3104.01
457.232	3205.48
457.606	3202.99
457.979	3224.92
458.352	3299.72
458.725	3321.18
459.099	3381.3
459.472	3420.62
459.845	3468.3
460.218	3499.94
460.591	3525.02
460.964	3521.86
461.337	3683.21
461.71	3712.13
462.083	3734.96
462.456	3747.39
462.829	3774.73
463.201	3855.86
463.574	3894.28
463.947	3920.26
464.32	3993.26
464.692	4045.46
465.065	4083.2
465.438	4139.92
465.81	4201.61
466.183	4228.96
466.555	4304.43
466.928	4362.29
467.3	4405.9
467.672	4447.71
468.045	4567.03
468.417	4501.49
468.789	4571.77
469.161	4653.35
469.534	4738.77
469.906	4856.06
470.278	4851.31
470.65	4944.64
471.022	5037.07
471.394	5130.18
471.766	5152.55
472.138	5231.19
472.51	5278.65
472.882	5401.81
473.253	5506.21
473.625	5621.01
473.997	5683.83
474.369	5718.18
474.74	5825.98
475.112	5879.99
475.484	6007.44
475.855	6126.99
476.227	6144.61
476.598	6329.24
476.97	6410.14
477.341	6530.14
477.713	6643.13
478.084	6647.2
478.455	6848.77
478.827	6876.12
479.198	7096.68
479.569	7143.46
479.94	7310.68
480.311	7423.9
480.682	7554.97
481.053	7771.91
481.424	7817.56
481.795	7940.5
482.166	8088.52
482.537	8174.84
482.908	8350.43
483.279	8434.72
483.65	8608.73
484.021	8769.63
484.391	8851.21
484.762	8973.92
485.133	9031.54
485.503	9199.45
485.874	9357.41
486.244	9494.81
486.615	9636.5
486.985	9702.26
487.356	9990.61
487.726	10018.86
488.097	10285.75
488.467	10341.11
488.837	10483.71
489.207	10669.47
489.578	10779.52
489.948	10836.01
490.318	10999.85
490.688	11111.94
491.058	11306.51
491.428	11359.84
491.798	11518.48
492.168	11696.33
492.538	11784.92
492.908	11977.68
493.278	12142.87
493.648	12182.65
494.017	12316.88
494.387	12411.11
494.757	12566.14
495.126	12704.44
495.496	12734.72
495.866	12791.22
496.235	12979.23
496.605	13088.84
496.974	13220.36
497.344	13348.49
497.713	13424.87
498.082	13471.2
498.452	13670.29
498.821	13727.46
499.19	13796.39
499.559	13956.61
499.928	14151.41
500.298	14197.51
500.667	14263.5
501.036	14318.41
501.405	14377.16
501.774	14546.65
502.143	14578.51
502.512	14680.66
502.88	14909.81
503.249	14941.9
503.618	14960.65
503.987	15104.38
504.356	15202
504.724	15352.73
505.093	15384.82
505.462	15499.39
505.83	15596.34
506.199	15799.95
506.567	15916.56
506.936	15864.81
507.304	16203.33
507.672	16262.99
508.041	16315.64
508.409	16333.05
508.777	16624.34
509.145	16757.44
509.514	16726.71
509.882	16875.4
510.25	16986.59
510.618	17065.23
510.986	17236.52
511.354	17326.24
511.722	17476.52
512.09	17622.05
512.458	17616.18
512.826	17834.02
513.193	17973.68
513.561	18039.89
513.929	18246.89
514.297	18387.68
514.664	18570.5
515.032	18603.49
515.4	18712.19
515.767	18838.29
516.135	19019.98
516.502	18904.05
516.869	19291.16
517.237	19358.5
517.604	19329.35
517.972	19571.38
518.339	19734.76
518.706	19836.46
519.073	19945.38
519.44	20026.51
519.808	20367.97
520.175	20404.12
520.542	20595.98
520.909	20712.82
521.276	20870.55
521.643	21096.76
522.009	21193.03
522.376	21294.95
522.743	21392.57
523.11	21747.82
523.477	21850.41
523.843	22087.47
524.21	22280.91
524.577	22386.22
524.943	22456.95
525.31	22705.98
525.676	22819.43
526.043	23014.23
526.409	23028.91
526.776	23466.64
527.142	23498.51
527.508	23711.38
527.874	23837.25
528.241	24087.19
528.607	24101.65
528.973	24423
529.339	24330.8
529.705	24647.63
530.071	24852.6
530.437	24909.32
530.803	25140.5
531.169	25368.74
531.535	25281.74
531.901	25408.51
532.267	25563.99
532.632	25654.38
532.998	25793.14
533.364	26022.28
533.73	26142.5
534.095	26324.87
534.461	26552.44
534.826	26577.07
535.192	26736.39
535.557	26887.57
535.923	26949.49
536.288	27022.48
536.653	27314.9
537.019	27121.69
537.384	27417.27
537.749	27517.16
538.114	27537.27
538.479	27598.51
538.845	27882.12
539.21	27831.27
539.575	28036.47
539.94	28089.8
540.305	28214.99
540.67	28069.69
541.034	28352.84
541.399	28418.83
541.764	28519.62
542.129	28636
542.494	28749.22
542.858	28912.6
543.223	28979.04
543.587	29160.73
543.952	29202.09
544.316	29253.16
544.681	29371.35
545.045	29480.95
545.41	29709.87
545.774	29692.69
546.138	29787.15
546.503	30020.59
546.867	30026.24
547.231	30318.67
547.595	30240.25
547.959	30425.78
548.324	30478.44
548.688	30618.77
549.052	30628.04
549.416	30768.15
549.779	30813.57
550.143	30893.11
550.507	31224.18
550.871	31366.32
551.235	31157.74
551.599	31490.61
551.962	31559.31
552.326	31742.81
552.689	31899.42
553.053	31817.16
553.417	32028.45
553.78	32335.11
554.143	32054.21
554.507	32441.1
554.87	32574.2
555.234	32889.67
555.597	32757.7
555.96	32989.1
556.323	33058.93
556.686	33220.74
557.05	33441.75
557.413	33509.32
557.776	33610.1
558.139	33909.53
558.502	33857.78
558.865	33925.12
559.228	34239.92
559.59	34375.06
559.953	34354.49
560.316	34763.29
560.679	34813.01
561.041	35007.81
561.404	35361.02
561.767	35430.62
562.129	35434.46
562.492	35667
562.854	35771.4
563.217	35870.16
563.579	36122.36
563.941	36273.09
564.304	36433.76
564.666	36536.81
565.028	36789
565.39	36946.74
565.753	37024.48
566.115	37307.63
566.477	37357.8
566.839	37446.84
567.201	37672.82
567.563	37750.79
567.925	38000.05
568.287	37963.44
568.648	38159.59
569.01	38382.18
569.372	38510.54
569.734	38483.88
570.095	38764.77
570.457	38912.11
570.819	38930.64
571.18	39093.35
571.542	39382.38
571.903	39412.89
572.265	39672.77
572.626	39540.34
572.987	39673
573.349	39797.96
573.71	40039.31
574.071	40048.13
574.432	40185.07
574.794	40535.35
575.155	40463.71
575.516	40405.63
575.877	40605.63
576.238	40741.22
576.599	40938.5
576.96	40876.58
577.32	41057.37
577.681	41048.78
578.042	41144.14
578.403	41186.63
578.763	41171.71
579.124	41245.61
579.485	41565.38
579.845	41597.24
580.206	41523.57
580.566	41592.49
580.927	41572.16
581.287	41720.17
581.648	41637.46
582.008	41816.89
582.368	41704.13
582.728	41826.16
583.089	41739.38
583.449	41815.09
583.809	41787.29
584.169	41964.24
584.529	41929.89
584.889	42094.63
585.249	41913.84
585.609	41888.76
585.969	42112.48
586.329	42073.16
586.688	42036.1
587.048	42073.39
587.408	42051.01
587.768	42083.33
588.127	42024.8
588.487	42004.46
588.846	42286.71
589.206	41999.04
589.565	42062.09
589.925	42279.48
590.284	42150.67
590.643	42251.91
591.003	42312.93
591.362	42282.65
591.721	42333.49
592.08	42339.14
592.44	42406.26
592.799	42509.31
593.158	42376.2
593.517	42289.65
593.876	42404.68
594.235	42358.12
594.593	42523.77
594.952	42562.41
595.311	42385.92
595.67	42576.87
596.029	42770.32
596.387	42795.4
596.746	42744.33
597.104	42566.71
597.463	42649.64
597.822	42861.39
598.18	42770.32
598.538	42612.81
598.897	43003.76
599.255	42456.43
599.613	43146.8
599.972	42901.61
600.33	43052.34
600.688	42887.6
601.046	43157.88
601.404	43319.23
601.762	43107.48
602.12	43313.8
602.478	43199.46
602.836	43179.57
603.194	43061.83
603.552	43216.41
603.91	43147.03
604.268	43451.65
604.625	43186.58
604.983	43532.33
605.341	43383.63
605.698	43505.44
606.056	43652.55
606.413	43551.31
606.771	43604.87
607.128	43743.4
607.485	43547.7
607.843	43629.73
608.2	43788.14
608.557	43981.13
608.914	43716.96
609.272	44020.9
609.629	44053.45
609.986	44159.88
610.343	44031.53
610.7	44399.2
611.057	44153.78
611.414	44141.58
611.771	44266.55
612.127	44453.44
612.484	44464.96
612.841	44448.01
613.198	44353.1
613.554	44459.76
613.911	44518.29
614.267	44704.05
614.624	44557.61
614.98	44638.52
615.337	44892.07
615.693	44811.17
616.05	44812.07
616.406	45052.52
616.762	44900.2
617.118	44941.33
617.475	44884.84
617.831	45019.07
618.187	45036.92
618.543	45041.22
618.899	45355.56
619.255	45142.23
619.611	45099.29
619.967	45238.73
620.323	45339.29
620.678	45377.71
621.034	45144.26
621.39	45173.87
621.746	45092.97
622.101	45572.95
622.457	45229.01
622.812	45365.73
623.168	45348.55
623.523	45409.57
623.879	45387.42
624.234	45258.61
624.589	45303.81
624.945	45275.33
625.3	45401.89
625.655	45223.36
626.01	45291.38
626.365	45327.31
626.72	45454.54
627.075	45259.06
627.43	45315.33
627.785	45233.98
628.14	45271.27
628.495	45323.7
628.85	45351.72
629.205	45355.33
629.559	45372.51
629.914	45313.98
630.269	45231.95
630.623	45004.83
630.978	44922.58
631.332	45098.84
631.687	45131.16
632.041	45112.63
632.396	45056.58
632.75	44783.14
633.104	45013.19
633.459	44795.8
633.813	44756.7
634.167	44775.46
634.521	44765.29
634.875	44790.6
635.229	44699.76
635.583	44478.52
635.937	44426.54
636.291	44524.39
636.645	44451.63
636.999	44278.75
637.352	44470.38
637.706	44182.71
638.06	44399.43
638.413	44147
638.767	43970.51
639.121	44116.27
639.474	43869.04
639.828	43834.69
640.181	44033.56
640.534	44161.24
640.888	43754.02
641.241	43669.5
641.594	43673.8
641.947	43842.6
642.301	43757.41
642.654	43839.89
643.007	43700.91
643.36	43681.48
643.713	43662.95
644.066	43688.48
644.419	43382.73
644.771	43114.94
645.124	42771.67
645.477	42639.92
645.83	42333.49
646.182	42183.21
646.535	42079.26
646.888	42287.62
647.24	41903.67
647.593	42401.96
647.945	42339.37
648.298	42189.09
648.65	41809.44
649.002	41905.71
649.355	41936.44
649.707	41900.96
650.059	41956.78
650.411	42404.68
650.763	42431.79
651.115	42884.44
651.467	42803.31
651.819	42523.54
652.171	42608.74
652.523	42495.07
652.875	42470.21
653.227	42289.42
653.578	42541.85
653.93	42535.97
654.282	42349.54
654.633	42345.47
654.985	42421.4
655.337	42400.83
655.688	42380.27
656.039	42499.14
656.391	41957.91
656.742	42069.32
657.094	42137.34
657.445	42255.98
657.796	42096.21
658.147	42080.39
658.498	41926.5
658.849	41999.71
659.2	41885.59
659.551	41928.98
659.902	42139.15
660.253	41912.26
660.604	41957.91
660.955	41759.27
661.306	42014.63
661.656	41891.7
662.007	41886.05
662.358	41824.35
662.708	41767.86
663.059	41840.62
663.409	41380.3
663.76	41717.91
664.11	41534.87
664.461	41700.74
664.811	41746.16
665.161	41748.87
665.511	41659.38
665.862	41524.47
666.212	41697.58
666.562	41640.4
666.912	41645.6
667.262	41625.04
667.612	41645.83
667.962	41602.21
668.312	41491.03
668.662	41629.56
669.011	41448.77
669.361	41497.13
669.711	41556.34
670.06	41424.14
670.41	41250.58
670.76	41160.41
671.109	41352.95
671.459	41196.12
671.808	41234.09
672.157	41162.9
672.507	41008.1
672.856	41013.53
673.205	41116.57
673.554	41178.49
673.904	40913.19
674.253	41138.49
674.602	41045.39
674.951	40575.57
675.3	40442.02
675.649	41043.58
675.998	40940.31
676.346	40892.63
676.695	40946.18
677.044	40777.6
677.393	41026.41
677.741	40892.4
678.09	40694.89
678.438	40655.8
678.787	40689.92
679.135	40597.72
679.484	40573.99
679.832	40809.69
680.181	40320.89
680.529	40653.54
680.877	40405.63
681.225	40358.4
681.573	40688.79
681.922	40200.44
682.27	40103.72
682.618	40122.93
682.966	40043.38
683.314	40137.39
683.661	39950.28
684.009	39732.88
684.357	39767.46
684.705	39662.38
685.053	39782.6
685.4	39870.28
685.748	39561.59
686.095	39550.29
686.443	39423.74
686.79	39306.23
687.138	39294.02
687.485	39166.57
687.832	39191.65
688.18	39142.16
688.527	39076.63
688.874	38925.22
689.221	38762.51
689.568	38685.23
689.915	38619.46
690.262	38664.44
690.609	38667.83
690.956	38459.02
691.303	38348.96
691.65	38098.12
691.997	38250.66
692.344	38061.51
692.69	38080.5
693.037	38164.34
693.383	37812.48
693.73	37843.21
694.077	37563.9
694.423	37680.96
694.769	37507.4
695.116	37478.03
695.462	37416.33
695.808	37379.5
696.155	37331.14
696.501	36958.04
696.847	37101.54
697.193	36844.82
697.539	36942.22
697.885	36628.33
698.231	36665.17
698.577	36621.55
698.923	36607.99
699.269	36335.23
699.614	36015.47
699.96	36137.5
700.306	36153.77
700.651	35929.59
700.997	35889.82
701.342	35812.98
701.688	35727.79
702.033	35576.61
702.379	35555.82
702.724	35532.31
703.069	35505.42
703.415	35184.3
703.76	35157.63
704.105	35094.81
704.45	35010.75
704.795	34803.29
705.14	34610.3
705.485	34657.76
705.83	34476.75
706.175	34457.77
706.52	34522.62
706.865	34346.81
707.209	34237.89
707.554	34105.91
707.899	34196.53
708.243	34086.02
708.588	34106.36
708.932	33842.87
709.277	33805.13
709.621	33769.2
709.966	33570.78
710.31	33642.42
710.654	33343.22
710.998	33504.8
711.342	33470.9
711.687	33345.48
712.031	33195.2
712.375	33233.17
712.719	33242.66
713.063	33104.36
713.407	33193.62
713.75	32940.52
714.094	32901.42
714.438	32982.55
714.782	32792.27
715.125	32629.34
715.469	32719.05
715.812	32631.6
716.156	32498.27
716.499	32540.08
716.843	32544.14
717.186	32368.1
717.53	32240.65
717.873	32344.6
718.216	32176.24
718.559	32009.7
718.902	31804.28
719.246	31996.14
719.589	31802.69
719.932	31800.89
720.275	31755.01
720.617	31757.95
720.96	31673.66
721.303	31595.02
721.646	31646.77
721.989	31459.65
722.331	31483.16
722.674	31279.32
723.016	31435.7
723.359	31337.85
723.701	31335.81
724.044	31047.01
724.386	30916.16
724.729	31203.39
725.071	31052.21
725.413	30981.7
725.755	30982.15
726.097	30782.16
726.439	30675.72
726.782	30753.91
727.124	30692.22
727.465	30577.64
727.807	30528.38
728.149	30461.26
728.491	30473.69
728.833	30564.76
729.175	30346.01
729.516	30315.5
729.858	30227.37
730.199	30331.55
730.541	30208.16
730.882	30228.72
731.224	30294.03
731.565	30013.82
731.906	30096.07
732.248	29983.08
732.589	29913.25
732.93	29734.5
733.271	29791.22
733.612	29902.41
733.953	29753.94
734.294	29655.86
734.635	29546.93
734.976	29809.98
735.317	29460.16
735.658	29525.24
735.999	29594.39
736.339	29475.3
736.68	29504.45
737.021	29419.03
737.361	29223.1
737.702	29477.78
738.042	29282.31
738.383	29139.26
738.723	29279.37
739.063	29104.46
739.404	29229.88
739.744	29027.17
740.084	28908.08
740.424	29046.61
740.764	28949.21
741.104	29097.68
741.444	28803.9
741.784	28701.53
742.124	28732.72
742.464	28761.42
742.804	28653.85
743.143	28704.02
743.483	28547.64
743.823	28436.68
744.162	28437.36
744.502	28417.47
744.841	28309.91
745.181	28332.05
745.52	28199.4
745.86	28387.87
746.199	28167.99
746.538	28083.24
746.877	28151.94
747.216	27951.04
747.556	27991.04
747.895	28031.27
748.234	27840.54
748.573	27739.3
748.911	27768.9
749.25	27716.93
749.589	27721.22
749.928	27728.23
750.267	27664.72
750.605	27655.23
750.944	27434.9
751.283	27335.69
751.621	27396.03
751.96	27306.54
752.298	27222.7
752.636	27230.61
752.975	27132.76
753.313	26992.65
753.651	27074.68
753.989	27093.67
754.327	26935.48
754.666	26871.75
755.004	26995.59
755.342	26809.83
755.679	26779.32
756.017	26604.19
756.355	26572.32
756.693	26405.55
757.031	26419.33
757.368	26374.14
757.706	26290.3
758.044	26184.76
758.381	26356.06
758.719	26106.12
759.056	26230.64
759.394	26130.08
759.731	25996.29
760.068	25821.84
760.405	25763.31
760.743	25706.13
761.08	25741.39
761.417	25687.83
761.754	25593.82
762.091	25340.94
762.428	25379.36
762.765	25246.48
763.102	25319.02
763.438	25198.57
763.775	25123.32
764.112	24968.52
764.449	25080.61
764.785	24907.73
765.122	24714.52
765.458	24576.67
765.795	24609.21
766.131	24519.95
766.467	24471.14
766.804	24393.62
767.14	24184.82
767.476	24071.15
767.812	24106.85
768.148	24074.08
768.485	23955.22
768.821	23873.41
769.157	23842
769.492	23860.76
769.828	23811.27
770.164	23520.2
770.5	23490.82
770.836	23465.74
771.171	23376.02
771.507	23286.99
771.842	23173.32
772.178	23062.13
772.513	23015.13
772.849	22914.79
773.184	22808.36
773.519	22793.89
773.855	22744.63
774.19	22660.79
774.525	22439.1
774.86	22475.93
775.195	22407.91
775.53	22222.38
775.865	22157.07
776.2	22101.48
776.535	22000.24
776.87	21895.16
777.205	21836.63
777.539	21703.53
777.874	21781.94
778.209	21505.79
778.543	21612.23
778.878	21444.55
779.212	21435.96
779.547	21252.24
779.881	21442.06
780.215	21125.46
780.55	21198.45
780.884	21025.35
781.218	20956.2
781.552	20995.07
781.886	20793.27
782.22	20798.46
782.554	20757.79
782.888	20443.22
783.222	20434.18
783.556	20261.76
783.889	20308.53
784.223	20130.01
784.557	20096.34
784.89	20235.32
785.224	19943.35
785.557	19975.21
785.891	19859.05
786.224	19862.44
786.558	19728.21
786.891	19615.22
787.224	19649.12
787.557	19599.17
787.891	19533.19
788.224	19468.1
788.557	19517.14
788.89	19365.51
789.223	19382.46
789.556	19241.67
789.888	19050.49
790.221	19078.28
790.554	18860.66
790.887	18924.16
791.219	18856.14
791.552	18833.54
791.884	18664.51
792.217	18556.49
792.549	18598.07
792.882	18511.29
793.214	18412.99
793.546	18344.07
793.879	18238.98
794.211	18082.6
794.543	18202.6
794.875	18145.88
795.207	18173
795.539	18054.13
795.871	18013.45
796.203	17818.88
796.535	17865.66
796.867	17704.76
797.198	17629.06
797.53	17598.77
797.862	17582.96
798.193	17663.63
798.525	17443.52
798.856	17407.59
799.188	17328.73
799.519	17248.95
799.85	17151.33
800.182	17150.42
800.513	17208.5
800.844	16963.76
801.175	17088.73
801.506	17046.92
801.837	16930.77
802.168	16931.67
802.499	16900.94
802.83	16680.61
803.161	16694.39
803.491	16821.62
803.822	16710.21
804.153	16613.49
804.483	16505.47
804.814	16409.43
805.145	16467.28
805.475	16475.87
805.805	16355.19
806.136	16303.89
806.466	16304.35
806.796	16173.05
807.126	16145.25
807.457	16114.29
807.787	16055.54
808.117	15943.22
808.447	15960.63
808.777	15854.41
809.107	15783.23
809.436	15773.96
809.766	15796.79
810.096	15716.11
810.426	15736.22
810.755	15646.06
811.085	15591.37
811.414	15588.43
811.744	15440.41
812.073	15345.5
812.403	15296.24
812.732	15299.4
813.061	15303.24
813.39	15175.11
813.719	15204.04
814.049	15298.27
814.378	15239.97
814.707	15115.45
815.036	15063.7
815.365	15025.73
815.693	14954.32
816.022	14934.89
816.351	14919.97
816.68	14774.44
817.008	14836.14
817.337	14761.56
817.665	14603.37
817.994	14738.51
818.322	14642.92
818.651	14717.49
818.979	14552.98
819.307	14648.8
819.636	14638.63
819.964	14425.07
820.292	14468.24
820.62	14476.14
820.948	14400.67
821.276	14435.02
821.604	14442.02
821.932	14436.82
822.259	14454
822.587	14387.11
822.915	14317.28
823.243	14388.92
823.57	14471.63
823.898	14436.82
824.225	14377.84
824.553	14276.15
824.88	14346.66
825.207	14419.65
825.535	14273.44
825.862	14312.76
826.189	14234.12
826.516	14433.21
826.843	14370.61
827.17	14424.17
827.497	14460.1
827.824	14398.18
828.151	14306.21
828.478	14269.82
828.805	14396.37
829.131	14220.78
829.458	14312.99
829.785	14274.79
830.111	14220.56
830.438	14336.04
830.764	14220.33
831.09	14369.25
831.417	14254.46
831.743	14267.11
832.069	14218.75
832.395	14159.09
832.722	14220.33
833.048	14163.84
833.374	14190.73
833.7	14164.97
834.026	14167
834.351	14215.13
834.677	14093.56
835.003	14150.28
835.329	14160.67
835.654	14126.32
835.98	13964.52
836.306	14075.25
836.631	13987.34
836.956	14021.47
837.282	14046.55
837.607	13998.42
837.932	13869.38
838.258	13902.15
838.583	13997.29
838.908	13805.65
839.233	13865.54
839.558	13795.03
839.883	13715.26
840.208	13785.77
840.533	13761.59
840.858	13663.74
841.182	13800.91
841.507	13730.85
841.832	13660.35
842.156	13616.05
842.481	13638.43
842.805	13566.11
843.13	13549.16
843.454	13517.07
843.778	13454.02
844.103	13377.87
844.427	13354.59
844.751	13359.56
845.075	13337.87
845.399	13302.16
845.723	13250.64
846.047	13308.27
846.371	13080.48
846.695	13120.47
847.019	12977.88
847.343	12960.93
847.666	12840.48
847.99	12745.12
848.313	12776.53
848.637	12661.5
848.96	12739.92
849.284	12650.2
849.607	12558.68
849.931	12625.12
850.254	12439.14
850.577	12406.82
850.9	12331.57
851.223	12289.54
851.546	12297.45
851.869	12198.69
852.192	12238.69
852.515	12122.31
852.838	12090.22
853.161	11974.29
853.483	11897.46
853.806	12002.99
854.129	11924.35
854.451	11940.84
854.774	11869.89
855.096	11833.95
855.419	11788.31
855.741	11749.89
856.063	11682.32
856.385	11657.91
856.708	11647.97
857.03	11550.12
857.352	11586.28
857.674	11539.72
857.996	11523.68
858.318	11390.58
858.64	11357.58
858.961	11372.5
859.283	11364.14
859.605	11241.2
859.926	11334.53
860.248	11289.34
860.57	11227.19
860.891	11238.26
861.212	11157.14
861.534	11138.38
861.855	11156.23
862.176	11154.65
862.498	11110.13
862.819	11157.59
863.14	11017.93
863.461	11063.58
863.782	11003.92
864.103	10951.49
864.424	10936.12
864.745	10986.75
865.065	10842.12
865.386	10778.16
865.707	10825.62
866.027	10918.5
866.348	10878.73
866.668	10770.71
866.989	10863.58
867.309	10718.73
867.63	10690.93
867.95	10814.77
868.27	10612.97
868.59	10722.35
868.91	10663.59
869.23	10697.94
869.55	10628.34
869.87	10657.49
870.19	10631.05
870.51	10582.01
870.83	10652.97
871.15	10558.06
871.469	10497.94
871.789	10561.22
872.109	10503.82
872.428	10365.29
872.748	10467.44
873.067	10392.64
873.386	10406.42
873.706	10436.7
874.025	10374.78
874.344	10340.21
874.663	10359.87
874.982	10318.51
875.301	10309.47
875.62	10271.28
875.939	10236.48
876.258	10216.37
876.577	10154
876.896	10170.95
877.214	10166.2
877.533	10197.61
877.852	10114.68
878.17	10180.89
878.489	10192.87
878.807	10064.06
879.125	10104.28
879.444	10098.18
879.762	10038.97
880.08	10000.78
880.398	10003.04
880.716	10014.79
881.034	9923.27
881.352	9972.99
881.67	9934.34
881.988	9980.22
882.306	9914.91
882.624	9913.1
882.941	9865.42
883.259	9757.17
883.577	9751.07
883.894	9805.53
884.212	9810.96
884.529	9777.74
884.846	9763.27
885.164	9772.77
885.481	9657.51
885.798	9689.83
886.115	9598.76
886.432	9618.65
886.75	9560.34
887.067	9532.09
887.383	9587.46
887.7	9548.14
888.017	9556.27
888.334	9465.88
888.651	9422.72
888.967	9411.42
889.284	9336.17
889.6	9317.86
889.917	9297.98
890.233	9318.77
890.55	9229.96
890.866	9292.33
891.182	9219.79
891.498	9228.83
891.815	9125.1
892.131	9054.14
892.447	9074.25
892.763	9033.35
893.079	9023.63
893.395	9010.07
893.71	9035.61
894.026	9031.54
894.342	8968.94
894.657	8940.92
894.973	8917.19
895.289	8887.59
895.604	8819.12
895.92	8810.98
896.235	8720.36
896.55	8765.56
896.865	8694.15
897.181	8613.02
897.496	8721.95
897.811	8692.12
898.126	8606.47
898.441	8629.29
898.756	8552.68
899.071	8542.06
899.386	8570.76
899.7	8469.52
900.015	8449.86
900.33	8432.01
900.644	8375.06
900.959	8420.03
901.273	8329.87
901.588	8299.81
901.902	8201.06
902.216	8163.54
902.531	8144.33
902.845	8173.03
903.159	8184.78
903.473	8026.37
903.787	8018.24
904.101	7985.24
904.415	7906.15
904.729	7898.46
905.042	7989.76
905.356	7889.65
905.67	7873.61
905.984	7879.03
906.297	7839.71
906.611	7779.82
906.924	7796.55
907.237	7806.49
907.551	7714.29
907.864	7737.79
908.177	7627.51
908.491	7632.26
908.804	7627.29
909.117	7548.42
909.43	7530.34
909.743	7550.68
910.056	7526.27
910.368	7432.71
910.681	7385.48
910.994	7386.84
911.307	7314.75
911.619	7306.62
911.932	7341.42
912.244	7258.48
912.557	7256
912.869	7192.72
913.181	7203.34
913.494	7100.75
913.806	7099.39
914.118	7021.65
914.43	7036.79
914.742	7018.26
915.054	6978.94
915.366	6975.1
915.678	6929
915.99	6871.82
916.302	6880.19
916.613	6850.36
916.925	6824.82
917.236	6771.49
917.548	6718.83
917.859	6764.03
918.171	6726.29
918.482	6648.33
918.794	6626.18
919.105	6630.25
919.416	6540.53
919.727	6550.93
920.038	6562.23
920.349	6492.85
920.66	6496.47
920.971	6454.66
921.282	6445.4
921.593	6372.18
921.903	6403.36
922.214	6348.67
922.525	6334.21
922.835	6330.82
923.146	6240.43
923.456	6257.6
923.767	6172.18
924.077	6194.1
924.387	6139.64
924.697	6151.17
925.008	6082.69
925.318	6042.92
925.628	6053.32
925.938	6012.41
926.248	5990.27
926.558	5960.44
926.867	5958.63
927.177	5932.41
927.487	5964.05
927.796	5852.19
928.106	5848.58
928.416	5804.28
928.725	5776.03
929.034	5766.77
929.344	5752.31
929.653	5755.24
929.962	5696.94
930.271	5600.22
930.581	5619.88
930.89	5673.89
931.199	5589.15
931.508	5617.85
931.817	5559.09
932.125	5529.49
932.434	5509.37
932.743	5447
933.051	5450.17
933.36	5478.64
933.669	5361.81
933.977	5404.74
934.286	5343.28
934.594	5344.86
934.902	5296.05
935.21	5277.06
935.519	5271.19
935.827	5270.96
936.135	5223.51
936.443	5115.94
936.751	5164.07
937.059	5189.84
937.367	5175.37
937.674	5138.54
937.982	5118.88
938.29	5040.69
938.597	5060.35
938.905	5044.53
939.213	5063.96
939.52	4991.2
939.827	5025.32
940.135	4976.73
940.442	4910.52
940.749	4907.36
941.056	4911.42
941.363	4851.31
941.67	4816.06
941.977	4776.74
942.284	4782.84
942.591	4793.91
942.898	4787.13
943.205	4778.09
943.511	4715.27
943.818	4683.63
944.125	4664.2
944.431	4673.24
944.738	4611.09
945.044	4597.99
945.35	4612.9
945.657	4555.73
945.963	4546.69
946.269	4564.99
946.575	4546.24
946.881	4519.34
947.187	4495.62
947.493	4468.27
947.799	4441.83
948.105	4424.43
948.41	4358.9
948.716	4360.7
949.022	4373.13
949.327	4329.07
949.633	4325.9
949.938	4327.49
950.244	4332.68
950.549	4260.82
950.854	4285.23
951.16	4297.88
951.465	4214.04
951.77	4198.67
952.075	4176.08
952.38	4139.47
952.685	4144.44
952.99	4125.68
953.294	4103.08
953.599	4090.66
953.904	4083.42
954.209	4029.64
954.513	4019.7
954.818	4012.01
955.122	3999.13
955.426	4002.07
955.731	3959.13
956.035	3970.66
956.339	3912.35
956.643	3922.75
956.948	3880.72
957.252	3863.99
957.556	3890.89
957.86	3838.23
958.163	3830.77
958.467	3818.57
958.771	3792.81
959.075	3822.41
959.378	3736.99
959.682	3771.57
959.985	3700.61
960.289	3695.41
960.592	3678.91
960.896	3673.49
961.199	3644.79
961.502	3628.97
961.805	3621.51
962.108	3572.93
962.411	3614.06
962.714	3572.48
963.017	3577.67
963.32	3528.86
963.623	3539.03
963.926	3540.84
964.228	3520.27
964.531	3483.44
964.833	3453.38
965.136	3488.86
965.438	3464.68
965.741	3424.46
966.043	3436.66
966.345	3398.47
966.648	3420.39
966.95	3388.98
967.252	3402.54
967.554	3365.48
967.856	3332.93
968.158	3334.52
968.46	3305.37
968.761	3273.28
969.063	3292.26
969.365	3284.35
969.666	3236.44
969.968	3245.03
970.269	3241.19
970.571	3220.17
970.872	3202.77
971.174	3204.12
971.475	3168.19
971.776	3160.51
972.077	3153.28
972.378	3131.81
972.679	3147.4
972.98	3112.15
973.281	3081.19
973.582	3094.52
973.883	3062.21
974.183	3038.03
974.484	3032.83
974.785	3017.69
975.085	3007.07
975.386	2969.55
975.686	3016.33
975.986	2991.93
976.287	2977.01
976.587	2969.33
976.887	2939.5
977.187	2899.5
977.487	2847.75
977.787	2858.37
978.087	2856.11
978.387	2854.53
978.687	2909.67
978.987	2874.42
979.286	2795.55
979.586	2819.5
979.885	2778.83
980.185	2785.6
980.484	2736.11
980.784	2740.63
981.083	2736.57
981.382	2734.76
981.682	2727.53
981.981	2698.83
982.28	2711.48
982.579	2697.25
982.878	2712.16
983.177	2653.18
983.475	2690.24
983.774	2642.56
984.073	2659.96
984.372	2605.5
984.67	2610.69
984.969	2598.04
985.267	2590.13
985.566	2588.32
985.864	2589.68
986.162	2581.99
986.461	2542.67
986.759	2554.2
987.057	2505.61
987.355	2473.97
987.653	2506.97
987.951	2462.9
988.249	2449.79
988.547	2445.5
988.844	2447.31
989.142	2480.98
989.44	2441.43
989.737	2414.99
990.035	2379.06
990.332	2399.17
990.63	2407.31
990.927	2359.63
991.224	2379.51
991.521	2377.93
991.819	2312.85
992.116	2306.75
992.413	2313.98
992.71	2305.17
993.006	2287.99
993.303	2297.26
993.6	2292.96
993.897	2237.37
994.193	2266.07
994.49	2257.93
994.787	2238.95
995.083	2226.98
995.379	2201.89
995.676	2219.74
995.972	2197.15
996.268	2191.04
996.565	2157.6
996.861	2134.1
997.157	2148.33
997.453	2125.28
997.749	2114.21
998.044	2131.61
998.34	2125.06
998.636	2118.5
998.932	2077.15
999.227	2083.25
999.523	2078.05
999.818	2062.91
1000.114	2055.23
1000.409	2023.59
1000.704	2023.59
1001	1987.21
1001.295	1999.41
1001.59	1979.98
1001.885	1971.16
1002.18	1962.35
1002.475	1977.49
1002.77	1957.15
1003.065	1935.68
1003.359	1917.6
1003.654	1893.2
1003.949	1916.7
1004.243	1895.68
1004.538	1892.07
1004.832	1861.56
1005.127	1871.96
1005.421	1840.32
1005.715	1880.09
1006.009	1849.36
1006.304	1838.51
1006.598	1817.95
1006.892	1784.28
1007.186	1770.94
1007.48	1762.58
1007.773	1754.9
1008.067	1774.33
1008.361	1717.84
1008.655	1773.2
1008.948	1766.65
1009.242	1747.89
1009.535	1707.21
1009.829	1720.55
1010.122	1684.39
1010.415	1690.49
1010.708	1657.27
1011.001	1654.11
1011.295	1694.11
1011.588	1668.57
1011.881	1630.15
1012.173	1610.95
1012.466	1607.78
1012.759	1622.7
1013.052	1635.58
1013.344	1615.01
1013.637	1580.44
1013.93	1566.88
1014.222	1596.48
1014.514	1574.56
1014.807	1546.32
1015.099	1541.57
1015.391	1523.72
1015.683	1509.03
1015.976	1529.59
1016.268	1505.64
1016.56	1487.33
1016.851	1488.92
1017.143	1454.11
1017.435	1471.74
1017.727	1461.8
1018.018	1471.74
1018.31	1454.11
1018.602	1455.47
1018.893	1446.2
1019.185	1420.44
1019.476	1410.95
1019.767	1396.26
1020.058	1391.97
1020.35	1379.99
1020.641	1398.97
1020.932	1337.51
1021.223	1344.06
1021.514	1354
1021.804	1351.29
1022.095	1327.34
1022.386	1321.46
1022.677	1275.59
1022.967	1279.2
1023.258	1294.12
1023.548	1263.84
1023.839	1288.47
1024.129	1281.92
1024.419	1273.33
1024.709	1260.67
1025	1255.25
1025.29	1232.43
1025.58	1235.14
1025.87	1206.66
1026.16	1227
1026.449	1189.26
1026.739	1180.45
1027.029	1180.68
1027.319	1179.09
1027.608	1150.17
1027.898	1144.29
1028.187	1168.7
1028.477	1154.91
1028.766	1133.67
1029.055	1139.77
1029.344	1126.21
1029.634	1127.57
1029.923	1121.92
1030.212	1122.6
1030.501	1110.17
1030.79	1102.49
1031.078	1084.63
1031.367	1082.6
1031.656	1065.2
1031.945	1091.41
1032.233	1056.16
1032.522	1036.05
1032.81	1021.36
1033.099	1040.11
1033.387	1043.5
1033.675	1016.84
1033.963	1034.24
1034.251	1032.66
1034.54	1013
1034.828	1000.57
1035.116	988.36
1035.403	989.49
1035.691	967.57
1035.979	999.21
1036.267	964.41
1036.554	944.3
1036.842	954.47
1037.129	955.6
1037.417	939.33
1037.704	960.57
1037.992	946.78
1038.279	923.05
1038.566	931.42
1038.853	931.42
1039.14	931.42
