Data from plate_porcelain_FLMS001491_085.txt Node
Date: Tue Feb 07 11:20:02 GMT 2017
User: dcchb
Spectrometer: FLMS00149
Trigger mode: 0
Integration Time (sec): 2.000000E-2
Scans to average: 10
Electric dark correction enabled: true
Nonlinearity correction enabled: false
Boxcar width: 0
XAxis mode: Wavelengths
Number of Pixels in Spectrum: 2048
>>>>>Begin Spectral Data<<<<<
341.393	12.53
341.776	12.53
342.16	12.53
342.543	-61.14
342.927	-60.01
343.31	-74.02
343.693	-66.11
344.077	-62.72
344.46	-64.08
344.843	-53.69
345.226	-42.84
345.61	-33.8
345.993	-26.12
346.376	10.04
346.759	2.13
347.142	15.01
347.525	43.94
347.908	52.53
348.291	92.98
348.674	94.56
349.057	112.19
349.44	118.06
349.823	139.76
350.206	165.74
350.588	226.08
350.971	255.23
351.354	259.08
351.737	281.22
352.119	271.5
352.502	304.5
352.884	313.54
353.267	330.03
353.65	321.22
354.032	339.75
354.414	344.72
354.797	337.04
355.179	386.53
355.562	355.57
355.944	367.77
356.326	391.05
356.709	382.01
357.091	378.62
357.473	387.21
357.855	406.42
358.238	408
358.62	403.7
359.002	390.37
359.384	388.79
359.766	401.9
360.148	408
360.53	389.47
360.912	393.31
361.294	389.69
361.676	405.06
362.057	387.66
362.439	412.07
362.821	375.23
363.203	381.33
363.584	399.64
363.966	379.07
364.348	412.52
364.729	381.33
365.111	396.47
365.493	387.21
365.874	394.66
366.256	389.92
366.637	384.04
367.019	400.99
367.4	408.68
367.781	396.02
368.163	386.3
368.544	406.64
368.925	392.86
369.306	416.13
369.688	377.94
370.069	395.12
370.45	403.25
370.831	406.42
371.212	392.18
371.593	412.07
371.974	389.69
372.355	407.32
372.736	422.01
373.117	400.54
373.498	422.69
373.879	396.25
374.26	422.23
374.641	391.05
375.021	416.59
375.402	415.23
375.783	421.78
376.163	450.71
376.544	452.52
376.925	454.78
377.305	462.23
377.686	450.93
378.066	462.46
378.447	480.76
378.827	469.24
379.208	476.7
379.588	472.85
379.968	485.51
380.349	477.6
380.729	463.82
381.109	503.36
381.489	499.75
381.87	505.62
382.25	490.71
382.63	517.37
383.01	520.99
383.39	519.63
383.77	531.61
384.15	513.31
384.53	531.61
384.91	519.41
385.29	561.21
385.67	558.73
386.049	541.1
386.429	559.41
386.809	563.02
387.189	560.99
387.568	583.13
387.948	563.7
388.328	582
388.707	586.07
389.087	586.52
389.466	598.95
389.846	596.02
390.225	634.21
390.605	604.15
390.984	614.55
391.363	640.31
391.743	628.56
392.122	650.03
392.501	665.17
392.881	665.84
393.26	680.53
393.639	676.47
394.018	683.24
394.397	685.96
394.776	684.15
395.155	710.14
395.534	731.61
395.913	713.75
396.292	701.1
396.671	726.86
397.05	758.5
397.429	748.1
397.808	749.01
398.186	753.75
398.565	754.43
398.944	770.7
399.323	787.2
399.701	780.64
400.08	805.73
400.458	814.54
400.837	828.78
401.215	837.14
401.594	832.62
401.972	854.54
402.351	829.46
402.729	862.22
403.107	850.92
403.486	899.06
403.864	891.15
404.242	892.28
404.62	893.86
404.999	921.2
405.377	904.26
405.755	945.84
406.133	926.4
406.511	987.19
406.889	968.89
407.267	995.1
407.645	1000.07
408.023	1017.25
408.401	1021.09
408.779	1017.47
409.156	1054.08
409.534	1050.92
409.912	1091.37
410.29	1092.73
410.667	1114.87
411.045	1177.02
411.422	1129.79
411.8	1160.97
412.178	1170.92
412.555	1204.14
412.933	1244.36
413.31	1215.89
413.687	1256.11
414.065	1231.93
414.442	1253.4
414.819	1291.36
415.197	1321.42
415.574	1306.96
415.951	1339.72
416.328	1332.27
416.705	1336.56
417.082	1366.39
417.46	1382.21
417.837	1387.41
418.214	1435.09
418.591	1422.89
418.967	1430.57
419.344	1458.59
419.721	1469.21
420.098	1511.7
420.475	1479.83
420.852	1513.73
421.228	1566.16
421.605	1554.86
421.982	1546.95
422.358	1574.29
422.735	1612.94
423.111	1592.15
423.488	1650.9
423.864	1664.24
424.241	1678.47
424.617	1687.06
424.994	1698.59
425.37	1743.56
425.746	1756.89
426.123	1778.58
426.499	1784.23
426.875	1803.22
427.251	1829.2
427.627	1886.83
428.003	1898.35
428.379	1917.34
428.756	1962.76
429.132	1965.7
429.507	2018.12
429.883	2041.4
430.259	2038.46
430.635	2092.02
431.011	2080.5
431.387	2126.82
431.763	2159.59
432.138	2204.33
432.514	2222.64
432.89	2223.54
433.265	2283.65
433.641	2319.81
434.016	2333.14
434.392	2384.44
434.767	2416.08
435.143	2426.25
435.518	2440.94
435.894	2482.07
436.269	2517.09
436.644	2535.4
437.02	2584.66
437.395	2595.06
437.77	2657.43
438.145	2681.84
438.52	2706.69
438.895	2745.34
439.271	2746.69
439.646	2800.93
440.021	2809.06
440.395	2849.97
440.77	2828.27
441.145	2898.1
441.52	2924.77
441.895	2947.14
442.27	2990.3
442.645	2957.54
443.019	2999.12
443.394	3021.71
443.769	3064.65
444.143	3052
444.518	3131.54
444.892	3120.69
445.267	3147.36
445.641	3191.43
446.016	3174.48
446.39	3194.82
446.764	3215.61
447.139	3253.8
447.513	3288.15
447.887	3323.85
448.262	3305.55
448.636	3313.91
449.01	3402.95
449.384	3433.91
449.758	3433.23
450.132	3508.48
450.506	3499.89
450.88	3575.6
451.254	3573.11
451.628	3647.46
452.002	3701.47
452.376	3714.13
452.75	3734.92
453.123	3785.99
453.497	3837.06
453.871	3864.4
454.244	3928.36
454.618	3979.43
454.992	4008.58
455.365	4044.29
455.739	4149.14
456.112	4194.34
456.486	4255.35
456.859	4275.92
457.232	4347.33
457.606	4326.99
457.979	4445.86
458.352	4515.23
458.725	4549.81
459.099	4592.75
459.472	4701.22
459.845	4734.44
460.218	4823.47
460.591	4821.89
460.964	4823.47
461.337	4983.24
461.71	5034.77
462.083	5118.16
462.456	5105.28
462.829	5154.09
463.201	5301.88
463.574	5308.89
463.947	5391.14
464.32	5465.04
464.692	5490.8
465.065	5605.83
465.438	5646.5
465.81	5735.09
466.183	5841.98
466.555	5950.22
466.928	5968.98
467.3	6008.75
467.672	6048.3
468.045	6248.97
468.417	6253.49
468.789	6332.36
469.161	6402.87
469.534	6501.62
469.906	6643.77
470.278	6750.43
470.65	6790.2
471.022	6871.1
471.394	7080.14
471.766	7079.23
472.138	7198.1
472.51	7341.15
472.882	7500.47
473.253	7556.74
473.625	7716.05
473.997	7917.18
474.369	7911.76
474.74	8083.73
475.112	8193.78
475.484	8301.12
475.855	8486.88
476.227	8484.85
476.598	8779.53
476.97	8817.49
477.341	9065.17
477.713	9180.2
478.084	9225.39
478.455	9520.98
478.827	9607.08
479.198	9873.06
479.569	9868.31
479.94	10191.92
480.311	10277.79
480.682	10479.37
481.053	10739.03
481.424	10849.98
481.795	11016.76
482.166	11158.9
482.537	11362.06
482.908	11632.79
483.279	11653.35
483.65	11856.06
484.021	12248.59
484.391	12344.41
484.762	12556.15
485.133	12565.64
485.503	12765.64
485.874	13003.15
486.244	13134.67
486.615	13427.54
486.985	13676.58
487.356	13861.66
487.726	13978.49
488.097	14230.46
488.467	14371.25
488.837	14667.51
489.207	14852.14
489.578	15048.52
489.948	15185.46
490.318	15423.2
490.688	15450.31
491.058	15706.58
491.428	16011.66
491.798	16075.38
492.168	16436.73
492.538	16471.3
492.908	16772.77
493.278	16984.51
493.648	16896.15
494.017	17231.51
494.387	17416.36
494.757	17547.21
495.126	17716.47
495.496	17808.44
495.866	18072.62
496.235	18156.91
496.605	18367.98
496.974	18436.22
497.344	18670.79
497.713	18858.81
498.082	18959.37
498.452	19129.54
498.821	19218.8
499.19	19301.51
499.559	19545.57
499.928	19647.27
500.298	19878.9
500.667	19994.38
501.036	20041.38
501.405	20213.58
501.774	20372.22
502.143	20518.2
502.512	20579.44
502.88	20809.5
503.249	20896.05
503.618	21008.36
503.987	21120
504.356	21302.59
504.724	21417.16
505.093	21467.56
505.462	21578.51
505.83	21804.5
506.199	22008.11
506.567	22280.87
506.936	22274.77
507.304	22520.41
507.672	22756.11
508.041	22829.1
508.409	22950
508.777	23102.09
509.145	23427.05
509.514	23434.96
509.882	23635.41
510.25	23660.72
510.618	23849.87
510.986	23884.22
511.354	24176.41
511.722	24471.09
512.09	24665.44
512.458	24638.1
512.826	24949.95
513.193	25049.16
513.561	25137.97
513.929	25399.88
514.297	25667.45
514.664	25850.94
515.032	25957.83
515.4	26157.15
515.767	26320.31
516.135	26442.79
516.502	26396.69
516.869	26942.22
517.237	27020.18
517.604	26909.9
517.972	27365.48
518.339	27652.48
518.706	27648.86
519.073	27760.72
519.44	28073.26
519.808	28402.52
520.175	28393.48
520.542	28828.27
520.909	28932.22
521.276	29007.02
521.643	29340.57
522.009	29520.68
522.376	29842.25
522.743	29979.42
523.11	30275.01
523.477	30524.04
523.843	30743.7
524.21	31095.1
524.577	31298.94
524.943	31393.85
525.31	31481.76
525.676	31988.41
526.043	32110.44
526.409	32158.58
526.776	32759.24
527.142	32705.23
527.508	32977.08
527.874	33138.21
528.241	33324.65
528.607	33604.64
528.973	33892.77
529.339	33908.36
529.705	34201.23
530.071	34455.92
530.437	34722.58
530.803	34856.58
531.169	35077.82
531.535	35071.27
531.901	35210.7
532.267	35459.51
532.632	35662.89
532.998	35874.86
533.364	36132.48
533.73	36282.08
534.095	36494.05
534.461	36647.27
534.826	36765.69
535.192	36969.3
535.557	37302.85
535.923	37182.4
536.288	37281.38
536.653	37494.71
537.019	37523.63
537.384	37768.6
537.749	37917.52
538.114	37926.11
538.479	38142.82
538.845	38322.03
539.21	38378.07
539.575	38471.4
539.94	38729.02
540.305	38896.25
540.67	38878.85
541.034	39026.87
541.399	39163.59
541.764	39377.82
542.129	39620.07
542.494	39563.58
542.858	39883.57
543.223	39941.65
543.587	40149.55
543.952	40156.11
544.316	40258.48
544.681	40343.44
545.045	40553.83
545.41	40754.96
545.774	40650.33
546.138	40886.26
546.503	41039.7
546.867	40956.99
547.231	41429.74
547.595	41582.51
547.959	41571.89
548.324	41771.2
548.688	41796.97
549.052	41989.28
549.416	42161.25
549.779	42121.25
550.143	42252.1
550.507	42609.83
550.871	42777.96
551.235	42695.47
551.599	43160.09
551.962	43144.05
552.326	43169.36
552.689	43502.46
553.053	43322.12
553.417	43511.27
553.78	44079.17
554.143	43979.96
554.507	44239.61
554.87	44269.67
555.234	44830.11
555.597	44467.86
555.96	44861.29
556.323	44893.83
556.686	45042.98
557.05	45299.7
557.413	45513.25
557.776	45511.22
558.139	45911.66
558.502	45876.86
558.865	45986.01
559.228	46354.81
559.59	46416.96
559.953	46511.64
560.316	46882.93
560.679	46969.26
561.041	47153.44
561.404	47371.51
561.767	47623.03
562.129	47484.95
562.492	47895.34
562.854	47869.12
563.217	47931.72
563.579	48213.29
563.941	48509.78
564.304	48614.64
564.666	48823.22
565.028	48930.56
565.39	49107.51
565.753	49157
566.115	49364.9
566.477	49568.97
566.839	49506.14
567.201	49900.26
567.563	49892.8
567.925	50163.53
568.287	50119.91
568.648	50232.22
569.01	50452.33
569.372	50671.53
569.734	50543.4
570.095	50979.1
570.457	50929.16
570.819	51064.97
571.18	51065.87
571.542	51248.92
571.903	51298.64
572.265	51444.85
572.626	51518.29
572.987	51608.91
573.349	51697.72
573.71	51897.04
574.071	51937.04
574.432	52032.4
574.794	52212.96
575.155	52188.11
575.516	52135.68
575.877	52256.35
576.238	52309.01
576.599	52467.65
576.96	52526.4
577.32	52465.16
577.681	52648.21
578.042	52672.61
578.403	52778.6
578.763	52796.22
579.124	52877.58
579.485	52939.72
579.845	53002.77
580.206	52974.07
580.566	53074.18
580.927	53083.9
581.287	53178.36
581.648	53115.31
582.008	53161.41
582.368	53137.23
582.728	53273.5
583.089	53222.65
583.449	53217.68
583.809	53225.14
584.169	53343.33
584.529	53280.05
584.889	53499.26
585.249	53194.18
585.609	53220.85
585.969	53370.9
586.329	53362.76
586.688	53289.55
587.048	53373.16
587.408	53328.41
587.768	53247.29
588.127	53337.91
588.487	53292.26
588.846	53555.75
589.206	53331.35
589.565	53336.78
589.925	53471.69
590.284	53392.37
590.643	53421.75
591.003	53610.89
591.362	53573.15
591.721	53557.33
592.08	53552.82
592.44	53589.42
592.799	53726.6
593.158	53581.74
593.517	53580.84
593.876	53605.7
594.235	53587.62
594.593	53584.9
594.952	53651.34
595.311	53672.59
595.67	53698.12
596.029	53808.18
596.387	53789.64
596.746	53805.69
597.104	53726.6
597.463	53759.14
597.822	53917.1
598.18	53725.92
598.538	53739.93
598.897	53971.34
599.255	53682.53
599.613	54152.57
599.972	53838.23
600.33	53947.83
600.688	53986.48
601.046	54050.88
601.404	54142.18
601.762	54057.43
602.12	54261.05
602.478	54184.21
602.836	54190.54
603.194	54042.75
603.552	54165.45
603.91	54097.89
604.268	54273.25
604.625	54239.8
604.983	54294.26
605.341	54189.86
605.698	54345.34
606.056	54344.88
606.413	54423.53
606.771	54486.58
607.128	54508.27
607.485	54355.96
607.843	54446.58
608.2	54577.42
608.557	54626.91
608.914	54468.27
609.272	54697.64
609.629	54765.44
609.986	54778.55
610.343	54695.38
610.7	54897.64
611.057	54877.53
611.414	54845.21
611.771	54861.71
612.127	54927.24
612.484	54953.23
612.841	55062.15
613.198	54952.33
613.554	54941.93
613.911	55183.96
614.267	55098.09
614.624	55144.41
614.98	55095.6
615.337	55359.1
615.693	55302.6
616.05	55209.27
616.406	55363.16
616.762	55297.4
617.118	55247.23
617.475	55308.02
617.831	55353.67
618.187	55424.4
618.543	55401.58
618.899	55572.2
619.255	55399.77
619.611	55447.23
619.967	55524.74
620.323	55541.46
620.678	55505.53
621.034	55433.67
621.39	55442.48
621.746	55446.78
622.101	55706.66
622.457	55566.77
622.812	55533.1
623.168	55623.5
623.523	55621.46
623.879	55813.77
624.234	55586.66
624.589	55636.6
624.945	55564.51
625.3	55641.35
625.655	55640.22
626.01	55603.83
626.365	55675.7
626.72	55606.77
627.075	55588.24
627.43	55536.04
627.785	55448.36
628.14	55531.29
628.495	55549.6
628.85	55448.58
629.205	55384.63
629.559	55554.12
629.914	55437.96
630.269	55551.41
630.623	55504.4
630.978	55308.7
631.332	55449.26
631.687	55400.9
632.041	55364.97
632.396	55450.39
632.75	55228.93
633.104	55318.64
633.459	55168.59
633.813	55215.6
634.167	55164.98
634.521	55113.9
634.875	55228.93
635.229	55061.48
635.583	54986.68
635.937	55014.92
636.291	54982.83
636.645	55022.83
636.999	54934.25
637.352	54994.13
637.706	54709.17
638.06	54919.56
638.413	54854.48
638.767	54701.26
639.121	54815.61
639.474	54556.18
639.828	54553.69
640.181	54542.39
640.534	54688.83
640.888	54552.79
641.241	54416.3
641.594	54423.07
641.947	54536.74
642.301	54459.91
642.654	54451.1
643.007	54371.32
643.36	54380.59
643.713	54350.31
644.066	54367.71
644.419	54225.34
644.771	54027.6
645.124	53721.4
645.477	53721.85
645.83	53465.36
646.182	53372.93
646.535	53275.99
646.888	53320.05
647.24	53151.02
647.593	53311.69
647.945	53215.42
648.298	53118.25
648.65	52997.35
649.002	52864.02
649.355	53057.91
649.707	53052.26
650.059	53147.63
650.411	53484.12
650.763	53495.42
651.115	53773.6
651.467	53652.7
651.819	53530.22
652.171	53486.15
652.523	53485.02
652.875	53437.56
653.227	53328.19
653.578	53519.37
653.93	53378.81
654.282	53228.08
654.633	53225.37
654.985	53277.57
655.337	53286.16
655.688	53222.65
656.039	53414.29
656.391	53135.42
656.742	53073.51
657.094	53196.89
657.445	53332.93
657.796	53215.42
658.147	53126.61
658.498	53092.94
658.849	53210.68
659.2	53040.29
659.551	53038.48
659.902	53154.63
660.253	53036.67
660.604	53089.55
660.955	52990.8
661.306	52984.69
661.656	52973.4
662.007	52996.22
662.358	52918.48
662.708	52873.51
663.059	52850.23
663.409	52651.6
663.76	52894.53
664.11	52900.85
664.461	52850.46
664.811	52889.78
665.161	52915.09
665.511	52732.95
665.862	52720.07
666.212	52856.34
666.562	52869.67
666.912	52787.19
667.262	52775.21
667.612	52760.07
667.962	52718.94
668.312	52743.8
668.662	52825.83
669.011	52652.05
669.361	52639.39
669.711	52564.37
670.06	52547.42
670.41	52607.76
670.76	52538.15
671.109	52558.72
671.459	52509.45
671.808	52485.27
672.157	52519.17
672.507	52301.55
672.856	52390.13
673.205	52389.91
673.554	52490.92
673.904	52419.29
674.253	52514.88
674.602	52436.69
674.951	51912.86
675.3	51751.96
675.649	52336.12
675.998	52316.46
676.346	52260.87
676.695	52293.19
677.044	52078.5
677.393	52252.28
677.741	52225.17
678.09	52175.22
678.438	52062.68
678.787	52167.54
679.135	52148.33
679.484	51873.31
679.832	52091.84
680.181	51830.83
680.529	51885.29
680.877	51829.92
681.225	51691.17
681.573	51935
681.922	51681.45
682.27	51542.47
682.618	51561.68
682.966	51525.3
683.314	51478.97
683.661	51443.49
684.009	51305.19
684.357	51224.29
684.705	51335.25
685.053	51286.21
685.4	51236.72
685.748	51070.62
686.095	51013.45
686.443	50937.97
686.79	50782.49
687.138	50843.73
687.485	50843.51
687.832	50757.18
688.18	50715.15
688.527	50608.03
688.874	50559.45
689.221	50421.15
689.568	50213.92
689.915	50167.59
690.262	50275.61
690.609	50119.46
690.956	49958.11
691.303	49834.27
691.65	49814.61
691.997	49708.62
692.344	49568.06
692.69	49503.66
693.037	49624.56
693.383	49276.09
693.73	49422.98
694.077	49150.67
694.423	49199.71
694.769	48967.4
695.116	49008.3
695.462	48949.55
695.808	48848.98
696.155	48809.44
696.501	48508.2
696.847	48551.14
697.193	48330.35
697.539	48409.45
697.885	48174.88
698.231	48079.51
698.577	48227.08
698.923	47944.6
699.269	47731.73
699.614	47482.92
699.96	47438.63
700.306	47476.14
700.651	47304.84
700.997	47229.82
701.342	47214.22
701.688	47221
702.033	46978.07
702.379	46913.44
702.724	46759.77
703.069	46880.67
703.415	46268.03
703.76	46456.05
704.105	46489.72
704.45	46223.29
704.795	45920.47
705.14	45929.29
705.485	45894.03
705.83	45731.1
706.175	45868.72
706.52	45663.08
706.865	45539.24
707.209	45413.59
707.554	45394.16
707.899	45473.25
708.243	45176.09
708.588	45268.29
708.932	44852.25
709.277	44831.91
709.621	44926.6
709.966	44788.98
710.31	44831.46
710.654	44432.83
710.998	44421.76
711.342	44531.13
711.687	44356.22
712.031	44215.66
712.375	43991.94
712.719	44152.84
713.063	43900.41
713.407	43995.1
713.75	43848.21
714.094	43841.43
714.438	43702.9
714.782	43715.79
715.125	43486.64
715.469	43665.17
715.812	43300.66
716.156	42979.76
716.499	43106.08
716.843	43072.41
717.186	42724.17
717.53	42977.27
717.873	43034.67
718.216	42855.92
718.559	42781.8
718.902	42613.22
719.246	42593.78
719.589	42520.34
719.932	42382.04
720.275	42183.17
720.617	42177.52
720.96	42192.66
721.303	42222.49
721.646	42078.09
721.989	41857.98
722.331	42018.2
722.674	41872.67
723.016	41938.43
723.359	41791.09
723.701	41712.9
724.044	41499.8
724.386	41388.16
724.729	41576.86
725.071	41329.86
725.413	41289.41
725.755	41217.09
726.097	41094.16
726.439	40952.69
726.782	40975.07
727.124	41135.74
727.465	40864.56
727.807	40825.24
728.149	40742.53
728.491	40608.97
728.833	40577.79
729.175	40603.1
729.516	40415.76
729.858	40450.33
730.199	40494.4
730.541	40429.54
730.882	40198.36
731.224	40386.38
731.565	39975.54
731.906	40073.62
732.248	40094.19
732.589	39917.47
732.93	39751.82
733.271	39619.62
733.612	39858.03
733.953	39834.76
734.294	39560.19
734.635	39513.86
734.976	39690.58
735.317	39496.46
735.658	39429.34
735.999	39283.13
736.339	39209.01
736.68	39357.71
737.021	39181.89
737.361	38946.19
737.702	39213.98
738.042	39143.02
738.383	38926.53
738.723	39060.09
739.063	38736.26
739.404	38872.98
739.744	38760.21
740.084	38604.28
740.424	38682.7
740.764	38681.34
741.104	38661.68
741.444	38326.32
741.784	38243.16
742.124	38221.47
742.464	38286.78
742.804	38193.22
743.143	38114.58
743.483	38115.71
743.823	37948.71
744.162	38063.28
744.502	38035.48
744.841	37795.26
745.181	37978.08
745.52	37738.09
745.86	37686.34
746.199	37660.13
746.538	37682.5
746.877	37708.03
747.216	37530.41
747.556	37273.92
747.895	37367.48
748.234	37134.94
748.573	37220.14
748.911	37145.79
749.25	37068.95
749.589	37010.43
749.928	36973.59
750.267	36865.57
750.605	36733.6
750.944	36791.45
751.283	36581.06
751.621	36588.52
751.96	36417.67
752.298	36400.05
752.636	36356.21
752.975	36209.99
753.313	36091.13
753.651	36239.15
753.989	35993.05
754.327	35889.55
754.666	35856.56
755.004	35923.45
755.342	35947.63
755.679	35791.02
756.017	35585.38
756.355	35553.97
756.693	35414.53
757.031	35503.57
757.368	35308.32
757.706	35166.41
758.044	34970.03
758.381	35127.08
758.719	34963.25
759.056	34912.4
759.394	34772.74
759.731	34510.38
760.068	34488.01
760.405	34252.31
760.743	34226.54
761.08	34260.21
761.417	34221.8
761.754	34053.21
762.091	34111.74
762.428	33877.85
762.765	33597.86
763.102	33850.28
763.438	33443.51
763.775	33385.66
764.112	33267.25
764.449	33376.17
764.785	33127.82
765.122	32872.23
765.458	32899.12
765.795	32883.53
766.131	32909.52
766.467	32680.82
766.804	32535.06
767.14	32298.23
767.476	32126.94
767.812	32129.88
768.148	32106.6
768.485	31956.55
768.821	31802.2
769.157	31726.27
769.492	31699.6
769.828	31620.28
770.164	31353.4
770.5	31331.7
770.836	31276.34
771.171	31008.55
771.507	30974.43
771.842	30847.42
772.178	30823.24
772.513	30823.92
772.849	30728.33
773.184	30645.62
773.519	30583.7
773.855	30296.93
774.19	30163.15
774.525	30138.52
774.86	29985.3
775.195	30004.73
775.53	29859.43
775.865	29832.31
776.2	29433.68
776.535	29263.96
776.87	29291.53
777.205	29214.25
777.539	29156.62
777.874	29202.72
778.209	28888.6
778.543	28762.05
778.878	28689.97
779.212	28547.82
779.547	28392.8
779.881	28501.72
780.215	28200.04
780.55	28371.56
780.884	28224.44
781.218	28073.49
781.552	28044.56
781.886	27878.91
782.22	27758.01
782.554	27623.33
782.888	27508.98
783.222	27400.06
783.556	27215.2
783.889	27343.56
784.223	27035.77
784.557	26944.48
784.89	26863.57
785.224	26776.8
785.557	26603.24
785.891	26647.31
786.224	26562.11
786.558	26480.98
786.891	26120.32
787.224	26111.05
787.557	26020.21
787.891	26115.34
788.224	26099.3
788.557	25921
788.89	25868.8
789.223	25806.43
789.556	25652.53
789.888	25512.87
790.221	25383.84
790.554	25177.97
790.887	25333.9
791.219	25185.65
791.552	24973.68
791.884	24985.88
792.217	24896.85
792.549	24794.7
792.882	24659.56
793.214	24497.99
793.546	24622.5
793.879	24472.22
794.211	24238.33
794.543	24380.25
794.875	24243.98
795.207	24193.59
795.539	24044.89
795.871	24084.89
796.203	23848.51
796.535	23799.93
796.867	23720.38
797.198	23605.35
797.53	23694.17
797.862	23441.06
798.193	23374.63
798.525	23361.74
798.856	23282.42
799.188	23055.54
799.519	23055.09
799.85	22812.83
800.182	23030.23
800.513	22964.92
800.844	22725.15
801.175	22912.94
801.506	22809.89
801.837	22678.15
802.168	22625.27
802.499	22419.62
802.83	22357.7
803.161	22380.3
803.491	22279.74
803.822	22255.11
804.153	22163.58
804.483	21973.08
804.814	21948.22
805.145	21884.5
805.475	21873.87
805.805	21827.32
806.136	21748.91
806.466	21823.93
806.796	21693.99
807.126	21519.31
807.457	21423.94
807.787	21554.33
808.117	21335.81
808.447	21270.05
808.777	21287.45
809.107	21234.57
809.436	21201.35
809.766	21089.26
810.096	21052.43
810.426	20935.82
810.755	21015.59
811.085	20845.43
811.414	20921.58
811.744	20703.28
812.073	20641.14
812.403	20659.89
812.732	20554.59
813.061	20411.31
813.39	20438.21
813.719	20342.61
814.049	20401.6
814.378	20379.9
814.707	20231.66
815.036	20220.81
815.365	20047.71
815.693	19895.17
816.022	19934.94
816.351	19802.74
816.68	19791.89
817.008	19827.37
817.337	19769.75
817.665	19635.74
817.994	19744.89
818.322	19638.23
818.651	19558.45
818.979	19408.63
819.307	19538.34
819.636	19471.9
819.964	19328.18
820.292	19406.14
820.62	19484.78
820.948	19315.52
821.276	19434.16
821.604	19300.16
821.932	19262.87
822.259	19305.13
822.587	19356.2
822.915	19290.89
823.243	19221.74
823.57	19237.79
823.898	19289.08
824.225	19182.65
824.553	19286.6
824.88	19169.31
825.207	19250.67
825.535	19241.4
825.862	19198.01
826.189	19245.92
826.516	19225.58
826.843	19342.87
827.17	19267.61
827.497	19256.09
827.824	19149.88
828.151	19274.85
828.478	19153.27
828.805	19223.55
829.131	19160.73
829.458	19117.79
829.785	19075.53
830.111	19087.28
830.438	19173.83
830.764	19169.99
831.09	19109.43
831.417	19072.14
831.743	19165.92
832.069	19032.14
832.395	19030.56
832.722	19001.86
833.048	19058.58
833.374	19049.99
833.7	18938.58
834.026	18918.92
834.351	18980.62
834.677	18994.4
835.003	19017.68
835.329	18934.06
835.654	18842.99
835.98	18851.35
836.306	18852.48
836.631	18798.25
836.956	18864.24
837.282	18860.17
837.607	18811.13
837.932	18694.97
838.258	18756.89
838.583	18661.08
838.908	18464.02
839.233	18478.94
839.558	18497.47
839.883	18447.3
840.208	18429.44
840.533	18412.04
840.858	18386.28
841.182	18407.52
841.507	18457.01
841.832	18195.78
842.156	18279.39
842.481	18117.36
842.805	18165.72
843.13	18153.07
843.454	17993.75
843.778	17901.32
844.103	17914.2
844.427	17947.42
844.751	17920.53
845.075	17928.67
845.399	17795.34
845.723	17712.4
846.047	17676.7
846.371	17499.53
846.695	17563.25
847.019	17393.77
847.343	17281.45
847.666	17256.82
847.99	17166.88
848.313	17181.12
848.637	17053.21
848.96	16990.84
849.284	16984.06
849.607	16846.66
849.931	16798.3
850.254	16597.63
850.577	16639.21
850.9	16562.15
851.223	16514.47
851.546	16429.95
851.869	16222.5
852.192	16403.06
852.515	16176.4
852.838	16212.1
853.161	16195.83
853.483	16029.51
853.806	15999.9
854.129	16015.27
854.451	15914.26
854.774	15781.15
855.096	15792.9
855.419	15691.21
855.741	15811.21
856.063	15630.87
856.385	15643.3
856.708	15478.79
857.03	15410.54
857.352	15511.33
857.674	15412.8
857.996	15315.4
858.318	15218.91
858.64	15236.99
858.961	15201.51
859.283	15110.66
859.605	15030.89
859.926	15107.27
860.248	15036.09
860.57	14939.14
860.891	14996.77
861.212	14891.91
861.534	14844.68
861.855	14873.61
862.176	14924.23
862.498	14875.64
862.819	14805.59
863.14	14779.82
863.461	14760.61
863.782	14654.18
864.103	14513.62
864.424	14626.83
864.745	14655.31
865.065	14555.2
865.386	14530.11
865.707	14501.19
866.027	14510.23
866.348	14458.93
866.668	14475.42
866.989	14451.24
867.309	14269.33
867.63	14360.63
867.95	14354.07
868.27	14259.84
868.59	14270.23
868.91	14236.11
869.23	14303.45
869.55	14190.91
869.87	14258.26
870.19	14172.83
870.51	14193.17
870.83	14163.12
871.15	14071.37
871.469	13881.09
871.789	14029.56
872.109	13979.62
872.428	13934.42
872.748	13957.92
873.067	13936.91
873.386	14000.63
873.706	13913.18
874.025	13899.85
874.344	13860.07
874.663	13815.1
874.982	13866.17
875.301	13771.26
875.62	13733.75
875.939	13694.88
876.258	13687.42
876.577	13644.94
876.896	13686.74
877.214	13633.86
877.533	13615.33
877.852	13630.47
878.17	13554.54
878.489	13532.85
878.807	13523.36
879.125	13517.26
879.444	13488.78
879.762	13404.94
880.08	13457.37
880.398	13444.72
880.716	13431.38
881.034	13400.2
881.352	13425.51
881.67	13343.25
881.988	13322.69
882.306	13298.73
882.624	13227.55
882.941	13178.28
883.259	13099.87
883.577	13072.75
883.894	13067.55
884.212	13063.71
884.529	12946.2
884.846	12949.81
885.164	12979.19
885.481	12929.02
885.798	12988.91
886.115	12789.37
886.432	12769.48
886.75	12761.12
887.067	12750.95
887.383	12682.7
887.7	12733.78
888.017	12631.18
888.334	12692.65
888.651	12631.41
888.967	12619.88
889.284	12584.17
889.6	12565.87
889.917	12472.99
890.233	12421.69
890.55	12396.16
890.866	12359.77
891.182	12272.09
891.498	12276.16
891.815	12226.67
892.131	12140.12
892.447	12119.33
892.763	12131.76
893.079	12060.57
893.395	12020.35
893.71	12150.51
894.026	11977.41
894.342	11915.94
894.657	11871.88
894.973	11873.01
895.289	11835.49
895.604	11787.36
895.92	11664.2
896.235	11650.19
896.55	11722.05
896.865	11687.7
897.181	11590.75
897.496	11588.95
897.811	11618.32
898.126	11482.06
898.441	11459.68
898.756	11437.54
899.071	11285.9
899.386	11350.99
899.7	11294.94
900.015	11214.49
900.33	11163.42
900.644	11225.11
900.959	11184.66
901.273	11092.01
901.588	11032.13
901.902	11007.95
902.216	10998
902.531	10840.72
902.845	10819.02
903.159	10887.72
903.473	10823.32
903.787	10741.74
904.101	10685.47
904.415	10650.67
904.729	10538.13
905.042	10562.08
905.356	10604.34
905.67	10538.8
905.984	10493.61
906.297	10470.78
906.611	10377.23
906.924	10359.83
907.237	10331.35
907.551	10294.07
907.864	10278.92
908.177	10262.65
908.491	10267.17
908.804	10156.89
909.117	10066.95
909.43	9963.68
909.743	9994.19
910.056	9947.18
910.368	9888.65
910.681	9798.94
910.994	9770.24
911.307	9810.69
911.619	9756.68
911.932	9718.49
912.244	9725.04
912.557	9659.05
912.869	9571.37
913.181	9592.16
913.494	9527.53
913.806	9486.63
914.118	9407.76
914.43	9370.93
914.742	9415.22
915.054	9348.33
915.366	9344.94
915.678	9271.04
915.99	9215.45
916.302	9152.4
916.613	9140.88
916.925	9092.06
917.236	9027.43
917.548	9000.31
917.859	8960.77
918.171	8921.45
918.482	8913.76
918.794	8879.87
919.105	8817.95
919.416	8751.28
919.727	8735.69
920.038	8625.18
920.349	8668.12
920.66	8642.13
920.971	8609.82
921.282	8606.43
921.593	8547.44
921.903	8451.85
922.214	8382.7
922.525	8394.23
922.835	8368.47
923.146	8341.35
923.456	8273.1
923.767	8256.83
924.077	8258.41
924.387	8198.53
924.697	8182.93
925.008	8142.26
925.318	8119.66
925.628	8040.34
925.938	8029.94
926.248	7938.87
926.558	7900.23
926.867	7940.23
927.177	7912.43
927.487	7883.96
927.796	7731.65
928.106	7816.39
928.416	7722.83
928.725	7758.99
929.034	7674.7
929.344	7678.77
929.653	7601.71
929.962	7523.52
930.271	7517.42
930.581	7514.7
930.89	7515.83
931.199	7408.94
931.508	7407.81
931.817	7354.26
932.125	7358.55
932.434	7330.08
932.743	7283.07
933.051	7252.56
933.36	7206.01
933.669	7129.4
933.977	7129.85
934.286	7151.32
934.594	7083.3
934.902	7008.28
935.21	6976.19
935.519	6980.25
935.827	6973.47
936.135	6954.94
936.443	6906.81
936.751	6853.25
937.059	6831.78
937.367	6761.05
937.674	6765.8
937.982	6748.62
938.29	6717.66
938.597	6720.83
938.905	6686.48
939.213	6628.4
939.52	6657.1
939.827	6622.75
940.135	6564.9
940.442	6581.85
940.749	6493.94
941.056	6458.91
941.363	6387.05
941.67	6404.22
941.977	6364.68
942.284	6317.9
942.591	6354.06
942.898	6287.17
943.205	6303.21
943.511	6246.04
943.818	6268.41
944.125	6055.98
944.431	6156.77
944.738	6123.1
945.044	6071.13
945.35	6079.04
945.657	6016.21
945.963	6039.26
946.269	5954.52
946.575	6012.37
946.881	5942.54
947.187	5932.6
947.493	5870.9
947.799	5858.93
948.105	5847.4
948.41	5778.03
948.716	5753.17
949.022	5747.52
949.327	5712.72
949.633	5699.84
949.938	5686.28
950.244	5671.59
950.549	5643.34
950.854	5612.83
951.16	5544.81
951.465	5536.68
951.77	5568.31
952.075	5498.03
952.38	5458.94
952.685	5533.96
952.99	5401.99
953.294	5383.91
953.599	5405.38
953.904	5331.94
954.209	5309.11
954.513	5284.71
954.818	5274.54
955.122	5263.69
955.426	5246.74
955.731	5193.41
956.035	5156.12
956.339	5190.7
956.643	5167.87
956.948	5103.92
957.252	5136.01
957.556	5111.83
957.86	5025.5
958.163	4994.54
958.467	5011.94
958.771	4991.15
959.075	5014.43
959.378	4910.93
959.682	4938.73
959.985	4921.78
960.289	4893.53
960.592	4870.25
960.896	4885.85
961.199	4813.76
961.502	4852.17
961.805	4787.32
962.108	4726.53
962.411	4719.97
962.714	4691.27
963.017	4677.72
963.32	4694.21
963.623	4677.94
963.926	4646.53
964.228	4623.48
964.531	4616.02
964.833	4599.98
965.136	4536.7
965.438	4519.53
965.741	4508.23
966.043	4532.41
966.345	4506.42
966.648	4458.06
966.95	4451.96
967.252	4399.53
967.554	4379.19
967.856	4397.72
968.158	4357.27
968.46	4348.23
968.761	4321.12
969.063	4329.93
969.365	4286.09
969.666	4245.18
969.968	4222.59
970.269	4189.37
970.571	4220.33
970.872	4154.57
971.174	4102.36
971.475	4133.1
971.776	4151.63
972.077	4082.25
972.378	4101.91
972.679	4049.71
972.98	4031.41
973.281	3973.55
973.582	4032.76
973.883	3995.02
974.183	3979.66
974.484	3975.36
974.785	3945.76
975.085	3929.94
975.386	3923.61
975.686	3929.04
975.986	3898.3
976.287	3854.69
976.587	3828.25
976.887	3829.83
977.187	3782.37
977.487	3762.26
977.787	3776.72
978.087	3737.18
978.387	3758.64
978.687	3760
978.987	3713.22
979.286	3648.82
979.586	3657.4
979.885	3653.11
980.185	3619.89
980.484	3591.42
980.784	3608.59
981.083	3607.91
981.382	3550.06
981.682	3542.83
981.981	3545.77
982.28	3542.38
982.579	3492.66
982.878	3524.07
983.177	3488.59
983.475	3507.35
983.774	3462.83
984.073	3448.82
984.372	3424.64
984.67	3396.85
984.969	3387.81
985.267	3382.83
985.566	3353.01
985.864	3338.54
986.162	3311.88
986.461	3306.9
986.759	3285.21
987.057	3254.48
987.355	3247.92
987.653	3271.43
987.951	3242.95
988.249	3258.77
988.547	3202.73
988.844	3207.47
989.142	3186.23
989.44	3149.62
989.737	3133.35
990.035	3106.91
990.332	3113.69
990.63	3090.41
990.927	3096.29
991.224	3069.17
991.521	3089.06
991.819	3022.39
992.116	3034.37
992.413	3051.09
992.71	3026.69
993.006	2979.23
993.303	2972.45
993.6	2966.12
993.897	2954.15
994.193	2940.13
994.49	2921.15
994.787	2888.38
995.083	2881.15
995.379	2857.88
995.676	2859.23
995.972	2819.91
996.268	2804.77
996.565	2786.47
996.861	2745.79
997.157	2722.97
997.453	2774.72
997.749	2728.61
998.044	2714.38
998.34	2699.69
998.636	2714.38
998.932	2649.29
999.227	2682.97
999.523	2633.48
999.818	2631.67
1000.114	2628.05
1000.409	2614.27
1000.704	2634.61
1001	2608.84
1001.295	2555.51
1001.59	2565.46
1001.885	2568.84
1002.18	2522.97
1002.475	2495.4
1002.77	2525.23
1003.065	2462.63
1003.359	2486.14
1003.654	2458.11
1003.949	2456.76
1004.243	2426.02
1004.538	2441.39
1004.832	2370.43
1005.127	2412.24
1005.421	2387.15
1005.715	2367.72
1006.009	2341.96
1006.304	2345.57
1006.598	2326.82
1006.892	2296.99
1007.186	2291.56
1007.48	2316.87
1007.773	2287.72
1008.067	2258.8
1008.361	2263.99
1008.655	2200.94
1008.948	2270.1
1009.242	2209.31
1009.535	2209.76
1009.829	2151.91
1010.122	2155.07
1010.415	2165.24
1010.708	2121.4
1011.001	2154.39
1011.295	2131.34
1011.588	2143.32
1011.881	2092.93
1012.173	2095.19
1012.466	2082.3
1012.759	2055.86
1013.052	2029.42
1013.344	2026.71
1013.637	2030.78
1013.93	2006.6
1014.222	1991.46
1014.514	1972.93
1014.807	1984.91
1015.099	1962.76
1015.391	1947.39
1015.683	1899.94
1015.976	1931.8
1016.268	1897.45
1016.56	1897.68
1016.851	1864
1017.143	1890.67
1017.435	1883.89
1017.727	1846.15
1018.018	1838.69
1018.31	1831.69
1018.602	1833.05
1018.893	1825.81
1019.185	1804.12
1019.476	1783.55
1019.767	1763.44
1020.058	1741.52
1020.35	1736.55
1020.641	1748.98
1020.932	1711.47
1021.223	1687.96
1021.514	1695.87
1021.804	1695.87
1022.095	1689.77
1022.386	1706.27
1022.677	1656.55
1022.967	1621.98
1023.258	1629.21
1023.548	1606.61
1023.839	1630.79
1024.129	1598.25
1024.419	1597.12
1024.709	1581.98
1025	1567.29
1025.29	1591.92
1025.58	1523.45
1025.87	1540.4
1026.16	1529.32
1026.449	1542.66
1026.739	1493.17
1027.029	1510.79
1027.319	1522.32
1027.608	1462.21
1027.898	1459.95
1028.187	1450.91
1028.477	1446.61
1028.766	1433.96
1029.055	1427.18
1029.344	1448.42
1029.634	1417.91
1029.923	1393.96
1030.212	1382.66
1030.501	1370.46
1030.79	1370.68
1031.078	1352.15
1031.367	1360.06
1031.656	1351.48
1031.945	1354.64
1032.233	1317.13
1032.522	1305.83
1032.81	1318.48
1033.099	1299.95
1033.387	1297.92
1033.675	1259.95
1033.963	1272.83
1034.251	1253.85
1034.54	1232.38
1034.828	1234.42
1035.116	1221.31
1035.403	1252.5
1035.691	1218.37
1035.979	1222.21
1036.267	1205.04
1036.554	1184.7
1036.842	1170.92
1037.129	1173.4
1037.417	1148.54
1037.704	1146.06
1037.992	1170.24
1038.279	1149.45
1038.566	1122.1
1038.853	1122.1
1039.14	1122.1
