Data from plate_porcelain_FLMS001491_042.txt Node
Date: Tue Feb 07 11:19:22 GMT 2017
User: dcchb
Spectrometer: FLMS00149
Trigger mode: 0
Integration Time (sec): 2.000000E-2
Scans to average: 10
Electric dark correction enabled: true
Nonlinearity correction enabled: false
Boxcar width: 0
XAxis mode: Wavelengths
Number of Pixels in Spectrum: 2048
>>>>>Begin Spectral Data<<<<<
341.393	-13.94
341.776	-13.94
342.16	-13.94
342.543	-67.27
342.927	-92.36
343.31	-70.89
343.693	-69.31
344.077	-78.57
344.46	-48.52
344.843	-65.46
345.226	-50.78
345.61	-11
345.993	-12.36
346.376	3.46
346.759	17.25
347.142	30.58
347.525	25.38
347.908	54.08
348.291	84.14
348.674	86.4
349.057	105.6
349.44	121.65
349.823	128.43
350.206	167.07
350.588	225.83
350.971	241.42
351.354	255.43
351.737	271.7
352.119	296.79
352.502	305.83
352.884	304.47
353.267	313.96
353.65	337.01
354.032	335.43
354.414	344.69
354.797	345.37
355.179	368.65
355.562	343.56
355.944	362.77
356.326	378.59
356.709	377.69
357.091	397.35
357.473	401.42
357.855	393.28
358.238	407.29
358.62	375.65
359.002	390.34
359.384	391.92
359.766	396.67
360.148	393.05
360.53	395.77
360.912	408.87
361.294	379.95
361.676	398.7
362.057	388.31
362.439	409.33
362.821	401.87
363.203	379.95
363.584	384.02
363.966	382.21
364.348	409.78
364.729	389.66
365.111	371.36
365.493	392.6
365.874	396.22
366.256	391.25
366.637	384.69
367.019	397.8
367.4	393.05
367.781	377.01
368.163	397.12
368.544	420.85
368.925	388.53
369.306	423.56
369.688	414.52
370.069	393.96
370.45	404.81
370.831	398.25
371.212	420.85
371.593	418.82
371.974	390.12
372.355	442.77
372.736	411.81
373.117	437.35
373.498	428.53
373.879	417.69
374.26	449.1
374.641	417.69
375.021	422.88
375.402	438.7
375.783	464.24
376.163	472.83
376.544	463.56
376.925	464.92
377.305	472.6
377.686	450.45
378.066	454.75
378.447	470.57
378.827	486.16
379.208	460.17
379.588	470.79
379.968	483.22
380.349	497.68
380.729	486.61
381.109	504.69
381.489	509.66
381.87	503.33
382.25	500.4
382.63	540.17
383.01	537.01
383.39	511.02
383.77	541.53
384.15	526.16
384.53	537.23
384.91	538.36
385.29	531.81
385.67	566.61
386.049	560.06
386.429	581.52
386.809	572.03
387.189	579.49
387.568	542.43
387.948	589.21
388.328	598.25
388.707	626.04
389.087	602.09
389.466	632.6
389.846	616.78
390.225	620.62
390.605	629.88
390.984	655.65
391.363	657
391.743	655.19
392.122	686.61
392.501	666.27
392.881	680.73
393.26	692.93
393.639	720.73
394.018	739.03
394.397	701.97
394.776	718.7
395.155	725.02
395.534	719.6
395.913	733.84
396.292	748.07
396.671	749.66
397.05	771.58
397.429	773.61
397.808	759.82
398.186	805.25
398.565	786.94
398.944	807.73
399.323	820.39
399.701	815.19
400.08	827.17
400.458	851.8
400.837	823.33
401.215	876.66
401.594	860.16
401.972	868.07
402.351	880.95
402.729	889.54
403.107	901.06
403.486	876.88
403.864	918.46
404.242	904.23
404.62	929.76
404.999	937.67
405.377	949.42
405.755	981.51
406.133	1004.56
406.511	991.46
406.889	1009.54
407.267	1049.08
407.645	1052.02
408.023	1047.05
408.401	1060.38
408.779	1090.44
409.156	1106.48
409.534	1112.13
409.912	1127.5
410.29	1170.21
410.667	1157.33
411.045	1193.26
411.422	1214.5
411.8	1176.99
412.178	1212.69
412.555	1245.24
412.933	1229.87
413.31	1280.71
413.687	1311.22
414.065	1324.1
414.442	1335.18
414.819	1324.33
415.197	1339.24
415.574	1379.7
415.951	1405.68
416.328	1415.17
416.705	1407.04
417.082	1425.57
417.46	1445.68
417.837	1460.6
418.214	1493.36
418.591	1506.02
418.967	1490.2
419.344	1529.75
419.721	1558.45
420.098	1576.3
420.475	1576.53
420.852	1615.85
421.228	1613.59
421.605	1645
421.982	1657.43
422.358	1652.68
422.735	1664.89
423.111	1695.85
423.488	1729.06
423.864	1709.18
424.241	1750.99
424.617	1779.01
424.994	1805.9
425.37	1832.79
425.746	1795.5
426.123	1854.26
426.499	1865.33
426.875	1904.88
427.251	1915.73
427.627	1948.27
428.003	2023.07
428.379	2026.01
428.756	2032.79
429.132	2089.06
429.507	2106.46
429.883	2091.09
430.259	2194.36
430.635	2210.86
431.011	2233.68
431.387	2257.64
431.763	2323.63
432.138	2295.15
432.514	2340.35
432.89	2390.29
433.265	2413.57
433.641	2446.11
434.016	2474.36
434.392	2536.5
434.767	2531.08
435.143	2574.47
435.518	2588.03
435.894	2647.91
436.269	2646.1
436.644	2712.77
437.02	2724.07
437.395	2761.13
437.77	2785.99
438.145	2808.13
438.52	2837.96
438.895	2856.04
439.271	2872.09
439.646	2939.2
440.021	2988.69
440.395	2982.14
440.77	3002.03
441.145	3016.71
441.52	3070.72
441.895	3078.41
442.27	3107.33
442.645	3152.53
443.019	3203.15
443.394	3182.13
443.769	3211.74
444.143	3185.75
444.518	3284.28
444.892	3256.03
445.267	3313.66
445.641	3345.29
446.016	3356.82
446.39	3388.46
446.764	3420.09
447.139	3405.18
447.513	3449.25
447.887	3480.66
448.262	3486.31
448.636	3550.03
449.01	3555.68
449.384	3590.48
449.758	3615.79
450.132	3736.47
450.506	3735.79
450.88	3739.18
451.254	3726.07
451.628	3788.67
452.002	3863.47
452.376	3903.47
452.75	3917.26
453.123	4015.78
453.497	4060.98
453.871	4034.31
454.244	4149.11
454.618	4166.06
454.992	4245.61
455.365	4213.29
455.739	4351.82
456.112	4409.9
456.486	4437.69
456.859	4479.5
457.232	4603.34
457.606	4610.8
457.979	4636.56
458.352	4784.13
458.725	4783
459.099	4810.79
459.472	4955.42
459.845	4965.82
460.218	5040.84
460.591	5091.24
460.964	5121.52
461.337	5262.31
461.71	5349.31
462.083	5397.89
462.456	5422.3
462.829	5462.3
463.201	5582.97
463.574	5613.48
463.947	5682.18
464.32	5718.11
464.692	5830.65
465.065	5884.89
465.438	5939.8
465.81	6105.67
466.183	6073.81
466.555	6234.48
466.928	6313.12
467.3	6315.61
467.672	6408.49
468.045	6615.72
468.417	6601.93
468.789	6649.16
469.161	6737.29
469.534	6857.29
469.906	7027.68
470.278	7107.45
470.65	7149.71
471.022	7310.61
471.394	7432.42
471.766	7467.44
472.138	7606.88
472.51	7819.07
472.882	7922.8
473.253	8005.96
473.625	8059.75
473.997	8278.05
474.369	8411.15
474.74	8407.08
475.112	8570.69
475.484	8713.97
475.855	8942.21
476.227	9003
476.598	9208.19
476.97	9319.37
477.341	9565.02
477.713	9678.46
478.084	9737.44
478.455	10013.82
478.827	10098.34
479.198	10438.67
479.569	10477.99
479.94	10795.27
480.311	10832.55
480.682	11111.42
481.053	11336.04
481.424	11522.93
481.795	11646.54
482.166	11786.43
482.537	11984.16
482.908	12212.4
483.279	12406.3
483.65	12558.38
484.021	12846.74
484.391	12982.1
484.762	13191.36
485.133	13212.6
485.503	13453.95
485.874	13806.94
486.244	13857.79
486.615	14099.59
486.985	14278.11
487.356	14562.17
487.726	14716.52
488.097	15020.24
488.467	15059.34
488.837	15458.42
489.207	15659.09
489.578	15908.58
489.948	15990.61
490.318	16260.21
490.688	16337.04
491.058	16565.51
491.428	16802.11
491.798	17024.93
492.168	17313.29
492.538	17327.98
492.908	17607.07
493.278	17833.95
493.648	17936.32
494.017	18138.8
494.387	18291.79
494.757	18463.09
495.126	18677.32
495.496	18813.81
495.866	18949.63
496.235	19126.8
496.605	19291.77
496.974	19487.24
497.344	19621.48
497.713	19772.66
498.082	19998.41
498.452	20158.64
498.821	20296.49
499.19	20427.56
499.559	20647.21
499.928	20667.55
500.298	20843.59
500.667	21070.48
501.036	21055.34
501.405	21238.38
501.774	21355.89
502.143	21564.93
502.512	21695.32
502.88	21869.1
503.249	21948.65
503.618	22225.47
503.987	22145.25
504.356	22408.75
504.724	22619.36
505.093	22649.64
505.462	22705.69
505.83	23056.64
506.199	23231.1
506.567	23424.77
506.936	23522.62
507.304	23853.68
507.672	23876.5
508.041	24052.77
508.409	24115.82
508.777	24422.25
509.145	24523.72
509.514	24686.65
509.882	24866.99
510.25	24841.23
510.618	25158.73
510.986	25255.23
511.354	25465.16
511.722	25669.45
512.09	25957.81
512.458	25960.97
512.826	26200.29
513.193	26417
513.561	26473.5
513.929	26774.28
514.297	26985.35
514.664	27234.16
515.032	27378.33
515.4	27485.22
515.767	27661.49
516.135	27837.08
516.502	27759.79
516.869	28255.82
517.237	28444.52
517.604	28459.44
517.972	28935.35
518.339	29005.64
518.706	29054.9
519.073	29247.21
519.44	29454.89
519.808	29971.26
520.175	29761.77
520.542	30278.6
520.909	30446.05
521.276	30455.32
521.643	30868.86
522.009	31029.76
522.376	31309.3
522.743	31485.34
523.11	31792
523.477	32048.49
523.843	32417.52
524.21	32632.88
524.577	32857.74
524.943	33027
525.31	33231.29
525.676	33452.75
526.043	33657.72
526.409	33864.72
526.776	34271.03
527.142	34424.02
527.508	34672.61
527.874	34962.09
528.241	35136.1
528.607	35154.63
528.973	35635.07
529.339	35597.55
529.705	36043.42
530.071	36296.29
530.437	36487.02
530.803	36837.52
531.169	36860.34
531.535	36891.98
531.901	37080
532.267	37256.27
532.632	37420.33
532.998	37686.09
533.364	37887.44
533.73	37953.2
534.095	38325.62
534.461	38472.05
534.826	38729.22
535.192	38824.13
535.557	39112.94
535.923	39214.41
536.288	39229.1
536.653	39402.2
537.019	39546.6
537.384	39624.34
537.749	39779.59
538.114	39952.47
538.479	39955.63
538.845	40247.15
539.21	40272.91
539.575	40683.29
539.94	40700.24
540.305	40863.63
540.67	40979.33
541.034	41022.27
541.399	41275.14
541.764	41337.74
542.129	41477.85
542.494	41636.26
542.858	41826.32
543.223	41806.88
543.587	42154.44
543.952	42157.38
544.316	42371.84
544.681	42386.75
545.045	42608.22
545.41	42663.13
545.774	42828.77
546.138	42940.86
546.503	42969.79
546.867	43048.2
547.231	43458.81
547.595	43559.15
547.959	43706.72
548.324	43786.49
548.688	43809.09
549.052	43953.94
549.416	44083.21
549.779	44178.34
550.143	44289.08
550.507	44666.01
550.871	44779.01
551.235	44802.96
551.599	45094.25
551.962	45149.39
552.326	45295.6
552.689	45546.9
553.053	45441.81
553.417	45590.96
553.78	46027.79
554.143	45978.97
554.507	46181.68
554.87	46399.53
555.234	46779.41
555.597	46626.64
555.96	46743.7
556.323	46988.67
556.686	47050.58
557.05	47314.53
557.413	47444.02
557.776	47653.96
558.139	47881.07
558.502	47989.54
558.865	48003.33
559.228	48368.97
559.59	48409.42
559.953	48488.06
560.316	48781.16
560.679	48808.05
561.041	49174.82
561.404	49373.91
561.767	49532.33
562.129	49392.9
562.492	49893
562.854	49790.63
563.217	49932.32
563.579	50091.63
563.941	50261.57
564.304	50445.75
564.666	50691.62
565.028	50736.82
565.39	50786.76
565.753	51118.73
566.115	51133.87
566.477	51381.77
566.839	51418.38
567.201	51556.91
567.563	51652.05
567.925	51901.3
568.287	51867.63
568.648	52014.07
569.01	52120.06
569.372	52345.59
569.734	52271.92
570.095	52595.52
570.457	52685.01
570.819	52744.67
571.18	52754.16
571.542	52918.68
571.903	53043.2
572.265	53082.06
572.626	53181.27
572.987	53182.63
573.349	53299.23
573.71	53420.13
574.071	53436.63
574.432	53620.58
574.794	53840.46
575.155	53797.98
575.516	53691.31
575.877	53813.12
576.238	53887.69
576.599	54042.04
576.96	54027.58
577.32	54025.99
577.681	54120.91
578.042	54237.74
578.403	54293.33
578.763	54282.94
579.124	54432.54
579.485	54454.68
579.845	54551.18
580.206	54560.67
580.566	54521.12
580.927	54459.43
581.287	54745.07
581.648	54619.43
582.008	54619.2
582.368	54646.77
582.728	54718.63
583.089	54623.95
583.449	54739.2
583.809	54733.32
584.169	54806.99
584.529	54763.83
584.889	54952.98
585.249	54723.6
585.609	54693.1
585.969	54847.89
586.329	54814.67
586.688	54849.02
587.048	54878.63
587.408	54752.08
587.768	54730.16
588.127	54745.07
588.487	54765.64
588.846	54973.09
589.206	54771.51
589.565	54855.8
589.925	54989.59
590.284	54954.78
590.643	55009.47
591.003	55031.62
591.362	55101.67
591.721	54914.56
592.08	55018.28
592.44	55065.52
592.799	55044.05
593.158	55035.23
593.517	55056.02
593.876	55088.57
594.235	55067.78
594.593	55123.59
594.952	55161.56
595.311	55050.15
595.67	55079.3
596.029	55262.57
596.387	55207.66
596.746	55287.43
597.104	55179.41
597.463	55164.04
597.822	55296.47
598.18	55207.88
598.538	55226.19
598.897	55373.98
599.255	55137.6
599.613	55489.23
599.972	55348.9
600.33	55360.42
600.688	55331.27
601.046	55488.56
601.404	55622.56
601.762	55434.32
602.12	55613.52
602.478	55588.89
602.836	55617.37
603.194	55532.62
603.552	55593.64
603.91	55493.07
604.268	55690.58
604.625	55565.84
604.983	55774.42
605.341	55652.62
605.698	55735.1
606.056	55794.76
606.413	55728.55
606.771	55896.23
607.128	55890.35
607.485	55801.54
607.843	55814.42
608.2	56021.2
608.557	56074.3
608.914	55961.99
609.272	56123.34
609.629	56041.08
609.986	56198.59
610.343	56019.61
610.7	56258.48
611.057	56237.24
611.414	56274.52
611.771	56237.69
612.127	56325.14
612.484	56321.98
612.841	56407.85
613.198	56309.55
613.554	56305.26
613.911	56507.51
614.267	56459.6
614.624	56478.36
614.98	56487.4
615.337	56612.59
615.693	56601.07
616.05	56592.71
616.406	56689.88
616.762	56591.8
617.118	56565.36
617.475	56683.55
617.831	56676.77
618.187	56718.35
618.543	56730.33
618.899	56906.82
619.255	56746.6
619.611	56783.21
619.967	56833.6
620.323	56902.98
620.678	56762.65
621.034	56766.71
621.39	56806.26
621.746	56762.65
622.101	57040.38
622.457	56795.87
622.812	56906.82
623.168	56910.44
623.523	56878.8
623.879	57025.01
624.234	56851.46
624.589	56901.85
624.945	56947.5
625.3	56970.78
625.655	56874.51
626.01	56928.97
626.365	56990.44
626.72	56916.09
627.075	56964.67
627.43	56906.14
627.785	56773.72
628.14	56825.7
628.495	56933.04
628.85	56768.3
629.205	56662.99
629.559	56867.73
629.914	56734.62
630.269	56793.61
630.623	56724.91
630.978	56590.9
631.332	56701.63
631.687	56818.69
632.041	56645.13
632.396	56714.06
632.75	56567.4
633.104	56630.9
633.459	56444.46
633.813	56473.61
634.167	56533.5
634.521	56473.61
634.875	56566.72
635.229	56408.3
635.583	56338.02
635.937	56275.43
636.291	56300.29
636.645	56309.1
636.999	56224.58
637.352	56262.32
637.706	56117.69
638.06	56172.6
638.413	56195.2
638.767	56145.49
639.121	56199.95
639.474	56009.22
639.828	55970.58
640.181	55985.72
640.534	55896.91
640.888	55881.77
641.241	55802.22
641.594	55828.43
641.947	55800.86
642.301	55798.15
642.654	55806.06
643.007	55755.44
643.36	55779.39
643.713	55772.39
644.066	55822.78
644.419	55566.52
644.771	55418.05
645.124	55186.87
645.477	55093.99
645.83	54947.33
646.182	54823.71
646.535	54655.13
646.888	54725.64
647.24	54585.08
647.593	54794.11
647.945	54651.74
648.298	54533.55
648.65	54444.51
649.002	54312.77
649.355	54507.79
649.707	54492.65
650.059	54642.25
650.411	54884.28
650.763	54917.72
651.115	55136.47
651.467	54932.64
651.819	55033.65
652.171	54886.31
652.523	54941.9
652.875	54873.2
653.227	54770.83
653.578	54806.99
653.93	54780.33
654.282	54627.79
654.633	54611.29
654.985	54688.8
655.337	54722.93
655.688	54677.28
656.039	54757.95
656.391	54506.89
656.742	54556.83
657.094	54593.44
657.445	54671.4
657.796	54609.26
658.147	54572.2
658.498	54477.06
658.849	54592.76
659.2	54438.87
659.551	54357.74
659.902	54568.81
660.253	54454.46
660.604	54469.15
660.955	54272.77
661.306	54436.38
661.656	54329.26
662.007	54369.49
662.358	54363.84
662.708	54421.92
663.059	54339.21
663.409	54084.98
663.76	54291.07
664.11	54258.98
664.461	54176.95
664.811	54263.05
665.161	54181.24
665.511	54170.85
665.862	54240.9
666.212	54201.58
666.562	54334.69
666.912	54216.5
667.262	54180.79
667.612	54140.57
667.962	54180.57
668.312	54099.67
668.662	54242.26
669.011	54154.58
669.361	54070.74
669.711	54044.75
670.06	53992.55
670.41	54024.86
670.76	53938.54
671.109	54047.92
671.459	54025.54
671.808	53975.83
672.157	54044.07
672.507	53763.18
672.856	53815.6
673.205	53963.17
673.554	53923.62
673.904	53792.1
674.253	53955.04
674.602	53773.57
674.951	53453.13
675.3	53259.46
675.649	53682.05
675.998	53803.63
676.346	53586.46
676.695	53731.77
677.044	53516.4
677.393	53725.66
677.741	53690.64
678.09	53649.51
678.438	53529.06
678.787	53550.53
679.135	53556.85
679.484	53363.87
679.832	53425.33
680.181	53207.03
680.529	53394.6
680.877	53208.62
681.225	53225.34
681.573	53379.01
681.922	53162.06
682.27	53081.61
682.618	53139.46
682.966	53030.09
683.314	53093.14
683.661	52986.93
684.009	52813.82
684.357	52696.09
684.705	52694.05
685.053	52765.69
685.4	52695.18
685.748	52465.36
686.095	52457
686.443	52368.41
686.79	52282.54
687.138	52370.45
687.485	52373.38
687.832	52287.96
688.18	52332.25
688.527	52147.63
688.874	52113.28
689.221	51963.68
689.568	51838.71
689.915	51699.05
690.262	51746.05
690.609	51684.59
690.956	51587.64
691.303	51488.21
691.65	51378.38
691.997	51314.65
692.344	51211.83
692.69	51140.19
693.037	51215
693.383	50904.95
693.73	51022.46
694.077	50784.27
694.423	50851.39
694.769	50629.93
695.116	50586.31
695.462	50644.61
695.808	50495.69
696.155	50523.26
696.501	50156.27
696.847	50309.03
697.193	49970.06
697.539	50006.67
697.885	49902.71
698.231	49757.86
698.577	49779.33
698.923	49688.48
699.269	49516.73
699.614	49182.96
699.96	49303.86
700.306	49183.41
700.651	49105.45
700.997	49087.59
701.342	48977.99
701.688	48895.51
702.033	48661.16
702.379	48521.05
702.724	48595.4
703.069	48570.77
703.415	48176.43
703.76	48233.6
704.105	48226.83
704.45	48144.34
704.795	47778.25
705.14	47695.09
705.485	47821.19
705.83	47631.13
706.175	47729.44
706.52	47550.01
706.865	47311.59
707.209	47260.52
707.554	47187.53
707.899	47295.32
708.243	47036.35
708.588	47049.45
708.932	46752.51
709.277	46734.44
709.621	46707.77
709.966	46595
710.31	46647.88
710.654	46164.73
710.998	46387.78
711.342	46383.71
711.687	45997.05
712.031	46017.39
712.375	45881.58
712.719	45906.43
713.063	45761.58
713.407	45960.67
713.75	45589.83
714.094	45708.7
714.438	45531.53
714.782	45496.95
715.125	45280.24
715.469	45303.29
715.812	45020.36
716.156	44866.46
716.499	44840.47
716.843	44928.15
717.186	44592.8
717.53	44838.89
717.873	44789.18
718.216	44693.81
718.559	44563.64
718.902	44307.38
719.246	44398.9
719.589	44260.83
719.932	44108.29
720.275	44077.33
720.617	43946.03
720.96	43941.06
721.303	43930.44
721.646	43965.47
721.989	43715.31
722.331	43806.6
722.674	43616.55
723.016	43672.59
723.359	43564.8
723.701	43471.7
724.044	43180.4
724.386	43158.26
724.729	43243.45
725.071	43188.31
725.413	43092.5
725.755	43120.52
726.097	42913.29
726.439	42721.66
726.782	42690.25
727.124	42947.19
727.465	42511.72
727.807	42399.63
728.149	42410.93
728.491	42413.42
728.833	42415.23
729.175	42347.43
729.516	42136.14
729.858	42160.32
730.199	42138.62
730.541	42072.86
730.882	41953.77
731.224	42077.38
731.565	41710.61
731.906	41969.81
732.248	41853.89
732.589	41629.48
732.93	41461.81
733.271	41541.58
733.612	41592.88
733.953	41608.24
734.294	41316.5
734.635	41158.76
734.976	41375.48
735.317	41137.52
735.658	41056.84
735.999	41233.11
736.339	40989.95
736.68	41184.3
737.021	40832.67
737.361	40733.46
737.702	40968.48
738.042	40776.4
738.383	40662.05
738.723	40746.8
739.063	40553.35
739.404	40622.05
739.744	40362.17
740.084	40169.64
740.424	40380.48
740.764	40238.11
741.104	40364.66
741.444	40141.84
741.784	39928.96
742.124	39997.44
742.464	39880.15
742.804	39869.3
743.143	39897.1
743.483	39822.75
743.823	39686.48
744.162	39677.67
744.502	39706.15
744.841	39519.71
745.181	39555.87
745.52	39386.83
745.86	39398.81
746.199	39334.86
746.538	39190.23
746.877	39195.2
747.216	39047.63
747.556	39073.39
747.895	38871.59
748.234	38768.09
748.573	38813.29
748.911	38611.48
749.25	38698.71
749.589	38514.99
749.928	38465.05
750.267	38429.79
750.605	38364.71
750.944	38282
751.283	38172.4
751.621	38369.01
751.96	37981.9
752.298	37996.81
752.636	38074.78
752.975	37856.02
753.313	37708.23
753.651	37844.05
753.989	37547.11
754.327	37455.13
754.666	37379.2
755.004	37426.21
755.342	37422.36
755.679	37412.65
756.017	37231.41
756.355	37219.66
756.693	36923.17
757.031	37002.04
757.368	36849.72
757.706	36754.36
758.044	36633.46
758.381	36691.99
758.719	36480.69
759.056	36648.37
759.394	36387.81
759.731	36128.61
760.068	36105.34
760.405	35864.66
760.743	35794.16
761.08	35838.9
761.417	35679.36
761.754	35626.7
762.091	35616.54
762.428	35456.54
762.765	35122.54
763.102	35298.13
763.438	34880.96
763.775	34936.33
764.112	34906.27
764.449	34850.91
764.785	34717.58
765.122	34398.49
765.458	34282.33
765.795	34356.68
766.131	34398.04
766.467	34096.8
766.804	33803.93
767.14	33728.9
767.476	33751.27
767.812	33576.81
768.148	33638.96
768.485	33403.26
768.821	33236.71
769.157	33245.52
769.492	33090.27
769.828	33059.99
770.164	32838.3
770.5	32804.86
770.836	32711.75
771.171	32512.66
771.507	32213.01
771.842	32220.92
772.178	32327.81
772.513	32285.1
772.849	32063.86
773.184	31953.81
773.519	31878.55
773.855	31684.89
774.19	31616.87
774.525	31485.12
774.86	31458
775.195	31368.51
775.53	31234.96
775.865	31032.93
776.2	30785.48
776.535	30623.22
776.87	30705.93
777.205	30518.59
777.539	30412.38
777.874	30445.6
778.209	30177.58
778.543	30135.1
778.878	29894.65
779.212	29925.16
779.547	29770.14
779.881	29700.31
780.215	29494.21
780.55	29605.85
780.884	29419.64
781.218	29430.94
781.552	29282.69
781.886	29088.8
782.22	28964.28
782.554	28776.94
782.888	28702.82
783.222	28622.37
783.556	28432.77
783.889	28400.91
784.223	28183.96
784.557	28306.44
784.89	28120.24
785.224	27950.52
785.557	27820.13
785.891	27838.21
786.224	27692.45
786.558	27579.68
786.891	27372.68
787.224	27375.17
787.557	27265.12
787.891	27334.72
788.224	27173.59
788.557	27150.54
788.89	26878.91
789.223	26980.6
789.556	26848.86
789.888	26688.18
790.221	26579.26
790.554	26350.79
790.887	26409.55
791.219	26188.31
791.552	26094.75
791.884	25930.46
792.217	25990.35
792.549	25921.87
792.882	25747.64
793.214	25542.45
793.546	25687.53
793.879	25509
794.211	25259.52
794.543	25406.86
794.875	25245.51
795.207	25329.57
795.539	25147.88
795.871	25117.83
796.203	24949.25
796.535	24797.61
796.867	24799.64
797.198	24677.39
797.53	24731.17
797.862	24566.66
798.193	24452.99
798.525	24283.73
798.856	24310.17
799.188	24104.75
799.519	24013
799.85	23951.31
800.182	23993.34
800.513	23956.95
800.844	23779.11
801.175	23867.47
801.506	23748.15
801.837	23621.14
802.168	23580.47
802.499	23557.42
802.83	23350.87
803.161	23397.65
803.491	23276.52
803.822	23260.48
804.153	23111.33
804.483	22950.65
804.814	22890.77
805.145	23000.82
805.475	22869.75
805.805	22841.05
806.136	22687.16
806.466	22669.53
806.796	22766.03
807.126	22548.63
807.457	22460.72
807.787	22459.59
808.117	22424.79
808.447	22218.47
808.777	22268.41
809.107	22140.73
809.436	22135.08
809.766	22163.56
810.096	22037.46
810.426	21914.75
810.755	21932.38
811.085	21905.48
811.414	21811.25
811.744	21637.92
812.073	21655.55
812.403	21638.15
812.732	21445.38
813.061	21381.2
813.39	21322.45
813.719	21285.84
814.049	21326.06
814.378	21250.81
814.707	21165.62
815.036	21054.88
815.365	20969.46
815.693	20837.49
816.022	20797.72
816.351	20885.17
816.68	20613.99
817.008	20713.2
817.337	20535.35
817.665	20558.85
817.994	20430.04
818.322	20546.87
818.651	20460.55
818.979	20351.85
819.307	20442.92
819.636	20345.75
819.964	20169.94
820.292	20201.12
820.62	20257.39
820.948	20254.91
821.276	20229.14
821.604	20061.24
821.932	20105.76
822.259	20169.48
822.587	20143.04
822.915	20174.91
823.243	20207.45
823.57	20041.35
823.898	20024.18
824.225	20029.37
824.553	20066.89
824.88	20004.97
825.207	20154.34
825.535	20154.34
825.862	20032.31
826.189	20040.22
826.516	20141.91
826.843	20165.87
827.17	20267.33
827.497	20157.28
827.824	20052.2
828.151	20117.51
828.478	19924.07
828.805	20188.47
829.131	20019.43
829.458	19957.51
829.785	19899.21
830.111	20001.8
830.438	20041.13
830.764	20093.1
831.09	20009.71
831.417	19884.75
831.743	19988.47
832.069	19990.28
832.395	19886.33
832.722	19910.28
833.048	19850.17
833.374	19856.5
833.7	19699.21
834.026	19802.26
834.351	19787.8
834.677	19726.56
835.003	19776.05
835.329	19740.79
835.654	19721.59
835.98	19651.31
836.306	19617.63
836.631	19628.03
836.956	19686.78
837.282	19691.76
837.607	19583.28
837.932	19521.37
838.258	19503.96
838.583	19496.51
838.908	19291.54
839.233	19389.84
839.558	19284.76
839.883	19293.57
840.208	19334.25
840.533	19198.21
840.858	19205.89
841.182	19261.03
841.507	19118.66
841.832	19007.25
842.156	19063.52
842.481	18971.78
842.805	18919.8
843.13	18878.22
843.454	18866.24
843.778	18735.4
844.103	18703.08
844.427	18683.42
844.751	18682.52
845.075	18562.29
845.399	18537.21
845.723	18461.05
846.047	18493.37
846.371	18352.36
846.695	18304
847.019	18149.88
847.343	18044.79
847.666	17969.99
847.99	17896.55
848.313	17947.62
848.637	17835.53
848.96	17748.08
849.284	17739.27
849.607	17570.68
849.931	17589.89
850.254	17472.15
850.577	17308.32
850.9	17217.7
851.223	17194.42
851.546	17019.51
851.869	16983.58
852.192	17100.86
852.515	16963.92
852.838	16859.74
853.161	16849.12
853.483	16756.69
853.806	16725.28
854.129	16729.57
854.451	16607.32
854.774	16492.29
855.096	16487.55
855.419	16429.47
855.741	16372.3
856.063	16300.43
856.385	16247.33
856.708	16190.83
857.03	16160.1
857.352	16180.44
857.674	16018.41
857.996	15982.25
858.318	15875.13
858.64	15869.48
858.961	15800.79
859.283	15780.45
859.605	15657.51
859.926	15912.42
860.248	15660.68
860.57	15626.1
860.891	15691.64
861.212	15633.78
861.534	15500.45
861.855	15489.15
862.176	15478.76
862.498	15454.35
862.819	15500.45
863.14	15415.71
863.461	15408.03
863.782	15359.89
864.103	15398.76
864.424	15350.18
864.745	15278.09
865.065	15269.5
865.386	15176.39
865.707	15179.11
866.027	15217.52
866.348	15249.61
866.668	15067.7
866.989	15142.27
867.309	14898.21
867.63	15006.91
867.95	14968.94
868.27	14890.3
868.59	14913.58
868.91	14841.71
869.23	14835.84
869.55	14837.65
869.87	14994.93
870.19	14875.84
870.51	14834.71
870.83	14745.9
871.15	14635.39
871.469	14651.89
871.789	14615.28
872.109	14644.66
872.428	14487.6
872.748	14514.04
873.067	14591.78
873.386	14570.53
873.706	14539.58
874.025	14487.6
874.344	14486.24
874.663	14413.02
874.982	14343.42
875.301	14359.24
875.62	14341.16
875.939	14352.91
876.258	14323.08
876.577	14257.32
876.896	14208.96
877.214	14253.48
877.533	14225.46
877.852	14172.35
878.17	14227.04
878.489	14214.16
878.807	14205.8
879.125	14112.02
879.444	14090.32
879.762	14003.77
880.08	14076.99
880.398	13997.67
880.716	14055.52
881.034	13985.01
881.352	13997.67
881.67	13906.15
881.988	13925.13
882.306	13826.15
882.624	13793.15
882.941	13720.39
883.259	13745.25
883.577	13670.9
883.894	13611.69
884.212	13562.65
884.529	13579.15
884.846	13581.18
885.164	13507.74
885.481	13414.41
885.798	13522.88
886.115	13350.45
886.432	13345.26
886.75	13411.7
887.067	13369.89
887.383	13283.34
887.7	13313.84
888.017	13212.6
888.334	13267.97
888.651	13229.78
888.967	13178.26
889.284	13124.92
889.6	12991.82
889.917	13000.86
890.233	12999.95
890.55	12901.65
890.866	12898.49
891.182	12889.68
891.498	12779.85
891.815	12741.2
892.131	12658.95
892.447	12706.4
892.763	12577.82
893.079	12605.84
893.395	12566.97
893.71	12530.81
894.026	12524.04
894.342	12454.88
894.657	12365.17
894.973	12387.99
895.289	12321.55
895.604	12335.11
895.92	12209.02
896.235	12186.19
896.55	12184.83
896.865	12155.46
897.181	12125.63
897.496	12122.46
897.811	12042.92
898.126	12090.6
898.441	11934.45
898.756	11969.47
899.071	11919.53
899.386	11919.53
899.7	11654.68
900.015	11719.31
900.33	11643.38
900.644	11554.57
900.959	11697.84
901.273	11590.27
901.588	11485.64
901.902	11415.82
902.216	11415.82
902.531	11371.75
902.845	11349.38
903.159	11324.29
903.473	11199.55
903.787	11126.78
904.101	11089.95
904.415	11158.2
904.729	11096.28
905.042	10967.69
905.356	11029.84
905.67	11018.76
905.984	10965.88
906.297	10921.37
906.611	10836.62
906.924	10830.97
907.237	10811.54
907.551	10739
907.864	10691.99
908.177	10699.68
908.491	10580.36
908.804	10555.73
909.117	10489.29
909.43	10510.08
909.743	10426.46
910.056	10349.4
910.368	10237.99
910.681	10363.41
910.994	10310.08
911.307	10245.9
911.619	10170.88
911.932	10179.46
912.244	9990.32
912.557	10038.45
912.869	9960.03
913.181	9947.38
913.494	9881.84
913.806	9836.87
914.118	9894.5
914.43	9848.4
914.742	9799.81
915.054	9731.11
915.366	9730.89
915.678	9659.7
915.99	9577.45
916.302	9538.12
916.613	9518.92
916.925	9468.97
917.236	9457.45
917.548	9384.91
917.859	9417.68
918.171	9276.44
918.482	9329.99
918.794	9261.75
919.105	9162.54
919.416	9168.19
919.727	9062.66
920.038	9053.84
920.349	8961.42
920.66	9037.8
920.971	8950.34
921.282	9004.58
921.593	8860.4
921.903	8802.78
922.214	8832.38
922.525	8799.39
922.835	8743.8
923.146	8649.11
923.456	8601.2
923.767	8594.19
924.077	8613.4
924.387	8560.07
924.697	8518.49
925.008	8443.46
925.318	8436.23
925.628	8428.78
925.938	8429.68
926.248	8351.49
926.558	8266.75
926.867	8244.15
927.177	8205.28
927.487	8123.25
927.796	8036.02
928.106	8130.25
928.416	8052.06
928.725	8018.16
929.034	8004.83
929.344	8029.24
929.653	8031.27
929.962	7802.13
930.271	7846.87
930.581	7763.48
930.89	7751.28
931.199	7767.1
931.508	7692.75
931.817	7730.49
932.125	7677.16
932.434	7612.75
932.743	7579.76
933.051	7563.04
933.36	7490.72
933.669	7475.35
933.977	7404.85
934.286	7463.15
934.594	7399.88
934.902	7316.04
935.21	7328.47
935.519	7264.29
935.827	7223.16
936.135	7227.68
936.443	7165.08
936.751	7143.16
937.059	7103.39
937.367	7093.9
937.674	7110.17
937.982	7027.46
938.29	7050.96
938.597	7021.35
938.905	6991.98
939.213	6919.21
939.52	6858.87
939.827	6845.31
940.135	6836.5
940.442	6805.77
940.749	6803.51
941.056	6758.76
941.363	6657.07
941.67	6666.34
941.977	6646.22
942.284	6632.21
942.591	6556.06
942.898	6547.7
943.205	6547.02
943.511	6480.35
943.818	6497.07
944.125	6412.33
944.431	6422.5
944.738	6337.08
945.044	6402.61
945.35	6259.12
945.657	6259.57
945.963	6243.75
946.269	6220.7
946.575	6236.06
946.881	6197.42
947.187	6151.1
947.493	6142.96
947.799	6052.79
948.105	6014.38
948.41	6038.56
948.716	6082.62
949.022	5986.35
949.327	5980.48
949.633	5891.44
949.938	5902.51
950.244	5877.2
950.549	5855.28
950.854	5795.62
951.16	5752.69
951.465	5785.23
951.77	5759.69
952.075	5784.55
952.38	5725.8
952.685	5700.94
952.99	5672.69
953.294	5641.96
953.599	5551.34
953.904	5538.91
954.209	5566.48
954.513	5510.89
954.818	5469.98
955.122	5448.51
955.426	5461.17
955.731	5416.43
956.035	5384.56
956.339	5374.39
956.643	5383.66
956.948	5359.25
957.252	5336.88
957.556	5315.86
957.86	5267.05
958.163	5261.85
958.467	5183.89
958.771	5229.99
959.075	5149.99
959.378	5140.27
959.682	5130.11
959.985	5115.19
960.289	5074.74
960.592	5062.54
960.896	5047.62
961.199	5001.3
961.502	5005.81
961.805	4998.81
962.108	4939.15
962.411	4914.97
962.714	4930.79
963.017	4885.37
963.32	4865.25
963.623	4794.07
963.926	4876.78
964.228	4842.88
964.531	4767.85
964.833	4817.12
965.136	4781.41
965.438	4719.49
965.741	4683.11
966.043	4691.7
966.345	4672.49
966.648	4634.53
966.95	4636.33
967.252	4568.31
967.554	4606.73
967.856	4526.28
968.158	4562.89
968.46	4532.83
968.761	4511.36
969.063	4512.04
969.365	4427.75
969.666	4373.74
969.968	4356.11
970.269	4352.72
970.571	4357.02
970.872	4342.78
971.174	4355.66
971.475	4290.58
971.776	4292.39
972.077	4267.98
972.378	4235.21
972.679	4250.58
972.98	4195.21
973.281	4176.01
973.582	4166.06
973.883	4173.29
974.183	4152.5
974.484	4155.22
974.785	4060.98
975.085	4107.31
975.386	4065.05
975.686	4034.54
975.986	3997.03
976.287	4027.76
976.587	3996.8
976.887	3974.2
977.187	3979.63
977.487	3912.96
977.787	3956.8
978.087	3909.57
978.387	3886.75
978.687	3886.97
978.987	3869.57
979.286	3825.28
979.586	3797.03
979.885	3804.26
980.185	3753.64
980.484	3770.59
980.784	3745.51
981.083	3689.01
981.382	3696.47
981.682	3701.67
981.981	3718.16
982.28	3692.4
982.579	3664.16
982.878	3648.11
983.177	3653.99
983.475	3608.34
983.774	3547.77
984.073	3590.71
984.372	3538.73
984.67	3553.42
984.969	3511.39
985.267	3520.66
985.566	3510.71
985.864	3474.78
986.162	3490.15
986.461	3449.25
986.759	3434.33
987.057	3380.55
987.355	3391.62
987.653	3355.46
987.951	3328.34
988.249	3323.37
988.547	3329.02
988.844	3320.66
989.142	3265.52
989.44	3257.84
989.737	3223.94
990.035	3225.52
990.332	3242.92
990.63	3216.26
990.927	3221.68
991.224	3208.35
991.521	3173.55
991.819	3146.65
992.116	3174.45
992.413	3132.19
992.71	3078.18
993.006	3115.92
993.303	3065.98
993.6	3094.9
993.897	3052.87
994.193	3030.73
994.49	3018.52
994.787	2990.27
995.083	2975.59
995.379	2955.02
995.676	2925.19
995.972	2938.98
996.268	2866.89
996.565	2867.57
996.861	2879.99
997.157	2880.45
997.453	2857.62
997.749	2820.11
998.044	2833.22
998.34	2828.92
998.636	2810.39
998.932	2771.3
999.227	2745.54
999.523	2718.87
999.818	2723.84
1000.114	2715.93
1000.409	2732.43
1000.704	2700.11
1001	2715.93
1001.295	2640.68
1001.59	2621.02
1001.885	2642.04
1002.18	2604.75
1002.475	2590.74
1002.77	2590.28
1003.065	2599.1
1003.359	2565.2
1003.654	2578.08
1003.949	2521.13
1004.243	2543.05
1004.538	2525.88
1004.832	2508.25
1005.127	2469.84
1005.421	2449.72
1005.715	2446.79
1006.009	2448.14
1006.304	2429.39
1006.598	2380.8
1006.892	2402.72
1007.186	2379.44
1007.48	2360.23
1007.773	2356.62
1008.067	2331.76
1008.361	2332.89
1008.655	2350.52
1008.948	2325.89
1009.242	2285.89
1009.535	2286.34
1009.829	2261.93
1010.122	2242.72
1010.415	2233.46
1010.708	2201.14
1011.001	2220.35
1011.295	2205.44
1011.588	2195.27
1011.881	2179.67
1012.173	2131.09
1012.466	2134.7
1012.759	2146.45
1013.052	2133.35
1013.344	2124.08
1013.637	2080.69
1013.93	2087.02
1014.222	2056.97
1014.514	2055.38
1014.807	2051.77
1015.099	2063.97
1015.391	1995.5
1015.683	1981.49
1015.976	1951.21
1016.268	2009.74
1016.56	1983.52
1016.851	1947.59
1017.143	1937.42
1017.435	1909.85
1017.727	1950.75
1018.018	1914.14
1018.31	1901.49
1018.602	1870.53
1018.893	1861.72
1019.185	1835.73
1019.476	1835.05
1019.767	1856.07
1020.058	1812.68
1020.35	1795.96
1020.641	1794.6
1020.932	1777.2
1021.223	1748.73
1021.514	1755.28
1021.804	1742.17
1022.095	1734.49
1022.386	1724.55
1022.677	1692.46
1022.967	1698.33
1023.258	1645.23
1023.548	1691.78
1023.839	1652.91
1024.129	1645.68
1024.419	1629.18
1024.709	1630.99
1025	1626.47
1025.29	1600.03
1025.58	1580.82
1025.87	1577.66
1026.16	1559.13
1026.449	1554.83
1026.739	1517.09
1027.029	1518.22
1027.319	1520.26
1027.608	1523.42
1027.898	1521.39
1028.187	1499.47
1028.477	1477.32
1028.766	1490.65
1029.055	1473.93
1029.344	1453.59
1029.634	1455.17
1029.923	1467.83
1030.212	1433.03
1030.501	1419.69
1030.79	1384.67
1031.078	1374.27
1031.367	1381.05
1031.656	1390.99
1031.945	1365.46
1032.233	1377.21
1032.522	1353.03
1032.81	1349.41
1033.099	1344.67
1033.387	1310.54
1033.675	1303.77
1033.963	1308.06
1034.251	1281.84
1034.54	1280.49
1034.828	1270.55
1035.116	1255.63
1035.403	1245.91
1035.691	1271.22
1035.979	1244.56
1036.267	1223.32
1036.554	1229.19
1036.842	1200.27
1037.129	1207.27
1037.417	1189.64
1037.704	1202.52
1037.992	1198.23
1038.279	1173.6
1038.566	1187.61
1038.853	1187.61
1039.14	1187.61
