Data from plate_porcelain_FLMS001491_089.txt Node
Date: Tue Feb 07 11:20:03 GMT 2017
User: dcchb
Spectrometer: FLMS00149
Trigger mode: 0
Integration Time (sec): 2.000000E-2
Scans to average: 10
Electric dark correction enabled: true
Nonlinearity correction enabled: false
Boxcar width: 0
XAxis mode: Wavelengths
Number of Pixels in Spectrum: 2048
>>>>>Begin Spectral Data<<<<<
341.393	-5.4
341.776	-5.4
342.16	-5.4
342.543	-72.96
342.927	-85.85
343.31	-79.52
343.693	-60.31
344.077	-66.86
344.46	-58.5
344.843	-61.21
345.226	-21.44
345.61	-23.93
345.993	-18.5
346.376	-4.27
346.759	6.58
347.142	23.3
347.525	51.33
347.908	36.41
348.291	67.37
348.674	89.07
349.057	120.48
349.44	123.41
349.823	145.56
350.206	193.7
350.588	241.15
350.971	248.38
351.354	265.56
351.737	263.07
352.119	290.64
352.502	310.08
352.884	303.07
353.267	316.86
353.65	331.09
354.032	351.88
354.414	349.62
354.797	339.91
355.179	377.65
355.562	352.34
355.944	367.93
356.326	390.98
356.709	384.88
357.091	374.93
357.473	390.53
357.855	382.84
358.238	390.07
358.62	365.67
359.002	394.82
359.384	383.97
359.766	390.07
360.148	357.76
360.53	399.34
360.912	374.93
361.294	394.82
361.676	380.58
362.057	384.42
362.439	386.46
362.821	395.72
363.203	381.71
363.584	380.58
363.966	379.23
364.348	396.4
364.729	400.24
365.111	412.22
365.493	371.77
365.874	371.54
366.256	378.55
366.637	381.71
367.019	387.36
367.4	397.98
367.781	389.4
368.163	377.42
368.544	393.24
368.925	388.72
369.306	394.82
369.688	428.04
370.069	415.61
370.45	405.89
370.831	381.71
371.212	380.81
371.593	384.2
371.974	398.66
372.355	411.09
372.736	402.05
373.117	431.43
373.498	428.04
373.879	425.55
374.26	402.96
374.641	409.73
375.021	423.52
375.402	408.61
375.783	409.51
376.163	467.81
376.544	435.27
376.925	460.36
377.305	431.88
377.686	444.54
378.066	466.46
378.447	469.39
378.827	463.07
379.208	473.01
379.588	464.65
379.968	468.26
380.349	455.38
380.729	472.33
381.109	488.83
381.489	481.15
381.87	489.73
382.25	509.85
382.63	508.04
383.01	522.27
383.39	485.21
383.77	511.43
384.15	516.4
384.53	509.39
384.91	550.97
385.29	551.65
385.67	562.5
386.049	554.36
386.429	555.72
386.809	550.07
387.189	575.83
387.568	554.36
387.948	575.15
388.328	568.83
388.707	594.36
389.087	614.7
389.466	609.96
389.846	610.63
390.225	613.57
390.605	606.34
390.984	622.16
391.363	632.33
391.743	611.76
392.122	662.84
392.501	672.1
392.881	662.38
393.26	670.07
393.639	673.91
394.018	662.38
394.397	696.28
394.776	706.45
395.155	698.99
395.534	695.38
395.913	707.81
396.292	710.29
396.671	741.03
397.05	730.18
397.429	760.91
397.808	769.73
398.186	776.96
398.565	781.7
398.944	750.74
399.323	773.57
399.701	768.14
400.08	802.27
400.458	811.31
400.837	815.37
401.215	827.13
401.594	818.09
401.972	850.63
402.351	859.21
402.729	845.2
403.107	862.83
403.486	886.78
403.864	868.25
404.242	885.43
404.62	892.21
404.999	932.89
405.377	929.95
405.755	954.13
406.133	952.09
406.511	957.52
406.889	996.16
407.267	987.57
407.645	988.7
408.023	1025.09
408.401	1033.67
408.779	1027.57
409.156	1054.69
409.534	1056.27
409.912	1092.43
410.29	1099.21
410.667	1112.32
411.045	1124.52
411.422	1153.44
411.8	1166.1
412.178	1198.64
412.555	1178.3
412.933	1206.78
413.31	1207.23
413.687	1236.83
414.065	1285.42
414.442	1268.47
414.819	1274.12
415.197	1277.28
415.574	1332.65
415.951	1289.03
416.328	1357.73
416.705	1338.75
417.082	1360.9
417.46	1371.52
417.837	1410.61
418.214	1395.02
418.591	1428.01
418.967	1444.06
419.344	1464.85
419.721	1487.45
420.098	1509.14
420.475	1479.76
420.852	1535.36
421.228	1519.08
421.605	1552.98
421.982	1560.89
422.358	1592.75
422.735	1585.75
423.111	1619.19
423.488	1638.86
423.864	1631.17
424.241	1701.23
424.617	1681.79
424.994	1737.61
425.37	1717.95
425.746	1749.36
426.123	1788
426.499	1783.71
426.875	1793.88
427.251	1835.46
427.627	1876.82
428.003	1883.14
428.379	1915.01
428.756	1927.66
429.132	1980.09
429.507	1986.42
429.883	2033.87
430.259	2043.14
430.635	2050.6
431.011	2088.33
431.387	2158.62
431.763	2185.28
432.138	2183.25
432.514	2242
432.89	2275.22
433.265	2294.88
433.641	2297.37
434.016	2318.39
434.392	2367.2
434.767	2391.6
435.143	2420.53
435.518	2445.61
435.894	2472.28
436.269	2511.83
436.644	2564.03
437.02	2572.39
437.395	2603.12
437.77	2618.26
438.145	2716.79
438.52	2739.17
438.895	2747.98
439.271	2755.89
439.646	2819.62
440.021	2809.45
440.395	2806.73
440.77	2830.01
441.145	2884.02
441.52	2943.23
441.895	2951.59
442.27	2978.26
442.645	2945.94
443.019	2998.59
443.394	3055.32
443.769	3065.03
444.143	3022.55
444.518	3156.56
444.892	3096.44
445.267	3167.63
445.641	3121.3
446.016	3208.08
446.39	3235.88
446.764	3230.23
447.139	3233.39
447.513	3338.02
447.887	3279.49
448.262	3331.92
448.636	3352.03
449.01	3404.68
449.384	3444.01
449.758	3460.28
450.132	3519.03
450.506	3529.2
450.88	3555.19
451.254	3555.64
451.628	3598.8
452.002	3633.15
452.376	3702.08
452.75	3738.24
453.123	3771.45
453.497	3853.94
453.871	3855.75
454.244	3966.03
454.618	3986.36
454.992	4066.36
455.365	4041.05
455.739	4117.89
456.112	4202.4
456.486	4244.89
456.859	4222.29
457.232	4380.48
457.606	4359.69
457.979	4375.73
458.352	4540.02
458.725	4589.96
459.099	4596.97
459.472	4712.22
459.845	4686.46
460.218	4788.83
460.591	4803.97
460.964	4823.18
461.337	4945.43
461.71	5048.03
462.083	5160.57
462.456	5155.82
462.829	5163.28
463.201	5229.72
463.574	5253.68
463.947	5370.28
464.32	5538.87
464.692	5560.11
465.065	5592.65
465.438	5642.82
465.81	5778.41
466.183	5837.84
466.555	5934.79
466.928	5938.18
467.3	5971.17
467.672	6107.44
468.045	6252.29
468.417	6231.5
468.789	6340.2
469.161	6410.03
469.534	6504.49
469.906	6698.16
470.278	6682.56
470.65	6813.63
471.022	6909.68
471.394	7076.45
471.766	7151.25
472.138	7214.3
472.51	7396.44
472.882	7466.95
473.253	7587.63
473.625	7706.04
473.997	7833.04
474.369	7875.3
474.74	8032.81
475.112	8136.99
475.484	8312.13
475.855	8443.2
476.227	8563.87
476.598	8816.07
476.97	8859
477.341	9059.68
477.713	9179.9
478.084	9254.47
478.455	9536.5
478.827	9575.82
479.198	9890.39
479.569	9972.42
479.94	10182.36
480.311	10283.6
480.682	10529.47
481.053	10754.32
481.424	10983.24
481.795	11043.35
482.166	11269.34
482.537	11304.36
482.908	11662.55
483.279	11731.02
483.65	11957
484.021	12271.34
484.391	12338.46
484.762	12475.63
485.133	12552.47
485.503	12795.17
485.874	12968.73
486.244	13184.77
486.615	13466.34
486.985	13710.4
487.356	13866.33
487.726	14011.64
488.097	14239.2
488.467	14333.66
488.837	14591.96
489.207	14891.61
489.578	15040.54
489.948	15196.01
490.318	15528.43
490.688	15513.97
491.058	15705.83
491.428	15998.48
491.798	16140.17
492.168	16529.76
492.538	16507.62
492.908	16729.31
493.278	16903.09
493.648	16995.51
494.017	17305.34
494.387	17355.05
494.757	17597.76
495.126	17733.8
495.496	17816.51
495.866	17983.51
496.235	18185.76
496.605	18320
496.974	18474.57
497.344	18638.41
497.713	18837.05
498.082	18899.64
498.452	19070.71
498.821	19229.58
499.19	19251.5
499.559	19509.12
499.928	19750.24
500.298	19925.38
500.667	20036.34
501.036	19966.28
501.405	20314.07
501.774	20274.98
502.143	20464.35
502.512	20640.84
502.88	20761.29
503.249	20871.34
503.618	21078.8
503.987	21206.02
504.356	21266.36
504.724	21389.75
505.093	21425.23
505.462	21662.06
505.83	21836.74
506.199	22072.44
506.567	22397.86
506.936	22294.81
507.304	22562.37
507.672	22698.64
508.041	22719.43
508.409	23025.41
508.777	23144.05
509.145	23406.87
509.514	23494.55
509.882	23655
510.25	23706.52
510.618	23835.79
510.986	23971.38
511.354	24328.65
511.722	24480.29
512.09	24675.99
512.458	24730.23
512.826	24967.06
513.193	25011.8
513.561	25132.7
513.929	25451.56
514.297	25661.73
514.664	25817.65
515.032	25929.06
515.4	26209.51
515.767	26268.94
516.135	26560.91
516.502	26433.46
516.869	26811.75
517.237	27113.89
517.604	26940.34
517.972	27436.37
518.339	27569.92
518.706	27713.65
519.073	27806.3
519.44	28104.37
519.808	28378.04
520.175	28343.24
520.542	28758.37
520.909	29001.75
521.276	29034.75
521.643	29352.7
522.009	29582.08
522.376	29799.02
522.743	29930.31
523.11	30295.05
523.477	30693.46
523.843	30645.78
524.21	31085.76
524.577	31193.11
524.943	31368.69
525.31	31674.45
525.676	31962.8
526.043	32013.65
526.409	32210.71
526.776	32623.35
527.142	32784.48
527.508	32960.29
527.874	33261.53
528.241	33451.35
528.607	33669.2
528.973	33990.55
529.339	33963.88
529.705	34259.92
530.071	34490.42
530.437	34679.79
530.803	34947.36
531.169	35115.26
531.535	35089.28
531.901	35258.31
532.267	35426.22
532.632	35685.19
532.998	35935.58
533.364	36036.82
533.73	36251.73
534.095	36589.8
534.461	36656.92
534.826	36899.62
535.192	36883.35
535.557	37322.66
535.923	37204.93
536.288	37361.98
536.653	37554.52
537.019	37624.35
537.384	37796.1
537.749	37920.84
538.114	38041.97
538.479	38159.93
538.845	38392.69
539.21	38378.45
539.575	38598.79
539.94	38781.83
540.305	38962.17
540.67	39073.13
541.034	39121.94
541.399	39383.85
541.764	39440.12
542.129	39552.66
542.494	39641.47
542.858	39979.77
543.223	39944.97
543.587	40245.75
543.952	40175.47
544.316	40317.16
544.681	40406.2
545.045	40676.92
545.41	40816.36
545.774	40989.46
546.138	40930.03
546.503	41062.9
546.867	41125.73
547.231	41469.9
547.595	41592.15
547.959	41756.22
548.324	41786.73
548.688	41715.32
549.052	42113.5
549.416	42217.68
549.779	42223.1
550.143	42393.04
550.507	42711.67
550.871	42739.7
551.235	42961.16
551.599	43125.22
551.962	43323.18
552.326	43227.59
552.689	43529.28
553.053	43454.48
553.417	43586.45
553.78	44069.15
554.143	43945.99
554.507	44159.09
554.87	44331.29
555.234	44731.73
555.597	44510.5
555.96	44801.56
556.323	44985.06
556.686	44992.52
557.05	45204.49
557.413	45458.04
557.776	45673.18
558.139	45851.25
558.502	45955.43
558.865	46003.34
559.228	46269.55
559.59	46477.9
559.953	46481.52
560.316	46879.02
560.679	46954.73
561.041	47238.33
561.404	47348.39
561.767	47613.92
562.129	47474.26
562.492	47920.12
562.854	47890.29
563.217	47995.38
563.579	48116.05
563.941	48442.37
564.304	48561.24
564.666	48886.2
565.028	48892.53
565.39	49170.49
565.753	49249.81
566.115	49414.32
566.477	49535.67
566.839	49681.66
567.201	49880.98
567.563	50007.75
567.925	50121.65
568.287	50147.64
568.648	50313.73
569.01	50440.51
569.372	50691.8
569.734	50583.33
570.095	50911.23
570.457	50946.49
570.819	51047.5
571.18	51106.03
571.542	51292.92
571.903	51359.36
572.265	51478.45
572.626	51553.47
572.987	51632.12
573.349	51717.99
573.71	51847.48
574.071	51917.99
574.432	52033.46
574.794	52261.48
575.155	52258.32
575.516	52092.9
575.877	52368.59
576.238	52397.75
576.599	52548.7
576.96	52530.4
577.32	52566.33
577.681	52651.07
578.042	52736.04
578.403	52721.13
578.763	52854.23
579.124	52916.15
579.485	52971.06
579.845	53032.31
580.206	53029.59
580.566	53102.59
580.927	53105.75
581.287	53138.52
581.648	53047.9
582.008	53285.18
582.368	53167.9
582.728	53321.11
583.089	53240.21
583.449	53180.78
583.809	53343.26
584.169	53386.42
584.529	53298.29
584.889	53463.93
585.249	53331.06
585.609	53258.97
585.969	53415.57
586.329	53395.46
586.688	53380.55
587.048	53395.01
587.408	53350.04
587.768	53360.89
588.127	53346.87
588.487	53273.2
588.846	53513.88
589.206	53338.74
589.565	53379.42
589.925	53470.26
590.284	53433.2
590.643	53508.45
591.003	53566.76
591.362	53554.55
591.721	53553.87
592.08	53607.43
592.44	53612.63
592.799	53617.6
593.158	53602.91
593.517	53640.2
593.876	53516.36
594.235	53548.22
594.593	53615.34
594.952	53723.14
595.311	53664.83
595.67	53643.14
596.029	53938.72
596.387	53849.91
596.746	53855.11
597.104	53760.87
597.463	53745.96
597.822	53930.59
598.18	53868.44
598.538	53724.49
598.897	54010.13
599.255	53704.15
599.613	54167.87
599.972	53969.23
600.33	54011.94
600.688	53933.07
601.046	54142.33
601.404	54230.92
601.762	54110.7
602.12	54227.75
602.478	54283.35
602.836	54304.36
603.194	54127.42
603.552	54223.91
603.91	54115.22
604.268	54299.84
604.625	54131.94
604.983	54326.96
605.341	54255.78
605.698	54279.28
606.056	54390.46
606.413	54382.1
606.771	54461.87
607.128	54563.79
607.485	54434.76
607.843	54477.01
608.2	54648.99
608.557	54667.29
608.914	54612.38
609.272	54646.5
609.629	54786.84
609.986	54851.02
610.343	54749.32
610.7	54949.77
611.057	54813.95
611.414	54877.46
611.771	54980.5
612.127	54961.97
612.484	54932.14
612.841	55137.34
613.198	55055.98
613.554	55057.11
613.911	55168.52
614.267	55187.96
614.624	55136.21
614.98	55200.16
615.337	55417.1
615.693	55278.35
616.05	55264.34
616.406	55361.06
616.762	55256.65
617.118	55285.58
617.475	55326.71
617.831	55365.8
618.187	55388.18
618.543	55406.26
618.899	55554.27
619.255	55511.56
619.611	55485.12
619.967	55497.1
620.323	55659.58
620.678	55608.51
621.034	55453.03
621.39	55533.26
621.746	55473.37
622.101	55824.55
622.457	55525.35
622.812	55505.01
623.168	55689.41
623.523	55688.28
623.879	55752.23
624.234	55530.77
624.589	55596.76
624.945	55642.86
625.3	55698.45
625.655	55705.46
626.01	55645.12
626.365	55622.97
626.72	55653.71
627.075	55593.14
627.43	55565.35
627.785	55479.47
628.14	55570.32
628.495	55566.48
628.85	55508.4
629.205	55434.73
629.559	55583.65
629.914	55505.91
630.269	55507.04
630.623	55415.07
630.978	55382.53
631.332	55394.05
631.687	55488.29
632.041	55377.56
632.396	55432.02
632.75	55288.97
633.104	55343.66
633.459	55157.22
633.813	55197.67
634.167	55184.11
634.521	55190.22
634.875	55191.35
635.229	55152.25
635.583	55020.28
635.937	55040.16
636.291	55008.98
636.645	55034.97
636.999	54926.49
637.352	54946.38
637.706	54765.37
638.06	54917
638.413	54823.9
638.767	54851.02
639.121	54830.68
639.474	54653.05
639.828	54662.09
640.181	54621.87
640.534	54639.04
640.888	54554.98
641.241	54418.03
641.594	54460.97
641.947	54539.61
642.301	54530.57
642.654	54479.05
643.007	54458.48
643.36	54427.98
643.713	54411.03
644.066	54447.86
644.419	54305.72
644.771	54052.17
645.124	53811.72
645.477	53734.89
645.83	53546.64
646.182	53400.66
646.535	53268.91
646.888	53285.86
647.24	53077.5
647.593	53320.66
647.945	53190.04
648.298	53047.22
648.65	53044.96
649.002	52972.19
649.355	53010.61
649.707	53095.58
650.059	53185.07
650.411	53518.17
650.763	53566.3
651.115	53711.61
651.467	53595.68
651.819	53601.56
652.171	53511.16
652.523	53502.35
652.875	53460.09
653.227	53322.47
653.578	53540.99
653.93	53413.09
654.282	53306.65
654.633	53152.53
654.985	53143.49
655.337	53253.09
655.688	53159.76
656.039	53416.02
656.391	53156.6
656.742	53233.43
657.094	53112.3
657.445	53332.41
657.796	53216.71
658.147	53152.08
658.498	53039.76
658.849	53161.57
659.2	53094.9
659.551	53082.47
659.902	53225.07
660.253	53057.39
660.604	53041.35
660.955	52952.99
661.306	53083.6
661.656	52934.68
662.007	52991.18
662.358	52825.98
662.708	52970.61
663.059	52916.38
663.409	52650.4
663.76	52915.25
664.11	52979.65
664.461	52892.65
664.811	52878.64
665.161	52889.94
665.511	52793.22
665.862	52764.29
666.212	52885.64
666.562	52841.12
666.912	52715.7
667.262	52744.18
667.612	52770.39
667.962	52822.14
668.312	52765.65
668.662	52912.99
669.011	52759.77
669.361	52685.2
669.711	52725.2
670.06	52565.88
670.41	52565.2
670.76	52543.51
671.109	52638.87
671.459	52558.87
671.808	52570.85
672.157	52621.02
672.507	52400.46
672.856	52462.6
673.205	52489.5
673.554	52584.41
673.904	52443.62
674.253	52569.95
674.602	52410.18
674.951	51991.43
675.3	51807.71
675.649	52277.75
675.998	52228.49
676.346	52232.55
676.695	52440.68
677.044	51998.21
677.393	52188.26
677.741	52233.68
678.09	52157.07
678.438	52061.48
678.787	52141.26
679.135	52042.5
679.484	51960.02
679.832	52015.61
680.181	51823.98
680.529	51886.35
680.877	51808.84
681.225	51819.23
681.573	51952.11
681.922	51843.64
682.27	51581.72
682.618	51602.51
682.966	51646.81
683.314	51621.72
683.661	51497.66
684.009	51377.21
684.357	51188.06
684.705	51168.63
685.053	51273.71
685.4	51105.58
685.748	51083.66
686.095	51007.27
686.443	50885.7
686.79	50735.64
687.138	50890.22
687.485	50852.02
687.832	50751.46
688.18	50714.63
688.527	50524.58
688.874	50462.2
689.221	50430.11
689.568	50295.65
689.915	50257.92
690.262	50288.2
690.609	50186.96
690.956	50004.82
691.303	50031.26
691.65	49805.05
691.997	49751.71
692.344	49550.36
692.69	49626.75
693.037	49630.59
693.383	49356.02
693.73	49402.35
694.077	49118.06
694.423	49239.41
694.769	49092.07
695.116	49072.41
695.462	49078.06
695.808	48823.38
696.155	48868.57
696.501	48598.98
696.847	48635.81
697.193	48346.1
697.539	48470.17
697.885	48160.12
698.231	48064.98
698.577	48120.8
698.923	47957.41
699.269	47708.6
699.614	47609.62
699.96	47582.96
700.306	47565.56
700.651	47348.84
700.997	47329.41
701.342	47279.01
701.688	47135.06
702.033	47077.21
702.379	46978
702.724	46822.3
703.069	46930.77
703.415	46333.05
703.76	46456.66
704.105	46461.63
704.45	46307.96
704.795	46053.96
705.14	45940.97
705.485	46044.24
705.83	45894.41
706.175	45969.89
706.52	45753.63
706.865	45707.53
707.209	45711.82
707.554	45378.5
707.899	45497.36
708.243	45229.57
708.588	45230.93
708.932	44919.07
709.277	44958.85
709.621	44961.56
709.966	44772.64
710.31	44750.04
710.654	44268.69
710.998	44498.75
711.342	44449.48
711.687	44359.99
712.031	44294.68
712.375	44033.22
712.719	44076.16
713.063	43871.19
713.407	44173.78
713.75	43765.21
714.094	43829.84
714.438	43626.68
714.782	43696.96
715.125	43468.72
715.469	43546.45
715.812	43296.97
716.156	43085.68
716.499	43162.51
716.843	43251.77
717.186	42835.51
717.53	43113.92
717.873	43070.08
718.216	42926.36
718.559	42685.01
718.902	42517.78
719.246	42649.75
719.589	42489.53
719.932	42352.36
720.275	42459.93
720.617	42282.31
720.96	42050.9
721.303	42069.88
721.646	42137.9
721.989	42016.78
722.331	41938.36
722.674	41898.14
723.016	41876.67
723.359	41698.37
723.701	41802.54
724.044	41578.82
724.386	41363.01
724.729	41623.11
725.071	41441.88
725.413	41277.14
725.755	41315.1
726.097	41110.36
726.439	40990.14
726.782	41033.98
727.124	41024.71
727.465	40891.16
727.807	40936.35
728.149	40767.54
728.491	40778.62
728.833	40844.6
729.175	40691.61
729.516	40480.09
729.858	40447.33
730.199	40325.97
730.541	40458.17
730.882	40263.83
731.224	40406.42
731.565	40211.4
731.906	40184.28
732.248	40018.41
732.589	39853.44
732.93	39999.88
733.271	39712.2
733.612	39860.9
733.953	39816.38
734.294	39678.08
734.635	39549.5
734.976	39668.14
735.317	39291.2
735.658	39329.62
735.999	39364.42
736.339	39238.77
736.68	39265.44
737.021	39176.63
737.361	39053.92
737.702	39325.55
738.042	38986.35
738.383	38931.89
738.723	38958.1
739.063	38725.34
739.404	38842.4
739.744	38797.88
740.084	38602.4
740.424	38687.37
740.764	38631.55
741.104	38627.49
741.444	38413.48
741.784	38261.4
742.124	38401.73
742.464	38314.05
742.804	38123.32
743.143	38162.87
743.483	38084.45
743.823	37910.44
744.162	38053.72
744.502	38004.23
744.841	37758.58
745.181	37941.18
745.52	37840.84
745.86	37743.22
746.199	37691.24
746.538	37748.41
746.877	37608.53
747.216	37625.03
747.556	37448.99
747.895	37387.52
748.234	37274.98
748.573	37128.32
748.911	37243.34
749.25	37166.51
749.589	36976.91
749.928	37035.89
750.267	36919.96
750.605	36794.32
750.944	36670.25
751.283	36587.09
751.621	36679.06
751.96	36412.4
752.298	36448.79
752.636	36413.53
752.975	36297.6
753.313	36130.6
753.651	36202.01
753.989	36045.41
754.327	35947.11
754.666	35660.79
755.004	35977.16
755.342	35848.13
755.679	35935.13
756.017	35673.44
756.355	35641.58
756.693	35564.29
757.031	35529.94
757.368	35293.56
757.706	35180.8
758.044	35139.44
758.381	34964.53
758.719	34754.14
759.056	34933.35
759.394	34854.03
759.731	34646.8
760.068	34558.89
760.405	34372.01
760.743	34162.75
761.08	34298.79
761.417	34076.87
761.754	34215.63
762.091	34046.36
762.428	33916.88
762.765	33807.95
763.102	33794.85
763.438	33552.14
763.775	33399.83
764.112	33485.48
764.449	33417.23
764.785	33184.24
765.122	33031.7
765.458	32929.33
765.795	32833.97
766.131	32811.37
766.467	32578.15
766.804	32469.46
767.14	32251.61
767.476	32309.46
767.812	32177.04
768.148	32239.63
768.485	32080.31
768.821	31746.99
769.157	31775.92
769.492	31742.24
769.828	31612.76
770.164	31493.89
770.5	31268.13
770.836	31470.39
771.171	31152.2
771.507	31106.33
771.842	30815.26
772.178	30816.85
772.513	30858.88
772.849	30741.59
773.184	30668.6
773.519	30413.01
773.855	30284.88
774.19	30201.04
774.525	30070.42
774.86	30147.71
775.195	30055.28
775.53	29798.34
775.865	29747.49
776.2	29547.05
776.535	29421.18
776.87	29291.01
777.205	29196.55
777.539	29153.16
777.874	29141.86
778.209	29003.11
778.543	28834.52
778.878	28703
779.212	28698.71
779.547	28464.36
779.881	28514.31
780.215	28421.88
780.55	28281.77
780.884	28158.16
781.218	28056.47
781.552	28104.83
781.886	27845.62
782.22	27721.56
782.554	27661.45
782.888	27394.11
783.222	27487.44
783.556	27273.21
783.889	27175.58
784.223	26958.42
784.557	27021.92
784.89	27071.41
785.224	26751.87
785.557	26645.2
785.891	26618.54
786.224	26504.64
786.558	26438.43
786.891	26253.8
787.224	26253.58
787.557	26160.47
787.891	26054.48
788.224	26055.39
788.557	26116.18
788.89	25865.79
789.223	25830.54
789.556	25715.06
789.888	25517.1
790.221	25478.68
790.554	25262.19
790.887	25248.18
791.219	25158.46
791.552	25160.27
791.884	25012.25
792.217	24918.47
792.549	24853.16
792.882	24761.19
793.214	24647.97
793.546	24647.52
793.879	24454.75
794.211	24334.76
794.543	24454.75
794.875	24197.36
795.207	24212.27
795.539	24109.9
795.871	24075.33
796.203	23857.71
796.535	23811.15
796.867	23780.42
797.198	23699.97
797.53	23669.24
797.862	23551.5
798.193	23612.97
798.525	23350.15
798.856	23299.08
799.188	23113.09
799.519	23112.19
799.85	22936.6
800.182	23026.99
800.513	23024.28
800.844	22795.81
801.175	22916.49
801.506	22878.52
801.837	22740.9
802.168	22671.75
802.499	22582.49
802.83	22453.68
803.161	22374.13
803.491	22391.08
803.822	22233.12
804.153	22111.76
804.483	21970.07
804.814	21980.47
805.145	21909.73
805.475	21930.53
805.805	21848.49
806.136	21866.35
806.466	21782.05
806.796	21750.19
807.126	21511.33
807.457	21507.94
807.787	21565.34
808.117	21422.06
808.447	21363.76
808.777	21322.63
809.107	21219.58
809.436	21256.64
809.766	21219.36
810.096	21101.17
810.426	21038.8
810.755	20987.27
811.085	20894.39
811.414	20885.58
811.744	20675.87
812.073	20610.11
812.403	20633.61
812.732	20517.23
813.061	20474.07
813.39	20412.15
813.719	20279.5
814.049	20442.2
814.378	20373.05
814.707	20152.49
815.036	20061.42
815.365	20099.61
815.693	19960.18
816.022	19989.56
816.351	19927.64
816.68	19841.77
817.008	19887.64
817.337	19651.94
817.665	19683.13
817.994	19668.44
818.322	19656.23
818.651	19571.49
818.979	19513.19
819.307	19557.93
819.636	19480.42
819.964	19433.64
820.292	19368.56
820.62	19339.63
820.948	19458.95
821.276	19400.42
821.604	19397.26
821.932	19383.02
822.259	19384.15
822.587	19314.32
822.915	19271.61
823.243	19366.3
823.57	19339.41
823.898	19341.89
824.225	19093.54
824.553	19227.55
824.88	19210.37
825.207	19331.05
825.535	19192.52
825.862	19288.56
826.189	19201.11
826.516	19247.66
826.843	19326.75
827.17	19296.7
827.497	19266.87
827.824	19238.17
828.151	19261.44
828.478	19203.82
828.805	19244.04
829.131	19152.07
829.458	19195
829.785	19110.26
830.111	19249.01
830.438	19351.61
830.764	19289.24
831.09	19286.53
831.417	19048.79
831.743	19135.12
832.069	19077.04
832.395	19066.42
832.722	19075.91
833.048	19071.62
833.374	18971.51
833.7	18906.2
834.026	18956.14
834.351	19085.85
834.677	19040.21
835.003	18971.28
835.329	18891.28
835.654	18886.09
835.98	18838.85
836.306	18853.32
836.631	18719.31
836.956	18884.96
837.282	18751.85
837.607	18693.1
837.932	18665.75
838.258	18756.6
838.583	18793.21
838.908	18561.8
839.233	18521.35
839.558	18508.92
839.883	18465.98
840.208	18314.12
840.533	18484.51
840.858	18407
841.182	18334.24
841.507	18448.81
841.832	18265.54
842.156	18311.19
842.481	18218.53
842.805	18202.94
843.13	18151.87
843.454	18127.91
843.778	18014.92
844.103	18055.6
844.427	17986.22
844.751	18028.48
845.075	17893.34
845.399	17803.63
845.723	17839.79
846.047	17706.23
846.371	17565.89
846.695	17592.33
847.019	17352.79
847.343	17311.89
847.666	17229.41
847.99	17140.59
848.313	17144.21
848.637	16944.22
848.96	17041.84
849.284	16901.28
849.607	16791.23
849.931	16788.97
850.254	16690.44
850.577	16598.69
850.9	16480.05
851.223	16523.89
851.546	16374.96
851.869	16297.9
852.192	16466.04
852.515	16278.02
852.838	16173.39
853.161	16239.6
853.483	16143.33
853.806	15970
854.129	15980.17
854.451	15941.3
854.774	15837.8
855.096	15787.41
855.419	15786.28
855.741	15747.41
856.063	15624.25
856.385	15546.96
856.708	15496.8
857.03	15519.85
857.352	15444.82
857.674	15471.26
857.996	15380.64
858.318	15280.3
858.64	15304.94
858.961	15115.11
859.283	15188.33
859.605	15093.64
859.926	15071.95
860.248	15103.81
860.57	14965.06
860.891	14972.29
861.212	14926.19
861.534	14869.69
861.855	14966.64
862.176	14882.57
862.498	14806.42
862.819	14854.78
863.14	14713.77
863.461	14856.81
863.782	14695.91
864.103	14650.04
864.424	14654.56
864.745	14693.65
865.065	14505.41
865.386	14614.33
865.707	14546.99
866.027	14531.4
866.348	14519.19
866.668	14508.8
866.989	14441.91
867.309	14383.38
867.63	14400.78
867.95	14369.59
868.27	14240.56
868.59	14253.21
868.91	14200.11
869.23	14172.08
869.55	14239.65
869.87	14293.66
870.19	14241.69
870.51	14189.71
870.83	14179.77
871.15	14079.66
871.469	14027
871.789	14094.57
872.109	14027.23
872.428	13930.51
872.748	13996.72
873.067	14053.22
873.386	14020.68
873.706	13961.02
874.025	13806.22
874.344	13863.84
874.663	13838.76
874.982	13767.8
875.301	13860.91
875.62	13751.76
875.939	13767.8
876.258	13771.19
876.577	13639.9
876.896	13642.16
877.214	13662.04
877.533	13707.46
877.852	13568.03
878.17	13622.95
878.489	13566.68
878.807	13539.79
879.125	13566.23
879.444	13582.27
879.762	13467.02
880.08	13467.92
880.398	13356.74
880.716	13495.27
881.034	13422.73
881.352	13357.87
881.67	13367.59
881.988	13307.25
882.306	13213.47
882.624	13188.61
882.941	13197.87
883.259	13105.45
883.577	13091.44
883.894	13024.77
884.212	13101.83
884.529	13060.25
884.846	12968.27
885.164	12977.54
885.481	12928.28
885.798	12919.24
886.115	12792.69
886.432	12812.57
886.75	12793.36
887.067	12827.94
887.383	12767.6
887.7	12775.51
888.017	12718.34
888.334	12627.27
888.651	12699.58
888.967	12622.75
889.284	12571.68
889.6	12514.5
889.917	12437.22
890.233	12408.74
890.55	12388.86
890.866	12359.03
891.182	12336.43
891.498	12263.21
891.815	12182.31
892.131	12145.7
892.447	12179.6
892.763	12113.38
893.079	12120.39
893.395	12185.47
893.71	12057.79
894.026	11998.81
894.342	11958.36
894.657	11972.82
894.973	11851.24
895.289	11840.39
895.604	11879.49
895.92	11694.86
896.235	11702.32
896.55	11683.56
896.865	11603.56
897.181	11631.59
897.496	11598.82
897.811	11542.32
898.126	11562.66
898.441	11481.76
898.756	11427.98
899.071	11367.86
899.386	11288.32
899.7	11256.46
900.015	11286.51
900.33	11202.45
900.644	11199.28
900.959	11155.44
901.273	11160.64
901.588	11075.44
901.902	10984.82
902.216	10975.56
902.531	10926.52
902.845	10891.04
903.159	10823.47
903.473	10776.47
903.787	10711.61
904.101	10705.96
904.415	10700.54
904.729	10583.48
905.042	10564.5
905.356	10599.98
905.67	10575.12
905.984	10602.24
906.297	10474.78
906.611	10407.66
906.924	10453.09
907.237	10326.08
907.551	10343.94
907.864	10339.19
908.177	10221.91
908.491	10208.57
908.804	10122.93
909.117	10145.07
909.43	10040.67
909.743	9951.18
910.056	9953.89
910.368	9956.83
910.681	9835.7
910.994	9847.9
911.307	9796.38
911.619	9703.05
911.932	9753.9
912.244	9684.97
912.557	9681.81
912.869	9641.13
913.181	9564.07
913.494	9546.22
913.806	9502.6
914.118	9473.68
914.43	9389.61
914.742	9407.69
915.054	9370.4
915.366	9233.01
915.678	9294.47
915.99	9206.11
916.302	9132.67
916.613	9069.17
916.925	9109.39
917.236	9078.89
917.548	9024.65
917.859	8964.09
918.171	8967.93
918.482	8976.74
918.794	8821.94
919.105	8886.35
919.416	8753.7
919.727	8742.62
920.038	8661.27
920.349	8658.78
920.66	8630.54
920.971	8622.63
921.282	8610.65
921.593	8535.4
921.903	8557.77
922.214	8522.97
922.525	8418.11
922.835	8343.99
923.146	8278.68
923.456	8322.75
923.767	8336.53
924.077	8270.09
924.387	8257.66
924.697	8174.05
925.008	8120.27
925.318	8084.79
925.628	8075.07
925.938	8058.35
926.248	7995.98
926.558	7993.26
926.867	7947.39
927.177	7890.89
927.487	7839.82
927.796	7765.93
928.106	7783.1
928.416	7735.19
928.725	7715.31
929.034	7682.09
929.344	7668.3
929.653	7651.35
929.962	7592.82
930.271	7539.72
930.581	7494.29
930.89	7450.23
931.199	7477.8
931.508	7416.56
931.817	7371.81
932.125	7321.64
932.434	7328.2
932.743	7248.65
933.051	7221.31
933.36	7214.75
933.669	7217.69
933.977	7086.62
934.286	7130.91
934.594	7145.38
934.902	7023.35
935.21	7018.37
935.519	6972.95
935.827	6987.64
936.135	6978.38
936.443	6898.6
936.751	6865.16
937.059	6843.46
937.367	6781.54
937.674	6798.72
937.982	6707.2
938.29	6691.38
938.597	6750.81
938.905	6678.95
939.213	6617.03
939.52	6597.59
939.827	6670.59
940.135	6552.17
940.442	6557.37
940.749	6527.77
941.056	6476.47
941.363	6371.39
941.67	6401.22
941.977	6355.57
942.284	6303.82
942.591	6305.85
942.898	6331.39
943.205	6297.94
943.511	6218.17
943.818	6212.97
944.125	6163.93
944.431	6174.78
944.738	6121.22
945.044	6071.06
945.35	6070.38
945.657	6017.27
945.963	6016.82
946.269	6012.98
946.575	5996.93
946.881	5928.23
947.187	5953.77
947.493	5881
947.799	5923.71
948.105	5795.36
948.41	5787.45
948.716	5745.64
949.022	5728.92
949.327	5739.99
949.633	5629.03
949.938	5631.52
950.244	5673.55
950.549	5597.17
950.854	5574.34
951.16	5598.98
951.465	5536.15
951.77	5528.7
952.075	5519.43
952.38	5504.97
952.685	5459.77
952.99	5364.86
953.294	5419.09
953.599	5349.49
953.904	5320.57
954.209	5339.32
954.513	5320.11
954.818	5229.95
955.122	5234.69
955.426	5257.74
955.731	5197.18
956.035	5139.33
956.339	5157.86
956.643	5154.92
956.948	5123.06
957.252	5085.32
957.556	5057.3
957.86	5066.11
958.163	5048.94
958.467	5011.87
958.771	5000.57
959.075	5034.92
959.378	4931.65
959.682	4983.85
959.985	4880.35
960.289	4897.53
960.592	4848.26
960.896	4846.23
961.199	4832.44
961.502	4824.08
961.805	4761.26
962.108	4733.01
962.411	4735.04
962.714	4739.79
963.017	4664.31
963.32	4737.76
963.623	4665.22
963.926	4682.17
964.228	4648.49
964.531	4604.2
964.833	4580.92
965.136	4534.82
965.438	4543.64
965.741	4535.95
966.043	4500.47
966.345	4480.36
966.648	4471.78
966.95	4464.32
967.252	4400.82
967.554	4385.22
967.856	4426.58
968.158	4389.29
968.46	4348.39
968.761	4333.02
969.063	4324.89
969.365	4269.97
969.666	4250.31
969.968	4238.11
970.269	4221.84
970.571	4221.16
970.872	4191.33
971.174	4161.73
971.475	4149.52
971.776	4138.45
972.077	4165.79
972.378	4117.66
972.679	4028.4
972.98	4060.49
973.281	4027.04
973.582	4027.04
973.883	3999.02
974.183	4001.96
974.484	3958.12
974.785	3916.08
975.085	3959.92
975.386	3919.93
975.686	3870.43
975.986	3910.21
976.287	3892.36
976.587	3811
976.887	3816.65
977.187	3799.48
977.487	3853.71
977.787	3743.21
978.087	3768.74
978.387	3714.28
978.687	3749.08
978.987	3735.75
979.286	3648.07
979.586	3717.9
979.885	3658.46
980.185	3628.86
980.484	3608.52
980.784	3631.35
981.083	3617.79
981.382	3601.06
981.682	3534.4
981.981	3539.14
982.28	3521.74
982.579	3509.09
982.878	3472.48
983.177	3500.28
983.475	3475.19
983.774	3455.53
984.073	3394.97
984.372	3413.5
984.67	3381.63
984.969	3426.15
985.267	3355.87
985.566	3345.93
985.864	3342.54
986.162	3373.5
986.461	3271.35
986.759	3262.99
987.057	3276.33
987.355	3268.64
987.653	3231.81
987.951	3180.28
988.249	3225.93
988.547	3202.2
988.844	3194.75
989.142	3175.09
989.44	3121.98
989.737	3145.48
990.035	3153.39
990.332	3087.18
990.63	3109.1
990.927	3069.55
991.224	3087.18
991.521	3079.72
991.819	3055.54
992.116	3060.74
992.413	3017.8
992.71	2964.02
993.006	2980.74
993.303	2962.66
993.6	2958.59
993.897	2984.81
994.193	2958.14
994.49	2902.78
994.787	2905.04
995.083	2867.52
995.379	2872.27
995.676	2858.03
995.972	2792.05
996.268	2798.6
996.565	2814.42
996.861	2767.41
997.157	2773.97
997.453	2776.68
997.749	2752.5
998.044	2724.02
998.34	2729.9
998.636	2710.69
998.932	2723.12
999.227	2662.33
999.523	2662.56
999.818	2650.81
1000.114	2648.09
1000.409	2620.07
1000.704	2614.65
1001	2585.5
1001.295	2589.56
1001.59	2559.28
1001.885	2560.64
1002.18	2512.5
1002.475	2566.29
1002.77	2504.82
1003.065	2490.58
1003.359	2500.98
1003.654	2517.25
1003.949	2472.51
1004.243	2450.13
1004.538	2416.46
1004.832	2425.95
1005.127	2409.23
1005.421	2371.94
1005.715	2343.24
1006.009	2359.06
1006.304	2357.93
1006.598	2317.93
1006.892	2305.05
1007.186	2279.74
1007.48	2287.65
1007.773	2270.48
1008.067	2287.2
1008.361	2242.23
1008.655	2250.59
1008.948	2234.32
1009.242	2215.79
1009.535	2202.23
1009.829	2187.32
1010.122	2171.95
1010.415	2154.1
1010.708	2152.06
1011.001	2128.79
1011.295	2108.9
1011.588	2091.05
1011.881	2111.39
1012.173	2105.28
1012.466	2081.78
1012.759	2054.66
1013.052	2027.09
1013.344	2054.44
1013.637	2045.62
1013.93	2028.45
1014.222	2002.01
1014.514	1991.16
1014.807	1982.12
1015.099	1941.67
1015.391	1936.7
1015.683	1928.79
1015.976	1931.28
1016.268	1897.38
1016.56	1894.22
1016.851	1866.87
1017.143	1889.7
1017.435	1839.75
1017.727	1808.34
1018.018	1845.4
1018.31	1822.13
1018.602	1816.03
1018.893	1785.07
1019.185	1802.69
1019.476	1769.02
1019.767	1772.86
1020.058	1740.1
1020.35	1753.65
1020.641	1722.02
1020.932	1718.18
1021.223	1682.92
1021.514	1709.14
1021.804	1698.74
1022.095	1671.4
1022.386	1693.54
1022.677	1655.58
1022.967	1660.32
1023.258	1620.55
1023.548	1636.6
1023.839	1607.9
1024.129	1597.95
1024.419	1600.89
1024.709	1579.2
1025	1574.68
1025.29	1561.34
1025.58	1549.82
1025.87	1534.9
1026.16	1514.56
1026.449	1539.65
1026.739	1528.12
1027.029	1480.44
1027.319	1499.42
1027.608	1498.52
1027.898	1464.17
1028.187	1424.62
1028.477	1456.49
1028.766	1439.76
1029.055	1400.9
1029.344	1411.29
1029.634	1401.35
1029.923	1395.25
1030.212	1353.66
1030.501	1371.74
1030.79	1356.83
1031.078	1330.84
1031.367	1344.4
1031.656	1322.25
1031.945	1322.48
1032.233	1307.11
1032.522	1318.64
1032.81	1313.67
1033.099	1300.33
1033.387	1285.64
1033.675	1274.57
1033.963	1269.83
1034.251	1279.54
1034.54	1231.41
1034.828	1232.09
1035.116	1215.36
1035.403	1205.19
1035.691	1208.58
1035.979	1197.74
1036.267	1184.4
1036.554	1184.4
1036.842	1189.38
1037.129	1161.58
1037.417	1163.61
1037.704	1115.25
1037.992	1141.47
1038.279	1155.48
1038.566	1143.73
1038.853	1143.73
1039.14	1143.73
