Data from red_cardboard_box_FLMS001491_00079.txt Node
Date: Wed Feb 08 11:33:07 GMT 2017
User: dcchb
Spectrometer: FLMS00149
Trigger mode: 0
Integration Time (sec): 2.000000E-2
Scans to average: 10
Electric dark correction enabled: true
Nonlinearity correction enabled: false
Boxcar width: 0
XAxis mode: Wavelengths
Number of Pixels in Spectrum: 2048
>>>>>Begin Spectral Data<<<<<
341.393	-4.92
341.776	-4.92
342.16	-4.92
342.543	-59.6
342.927	-67.06
343.31	-72.03
343.693	-70
344.077	-53.28
344.46	-66.61
344.843	-72.94
345.226	-43.33
345.61	-29.32
345.993	-17.34
346.376	-20.51
346.759	18.36
347.142	35.08
347.525	44.8
347.908	55.87
348.291	70.34
348.674	87.29
349.057	133.61
349.44	121.18
349.823	138.81
350.206	161.63
350.588	182.42
350.971	204.12
351.354	217.9
351.737	225.14
352.119	237.11
352.502	263.55
352.884	272.82
353.267	287.05
353.65	285.02
354.032	296.55
354.414	296.32
354.797	309.2
355.179	312.82
355.562	302.2
355.944	346.26
356.326	336.54
356.709	335.64
357.091	340.61
357.473	346.49
357.855	339.03
358.238	356.88
358.62	338.35
359.002	333.61
359.384	337.22
359.766	333.16
360.148	351.23
360.53	322.08
360.912	341.97
361.294	344
361.676	342.65
362.057	327.73
362.439	324.12
362.821	305.59
363.203	328.64
363.584	308.07
363.966	331.57
364.348	308.97
364.729	323.21
365.111	337
365.493	318.24
365.874	313.49
366.256	311.91
366.637	294.96
367.019	299.94
367.4	322.99
367.781	304.68
368.163	308.75
368.544	302.65
368.925	315.08
369.306	306.04
369.688	308.97
370.069	311.01
370.45	300.16
370.831	289.54
371.212	312.59
371.593	290.44
371.974	307.85
372.355	299.71
372.736	324.12
373.117	318.69
373.498	308.52
373.879	310.56
374.26	308.75
374.641	310.1
375.021	330.9
375.402	319.82
375.783	301.07
376.163	325.92
376.544	332.7
376.925	317.11
377.305	320.73
377.686	323.89
378.066	311.23
378.447	322.08
378.827	304.91
379.208	332.48
379.588	321.86
379.968	333.16
380.349	310.1
380.729	321.4
381.109	317.34
381.489	327.51
381.87	307.85
382.25	343.32
382.63	343.78
383.01	322.76
383.39	331.12
383.77	341.74
384.15	340.61
384.53	313.04
384.91	324.12
385.29	334.06
385.67	343.1
386.049	325.92
386.429	331.57
386.809	343.78
387.189	324.79
387.568	340.61
387.948	339.48
388.328	353.49
388.707	334.51
389.087	349.2
389.466	332.48
389.846	327.28
390.225	332.03
390.605	354.4
390.984	324.79
391.363	351.46
391.743	341.97
392.122	357.11
392.501	358.47
392.881	335.64
393.26	370.89
393.639	339.03
394.018	353.04
394.397	349.2
394.776	359.82
395.155	358.92
395.534	346.71
395.913	328.86
396.292	370.67
396.671	349.88
397.05	366.6
397.429	346.71
397.808	347.17
398.186	358.24
398.565	364.57
398.944	344.91
399.323	353.49
399.701	348.75
400.08	353.95
400.458	346.71
400.837	361.18
401.215	371.8
401.594	373.83
401.972	341.06
402.351	360.72
402.729	359.6
403.107	366.37
403.486	353.72
403.864	374.74
404.242	362.98
404.62	376.77
404.999	373.61
405.377	350.33
405.755	376.77
406.133	362.76
406.511	389.65
406.889	362.98
407.267	392.14
407.645	397.79
408.023	402.98
408.401	385.81
408.779	383.55
409.156	377
409.534	386.94
409.912	388.07
410.29	377.9
410.667	402.76
411.045	397.33
411.422	383.1
411.8	383.78
412.178	405.47
412.555	397.33
412.933	409.76
413.31	424.45
413.687	379.93
414.065	408.86
414.442	400.27
414.819	411.12
415.197	420.84
415.574	422.87
415.951	421.97
416.328	387.84
416.705	415.64
417.082	403.21
417.46	403.66
417.837	425.81
418.214	413.83
418.591	443.21
418.967	416.09
419.344	413.15
419.721	423.55
420.098	408.41
420.475	416.09
420.852	428.52
421.228	423.55
421.605	440.5
421.982	450.67
422.358	422.87
422.735	429.88
423.111	418.35
423.488	433.49
423.864	440.5
424.241	436.43
424.617	425.13
424.994	442.3
425.37	443.43
425.746	440.04
426.123	469.2
426.499	442.98
426.875	450.67
427.251	437.56
427.627	467.84
428.003	458.8
428.379	468.07
428.756	481.85
429.132	458.12
429.507	464.23
429.883	447.73
430.259	461.29
430.635	471.46
431.011	477.78
431.387	467.84
431.763	473.26
432.138	471
432.514	463.1
432.89	482.76
433.265	480.72
433.641	491.79
434.016	478.46
434.392	488.18
434.767	502.87
435.143	484.11
435.518	496.54
435.894	507.39
436.269	470.33
436.644	485.02
437.02	505.13
437.395	527.95
437.77	520.72
438.145	527.95
438.52	529.99
438.895	514.17
439.271	518.01
439.646	518.46
440.021	522.3
440.395	518.69
440.77	514.39
441.145	539.03
441.52	548.74
441.895	555.52
442.27	537.9
442.645	557.78
443.019	551.45
443.394	533.38
443.769	564.56
444.143	541.74
444.518	552.36
444.892	541.96
445.267	533.15
445.641	570.44
446.016	541.74
446.39	558.23
446.764	557.33
447.139	548.29
447.513	583.32
447.887	574.05
448.262	562.53
448.636	571.79
449.01	571.11
449.384	575.18
449.758	583.09
450.132	594.62
450.506	584
450.88	597.78
451.254	578.35
451.628	581.96
452.002	578.35
452.376	593.04
452.75	575.18
453.123	602.75
453.497	612.24
453.871	595.52
454.244	613.83
454.618	631.9
454.992	615.86
455.365	622.86
455.739	630.55
456.112	616.76
456.486	633.26
456.859	614.28
457.232	651.34
457.606	631.23
457.979	626.25
458.352	651.56
458.725	639.59
459.099	642.75
459.472	649.76
459.845	651.79
460.218	679.13
460.591	663.99
460.964	679.59
461.337	672.36
461.71	682.98
462.083	683.2
462.456	694.28
462.829	683.43
463.201	689.08
463.574	689.53
463.947	692.69
464.32	713.94
464.692	725.69
465.065	726.59
465.438	732.24
465.81	755.29
466.183	727.27
466.555	758.45
466.928	752.13
467.3	777.44
467.672	746.48
468.045	774.95
468.417	752.58
468.789	762.97
469.161	763.88
469.534	794.84
469.906	769.98
470.278	803.43
470.65	818.11
471.022	778.57
471.394	839.13
471.766	800.49
472.138	815.4
472.51	832.8
472.882	836.42
473.253	818.79
473.625	854.72
473.997	891.78
474.369	876.42
474.74	873.03
475.112	885.23
475.484	890.65
475.855	911.67
476.227	889.07
476.598	939.47
476.97	940.14
477.341	936.53
477.713	952.8
478.084	948.28
478.455	971.78
478.827	983.99
479.198	1014.04
479.569	998.22
479.94	1020.82
480.311	1036.87
480.682	1017.2
481.053	1046.81
481.424	1069.41
481.795	1093.81
482.166	1096.98
482.537	1092.46
482.908	1120.93
483.279	1118.67
483.65	1141.27
484.021	1197.31
484.391	1156.18
484.762	1185.79
485.133	1177.2
485.503	1194.83
485.874	1240.7
486.244	1203.87
486.615	1242.74
486.985	1235.5
487.356	1264.2
487.726	1288.61
488.097	1297.2
488.467	1315.28
488.837	1298.33
489.207	1353.24
489.578	1344.43
489.948	1372.22
490.318	1345.33
490.688	1367.93
491.058	1396.4
491.428	1405.44
491.798	1414.93
492.168	1475.95
492.538	1456.52
492.908	1449.51
493.278	1472.56
493.648	1491.54
494.017	1482.05
494.387	1522.5
494.757	1502.62
495.126	1517.76
495.496	1533.12
495.866	1554.82
496.235	1570.64
496.605	1585.78
496.974	1586.91
497.344	1598.88
497.713	1617.19
498.082	1605.44
498.452	1635.27
498.821	1614.7
499.19	1640.69
499.559	1620.58
499.928	1678.88
500.298	1657.19
500.667	1676.62
501.036	1703.51
501.405	1715.27
501.774	1693.57
502.143	1708.71
502.512	1726.11
502.88	1736.51
503.249	1744.87
503.618	1737.41
503.987	1761.82
504.356	1798.65
504.724	1767.69
505.093	1758.43
505.462	1812.44
505.83	1821.93
506.199	1840.23
506.567	1866.22
506.936	1843.17
507.304	1885.88
507.672	1894.24
508.041	1911.19
508.409	1906.9
508.777	1908.48
509.145	1927.69
509.514	1937.63
509.882	1950.74
510.25	1934.02
510.618	1959.1
510.986	1966.78
511.354	1961.81
511.722	2006.56
512.09	1988.93
512.458	2016.95
512.826	2045.88
513.193	2055.6
513.561	2038.87
513.929	2058.53
514.297	2082.94
514.664	2116.39
515.032	2110.96
515.4	2132.2
515.767	2135.82
516.135	2164.97
516.502	2149.15
516.869	2190.73
517.237	2192.99
517.604	2187.8
517.972	2219.21
518.339	2239.77
518.706	2243.16
519.073	2260.79
519.44	2284.74
519.808	2303.95
520.175	2325.65
520.542	2289.94
520.909	2391.63
521.276	2325.42
521.643	2348.92
522.009	2369.94
522.376	2419.43
522.743	2399.09
523.11	2446.32
523.477	2487
523.843	2439.54
524.21	2465.08
524.577	2530.61
524.943	2490.39
525.31	2528.58
525.676	2560.44
526.043	2607.22
526.409	2569.93
526.776	2632.76
527.142	2633.43
527.508	2673.88
527.874	2664.39
528.241	2667.11
528.607	2674.79
528.973	2721.57
529.339	2706.88
529.705	2757.5
530.071	2768.57
530.437	2776.71
530.803	2805.63
531.169	2785.29
531.535	2837.95
531.901	2843.82
532.267	2877.72
532.632	2869.13
532.998	2879.08
533.364	2901.68
533.73	2912.3
534.095	2949.58
534.461	2979.41
534.826	2951.62
535.192	2996.81
535.557	3004.5
535.923	3013.99
536.288	3010.6
536.653	3047.43
537.019	3050.82
537.384	3062.35
537.749	3037.94
538.114	3067.32
538.479	3096.47
538.845	3119.97
539.21	3114.32
539.575	3143.93
539.94	3126.3
540.305	3197.71
540.67	3159.97
541.034	3221.44
541.399	3246.75
541.764	3204.04
542.129	3237.26
542.494	3278.39
542.858	3301.44
543.223	3276.81
543.587	3276.81
543.952	3310.93
544.316	3330.14
544.681	3302.34
545.045	3352.74
545.41	3345.05
545.774	3357.48
546.138	3369.01
546.503	3422.34
546.867	3384.83
547.231	3457.37
547.595	3460.98
547.959	3486.74
548.324	3485.61
548.688	3497.37
549.052	3527.2
549.416	3575.56
549.779	3537.14
550.143	3575.33
550.507	3553.64
550.871	3539.4
551.235	3622.11
551.599	3665.04
551.962	3666.63
552.326	3655.33
552.689	3718.83
553.053	3659.17
553.417	3711.37
553.78	3756.12
554.143	3746.62
554.507	3791.37
554.87	3798.37
555.234	3872.05
555.597	3853.51
555.96	3869.33
556.323	3905.49
556.686	3919.5
557.05	3974.64
557.413	3980.29
557.776	4011.02
558.139	3990.01
558.502	4040.63
558.865	4063.9
559.228	4116.56
559.59	4138.7
559.953	4172.15
560.316	4201.98
560.679	4203.56
561.041	4283.33
561.404	4261.87
561.767	4342.09
562.129	4293.73
562.492	4410.56
562.854	4416.66
563.217	4408.53
563.579	4457.34
563.941	4524.46
564.304	4538.92
564.666	4567.85
565.028	4652.36
565.39	4710.44
565.753	4711.35
566.115	4787.05
566.477	4771.46
566.839	4807.39
567.201	4900.49
567.563	4910.44
567.925	4945.01
568.287	4965.12
568.648	5009.19
569.01	5033.82
569.372	5130.77
569.734	5153.82
570.095	5232.24
570.457	5265.23
570.819	5250.31
571.18	5328.05
571.542	5401.5
571.903	5445.79
572.265	5509.52
572.626	5514.49
572.987	5546.35
573.349	5615.28
573.71	5684.43
574.071	5698.66
574.432	5776.4
574.794	5874.25
575.155	5881.26
575.516	5913.12
575.877	5998.09
576.238	6062.04
576.599	6100.24
576.96	6103.85
577.32	6204.64
577.681	6289.38
578.042	6394.69
578.403	6406.22
578.763	6469.49
579.124	6555.14
579.485	6606.89
579.845	6695.02
580.206	6755.59
580.566	6845.75
580.927	6939.99
581.287	6998.97
581.648	7091.62
582.008	7255.23
582.368	7269.47
582.728	7356.47
583.089	7491.61
583.449	7611.16
583.809	7674.66
584.169	7805.73
584.529	7898.38
584.889	8086.85
585.249	8160.75
585.609	8205.49
585.969	8419.72
586.329	8517.12
586.688	8663.78
587.048	8873.27
587.408	8908.07
587.768	9126.82
588.127	9202.07
588.487	9373.37
588.846	9565.68
589.206	9689.29
589.565	9830.08
589.925	10058.1
590.284	10183.74
590.643	10397.3
591.003	10615.6
591.362	10814.01
591.721	10982.14
592.08	11156.15
592.44	11422.13
592.799	11576.93
593.158	11719.97
593.517	11951.38
593.876	12182.34
594.235	12402.44
594.593	12651.25
594.952	12913.62
595.311	13037.68
595.67	13391.79
596.029	13685.12
596.387	13876.3
596.746	14151.77
597.104	14364.2
597.463	14564.19
597.822	14811.87
598.18	15033.11
598.538	15277.62
598.897	15690.94
599.255	15729.36
599.613	16163.47
599.972	16309.46
600.33	16651.37
600.688	16859.5
601.046	17112.83
601.404	17450.67
601.762	17788.97
602.12	18088.85
602.478	18238.22
602.836	18369.97
603.194	18518.44
603.552	18997.52
603.91	19159.1
604.268	19456.72
604.625	19670.05
604.983	20117.04
605.341	20143.93
605.698	20517.48
606.056	20736.91
606.413	20962.67
606.771	21186.62
607.128	21410.57
607.485	21606.49
607.843	21792.03
608.2	22133.03
608.557	22453.48
608.914	22516.07
609.272	22801.26
609.629	23110.41
609.986	23266.34
610.343	23439.89
610.7	23861.12
611.057	23860.22
611.414	24103.6
611.771	24350.38
612.127	24537.04
612.484	24629.69
612.841	24902
613.198	25022.22
613.554	25130.92
613.911	25471.48
614.267	25489.56
614.624	25730
614.98	25821.3
615.337	26049.09
615.693	26136.32
616.05	26358.23
616.406	26689.3
616.762	26630.09
617.118	26745.12
617.475	26964.32
617.831	27082.06
618.187	27181.04
618.543	27414.25
618.899	27544.42
619.255	27706.45
619.611	27777.86
619.967	27882.71
620.323	28070.5
620.678	27952.32
621.034	28094.69
621.39	28195.7
621.746	28295.13
622.101	28615.12
622.457	28522.24
622.812	28627.78
623.168	28850.15
623.523	28756.14
623.879	28988.9
624.234	28900.99
624.589	29049.24
624.945	29218.05
625.3	29175.79
625.655	29386.63
626.01	29380.07
626.365	29477.7
626.72	29488.32
627.075	29568.54
627.43	29624.14
627.785	29613.74
628.14	29728.99
628.495	29791.14
628.85	29916.33
629.205	29751.36
629.559	30034.97
629.914	29853.28
630.269	30011.92
630.623	29974.18
630.978	29959.27
631.332	30095.99
631.687	30237.23
632.041	30171.47
632.396	30319.26
632.75	30143.22
633.104	30330.78
633.459	30091.47
633.813	30125.37
634.167	30230.9
634.521	30238.13
634.875	30309.99
635.229	30225.93
635.583	30244.23
635.937	30196.1
636.291	30177.79
636.645	30257.79
636.999	30218.92
637.352	30404.68
637.706	30262.31
638.06	30307.06
638.413	30268.64
638.767	30319.71
639.121	30290.11
639.474	30096.67
639.828	30277.68
640.181	30354.74
640.534	30335.3
640.888	30294.85
641.241	30102.54
641.594	30335.98
641.947	30476.77
642.301	30242.88
642.654	30294.85
643.007	30415.75
643.36	30337.79
643.713	30370.56
644.066	30381.63
644.419	30324.91
644.771	30032.26
645.124	29748.2
645.477	29702.1
645.83	29519.05
646.182	29477.47
646.535	29424.14
646.888	29542.33
647.24	29552.73
647.593	29705.72
647.945	29664.59
648.298	29536.23
648.65	29483.8
649.002	29578.26
649.355	29493.97
649.707	29430.7
650.059	29712.72
650.411	30035.65
650.763	30111.58
651.115	30402.19
651.467	30390.22
651.819	30263.22
652.171	30272.71
652.523	30246.49
652.875	30233.39
653.227	30133.73
653.578	30322.88
653.93	30387.73
654.282	30134.18
654.633	30087.4
654.985	30217.12
655.337	30140.51
655.688	30285.81
656.039	30296.66
656.391	29911.81
656.742	30135.08
657.094	30126.72
657.445	30218.47
657.796	30186.38
658.147	30097.34
658.498	29969.89
658.849	30110
659.2	29956.78
659.551	30035.42
659.902	30011.47
660.253	30088.08
660.604	30008.08
660.955	30153.84
661.306	30095.76
661.656	30077.01
662.007	30008.08
662.358	30070.9
662.708	30179.6
663.059	30099.38
663.409	29911.36
663.76	30191.58
664.11	30185.25
664.461	30180.51
664.811	30213.73
665.161	30094.18
665.511	29925.15
665.862	29995.88
666.212	30224.12
666.562	30264.8
666.912	30181.18
667.262	30148.19
667.612	30080.85
667.962	30119.94
668.312	30131.24
668.662	30274.29
669.011	30196.55
669.361	30240.62
669.711	30219.83
670.06	30188.87
670.41	30135.99
670.76	30050.11
671.109	30155.87
671.459	29976.67
671.808	30022.54
672.157	30124.46
672.507	29939.38
672.856	29878.59
673.205	30001.75
673.554	30031.13
673.904	29942.32
674.253	30102.32
674.602	30055.99
674.951	29664.14
675.3	29405.16
675.649	29905.71
675.998	29962.21
676.346	29955.2
676.695	30015.09
677.044	29784.36
677.393	29870.46
677.741	29879.72
678.09	29773.74
678.438	29808.09
678.787	29741.42
679.135	29792.27
679.484	29496.46
679.832	29741.65
680.181	29559.05
680.529	29642.21
680.877	29612.84
681.225	29549.79
681.573	29738.26
681.922	29478.15
682.27	29428.21
682.618	29448.77
682.966	29409.9
683.314	29478.15
683.661	29394.99
684.009	29333.75
684.357	29108.67
684.705	29070.48
685.053	29134.66
685.4	28957.94
685.748	28924.95
686.095	29115.9
686.443	28884.95
686.79	28846.98
687.138	28879.3
687.485	28932.18
687.832	28689.25
688.18	28858.51
688.527	28656.7
688.874	28670.49
689.221	28566.54
689.568	28536.03
689.915	28430.72
690.262	28484.28
690.609	28396.37
690.956	28397.5
691.303	28374.68
691.65	28106.89
691.997	28057.17
692.344	27874.35
692.69	27965.42
693.037	28016.95
693.383	27688.59
693.73	27857.86
694.077	27679.78
694.423	27623.74
694.769	27690.18
695.116	27554.13
695.462	27524.53
695.808	27394.82
696.155	27333.12
696.501	27249.06
696.847	27255.61
697.193	27108.27
697.539	27292.9
697.885	26921.61
698.231	26910.31
698.577	26813.81
698.923	26848.62
699.269	26767.26
699.614	26634.16
699.96	26559.13
700.306	26640.03
700.651	26368.85
700.997	26473.71
701.342	26334.05
701.688	26368.85
702.033	26203.21
702.379	26206.15
702.724	26052.03
703.069	26183.77
703.415	25850.68
703.76	25922.31
704.105	25891.81
704.45	25877.57
704.795	25668.53
705.14	25685.48
705.485	25546.28
705.83	25536.33
706.175	25606.84
706.52	25457.92
706.865	25402.78
707.209	25330.46
707.554	25256.79
707.899	25381.54
708.243	25164.82
708.588	25191.48
708.932	25020.64
709.277	25123.24
709.621	25141.99
709.966	24789.24
710.31	24813.64
710.654	24721.44
710.998	24814.32
711.342	24921.66
711.687	24783.36
712.031	24639.41
712.375	24425.63
712.719	24511.95
713.063	24528.9
713.407	24568.45
713.75	24419.98
714.094	24442.35
714.438	24233.54
714.782	24436.02
715.125	24178.63
715.469	24166.88
715.812	24145.86
716.156	23960.56
716.499	23928.47
716.843	24101.34
717.186	23874.68
717.53	24085.52
717.873	24071.51
718.216	23865.64
718.559	23716.04
718.902	23698.19
719.246	23781.8
719.589	23709.94
719.932	23624.29
720.275	23527.12
720.617	23514.92
720.96	23461.81
721.303	23466.56
721.646	23550.62
721.989	23385.43
722.331	23485.54
722.674	23361.25
723.016	23333.23
723.359	23346.56
723.701	23257.75
724.044	23188.6
724.386	23166.45
724.729	23181.59
725.071	23099.56
725.413	23090.75
725.755	23109.73
726.097	23073.35
726.439	22875.61
726.782	23022.73
727.124	23060.69
727.465	22714.49
727.807	22837.42
728.149	22792.68
728.491	22744.77
728.833	22861.15
729.175	22748.61
729.516	22652.34
729.858	22703.41
730.199	22665
730.541	22674.71
730.882	22651.66
731.224	22704.77
731.565	22622.96
731.906	22490.76
732.248	22573.93
732.589	22445.34
732.93	22512.01
733.271	22344.1
733.612	22395.17
733.953	22395.63
734.294	22361.95
734.635	22318.79
734.976	22328.51
735.317	22199.02
735.658	22115.41
735.999	22251
736.339	22081.74
736.68	22209.19
737.021	22097.1
737.361	22081.51
737.702	22160.6
738.042	22048.74
738.383	21975.07
738.723	21961.74
739.063	21912.25
739.404	21962.19
739.744	21932.59
740.084	21868.63
740.424	21827.05
740.764	21839.03
741.104	21907.96
741.444	21773.04
741.784	21598.58
742.124	21699.6
742.464	21723.33
742.804	21722.88
743.143	21693.72
743.483	21646.94
743.823	21491.02
744.162	21595.87
744.502	21457.12
744.841	21545.7
745.181	21559.72
745.52	21437.01
745.86	21525.82
746.199	21457.8
746.538	21414.41
746.877	21383.45
747.216	21414.18
747.556	21293.96
747.895	21286.5
748.234	21301.42
748.573	21197.01
748.911	21235.2
749.25	21257.58
749.589	21130.57
749.928	21080.86
750.267	21055.1
750.605	21118.82
750.944	20991.82
751.283	20989.56
751.621	20973.06
751.96	20846.29
752.298	20899.62
752.636	20779.4
752.975	20807.64
753.313	20689.46
753.651	20757.48
753.989	20639.74
754.327	20688.1
754.666	20468.22
755.004	20638.16
755.342	20563.58
755.679	20590.7
756.017	20373.76
756.355	20404.94
756.693	20418.28
757.031	20445.39
757.368	20286.98
757.706	20406.98
758.044	20151.17
758.381	20187.32
758.719	20224.84
759.056	20147.78
759.394	20094.22
759.731	20018.74
760.068	20000.43
760.405	19876.14
760.743	19899.42
761.08	19894.22
761.417	19876.6
761.754	19722.7
762.091	19766.54
762.428	19727.45
762.765	19534.46
763.102	19555.93
763.438	19523.84
763.775	19439.77
764.112	19515.02
764.449	19398.42
764.785	19272.09
765.122	19182.15
765.458	19138.76
765.795	19044.98
766.131	19072.32
766.467	18955.04
766.804	18863.52
767.14	18821.03
767.476	18802.5
767.812	18728.6
768.148	18781.26
768.485	18650.64
768.821	18453.58
769.157	18487.93
769.492	18435.28
769.828	18510.08
770.164	18323.64
770.5	18170.65
770.836	18263.98
771.171	18146.92
771.507	18066.02
771.842	17936.31
772.178	17956.87
772.513	17957.55
772.849	17929.53
773.184	17791.23
773.519	17752.58
773.855	17813.37
774.19	17700.83
774.525	17555.53
774.86	17639.37
775.195	17527.73
775.53	17415.42
775.865	17409.99
776.2	17268.3
776.535	17225.14
776.87	17220.85
777.205	17121.19
777.539	16980.85
777.874	17083.45
778.209	16880.52
778.543	16924.13
778.878	16772.04
779.212	16758.71
779.547	16673.52
779.881	16606.4
780.215	16661.54
780.55	16638.72
780.884	16447.53
781.218	16437.82
781.552	16442.79
781.886	16441.43
782.22	16256.13
782.554	16213.64
782.888	16072.63
783.222	16036.7
783.556	15975
783.889	15950.6
784.223	15829.7
784.557	15708.12
784.89	15845.97
785.224	15793.31
785.557	15684.62
785.891	15576.6
786.224	15542.92
786.558	15426.09
786.891	15401.23
787.224	15405.3
787.557	15358.07
787.891	15344.96
788.224	15251.18
788.557	15271.75
788.89	15215.02
789.223	15168.47
789.556	14991.53
789.888	15013.67
790.221	14984.3
790.554	14815.94
790.887	14884.41
791.219	14888.03
791.552	14810.29
791.884	14680.8
792.217	14721.93
792.549	14617.07
792.882	14548.6
793.214	14429.73
793.546	14531.43
793.879	14347.93
794.211	14267.48
794.543	14300.25
794.875	14261.38
795.207	14386.57
795.539	14106.13
795.871	14243.52
796.203	14098.67
796.535	13975.51
796.867	14052.79
797.198	13996.52
797.53	13912.01
797.862	13854.16
798.193	13833.14
798.525	13791.56
798.856	13783.65
799.188	13714.95
799.519	13574.39
799.85	13537.78
800.182	13543.66
800.513	13628.17
800.844	13474.05
801.175	13459.82
801.506	13468.85
801.837	13410.78
802.168	13319.03
802.499	13271.12
802.83	13321.74
803.161	13211.46
803.491	13232.48
803.822	13185.02
804.153	13138.02
804.483	13049.43
804.814	13037.45
805.145	12956.55
805.475	12957.91
805.805	12913.62
806.136	12950.45
806.466	12943.44
806.796	12825.48
807.126	12772.83
807.457	12759.27
807.787	12799.95
808.117	12682.43
808.447	12619.39
808.777	12688.54
809.107	12561.76
809.436	12607.63
809.766	12530.8
810.096	12525.6
810.426	12491.71
810.755	12377.13
811.085	12400.63
811.414	12423.23
811.744	12232.28
812.073	12279.06
812.403	12380.75
812.732	12208.55
813.061	12300.52
813.39	12133.97
813.719	12122.9
814.049	12202.45
814.378	12116.57
814.707	12109.57
815.036	12062.11
815.365	12015.79
815.693	11911.16
816.022	11889.46
816.351	11901.44
816.68	11818.28
817.008	11800.2
817.337	11691.27
817.665	11686.08
817.994	11730.14
818.322	11784.61
818.651	11763.81
818.979	11634.55
819.307	11654.21
819.636	11599.53
819.964	11527.89
820.292	11594.78
820.62	11637.04
820.948	11526.08
821.276	11592.29
821.604	11489.47
821.932	11584.38
822.259	11630.49
822.587	11549.36
822.915	11535.35
823.243	11525.86
823.57	11491.05
823.898	11538.28
824.225	11527.89
824.553	11482.47
824.88	11450.15
825.207	11481.11
825.535	11491.28
825.862	11533.54
826.189	11442.92
826.516	11618.28
826.843	11534.22
827.17	11443.6
827.497	11549.13
827.824	11568.79
828.151	11577.38
828.478	11438.85
828.805	11576.25
829.131	11435.91
829.458	11491.73
829.785	11485.86
830.111	11494.44
830.438	11563.59
830.764	11494.67
831.09	11528.34
831.417	11394.56
831.743	11408.34
832.069	11429.13
832.395	11423.48
832.722	11380.1
833.048	11360.66
833.374	11377.38
833.7	11402.92
834.026	11341.68
834.351	11437.04
834.677	11368.57
835.003	11442.02
835.329	11431.39
835.654	11333.77
835.98	11310.49
836.306	11374.9
836.631	11218.52
836.956	11305.3
837.282	11278.4
837.607	11272.75
837.932	11244.51
838.258	11207.67
838.583	11268.69
838.908	11160.67
839.233	11180.78
839.558	11078.86
839.883	11115.24
840.208	11084.51
840.533	11074.79
840.858	11104.85
841.182	11038.18
841.507	11124.51
841.832	11030.5
842.156	10955.02
842.481	10960.22
842.805	10957.28
843.13	10916.61
843.454	10891.75
843.778	10931.52
844.103	10895.14
844.427	10855.36
844.751	10848.36
845.075	10713
845.399	10755.03
845.723	10707.35
846.047	10707.12
846.371	10548.48
846.695	10611.53
847.019	10513.68
847.343	10472.32
847.666	10430.29
847.99	10405.43
848.313	10380.35
848.637	10334.02
848.96	10261.93
849.284	10284.76
849.607	10165.21
849.931	10248.6
850.254	10138.32
850.577	10068.94
850.9	10008.61
851.223	10075.27
851.546	9985.78
851.869	9893.36
852.192	9940.81
852.515	9859.01
852.838	9805.22
853.161	9887.93
853.483	9730.65
853.806	9723.42
854.129	9674.6
854.451	9683.87
854.774	9679.12
855.096	9606.58
855.419	9598.9
855.741	9536.3
856.063	9480.94
856.385	9536.08
856.708	9481.84
857.03	9400.04
857.352	9490.65
857.674	9433.25
857.996	9336.08
858.318	9304.22
858.64	9377.21
858.961	9265.12
859.283	9240.49
859.605	9226.93
859.926	9227.61
860.248	9219.48
860.57	9132.7
860.891	9155.75
861.212	9075.75
861.534	9050.67
861.855	9041.4
862.176	9047.95
862.498	9118.69
862.819	9058.12
863.14	9019.25
863.461	8990.33
863.782	8975.64
864.103	8984.45
864.424	8868.07
864.745	8899.26
865.065	8921.4
865.386	8887.51
865.707	8845.25
866.027	8913.95
866.348	8857
866.668	8814.74
866.989	8812.25
867.309	8774.97
867.63	8821.52
867.95	8797.34
868.27	8698.81
868.59	8677.79
868.91	8697.91
869.23	8669.21
869.55	8638.02
869.87	8676.66
870.19	8636.21
870.51	8639.6
870.83	8679.15
871.15	8670.79
871.469	8598.25
871.789	8644.57
872.109	8612.26
872.428	8570.45
872.748	8560.28
873.067	8498.36
873.386	8596.44
873.706	8544.46
874.025	8458.82
874.344	8506.5
874.663	8527.52
874.982	8444.35
875.301	8484.35
875.62	8446.61
875.939	8433.51
876.258	8407.97
876.577	8393.28
876.896	8393.28
877.214	8340.4
877.533	8380.85
877.852	8351.02
878.17	8334.3
878.489	8322.55
878.807	8252.95
879.125	8307.18
879.444	8310.8
879.762	8200.52
880.08	8286.62
880.398	8230.8
880.716	8239.61
881.034	8217.69
881.352	8187.19
881.67	8144.48
881.988	8184.47
882.306	8160.52
882.624	8158.26
882.941	8077.81
883.259	8108.54
883.577	8074.19
883.894	8052.5
884.212	7977.25
884.529	8021.09
884.846	8004.82
885.164	8039.17
885.481	7981.54
885.798	7919.62
886.115	7910.58
886.432	7921.88
886.75	7879.85
887.067	7898.15
887.383	7849.12
887.7	7883.24
888.017	7842.56
888.334	7809.57
888.651	7729.12
888.967	7732.28
889.284	7716.24
889.6	7617.03
889.917	7626.3
890.233	7636.69
890.55	7619.52
890.866	7588.78
891.182	7611.61
891.498	7481.89
891.815	7509.46
892.131	7486.64
892.447	7530.25
892.763	7468.79
893.079	7472.85
893.395	7464.49
893.71	7438.73
894.026	7436.25
894.342	7357.38
894.657	7322.35
894.973	7271.05
895.289	7315.57
895.604	7302.24
895.92	7236.25
896.235	7184.05
896.55	7268.34
896.865	7182.24
897.181	7146.31
897.496	7198.96
897.811	7114.67
898.126	7136.59
898.441	7084.62
898.756	7141.56
899.071	7047.1
899.386	7045.52
899.7	6956.48
900.015	6904.73
900.33	6887.56
900.644	6866.32
900.959	6888.69
901.273	6896.37
901.588	6824.74
901.902	6764.17
902.216	6743.38
902.531	6780.9
902.845	6755.81
903.159	6707
903.473	6682.59
903.787	6637.62
904.101	6632.65
904.415	6601.01
904.729	6617.74
905.042	6583.84
905.356	6618.41
905.67	6555.82
905.984	6583.61
906.297	6491.64
906.611	6396.27
906.924	6425.42
907.237	6416.61
907.551	6380
907.864	6362.38
908.177	6328.93
908.491	6338.19
908.804	6323.51
909.117	6243.51
909.43	6258.2
909.743	6245.32
910.056	6154.02
910.368	6191.08
910.681	6182.94
910.994	6127.8
911.307	6069.5
911.619	6025.89
911.932	6062.5
912.244	6025.21
912.557	6024.08
912.869	5910.86
913.181	5989.96
913.494	5955.83
913.806	5929.62
914.118	5888.04
914.43	5834.71
914.742	5811.43
915.054	5773.69
915.366	5756.74
915.678	5795.84
915.99	5750.64
916.302	5714.48
916.613	5686.91
916.925	5643.07
917.236	5613.92
917.548	5672
917.859	5596.97
918.171	5595.16
918.482	5596.29
918.794	5537.09
919.105	5547.26
919.416	5455.05
919.727	5509.52
920.038	5447.82
920.349	5407.6
920.66	5432.68
920.971	5390.65
921.282	5422.51
921.593	5315.17
921.903	5280.14
922.214	5263.19
922.525	5280.82
922.835	5258.9
923.146	5213.93
923.456	5208.73
923.767	5158.11
924.077	5171.45
924.387	5141.39
924.697	5126.93
925.008	5089.64
925.318	5058.45
925.628	5084.67
925.938	5060.49
926.248	5034.95
926.558	5066.36
926.867	4968.74
927.177	4960.6
927.487	4929.87
927.796	4873.15
928.106	4905.01
928.416	4858.01
928.725	4860.04
929.034	4849.65
929.344	4809.65
929.653	4826.82
929.962	4740.5
930.271	4775.07
930.581	4745.47
930.89	4749.54
931.199	4667.28
931.508	4639.26
931.817	4685.81
932.125	4658.47
932.434	4586.6
932.743	4607.84
933.051	4564.23
933.36	4555.42
933.669	4546.15
933.977	4502.54
934.286	4476.55
934.594	4472.71
934.902	4467.96
935.21	4419.15
935.519	4480.16
935.827	4408.08
936.135	4414.18
936.443	4366.5
936.751	4296.89
937.059	4299.6
937.367	4324.69
937.674	4298.93
937.982	4281.98
938.29	4270.9
938.597	4306.16
938.905	4230
939.213	4204.69
939.52	4153.62
939.827	4182.09
940.135	4114.98
940.442	4109.78
940.749	4124.69
941.056	4139.16
941.363	4068.2
941.67	4122.89
941.977	4087.41
942.284	4043.79
942.591	3975.55
942.898	3957.24
943.205	4004.92
943.511	3926.96
943.818	3981.42
944.125	3924.93
944.431	3911.82
944.738	3890.8
945.044	3932.38
945.35	3868.66
945.657	3816.68
945.963	3806.06
946.269	3801.09
946.575	3803.12
946.881	3769
947.187	3806.74
947.493	3751.14
947.799	3736.91
948.105	3724.48
948.41	3672.95
948.716	3698.04
949.022	3679.28
949.327	3704.59
949.633	3679.73
949.938	3647.64
950.244	3654.2
950.549	3604.93
950.854	3568.1
951.16	3506.86
951.465	3570.13
951.77	3488.33
952.075	3563.8
952.38	3562.22
952.685	3510.02
952.99	3510.47
953.294	3469.12
953.599	3461.43
953.904	3416.92
954.209	3415.33
954.513	3429.8
954.818	3394.09
955.122	3358.84
955.426	3371.49
955.731	3347.54
956.035	3335.34
956.339	3332.85
956.643	3346.18
956.948	3299.86
957.252	3271.38
957.556	3238.16
957.86	3251.27
958.163	3280.2
958.467	3225.73
958.771	3196.58
959.075	3223.47
959.378	3219.63
959.682	3164.95
959.985	3150.03
960.289	3157.49
960.592	3138.28
960.896	3127.43
961.199	3083.59
961.502	3113.19
961.805	3061.9
962.108	3076.81
962.411	3036.13
962.714	3009.02
963.017	3048.11
963.32	3032.97
963.623	2978.06
963.926	2997.72
964.228	2982.35
964.531	2953.2
964.833	2965.4
965.136	2939.64
965.438	2952.97
965.741	2952.3
966.043	2875.46
966.345	2870.72
966.648	2870.04
966.95	2829.36
967.252	2862.13
967.554	2841.79
967.856	2831.62
968.158	2790.94
968.46	2802.92
968.761	2761.79
969.063	2775.12
969.365	2745.97
969.666	2766.99
969.968	2715.24
970.269	2719.53
970.571	2714.11
970.872	2689.93
971.174	2688.12
971.475	2691.96
971.776	2625.07
972.077	2657.61
972.378	2626.2
972.679	2634.79
972.98	2624.39
973.281	2664.17
973.582	2596.37
973.883	2600.89
974.183	2594.34
974.484	2593.66
974.785	2517.05
975.085	2570.16
975.386	2539.65
975.686	2556.15
975.986	2516.37
976.287	2498.52
976.587	2475.02
976.887	2478.18
977.187	2508.24
977.487	2449.94
977.787	2467.79
978.087	2430.95
978.387	2449.26
978.687	2469.14
978.987	2439.77
979.286	2397.73
979.586	2395.47
979.885	2384.4
980.185	2343.27
980.484	2328.81
980.784	2350.73
981.083	2347.34
981.382	2319.54
981.682	2348.92
981.981	2314.57
982.28	2334.46
982.579	2257.85
982.878	2263.73
983.177	2272.54
983.475	2260.34
983.774	2244.07
984.073	2259.43
984.372	2228.47
984.67	2217.63
984.969	2220.11
985.267	2172.88
985.566	2180.34
985.864	2154.35
986.162	2192.77
986.461	2131.98
986.759	2180.34
987.057	2124.75
987.355	2118.42
987.653	2108.25
987.951	2113.45
988.249	2102.83
988.547	2090.85
988.844	2085.2
989.142	2077.29
989.44	2069.15
989.737	2070.74
990.035	2073.22
990.332	2063.28
990.63	2058.99
990.927	2039.32
991.224	2021.25
991.521	2024.18
991.819	2012.88
992.116	2017.18
992.413	1984.64
992.71	1974.02
993.006	2005.65
993.303	1964.75
993.6	1956.16
993.897	1917.97
994.193	1909.16
994.49	1884.07
994.787	1929.05
995.083	1897.41
995.379	1925.43
995.676	1905.54
995.972	1886.33
996.268	1866.45
996.565	1870.06
996.861	1831.65
997.157	1842.04
997.453	1818.09
997.749	1823.51
998.044	1788.26
998.34	1823.29
998.636	1786
998.932	1781.25
999.227	1776.51
999.523	1791.65
999.818	1790.07
1000.114	1747.81
1000.409	1745.77
1000.704	1738.54
1001	1727.02
1001.295	1693.12
1001.59	1704.64
1001.885	1683.63
1002.18	1691.54
1002.475	1699.45
1002.77	1694.93
1003.065	1638.88
1003.359	1644.98
1003.654	1641.37
1003.949	1623.29
1004.243	1627.81
1004.538	1639.56
1004.832	1615.83
1005.127	1610.18
1005.421	1604.53
1005.715	1611.31
1006.009	1570.18
1006.304	1591.88
1006.598	1565.21
1006.892	1554.37
1007.186	1551.43
1007.48	1564.54
1007.773	1527.7
1008.067	1531.09
1008.361	1518.89
1008.655	1495.61
1008.948	1496.97
1009.242	1521.15
1009.535	1484.31
1009.829	1483.41
1010.122	1469.4
1010.415	1475.27
1010.708	1453.8
1011.001	1468.72
1011.295	1460.81
1011.588	1401.38
1011.881	1430.08
1012.173	1386.01
1012.466	1403.41
1012.759	1405.44
1013.052	1413.13
1013.344	1400.02
1013.637	1370.87
1013.93	1379.91
1014.222	1396.86
1014.514	1365.67
1014.807	1362.05
1015.099	1345.78
1015.391	1321.6
1015.683	1330.42
1015.976	1325.45
1016.268	1314.6
1016.56	1291.32
1016.851	1264.43
1017.143	1303.07
1017.435	1257.88
1017.727	1269.85
1018.018	1254.03
1018.31	1274.15
1018.602	1251.55
1018.893	1242.06
1019.185	1231.21
1019.476	1230.08
1019.767	1245.22
1020.058	1211.78
1020.35	1181.49
1020.641	1177.65
1020.932	1197.77
1021.223	1212.68
1021.514	1181.72
1021.804	1139.01
1022.095	1143.76
1022.386	1155.51
1022.677	1138.11
1022.967	1143.53
1023.258	1135.17
1023.548	1084.32
1023.839	1083.19
1024.129	1120.7
1024.419	1098.33
1024.709	1102.17
1025	1061.72
1025.29	1077.09
1025.58	1066.02
1025.87	1065.34
1026.16	1051.55
1026.449	1031.67
1026.739	1039.13
1027.029	1049.07
1027.319	1059.69
1027.608	1023.53
1027.898	1012.23
1028.187	1048.39
1028.477	985.79
1028.766	1025.79
1029.055	1003.65
1029.344	979.01
1029.634	991.44
1029.923	976.98
1030.212	976.75
1030.501	972.91
1030.79	936.76
1031.078	946.7
1031.367	955.06
1031.656	973.36
1031.945	959.35
1032.233	921.84
1032.522	953.25
1032.81	947.15
1033.099	892.01
1033.387	920.26
1033.675	916.42
1033.963	888.17
1034.251	895.4
1034.54	866.25
1034.828	903.99
1035.116	878
1035.403	858.56
1035.691	873.03
1035.979	884.33
1036.267	873.48
1036.554	863.54
1036.842	853.59
1037.129	853.59
1037.417	842.52
1037.704	819.47
1037.992	835.97
1038.279	832.35
1038.566	828.96
1038.853	828.96
1039.14	828.96
