Data from red_cardboard_box_FLMS001491_00005.txt Node
Date: Wed Feb 08 11:31:24 GMT 2017
User: dcchb
Spectrometer: FLMS00149
Trigger mode: 0
Integration Time (sec): 2.000000E-2
Scans to average: 10
Electric dark correction enabled: true
Nonlinearity correction enabled: false
Boxcar width: 0
XAxis mode: Wavelengths
Number of Pixels in Spectrum: 2048
>>>>>Begin Spectral Data<<<<<
341.393	-9.91
341.776	-9.91
342.16	-9.91
342.543	-78.84
342.927	-77.26
343.31	-77.48
343.693	-56.47
344.077	-63.02
344.46	-68.22
344.843	-45.17
345.226	-34.77
345.61	-17.37
345.993	-24.38
346.376	-9.69
346.759	0.93
347.142	12.91
347.525	61.04
347.908	46.58
348.291	92.68
348.674	70.99
349.057	111.44
349.44	141.95
349.823	115.96
350.206	162.06
350.588	195.96
350.971	232.11
351.354	221.49
351.737	228.04
352.119	256.52
352.502	279.57
352.884	286.8
353.267	282.51
353.65	304.88
354.032	314.82
354.414	291.55
354.797	310.3
355.179	335.16
355.562	327.03
355.944	339.23
356.326	342.17
356.709	327.93
357.091	320.47
357.473	326.12
357.855	332.22
358.238	357.31
358.62	335.39
359.002	340.58
359.384	338.55
359.766	332.9
360.148	326.8
360.53	358.44
360.912	344.2
361.294	349.4
361.676	339.23
362.057	329.51
362.439	341.71
362.821	302.39
363.203	341.71
363.584	326.35
363.966	315.27
364.348	334.48
364.729	323.41
365.111	313.69
365.493	325.67
365.874	321.15
366.256	317.08
366.637	331.54
367.019	318.44
367.4	320.7
367.781	313.92
368.163	324.77
368.544	313.92
368.925	327.7
369.306	324.99
369.688	309.17
370.069	318.89
370.45	297.65
370.831	315.5
371.212	327.03
371.593	313.69
371.974	334.03
372.355	349.62
372.736	324.99
373.117	328.83
373.498	349.62
373.879	323.86
374.26	304.65
374.641	310.3
375.021	336.29
375.402	331.77
375.783	311.43
376.163	328.61
376.544	301.94
376.925	344.88
377.305	327.93
377.686	313.47
378.066	323.41
378.447	325.22
378.827	325.22
379.208	297.87
379.588	341.26
379.968	322.96
380.349	348.04
380.729	342.17
381.109	339
381.489	330.19
381.87	324.99
382.25	325.22
382.63	334.26
383.01	322.73
383.39	327.48
383.77	339.91
384.15	330.64
384.53	323.18
384.91	315.05
385.29	325.44
385.67	327.93
386.049	348.72
386.429	324.31
386.809	329.96
387.189	367.93
387.568	346.46
387.948	374.48
388.328	364.31
388.707	342.62
389.087	333.13
389.466	356.4
389.846	345.56
390.225	339
390.605	360.92
390.984	371.09
391.363	372.9
391.743	349.4
392.122	355.05
392.501	355.5
392.881	383.52
393.26	372.45
393.639	363.63
394.018	369.06
394.397	369.96
394.776	362.28
395.155	370.87
395.534	373.58
395.913	358.44
396.292	359.11
396.671	348.49
397.05	378.1
397.429	334.26
397.808	363.63
398.186	383.52
398.565	363.41
398.944	350.3
399.323	379.45
399.701	380.58
400.08	368.15
400.458	379.45
400.837	388.04
401.215	393.46
401.594	383.52
401.972	386.91
402.351	383.75
402.729	383.97
403.107	399.11
403.486	377.42
403.864	387.81
404.242	385.78
404.62	378.32
404.999	404.76
405.377	388.94
405.755	402.73
406.133	404.31
406.511	388.72
406.889	411.54
407.267	395.72
407.645	409.96
408.023	400.47
408.401	385.78
408.779	406.8
409.156	390.75
409.534	412.67
409.912	426.23
410.29	438.21
410.667	426.91
411.045	429.4
411.422	410.41
411.8	425.33
412.178	430.98
412.555	421.94
412.933	436.17
413.31	440.02
413.687	428.94
414.065	419.9
414.442	445.67
414.819	439.11
415.197	436.85
415.574	442.5
415.951	428.49
416.328	434.59
416.705	444.31
417.082	445.21
417.46	452.67
417.837	472.11
418.214	469.17
418.591	470.07
418.967	460.36
419.344	471.88
419.721	458.55
420.098	492.9
420.475	470.75
420.852	473.91
421.228	475.5
421.605	468.26
421.982	476.17
422.358	461.49
422.735	487.02
423.111	474.37
423.488	482.05
423.864	488.15
424.241	476.63
424.617	482.28
424.994	508.49
425.37	496.74
425.746	485.89
426.123	511.43
426.499	524.31
426.875	504.65
427.251	499
427.627	517.53
428.003	515.49
428.379	518.88
428.756	514.59
429.132	517.08
429.507	518.66
429.883	519.56
430.259	535.16
430.635	532.44
431.011	531.77
431.387	553.69
431.763	545.32
432.138	535.83
432.514	550.07
432.89	545.32
433.265	566.34
433.641	570.63
434.016	553.23
434.392	585.1
434.767	569.5
435.143	599.11
435.518	592.33
435.894	569.05
436.269	574.48
436.644	575.83
437.02	580.58
437.395	602.72
437.77	624.42
438.145	606.57
438.52	602.5
438.895	592.33
439.271	621.03
439.646	609.73
440.021	623.97
440.395	640.92
440.77	607.02
441.145	621.03
441.52	604.53
441.895	626.68
442.27	628.94
442.645	605.44
443.019	632.1
443.394	641.14
443.769	636.85
444.143	634.59
444.518	656.96
444.892	640.69
445.267	663.29
445.641	631.65
446.016	675.94
446.39	649.28
446.764	660.12
447.139	633.23
447.513	652.67
447.887	669.84
448.262	659.45
448.636	672.1
449.01	648.6
449.384	688.6
449.758	680.01
450.132	688.6
450.506	687.69
450.88	663.06
451.254	706.9
451.628	687.47
452.002	691.76
452.376	696.73
452.75	697.86
453.123	715.26
453.497	707.58
453.871	732.21
454.244	740.8
454.618	738.54
454.992	703.29
455.365	741.03
455.739	728.37
456.112	761.36
456.486	758.43
456.859	746.68
457.232	748.03
457.606	739.67
457.979	767.69
458.352	772.21
458.725	786.45
459.099	801.59
459.472	783.96
459.845	802.94
460.218	798.88
460.591	794.36
460.964	803.62
461.337	803.17
461.71	851.98
462.083	829.38
462.456	838.65
462.829	843.62
463.201	876.39
463.574	857.63
463.947	859.44
464.32	879.33
464.692	888.37
465.065	890.17
465.438	873.9
465.81	906.9
466.183	908.25
466.555	893.79
466.928	886.56
467.3	906.22
467.672	920.68
468.045	929.5
468.417	946.9
468.789	955.03
469.161	942.6
469.534	984.18
469.906	964.75
470.278	977.18
470.65	985.09
471.022	1019.89
471.394	1030.06
471.766	1024.18
472.138	1027.35
472.51	1048.36
472.882	1047.23
473.253	1074.35
473.625	1057.63
473.997	1065.31
474.369	1108.25
474.74	1095.59
475.112	1099.66
475.484	1136.5
475.855	1124.74
476.227	1147.12
476.598	1138.98
476.97	1178.3
477.341	1192.77
477.713	1198.87
478.084	1222.82
478.455	1223.27
478.827	1253.33
479.198	1288.58
479.569	1293.55
479.94	1304.63
480.311	1294.68
480.682	1300.56
481.053	1362.25
481.424	1348.24
481.795	1386.43
482.166	1392.08
482.537	1425.98
482.908	1448.58
483.279	1438.18
483.65	1450.61
484.021	1512.98
484.391	1504.17
484.762	1512.53
485.133	1511.17
485.503	1546.65
485.874	1576.71
486.244	1592.53
486.615	1567.67
486.985	1606.09
487.356	1623.26
487.726	1666.65
488.097	1682.92
488.467	1654.45
488.837	1719.08
489.207	1725.86
489.578	1728.57
489.948	1736.03
490.318	1787.55
490.688	1759.98
491.058	1806.31
491.428	1824.61
491.798	1844.73
492.168	1877.27
492.538	1868.45
492.908	1911.39
493.278	1939.41
493.648	1954.33
494.017	1910.49
494.387	1952.97
494.757	1982.12
495.126	1988.22
495.496	2009.92
495.866	2008.56
496.235	2073.19
496.605	2037.49
496.974	2099.86
497.344	2087.66
497.713	2085.4
498.082	2122.68
498.452	2151.16
498.821	2118.16
499.19	2155.68
499.559	2165.85
499.928	2180.08
500.298	2230.93
500.667	2226.41
501.036	2264.15
501.405	2231.61
501.774	2236.35
502.143	2254.43
502.512	2291.49
502.88	2321.55
503.249	2322.68
503.618	2297.37
503.987	2325.62
504.356	2387.31
504.724	2366.52
505.093	2430.25
505.462	2386.41
505.83	2399.51
506.199	2429.57
506.567	2454.43
506.936	2421.89
507.304	2460.53
507.672	2514.09
508.041	2482.22
508.409	2494.65
508.777	2530.58
509.145	2572.62
509.514	2549.79
509.882	2556.8
510.25	2592.73
510.618	2610.81
510.986	2642.44
511.354	2668.43
511.722	2669.79
512.09	2685.61
512.458	2700.07
512.826	2743.01
513.193	2726.06
513.561	2752.05
513.929	2772.38
514.297	2789.33
514.664	2819.62
515.032	2832.27
515.4	2850.35
515.767	2846.06
516.135	2860.29
516.502	2905.04
516.869	2907.75
517.237	2951.82
517.604	2973.51
517.972	3013.73
518.339	3020.74
518.706	2944.13
519.073	2988.65
519.44	3008.99
519.808	3067.74
520.175	3087.18
520.542	3085.14
520.909	3119.49
521.276	3129.21
521.643	3172.37
522.009	3199.49
522.376	3244.24
522.743	3228.19
523.11	3274.74
523.477	3280.39
523.843	3331.69
524.21	3332.37
524.577	3372.59
524.943	3398.58
525.31	3437
525.676	3463.21
526.043	3449.66
526.409	3474.06
526.776	3560.16
527.142	3511.57
527.508	3548.41
527.874	3576.21
528.241	3606.71
528.607	3592.48
528.973	3662.53
529.339	3656.43
529.705	3676.77
530.071	3735.98
530.437	3746.6
530.803	3751.57
531.169	3767.39
531.535	3790.21
531.901	3789.76
532.267	3834.73
532.632	3879.25
532.998	3884.67
533.364	3881.73
533.73	3963.99
534.095	3974.16
534.461	3988.17
534.826	3992.01
535.192	4042.86
535.557	4012.8
535.923	4069.3
536.288	4059.36
536.653	4159.24
537.019	4119.24
537.384	4127.83
537.749	4177.77
538.114	4162.4
538.479	4183.2
538.845	4209.41
539.21	4189.07
539.575	4232.91
539.94	4282.63
540.305	4315.85
540.67	4296.86
541.034	4303.64
541.399	4330.76
541.764	4330.08
542.129	4353.81
542.494	4396.52
542.858	4412.12
543.223	4440.59
543.587	4403.3
543.952	4481.27
544.316	4474.26
544.681	4489.4
545.045	4552.9
545.41	4544.32
545.774	4530.98
546.138	4566.01
546.503	4643.75
546.867	4613.69
547.231	4674.26
547.595	4701.83
547.959	4747.47
548.324	4679.45
548.688	4741.82
549.052	4765.33
549.416	4775.95
549.779	4777.98
550.143	4799.45
550.507	4920.8
550.871	4861.14
551.235	4916.96
551.599	4917.87
551.962	4944.98
552.326	5021.14
552.689	5016.17
553.053	5068.14
553.417	5008.71
553.78	5111.76
554.143	5139.78
554.507	5148.37
554.87	5235.14
555.234	5229.5
555.597	5241.7
555.96	5246.44
556.323	5304.52
556.686	5307.23
557.05	5372.77
557.413	5422.94
557.776	5397.85
558.139	5419.32
558.502	5523.72
558.865	5566.44
559.228	5601.69
559.59	5614.57
559.953	5643.5
560.316	5751.97
560.679	5759.65
561.041	5803.94
561.404	5857.73
561.767	5888.46
562.129	5895.69
562.492	5978.18
562.854	6038.29
563.217	6000.55
563.579	6088.68
563.941	6161.22
564.304	6226.31
564.666	6272.86
565.028	6309.69
565.39	6354.66
565.753	6392.4
566.115	6486.64
566.477	6540.87
566.839	6561.66
567.201	6612.06
567.563	6705.39
567.925	6739.96
568.287	6782.9
568.648	6859.51
569.01	6948.55
569.372	6979.28
569.734	7071.03
570.095	7082.33
570.457	7231.7
570.819	7269.67
571.18	7317.8
571.542	7390.34
571.903	7476.89
572.265	7452.71
572.626	7619.49
572.987	7641.18
573.349	7711.46
573.71	7788.07
574.071	7827.39
574.432	7932.48
574.794	8043.43
575.155	8119.36
575.516	8199.13
575.877	8264.9
576.238	8326.59
576.599	8488.84
576.96	8502.63
577.32	8620.59
577.681	8693.58
578.042	8832.79
578.403	8898.55
578.763	8991.2
579.124	9127.47
579.485	9189.84
579.845	9383.06
580.206	9407.01
580.566	9524.3
580.927	9666.44
581.287	9852.2
581.648	9912.99
582.008	10150.72
582.368	10134
582.728	10345.97
583.089	10413.77
583.449	10628.9
583.809	10745.06
584.169	10880.87
584.529	11036.12
584.889	11325.83
585.249	11424.59
585.609	11483.12
585.969	11680.4
586.329	11878.59
586.688	12117
587.048	12281.74
587.408	12430.66
587.768	12606.7
588.127	12866.36
588.487	13052.34
588.846	13323.97
589.206	13463.18
589.565	13689.16
589.925	13997.63
590.284	14156.72
590.643	14457.95
591.003	14760.77
591.362	14937.49
591.721	15191.49
592.08	15434.42
592.44	15779.95
592.799	16093.62
593.158	16394.17
593.517	16587.16
593.876	16890.66
594.235	17060.14
594.593	17397.31
594.952	17726.34
595.311	18011.98
595.67	18346.89
596.029	18747.33
596.387	19061
596.746	19467.09
597.104	19529.68
597.463	19933.52
597.822	20309.78
598.18	20502.31
598.538	20910.66
598.897	21300.03
599.255	21446.92
599.613	22110.63
599.972	22198.99
600.33	22578.87
600.688	22800.78
601.046	23339.75
601.404	23663.13
601.762	23983.35
602.12	24349.44
602.478	24733.62
602.836	25064.23
603.194	25216.09
603.552	25570.43
603.91	25725.45
604.268	26246.12
604.625	26470.52
604.983	26924.97
605.341	27149.82
605.698	27639.3
606.056	27915.68
606.413	28160.19
606.771	28509.11
607.128	28856.22
607.485	29014.86
607.843	29197.9
608.2	29645.12
608.557	30007.83
608.914	30253.7
609.272	30544.31
609.629	30939.55
609.986	31276.95
610.343	31315.14
610.7	31624.73
611.057	31830.83
611.414	32079.86
611.771	32395.11
612.127	32732.73
612.484	32782.22
612.841	33231.7
613.198	33334.07
613.554	33364.12
613.911	33922.3
614.267	34008.4
614.624	34193.71
614.98	34414.94
615.337	34766.57
615.693	34789.62
616.05	35072.78
616.406	35298.54
616.762	35339.21
617.118	35551.41
617.475	35549.15
617.831	35892.42
618.187	36104.62
618.543	36225.52
618.899	36744.6
619.255	36702.79
619.611	36752.73
619.967	37107.08
620.323	37249.67
620.678	37228.43
621.034	37192.95
621.39	37347.52
621.746	37491.02
622.101	37972.36
622.457	37713.16
622.812	37855.76
623.168	38099.59
623.523	38086.48
623.879	38375.74
624.234	38346.14
624.589	38467.27
624.945	38618.67
625.3	38675.85
625.655	38855.5
626.01	38770.99
626.365	39015.73
626.72	38949.74
627.075	39012.11
627.43	39145.44
627.785	39017.76
628.14	39278.54
628.495	39486.22
628.85	39298.88
629.205	39277.41
629.559	39596.73
629.914	39555.82
630.269	39569.61
630.623	39579.1
630.978	39432.89
631.332	39774.8
631.687	39803.95
632.041	39830.62
632.396	39965.31
632.75	39811.18
633.104	39809.38
633.459	39661.81
633.813	39738.64
634.167	39864.29
634.521	39875.82
634.875	39951.75
635.229	39881.92
635.583	39800.34
635.937	39907.91
636.291	39872.43
636.645	40110.61
636.999	39735.71
637.352	39915.14
637.706	39788.13
638.06	39972.08
638.413	39830.39
638.767	39976.83
639.121	39911.75
639.474	39773.67
639.828	39812.77
640.181	40007.79
640.534	39981.35
640.888	39946.1
641.241	39861.8
641.594	39857.29
641.947	39945.87
642.301	39831.98
642.654	39835.14
643.007	39911.3
643.36	39942.93
643.713	39907.68
644.066	40015.7
644.419	39725.31
644.771	39493.68
645.124	39147.25
645.477	39074.48
645.83	38826.13
646.182	38890.08
646.535	38795.62
646.888	39046.91
647.24	38771.21
647.593	39067.93
647.945	38956.97
648.298	38834.94
648.65	38738.9
649.002	38756.07
649.355	38884.2
649.707	38752.23
650.059	38921.04
650.411	39410.97
650.763	39422.95
651.115	39758.76
651.467	39797.17
651.819	39699.78
652.171	39648.48
652.523	39683.05
652.875	39584.75
653.227	39404.19
653.578	39820
653.93	39626.56
654.282	39565.09
654.633	39599.21
654.985	39742.26
655.337	39670.62
655.688	39709.27
656.039	39708.36
656.391	39527.12
656.742	39397.64
657.094	39444.87
657.445	39610.96
657.796	39641.47
658.147	39505.66
658.498	39354.02
658.849	39550.85
659.2	39483.06
659.551	39419.33
659.902	39575.48
660.253	39352.89
660.604	39557.63
660.955	39242.61
661.306	39501.81
661.656	39335.27
662.007	39390.63
662.358	39403.06
662.708	39510.85
663.059	39531.42
663.409	39111.09
663.76	39603.51
664.11	39477.18
664.461	39515.15
664.811	39459.33
665.161	39495.26
665.511	39426.11
665.862	39446.45
666.212	39638.53
666.562	39554.47
666.912	39431.76
667.262	39388.15
667.612	39389.95
667.962	39254.14
668.312	39398.77
668.662	39478.54
669.011	39511.98
669.361	39304.76
669.711	39423.4
670.06	39346.11
670.41	39218.66
670.76	39315.38
671.109	39264.53
671.459	39332.78
671.808	39203.97
672.157	39300.24
672.507	39083.75
672.856	39089.62
673.205	39227.47
673.554	39198.32
673.904	39105.44
674.253	39340.46
674.602	39210.07
674.951	38641.72
675.3	38444.67
675.649	39078.32
675.998	39024.31
676.346	38990.19
676.695	39181.14
677.044	38936.86
677.393	38883.98
677.741	39103.63
678.09	38964.65
678.438	38775.96
678.787	38950.64
679.135	38837.2
679.484	38643.76
679.832	38919.68
680.181	38629.52
680.529	38773.7
680.877	38564.44
681.225	38531.22
681.573	38863.64
681.922	38363.77
682.27	38404.44
682.618	38460.94
682.966	38338
683.314	38300.72
683.661	38164.22
684.009	38037.45
684.357	38096.43
684.705	37998.8
685.053	38044.23
685.4	37926.94
685.748	37804.91
686.095	37849.88
686.443	37728.53
686.79	37615.31
687.138	37777.34
687.485	37752.03
687.832	37549.55
688.18	37530.57
688.527	37474.75
688.874	37493.51
689.221	37294.41
689.568	37170.12
689.915	37047.87
690.262	37133.97
690.609	36969
690.956	36822.79
691.303	36908.21
691.65	36644.49
691.997	36689.23
692.344	36555.45
692.69	36475.45
693.037	36477.71
693.383	36262.13
693.73	36251.28
694.077	36169.47
694.423	36105.52
694.769	36144.39
695.116	36005.41
695.462	35874.11
695.808	35807
696.155	35752.53
696.501	35520
696.847	35733.1
697.193	35396.61
697.539	35486.1
697.885	35417.85
698.231	35113.23
698.577	35078.88
698.923	35101.25
699.269	34894.93
699.614	34762.28
699.96	34644.32
700.306	34798.66
700.651	34736.29
700.997	34446.13
701.342	34447.03
701.688	34372.01
702.033	34279.58
702.379	34332.01
702.724	34181.28
703.069	34187.15
703.415	33815.41
703.76	33830.33
704.105	33938.8
704.45	33703.32
704.795	33593.04
705.14	33668.75
705.485	33515.76
705.83	33482.99
706.175	33467.17
706.52	33357.12
706.865	33205.48
707.209	33144.69
707.554	33086.16
707.899	33214.52
708.243	32957.58
708.588	32969.78
708.932	32735.44
709.277	32650.47
709.621	32593.3
709.966	32403.92
710.31	32545.16
710.654	32343.36
710.998	32250.03
711.342	32293.19
711.687	32248.45
712.031	32030.82
712.375	31926.87
712.719	32028.34
713.063	31976.14
713.407	32142.69
713.75	31986.53
714.094	31779.53
714.438	31798.06
714.782	31714.67
715.125	31592.19
715.469	31676.48
715.812	31425.64
716.156	31352.65
716.499	31493.44
716.843	31477.84
717.186	31244.86
717.53	31398.3
717.873	31285.08
718.216	31216.38
718.559	31086.89
718.902	30858.65
719.246	30998.08
719.589	30932.55
719.932	30689.62
720.275	30789.28
720.617	30698.88
720.96	30641.26
721.303	30654.36
721.646	30653.69
721.989	30500.24
722.331	30664.76
722.674	30519.68
723.016	30478.77
723.359	30547.7
723.701	30459.79
724.044	30170.99
724.386	30074.94
724.729	30300.02
725.071	30239.46
725.413	30152.68
725.755	30260.48
726.097	30042.18
726.439	29873.37
726.782	29902.97
727.124	29956.08
727.465	29794.5
727.807	29933.7
728.149	29814.39
728.491	29626.37
728.833	29654.62
729.175	29601.96
729.516	29582.53
729.858	29580.72
730.199	29557.9
730.541	29506.82
730.882	29467.73
731.224	29539.82
731.565	29364.23
731.906	29333.95
732.248	29374.4
732.589	29181.86
732.93	29110.68
733.271	29139.83
733.612	29236.1
733.953	29055.99
734.294	29022.54
734.635	28897.12
734.976	28999.72
735.317	28920.4
735.658	28905.26
735.999	28798.82
736.339	28915.2
736.68	28793.4
737.021	28819.61
737.361	28728.99
737.702	28895.31
738.042	28671.59
738.383	28586.4
738.723	28619.84
739.063	28539.62
739.404	28539.39
739.744	28487.87
740.084	28362.9
740.424	28350.92
740.764	28273.64
741.104	28418.72
741.444	28264.6
741.784	28121.1
742.124	28194.99
742.464	28271.15
742.804	28215.78
743.143	28059.4
743.483	28123.81
743.823	27959.75
744.162	28013.98
744.502	28053.53
744.841	27859.63
745.181	28065.5
745.52	27879.75
745.86	27787.09
746.199	27887.88
746.538	27821.67
746.877	27904.38
747.216	27838.39
747.556	27672.97
747.895	27745.29
748.234	27704.16
748.573	27507.78
748.911	27660.32
749.25	27427.78
749.589	27460.1
749.928	27469.36
750.267	27468.46
750.605	27364.73
750.944	27277.05
751.283	27356.82
751.621	27268.69
751.96	27138.98
752.298	27087
752.636	27142.37
752.975	27013.33
753.313	26924.29
753.651	26973.33
753.989	26969.94
754.327	26817.18
754.666	26762.94
755.004	26717.07
755.342	26719.78
755.679	26631.64
756.017	26560.91
756.355	26618.54
756.693	26333.57
757.031	26487.69
757.368	26292.44
757.706	26295.38
758.044	26266.91
758.381	26268.94
758.719	26133.13
759.056	26069.63
759.394	26049.29
759.731	25872.79
760.068	25948.5
760.405	25781.5
760.743	25629.18
761.08	25764.77
761.417	25534.27
761.754	25477.78
762.091	25576.53
762.428	25552.58
762.765	25246.14
763.102	25386.71
763.438	25355.52
763.775	25084.11
764.112	25135.41
764.449	25087.28
764.785	24966.38
765.122	24915.31
765.458	24705.14
765.795	24680.51
766.131	24758.7
766.467	24696.55
766.804	24457.69
767.14	24309.45
767.476	24409.33
767.812	24278.03
768.148	24306.73
768.485	24146.06
768.821	24017.48
769.157	24012.5
769.492	23990.13
769.828	23880.76
770.164	23811.15
770.5	23671.72
770.836	23690.7
771.171	23491.61
771.507	23462.01
771.842	23247.55
772.178	23319.42
772.513	23397.38
772.849	23123.71
773.184	23054.56
773.519	23121.45
773.855	23113.09
774.19	22939.09
774.525	22838.3
774.86	22714.69
775.195	22648.7
775.53	22627.68
775.865	22507.23
776.2	22423.17
776.535	22180.69
776.87	22331.64
777.205	22082.39
777.539	21962.16
777.874	22085.55
778.209	21965.33
778.543	21954.71
778.878	21696.63
779.212	21680.14
779.547	21569.63
779.881	21681.27
780.215	21547.03
780.55	21556.07
780.884	21373.7
781.218	21294.16
781.552	21286.93
781.886	21147.27
782.22	21027.95
782.554	21009.42
782.888	20787.73
783.222	20738.01
783.556	20708.18
783.889	20612.82
784.223	20399.72
784.557	20478.59
784.89	20488.3
785.224	20372.6
785.557	20211.02
785.891	20232.49
786.224	20233.39
786.558	20052.83
786.891	19966.06
787.224	19852.16
787.557	19917.92
787.891	19878.38
788.224	19734.42
788.557	19781.88
788.89	19653.07
789.223	19581.89
789.556	19439.07
789.888	19442.68
790.221	19327.2
790.554	19197.94
790.887	19181.22
791.219	19224.83
791.552	19138.73
791.884	19031.39
792.217	18995.91
792.549	18921.56
792.882	18749.82
793.214	18654.9
793.546	18648.13
793.879	18663.94
794.211	18521.35
794.543	18563.38
794.875	18513.67
795.207	18543.72
795.539	18407
795.871	18380.11
796.203	18218.98
796.535	18140.34
796.867	18219.44
797.198	18078.87
797.53	18029.61
797.862	17977.63
798.193	17940.12
798.525	17867.81
798.856	17914.59
799.188	17717.75
799.519	17706.91
799.85	17512.56
800.182	17516.4
800.513	17574.93
800.844	17396.18
801.175	17511.88
801.506	17452.45
801.837	17376.52
802.168	17326.35
802.499	17224.66
802.83	17167.94
803.161	17061.5
803.491	17132.91
803.822	17087.94
804.153	17021.73
804.483	16740.83
804.814	16803.65
805.145	16721.85
805.475	16760.27
805.805	16659.93
806.136	16649.31
806.466	16657.22
806.796	16649.53
807.126	16508.29
807.457	16483.89
807.787	16361.18
808.117	16356.43
808.447	16286.15
808.777	16393.27
809.107	16188.3
809.436	16246.61
809.766	16150.11
810.096	16153.05
810.426	16026.73
810.755	16002.32
811.085	16007.74
811.414	16028.08
811.744	15941.08
812.073	15854.98
812.403	15847.07
812.732	15751.93
813.061	15828.76
813.39	15665.38
813.719	15658.37
814.049	15781.31
814.378	15684.14
814.707	15437.59
815.036	15524.59
815.365	15459.96
815.693	15298.84
816.022	15368.66
816.351	15311.26
816.68	15170.93
817.008	15238.5
817.337	15122.79
817.665	15099.07
817.994	15155.34
818.322	15171.83
818.651	15022.91
818.979	15036.7
819.307	15036.92
819.636	14972.97
819.964	14867.21
820.292	14983.59
820.62	14947.43
820.948	14909.92
821.276	14941.1
821.604	14865.85
821.932	14879.86
822.259	14918.96
822.587	14884.61
822.915	14837.6
823.243	14814.1
823.57	14777.94
823.898	14869.24
824.225	14743.6
824.553	14768.45
824.88	14784.72
825.207	14847.1
825.535	14822.46
825.862	14818.4
826.189	14778.62
826.516	14785.85
826.843	14839.19
827.17	14849.36
827.497	14838.51
827.824	14896.59
828.151	14817.04
828.478	14842.12
828.805	14878.96
829.131	14810.26
829.458	14748.12
829.785	14689.59
830.111	14687.78
830.438	14769.81
830.764	14747.21
831.09	14770.26
831.417	14620.21
831.743	14719.64
832.069	14728.68
832.395	14687.1
832.722	14733.43
833.048	14733.88
833.374	14783.14
833.7	14688
834.026	14652.3
834.351	14673.31
834.677	14683.26
835.003	14630.6
835.329	14614.56
835.654	14619.76
835.98	14549.25
836.306	14565.97
836.631	14483.26
836.956	14566.42
837.282	14503.6
837.607	14432.19
837.932	14432.42
838.258	14448.24
838.583	14459.76
838.908	14319.2
839.233	14398.75
839.558	14309.26
839.883	14262.48
840.208	14226.77
840.533	14309.93
840.858	14285.53
841.182	14253.44
841.507	14219.32
841.832	14097.06
842.156	14154.23
842.481	14152.42
842.805	14043.27
843.13	14011.86
843.454	14054.57
843.778	13919.21
844.103	13942.71
844.427	13982.94
844.751	13930.96
845.075	13913.11
845.399	13788.37
845.723	13627.69
846.047	13718.31
846.371	13566
846.695	13605.55
847.019	13415.04
847.343	13460.69
847.666	13403.74
847.99	13335.72
848.313	13341.15
848.637	13234.26
848.96	13185.22
849.284	13136.18
849.607	13074.94
849.931	13027.48
850.254	12903.19
850.577	12952.23
850.9	12865.9
851.223	12847.15
851.546	12747.49
851.869	12605.35
852.192	12702.29
852.515	12643.09
852.838	12580.04
853.161	12565.12
853.483	12508.63
853.806	12404.22
854.129	12440.38
854.451	12429.53
854.774	12304.11
855.096	12339.36
855.419	12248.07
855.741	12234.28
856.063	12246.03
856.385	12111.57
856.708	12085.81
857.03	12106.83
857.352	11975.98
857.674	12016.21
857.996	12037
858.318	11902.54
858.64	11921.52
858.961	11866.61
859.283	11792.94
859.605	11841.98
859.926	11788.19
860.248	11759.49
860.57	11699.38
860.891	11681.08
861.212	11676.11
861.534	11647.63
861.855	11525.83
862.176	11557.01
862.498	11563.79
862.819	11574.64
863.14	11460.29
863.461	11447.41
863.782	11432.72
864.103	11437.47
864.424	11430.69
864.745	11429.78
865.065	11450.35
865.386	11289
865.707	11359.5
866.027	11308.21
866.348	11213.97
866.668	11257.13
866.989	11216.23
867.309	11103.47
867.63	11242.44
867.95	11198.38
868.27	11127.65
868.59	11174.2
868.91	11189.11
869.23	11107.76
869.55	10998.38
869.87	11043.35
870.19	11046.07
870.51	11102.34
870.83	11134.65
871.15	11039.96
871.469	11017.14
871.789	11108.21
872.109	10983.47
872.428	10851.95
872.748	10909.8
873.067	10957.71
873.386	10892.4
873.706	10922.9
874.025	10841.1
874.344	10842.91
874.663	10864.6
874.982	10797.26
875.301	10802.23
875.62	10739.18
875.939	10716.36
876.258	10742.8
876.577	10689.46
876.896	10688.33
877.214	10686.53
877.533	10704.83
877.852	10698.5
878.17	10682.01
878.489	10660.31
878.807	10646.3
879.125	10599.98
879.444	10530.6
879.762	10559.3
880.08	10595
880.398	10481.79
880.716	10571.05
881.034	10457.61
881.352	10498.51
881.67	10507.32
881.988	10483.37
882.306	10392.98
882.624	10414.9
882.941	10369.02
883.259	10261.23
883.577	10288.57
883.894	10161.57
884.212	10251.74
884.529	10184.62
884.846	10194.79
885.164	10242.02
885.481	10058.75
885.798	10193.88
886.115	10026.66
886.432	10081.57
886.75	10028.01
887.067	10084.73
887.383	9952.76
887.7	9969.03
888.017	9968.13
888.334	9914.8
888.651	9975.81
888.967	9860.56
889.284	9889.26
889.6	9780.79
889.917	9770.17
890.233	9783.95
890.55	9731.52
890.866	9728.13
891.182	9687.46
891.498	9617.4
891.815	9629.38
892.131	9571.53
892.447	9522.26
892.763	9531.53
893.079	9581.47
893.395	9496.95
893.71	9493.56
894.026	9462.15
894.342	9454.69
894.657	9343.29
894.973	9374.25
895.289	9390.97
895.604	9364.3
895.92	9197.53
896.235	9278.65
896.55	9233.01
896.865	9188.49
897.181	9122.5
897.496	9129.28
897.811	9060.58
898.126	9013.35
898.441	9086.57
898.756	9009.73
899.071	8946.91
899.386	8971.32
899.7	8956.4
900.015	8828.27
900.33	8751.89
900.644	8797.54
900.959	8752.34
901.273	8752.11
901.588	8674.83
901.902	8659.46
902.216	8623.98
902.531	8616.98
902.845	8625.34
903.159	8562.74
903.473	8527.49
903.787	8496.53
904.101	8455.17
904.415	8433.03
904.729	8444.1
905.042	8359.36
905.356	8359.81
905.67	8377.89
905.984	8333.37
906.297	8244.33
906.611	8211.34
906.924	8199.81
907.237	8178.57
907.551	8144.67
907.864	8136.31
908.177	8054.28
908.491	8047.95
908.804	7983.77
909.117	8009.99
909.43	7926.6
909.743	7867.62
910.056	7868.52
910.368	7831.23
910.681	7791.46
910.994	7799.15
911.307	7704.68
911.619	7718.24
911.932	7631.01
912.244	7581.75
912.557	7616.33
912.869	7634.86
913.181	7567.06
913.494	7525.48
913.806	7489.77
914.118	7440.51
914.43	7414.3
914.742	7439.61
915.054	7361.19
915.366	7327.75
915.678	7303.57
915.99	7284.36
916.302	7208.2
916.613	7179.5
916.925	7208.88
917.236	7167.75
917.548	7102.44
917.859	7114.19
918.171	6986.06
918.482	7002.78
918.794	7010.47
919.105	6972.5
919.416	6866.06
919.727	6898.15
920.038	6938.83
920.349	6897.47
920.66	6849.57
920.971	6812.5
921.282	6800.75
921.593	6731.6
921.903	6676.24
922.214	6664.03
922.525	6646.63
922.835	6619.52
923.146	6621.1
923.456	6558.73
923.767	6527.31
924.077	6620.65
924.387	6488.67
924.697	6457.49
925.008	6425.62
925.318	6411.84
925.628	6379.3
925.938	6428.79
926.248	6364.83
926.558	6246.87
926.867	6290.26
927.177	6203.48
927.487	6164.61
927.796	6143.82
928.106	6204.61
928.416	6144.5
928.725	6157.83
929.034	6097.27
929.344	6050.94
929.653	6083.26
929.962	6024.73
930.271	5943.15
930.581	5992.64
930.89	5952.41
931.199	5938.4
931.508	5851.85
931.817	5871.29
932.125	5868.8
932.434	5834
932.743	5724.17
933.051	5795.58
933.36	5735.02
933.669	5669.26
933.977	5625.19
934.286	5648.69
934.594	5658.64
934.902	5618.64
935.21	5528.24
935.519	5527.57
935.827	5608.24
936.135	5554.23
936.443	5494.57
936.751	5455.03
937.059	5477.62
937.367	5421.13
937.674	5392.88
937.982	5430.62
938.29	5398.53
938.597	5370.51
938.905	5315.59
939.213	5301.81
939.52	5290.96
939.827	5224.3
940.135	5204.86
940.442	5182.49
940.749	5224.3
941.056	5194.92
941.363	5140.91
941.67	5154.92
941.977	5142.27
942.284	5033.57
942.591	5047.58
942.898	5004.87
943.205	4961.71
943.511	4988.82
943.818	4962.38
944.125	4954.7
944.431	4955.15
944.738	4877.64
945.044	4860.47
945.35	4821.82
945.657	4824.99
945.963	4775.95
946.269	4791.77
946.575	4784.54
946.881	4760.81
947.187	4754.25
947.493	4684.65
947.799	4708.61
948.105	4659.34
948.41	4683.07
948.716	4628.83
949.022	4613.47
949.327	4576.86
949.633	4563.07
949.938	4521.94
950.244	4534.15
950.549	4467.71
950.854	4437.65
951.16	4462.96
951.465	4419.57
951.77	4408.73
952.075	4403.53
952.38	4377.54
952.685	4439.69
952.99	4305.23
953.294	4331.44
953.599	4345
953.904	4276.98
954.209	4267.49
954.513	4263.64
954.818	4221.84
955.122	4264.1
955.426	4184.55
955.731	4223.42
956.035	4148.17
956.339	4119.47
956.643	4114.04
956.948	4127.6
957.252	4102.52
957.556	4108.62
957.86	4043.09
958.163	4037.21
958.467	3966.48
958.771	3996.08
959.075	4031.11
959.378	3929.19
959.682	3949.53
959.985	3932.13
960.289	3897.55
960.592	3879.47
960.896	3898.46
961.199	3834.96
961.502	3841.28
961.805	3819.36
962.108	3810.1
962.411	3789.53
962.714	3801.74
963.017	3782.53
963.32	3785.69
963.623	3731.68
963.926	3725.35
964.228	3708.41
964.531	3680.84
964.833	3656.66
965.136	3671.12
965.438	3678.58
965.741	3611.46
966.043	3600.61
966.345	3582.76
966.648	3547.96
966.95	3551.57
967.252	3519.48
967.554	3509.31
967.856	3529.65
968.158	3481.74
968.46	3442.65
968.761	3468.41
969.063	3456.89
969.365	3479.26
969.666	3419.15
969.968	3380.5
970.269	3369.88
970.571	3365.14
970.872	3375.76
971.174	3333.05
971.475	3303.44
971.776	3305.93
972.077	3253.28
972.378	3255.54
972.679	3276.78
972.98	3281.3
973.281	3302.31
973.582	3234.97
973.883	3212.15
974.183	3192.49
974.484	3204.24
974.785	3130.12
975.085	3178.02
975.386	3203.33
975.686	3140.74
975.986	3148.87
976.287	3137.12
976.587	3100.06
976.887	3062.09
977.187	3061.42
977.487	3071.36
977.787	3021.64
978.087	3021.19
978.387	3050.57
978.687	3060.06
978.987	2987.97
979.286	2981.42
979.586	2963.57
979.885	2923.12
980.185	2932.15
980.484	2917.92
980.784	2899.39
981.083	2906.17
981.382	2863.91
981.682	2921.99
981.981	2879.95
982.28	2870.24
982.579	2830.01
982.878	2829.56
983.177	2820.75
983.475	2785.04
983.774	2754.53
984.073	2761.31
984.372	2736.45
984.67	2741.2
984.969	2738.04
985.267	2759.73
985.566	2714.76
985.864	2702.33
986.162	2669.11
986.461	2654.2
986.759	2678.83
987.057	2619.62
987.355	2605.84
987.653	2576.01
987.951	2602.22
988.249	2599.73
988.547	2558.15
988.844	2571.71
989.142	2587.76
989.44	2549.79
989.737	2544.82
990.035	2518.15
990.332	2518.38
990.63	2486.52
990.927	2492.84
991.224	2460.3
991.521	2502.79
991.819	2474.31
992.116	2454.88
992.413	2428.44
992.71	2434.99
993.006	2400.87
993.303	2421.21
993.6	2387.99
993.897	2395.9
994.193	2369.91
994.49	2367.2
994.787	2354.09
995.083	2336.92
995.379	2309.8
995.676	2312.96
995.972	2300.31
996.268	2290.82
996.565	2292.85
996.861	2260.53
997.157	2243.13
997.453	2226.41
997.749	2259.63
998.044	2246.3
998.34	2204.72
998.636	2225.05
998.932	2171.5
999.227	2183.47
999.523	2194.09
999.818	2149.12
1000.114	2144.15
1000.409	2113.42
1000.704	2114.1
1001	2110.26
1001.295	2096.02
1001.59	2091.72
1001.885	2089.46
1002.18	2095.79
1002.475	2079.97
1002.77	2041.56
1003.065	2036.36
1003.359	2002.24
1003.654	2001.56
1003.949	1986.87
1004.243	1980.09
1004.538	1954.78
1004.832	1986.87
1005.127	1975.8
1005.421	1937.38
1005.715	1920.88
1006.009	1934.67
1006.304	1902.58
1006.598	1878.85
1006.892	1853.31
1007.186	1887.66
1007.48	1862.58
1007.773	1847.44
1008.067	1813.09
1008.361	1833.2
1008.655	1839.3
1008.948	1842.69
1009.242	1835.91
1009.535	1795.46
1009.829	1802.92
1010.122	1758.85
1010.415	1781.9
1010.708	1745.52
1011.001	1773.31
1011.295	1753.2
1011.588	1748.46
1011.881	1727.21
1012.173	1718.85
1012.466	1736.03
1012.759	1691.74
1013.052	1698.06
1013.344	1682.24
1013.637	1675.46
1013.93	1657.84
1014.222	1624.84
1014.514	1656.03
1014.807	1613.55
1015.099	1598.18
1015.391	1608.8
1015.683	1604.05
1015.976	1618.97
1016.268	1583.72
1016.56	1569.93
1016.851	1543.94
1017.143	1558.41
1017.435	1537.61
1017.727	1525.19
1018.018	1542.36
1018.31	1519.08
1018.602	1502.36
1018.893	1501.23
1019.185	1465.07
1019.476	1450.39
1019.767	1483.83
1020.058	1469.37
1020.35	1475.7
1020.641	1441.8
1020.932	1395.25
1021.223	1416.04
1021.514	1417.84
1021.804	1405.42
1022.095	1384.85
1022.386	1350.5
1022.677	1384.17
1022.967	1366.55
1023.258	1341.46
1023.548	1338.75
1023.839	1321.8
1024.129	1316.38
1024.419	1269.37
1024.709	1316.6
1025	1292.42
1025.29	1301.24
1025.58	1287.9
1025.87	1275.93
1026.16	1274.35
1026.449	1246.32
1026.739	1276.38
1027.029	1254.68
1027.319	1230.73
1027.608	1222.59
1027.898	1218.98
1028.187	1199.77
1028.477	1167.46
1028.766	1214.01
1029.055	1192.31
1029.344	1169.04
1029.634	1175.59
1029.923	1149.6
1030.212	1165.2
1030.501	1180.79
1030.79	1151.86
1031.078	1134.24
1031.367	1157.51
1031.656	1131.52
1031.945	1104.86
1032.233	1125.65
1032.522	1116.16
1032.81	1101.92
1033.099	1092.88
1033.387	1094.01
1033.675	1089.04
1033.963	1073.45
1034.251	1036.39
1034.54	1056.5
1034.828	1068.02
1035.116	1028.7
1035.403	1017.63
1035.691	1031.64
1035.979	1033.22
1036.267	1003.62
1036.554	1025.31
1036.842	1005.43
1037.129	1012.43
1037.417	979.66
1037.704	969.27
1037.992	988.48
1038.279	978.99
1038.566	941.7
1038.853	941.7
1039.14	941.7
