Data from red_cardboard_box_FLMS001491_00040.txt Node
Date: Wed Feb 08 11:32:06 GMT 2017
User: dcchb
Spectrometer: FLMS00149
Trigger mode: 0
Integration Time (sec): 2.000000E-2
Scans to average: 10
Electric dark correction enabled: true
Nonlinearity correction enabled: false
Boxcar width: 0
XAxis mode: Wavelengths
Number of Pixels in Spectrum: 2048
>>>>>Begin Spectral Data<<<<<
341.393	-3.42
341.776	-3.42
342.16	-3.42
342.543	-58.56
342.927	-35.28
343.31	-72.57
343.693	-68.73
344.077	-66.24
344.46	-58.78
344.843	-57.88
345.226	-29.63
345.61	-15.62
345.993	-26.92
346.376	-17.2
346.759	-2.97
347.142	33.42
347.525	35.45
347.908	58.95
348.291	81.33
348.674	92.85
349.057	114.55
349.44	128.56
349.823	144.15
350.206	178.95
350.588	194.99
350.971	215.56
351.354	222.79
351.737	251.72
352.119	254.2
352.502	269.57
352.884	272.28
353.267	280.64
353.65	300.98
354.032	301.21
354.414	319.29
354.797	307.99
355.179	342.56
355.562	331.04
355.944	331.49
356.326	352.5
356.709	339.85
357.091	346.63
357.473	364.26
357.855	350.92
358.238	356.8
358.62	341.43
359.002	337.14
359.384	365.16
359.766	364.71
360.148	352.73
360.53	334.2
360.912	336.91
361.294	337.82
361.676	339.17
362.057	322.45
362.439	315.44
362.821	323.35
363.203	312.96
363.584	335.56
363.966	333.07
364.348	347.53
364.729	335.78
365.111	323.81
365.493	317.48
365.874	325.39
366.256	323.81
366.637	302.56
367.019	332.84
367.4	329.68
367.781	326.52
368.163	307.53
368.544	317.48
368.925	296.24
369.306	316.12
369.688	335.78
370.069	301.43
370.45	303.69
370.831	312.05
371.212	310.92
371.593	306.4
371.974	314.77
372.355	298.49
372.736	308.44
373.117	337.36
373.498	315.67
373.879	303.01
374.26	307.31
374.641	323.13
375.021	315.44
375.402	325.61
375.783	327.65
376.163	312.28
376.544	311.83
376.925	301.88
377.305	310.02
377.686	315.44
378.066	316.12
378.447	316.12
378.827	298.95
379.208	324.71
379.588	320.42
379.968	341.66
380.349	328.55
380.729	324.71
381.109	339.17
381.489	324.93
381.87	343.92
382.25	319.06
382.63	324.71
383.01	304.37
383.39	333.3
383.77	327.87
384.15	343.92
384.53	324.93
384.91	339.62
385.29	338.04
385.67	329.45
386.049	345.27
386.429	347.31
386.809	342.79
387.189	334.65
387.568	347.08
387.948	358.15
388.328	359.96
388.707	345.05
389.087	368.55
389.466	354.54
389.846	347.53
390.225	353.18
390.605	364.93
390.984	363.58
391.363	338.72
391.743	339.17
392.122	360.19
392.501	342.79
392.881	360.87
393.26	353.41
393.639	348.89
394.018	350.25
394.397	359.51
394.776	332.84
395.155	366.29
395.534	367.19
395.913	358.61
396.292	358.38
396.671	362.9
397.05	362.22
397.429	356.57
397.808	367.42
398.186	375.33
398.565	358.83
398.944	361.09
399.323	354.99
399.701	367.87
400.08	359.74
400.458	375.78
400.837	355.22
401.215	371.49
401.594	374.65
401.972	364.48
402.351	371.71
402.729	365.39
403.107	378.94
403.486	387.53
403.864	385.5
404.242	389.57
404.62	388.89
404.999	383.01
405.377	399.06
405.755	386.85
406.133	399.96
406.511	394.54
406.889	392.73
407.267	408.1
407.645	391.83
408.023	402.22
408.401	388.66
408.779	396.35
409.156	405.84
409.534	400.41
409.912	408.77
410.29	405.16
410.667	407.42
411.045	406.51
411.422	416.68
411.8	409
412.178	416.01
412.555	430.02
412.933	413.07
413.31	436.34
413.687	422.11
414.065	418.72
414.442	436.34
414.819	426.18
415.197	416.23
415.574	430.69
415.951	425.27
416.328	445.61
416.705	437.47
417.082	456
417.46	446.97
417.837	469.11
418.214	434.99
418.591	432.28
418.967	458.04
419.344	445.16
419.721	461.65
420.098	453.07
420.475	432.95
420.852	461.2
421.228	436.57
421.605	452.84
421.982	423.24
422.358	471.6
422.735	470.02
423.111	455.55
423.488	446.29
423.864	481.99
424.241	455.55
424.617	465.04
424.994	466.85
425.37	482.67
425.746	476.8
426.123	488.09
426.499	477.02
426.875	484.25
427.251	475.67
427.627	486.96
428.003	484.93
428.379	493.97
428.756	493.07
429.132	489.9
429.507	484.7
429.883	494.87
430.259	513.86
430.635	518.15
431.011	503.46
431.387	496.91
431.763	517.02
432.138	514.99
432.514	509.34
432.89	521.77
433.265	526.74
433.641	527.42
434.016	536.91
434.392	525.16
434.767	552.5
435.143	556.57
435.518	560.63
435.894	534.19
436.269	547.98
436.644	566.51
437.02	567.87
437.395	575.32
437.77	542.1
438.145	533.29
438.52	555.44
438.895	550.92
439.271	554.99
439.646	576.45
440.021	572.39
440.395	600.41
440.77	586.85
441.145	587.3
441.52	578.04
441.895	603.8
442.27	579.17
442.645	592.27
443.019	607.64
443.394	604.02
443.769	618.94
444.143	604.48
444.518	619.62
444.892	603.35
445.267	594.53
445.641	603.12
446.016	620.52
446.39	623.01
446.764	627.75
447.139	614.42
447.513	623.68
447.887	600.41
448.262	613.06
448.636	633.4
449.01	627.3
449.384	636.79
449.758	633.4
450.132	628.43
450.506	658.03
450.88	651.48
451.254	656
451.628	640.86
452.002	656.23
452.376	662.55
452.75	655.1
453.123	663.23
453.497	668.88
453.871	665.94
454.244	678.37
454.618	665.72
454.992	677.69
455.365	686.73
455.739	686.73
456.112	689.45
456.486	697.35
456.859	708.43
457.232	697.13
457.606	701.65
457.979	713.17
458.352	725.15
458.725	723.57
459.099	727.18
459.472	718.14
459.845	719.05
460.218	741.87
460.591	757.24
460.964	766.28
461.337	760.4
461.71	779.16
462.083	750.69
462.456	776.67
462.829	764.25
463.201	791.36
463.574	790.23
463.947	812.38
464.32	807.63
464.692	824.58
465.065	791.82
465.438	818.93
465.81	814.19
466.183	834.98
466.555	837.46
466.928	844.02
467.3	849.67
467.672	839.95
468.045	841.98
468.417	867.07
468.789	861.64
469.161	855.77
469.534	868.2
469.906	875.65
470.278	919.04
470.65	902.09
471.022	923.34
471.394	937.35
471.766	912.49
472.138	946.16
472.51	964.92
472.882	951.36
473.253	945.26
473.625	976.67
473.997	996.56
474.369	992.26
474.74	1015.09
475.112	1031.81
475.484	1004.92
475.855	1035.65
476.227	1030.23
476.598	1064.12
476.97	1076.55
477.341	1080.4
477.713	1094.41
478.084	1082.88
478.455	1124.01
478.827	1155.65
479.198	1139.15
479.569	1140.05
479.94	1171.92
480.311	1159.94
480.682	1184.12
481.053	1212.14
481.424	1238.36
481.795	1242.88
482.166	1265.02
482.537	1260.5
482.908	1281.29
483.279	1302.08
483.65	1311.12
484.021	1325.36
484.391	1315.87
484.762	1364.46
485.133	1362.87
485.503	1373.49
485.874	1401.52
486.244	1407.39
486.615	1454.17
486.985	1445.13
487.356	1450.1
487.726	1481.74
488.097	1477.9
488.467	1501.4
488.837	1534.17
489.207	1510.89
489.578	1554.51
489.948	1580.5
490.318	1598.12
490.688	1597.67
491.058	1638.35
491.428	1629.76
491.798	1685.35
492.168	1671.57
492.538	1705.46
492.908	1692.58
493.278	1752.24
493.648	1749.76
494.017	1754.95
494.387	1790.89
494.757	1771
495.126	1780.94
495.496	1801.28
495.866	1806.48
496.235	1803.54
496.605	1821.17
496.974	1839.92
497.344	1843.99
497.713	1873.59
498.082	1868.17
498.452	1916.31
498.821	1922.86
499.19	1915.4
499.559	1919.92
499.928	1962.86
500.298	1929.64
500.667	1967.15
501.036	1994.95
501.405	1992.46
501.774	1989.98
502.143	1987.72
502.512	2032.69
502.88	2024.33
503.249	2063.87
503.618	2078.11
503.987	2059.8
504.356	2049.64
504.724	2068.17
505.093	2116.07
505.462	2121.27
505.83	2098.9
506.199	2144.32
506.567	2167.15
506.936	2169.86
507.304	2189.52
507.672	2210.54
508.041	2166.92
508.409	2208.05
508.777	2237.88
509.145	2249.86
509.514	2264.32
509.882	2251.89
510.25	2238.1
510.618	2273.36
510.986	2341.61
511.354	2358.55
511.722	2352.23
512.09	2340.93
512.458	2366.69
512.826	2385.9
513.193	2395.61
513.561	2407.37
513.929	2398.55
514.297	2439
514.664	2458.44
515.032	2455.5
515.4	2509.74
515.767	2478.1
516.135	2514.03
516.502	2516.06
516.869	2573.24
517.237	2575.05
517.604	2556.51
517.972	2567.14
518.339	2626.34
518.706	2613.69
519.073	2628.38
519.44	2627.47
519.808	2680.81
520.175	2703.4
520.542	2722.61
520.909	2756.28
521.276	2747.47
521.643	2783.63
522.009	2764.64
522.376	2771.42
522.743	2837.41
523.11	2849.61
523.477	2879.22
523.843	2900.91
524.21	2934.81
524.577	2918.77
524.943	2937.97
525.31	2970.74
525.676	3001.7
526.043	3006.67
526.409	3034.24
526.776	3027.46
527.142	3080.34
527.508	3123.73
527.874	3123.28
528.241	3135.26
528.607	3146.33
528.973	3154.69
529.339	3190.17
529.705	3217.06
530.071	3243.05
530.437	3270.39
530.803	3237.85
531.169	3310.17
531.535	3255.71
531.901	3301.35
532.267	3337.06
532.632	3343.39
532.998	3363.95
533.364	3433.78
533.73	3381.35
534.095	3414.57
534.461	3441.01
534.826	3457.96
535.192	3489.15
535.557	3526.21
535.923	3485.08
536.288	3524.17
536.653	3531.63
537.019	3547.68
537.384	3558.07
537.749	3585.19
538.114	3624.51
538.479	3606.43
538.845	3650.95
539.21	3646.2
539.575	3657.95
539.94	3666.99
540.305	3702.25
540.67	3737.27
541.034	3694.56
541.399	3766.2
541.764	3746.77
542.129	3791.96
542.494	3803.26
542.858	3797.16
543.223	3819.53
543.587	3902.02
543.952	3818.63
544.316	3838.74
544.681	3864.73
545.045	3908.34
545.41	3904.5
545.774	3909.25
546.138	3909.02
546.503	3967.33
546.867	4008.68
547.231	3995.35
547.595	4030.15
547.959	4037.15
548.324	4060.88
548.688	4070.6
549.052	4105.63
549.416	4125.29
549.779	4161.67
550.143	4098.62
550.507	4183.36
550.871	4202.12
551.235	4216.81
551.599	4227.43
551.962	4235.57
552.326	4315.56
552.689	4302.01
553.053	4300.65
553.417	4311.95
553.78	4328.67
554.143	4367.54
554.507	4399.86
554.87	4459.97
555.234	4493.86
555.597	4486.63
555.96	4530.02
556.323	4550.81
556.686	4560.08
557.05	4577.25
557.413	4623.8
557.776	4591.72
558.139	4694.31
558.502	4715.55
558.865	4709.23
559.228	4790.13
559.59	4816.79
559.953	4799.39
560.316	4863.35
560.679	4852.73
561.041	4887.98
561.404	4959.84
561.767	4995.55
562.129	4988.77
562.492	5120.06
562.854	5126.84
563.217	5146.73
563.579	5207.97
563.941	5275.77
564.304	5281.19
564.666	5345.14
565.028	5353.73
565.39	5397.12
565.753	5428.08
566.115	5484.57
566.477	5535.19
566.839	5563.22
567.201	5576.32
567.563	5668.98
567.925	5739.26
568.287	5758.46
568.648	5798.92
569.01	5821.74
569.372	5883.43
569.734	5955.07
570.095	5993.03
570.457	6063.77
570.819	6046.14
571.18	6133.37
571.542	6178.57
571.903	6233.71
572.265	6266.7
572.626	6332.23
572.987	6419.92
573.349	6456.53
573.71	6569.52
574.071	6631.89
574.432	6639.12
574.794	6687.71
575.155	6831.43
575.516	6798.89
575.877	6910.3
576.238	6948.94
576.599	7049.96
576.96	7134.93
577.32	7195.49
577.681	7271.87
578.042	7315.49
578.403	7460.11
578.763	7436.84
579.124	7550.28
579.485	7700.11
579.845	7752.99
580.206	7858.75
580.566	7921.12
580.927	8056.26
581.287	8216.7
581.648	8188.23
582.008	8301.22
582.368	8411.05
582.728	8631.38
583.089	8749.8
583.449	8818.5
583.809	8914.31
584.169	9026.63
584.529	9178.26
584.889	9305.04
585.249	9397.92
585.609	9538.7
585.969	9755.42
586.329	9818.24
586.688	9961.29
587.048	10147.28
587.408	10291.23
587.768	10501.62
588.127	10637.21
588.487	10825.9
588.846	11084.43
589.206	11181.15
589.565	11360.13
589.925	11573.9
590.284	11775.93
590.643	11955.14
591.003	12225.41
591.362	12450.94
591.721	12685.74
592.08	12808.9
592.44	13079.85
592.799	13310.13
593.158	13450.24
593.517	13848.87
593.876	14076.21
594.235	14250.9
594.593	14506.26
594.952	14803.2
595.311	15037.99
595.67	15279.34
596.029	15690.41
596.387	15906.9
596.746	16174.69
597.104	16461.69
597.463	16704.62
597.822	17029.13
598.18	17246.98
598.538	17516.57
598.897	17900.29
599.255	18077.91
599.613	18524.46
599.972	18709.99
600.33	19145.91
600.688	19284.21
601.046	19591.77
601.404	19911.54
601.762	20208.71
602.12	20611.63
602.478	20951.51
602.836	21099.3
603.194	21220.88
603.552	21749.23
603.91	21959.62
604.268	22287.52
604.625	22440.51
604.983	22873.27
605.341	23014.96
605.698	23459.47
606.056	23750.53
606.413	24006.35
606.771	24179.9
607.128	24552.32
607.485	24680.9
607.843	24952.31
608.2	25387.78
608.557	25675.68
608.914	25792.29
609.272	26117.25
609.629	26407.19
609.986	26727.63
610.343	26782.54
610.7	27138.92
611.057	27309.54
611.414	27548.17
611.771	27674.5
612.127	28062.06
612.484	28194.26
612.841	28463.63
613.198	28700.46
613.554	28718.09
613.911	29117.4
614.267	29244.17
614.624	29481.23
614.98	29567.56
615.337	29785.18
615.693	29940.43
616.05	30072.63
616.406	30360.3
616.762	30348.78
617.118	30462.45
617.475	30576.12
617.831	31019.04
618.187	31036.9
618.543	31295.87
618.899	31569.54
619.255	31611.8
619.611	31666.94
619.967	31836.42
620.323	32196.87
620.678	32074.16
621.034	32083.87
621.39	32291.1
621.746	32280.03
622.101	32810.86
622.457	32492.45
622.812	32761.6
623.168	32862.84
623.523	32882.27
623.879	33211.08
624.234	33023.51
624.589	33241.81
624.945	33354.8
625.3	33498.07
625.655	33505.53
626.01	33720.22
626.365	33686.54
626.72	33721.57
627.075	33760.44
627.43	33829.14
627.785	33694.23
628.14	34131.73
628.495	34159.98
628.85	34074.33
629.205	34026.42
629.559	34333.76
629.914	34186.87
630.269	34304.83
630.623	34317.94
630.978	34305.96
631.332	34356.36
631.687	34525.84
632.041	34360.42
632.396	34492.85
632.75	34565.39
633.104	34512.06
633.459	34438.61
633.813	34509.12
634.167	34526.97
634.521	34512.51
634.875	34705.05
635.229	34584.6
635.583	34472.06
635.937	34554.32
636.291	34566.29
636.645	34637.25
636.999	34538.27
637.352	34710.7
637.706	34484.49
638.06	34600.19
638.413	34610.14
638.767	34585.05
639.121	34643.13
639.474	34614.65
639.828	34621.66
640.181	34634.54
640.534	34773.97
640.888	34555.67
641.241	34480.42
641.594	34551.15
641.947	34725.39
642.301	34525.39
642.654	34759.51
643.007	34787.98
643.36	34618.04
643.713	34611.72
644.066	34694.88
644.419	34527.2
644.771	34199.07
645.124	33936.48
645.477	33992.3
645.83	33673.66
646.182	33771.06
646.535	33659.88
646.888	33860.32
647.24	33627.56
647.593	33868.01
647.945	33802.47
648.298	33765.64
648.65	33719.31
649.002	33556.6
649.355	33689.03
649.707	33750.72
650.059	33871.85
650.411	34179.86
650.763	34317.49
651.115	34667.99
651.467	34533.3
651.819	34482.68
652.171	34512.06
652.523	34423.47
652.875	34484.04
653.227	34322.46
653.578	34608.55
653.93	34587.99
654.282	34350.48
654.633	34323.59
654.985	34325.62
655.337	34536.24
655.688	34478.16
656.039	34538.05
656.391	34212.86
656.742	34410.37
657.094	34281.33
657.445	34374.44
657.796	34345.06
658.147	34385.51
658.498	34388.22
658.849	34321.56
659.2	34348
659.551	34289.47
659.902	34258.51
660.253	34312.29
660.604	34278.39
660.955	34113.65
661.306	34263.7
661.656	34229.13
662.007	34402.23
662.358	34376.69
662.708	34378.5
663.059	34325.85
663.409	34227.32
663.76	34370.14
664.11	34304.38
664.461	34485.39
664.811	34368.33
665.161	34397.49
665.511	34226.19
665.862	34359.52
666.212	34420.54
666.562	34397.26
666.912	34336.24
667.262	34336.02
667.612	34465.73
667.962	34416.69
668.312	34257.83
668.662	34431.38
669.011	34364.94
669.361	34465.05
669.711	34326.53
670.06	34170.82
670.41	34145.74
670.76	34098.51
671.109	34316.58
671.459	34279.07
671.808	34133.54
672.157	34321.33
672.507	34045.18
672.856	34132.41
673.205	34146.64
673.554	34273.19
673.904	34042.01
674.253	34289.47
674.602	34113.2
674.951	33721.12
675.3	33456.04
675.649	34018.96
675.998	34129.7
676.346	34089.92
676.695	34168.34
677.044	33812.64
677.393	33965.18
677.741	33976.71
678.09	33917.95
678.438	33918.85
678.787	33919.31
679.135	33967.89
679.484	33789.14
679.832	33967.21
680.181	33625.98
680.529	33713.66
680.877	33686.09
681.225	33570.39
681.573	33871.62
681.922	33641.12
682.27	33522.71
682.618	33557.51
682.966	33428.7
683.314	33628.24
683.661	33350.51
684.009	33196.61
684.357	33118.42
684.705	33187.12
685.053	33042.72
685.4	33061.25
685.748	33082.04
686.095	33006.34
686.443	32946.9
686.79	32829.17
687.138	32789.17
687.485	32804.53
687.832	32587.36
688.18	32723.63
688.527	32565.9
688.874	32512.11
689.221	32509.63
689.568	32302.17
689.915	32220.82
690.262	32300.14
690.609	32273.93
690.956	32154.83
691.303	32047.49
691.65	31934.27
691.997	31990.09
692.344	31788.29
692.69	31730.89
693.037	31686.14
693.383	31499.93
693.73	31631.91
694.077	31439.15
694.423	31454.74
694.769	31306.04
695.116	31184.69
695.462	31301.3
695.808	31063.56
696.155	31174.29
696.501	30987.41
696.847	30910.12
697.193	30741.54
697.539	30791.25
697.885	30653.4
698.231	30605.49
698.577	30611.14
698.923	30472.84
699.269	30341.55
699.614	30193.3
699.96	30271.04
700.306	30213.41
700.651	30044.15
700.997	29981.1
701.342	29915.57
701.688	29762.13
702.033	29811.62
702.379	29812.07
702.724	29659.3
703.069	29735.01
703.415	29407.33
703.76	29511.06
704.105	29544.28
704.45	29343.16
704.795	29325.53
705.14	29140.45
705.485	29214.57
705.83	28973.22
706.175	29118.08
706.52	28940.45
706.865	28881.02
707.209	28780.46
707.554	28855.94
707.899	28846.9
708.243	28619.78
708.588	28627.24
708.932	28413.24
709.277	28457.53
709.621	28458.88
709.966	28160.59
710.31	28273.8
710.654	28020.7
710.998	28090.76
711.342	28198.1
711.687	28018.22
712.031	28085.56
712.375	27858.45
712.719	27927.6
713.063	27880.59
713.407	27933.02
713.75	27671.79
714.094	27711.56
714.438	27547.72
714.782	27751.56
715.125	27488.06
715.469	27486.93
715.812	27298.01
716.156	27185.25
716.499	27297.56
716.843	27214.62
717.186	27199.93
717.53	27226.83
717.873	27284
718.216	27113.16
718.559	27120.84
718.902	26970.34
719.246	26949.09
719.589	26916.55
719.932	26715.43
720.275	26724.47
720.617	26787.29
720.96	26690.34
721.303	26616.67
721.646	26596.79
721.989	26583
722.331	26709.1
722.674	26607.86
723.016	26540.52
723.359	26583
723.701	26374.42
724.044	26275.89
724.386	26268.89
724.729	26326.29
725.071	26238.15
725.413	26121.54
725.755	26112.28
726.097	26131.94
726.439	26020.98
726.782	25953.64
727.124	26025.95
727.465	26056.24
727.807	25903.47
728.149	25857.82
728.491	25818.28
728.833	25946.18
729.175	25738.28
729.516	25630.26
729.858	25651.05
730.199	25600.43
730.541	25597.94
730.882	25685.17
731.224	25701.67
731.565	25436.82
731.906	25543.25
732.248	25520.88
732.589	25495.12
732.93	25289.25
733.271	25303.49
733.612	25343.94
733.953	25365.41
734.294	25346.2
734.635	25259.19
734.976	25318.63
735.317	25108.01
735.658	25145.07
735.999	25166.09
736.339	25055.81
736.68	25074.34
737.021	25069.14
737.361	24953.89
737.702	25126.99
738.042	24925.19
738.383	24917.51
738.723	25030.27
739.063	24800.9
739.404	24840
739.744	24790.73
740.084	24673.22
740.424	24743.73
740.764	24673.22
741.104	24616.05
741.444	24569.04
741.784	24455.6
742.124	24621.47
742.464	24541.93
742.804	24507.35
743.143	24536.95
743.483	24478.65
743.823	24390.06
744.162	24402.27
744.502	24407.24
744.841	24320.46
745.181	24360.24
745.52	24215.15
745.86	24260.8
746.199	24157.08
746.538	24199.11
746.877	24126.12
747.216	24199.56
747.556	24164.08
747.895	24049.96
748.234	24011.09
748.573	23992.34
748.911	23949.85
749.25	23961.6
749.589	23790.98
749.928	23822.62
750.267	23882.96
750.605	23868.72
750.944	23748.05
751.283	23746.01
751.621	23765.22
751.96	23599.35
752.298	23680.71
752.636	23660.37
752.975	23472.35
753.313	23473.25
753.651	23556.19
753.989	23331.11
754.327	23292.92
754.666	23221.51
755.004	23335.18
755.342	23278.23
755.679	23251.34
756.017	23075.98
756.355	23072.13
756.693	22984.9
757.031	23051.34
757.368	23070.33
757.706	22908.3
758.044	22881.18
758.381	22913.27
758.719	22690.9
759.056	22696.78
759.394	22697.68
759.731	22616.55
760.068	22617.23
760.405	22523.67
760.743	22385.37
761.08	22472.38
761.417	22313.74
761.754	22267.41
762.091	22263.12
762.428	22190.12
762.765	22060.18
763.102	22074.87
763.438	21932.28
763.775	21913.97
764.112	21765.95
764.449	21888.89
764.785	21827.19
765.122	21769.57
765.458	21682.34
765.795	21599.18
766.131	21577.26
766.467	21378.84
766.804	21346.3
767.14	21204.16
767.476	21278.51
767.812	21184.05
768.148	21142.69
768.485	21063.6
768.821	20948.35
769.157	20868.12
769.492	20856.37
769.828	20802.81
770.164	20660.9
770.5	20639.2
770.836	20659.09
771.171	20573.67
771.507	20488.7
771.842	20378.64
772.178	20239.44
772.513	20220.01
772.849	20190.63
773.184	20133.45
773.519	20263.17
773.855	20040.35
774.19	19994.25
774.525	19800.36
774.86	19837.64
775.195	19806.91
775.53	19726.91
775.865	19633.13
776.2	19483.53
776.535	19428.84
776.87	19401.72
777.205	19269.52
777.539	19224.55
777.874	19257.09
778.209	19160.15
778.543	19196.76
778.878	18980.72
779.212	18891.9
779.547	18834.5
779.881	18873.83
780.215	18745.24
780.55	18747.73
780.884	18735.07
781.218	18619.37
781.552	18547.28
781.886	18354.74
782.22	18292.15
782.554	18248.76
782.888	18091.47
783.222	18020.97
783.556	18051.7
783.889	18053.96
784.223	17830.01
784.557	17820.29
784.89	17896.9
785.224	17761.31
785.557	17664.59
785.891	17622.33
786.224	17629.11
786.558	17520.19
786.891	17378.72
787.224	17342.11
787.557	17358.39
787.891	17330.14
788.224	17245.62
788.557	17242.68
788.89	17112.06
789.223	17097.6
789.556	16931.5
789.888	16940.32
790.221	16925.4
790.554	16769.25
790.887	16809.47
791.219	16683.83
791.552	16685.41
791.884	16561.34
792.217	16522.7
792.549	16535.13
792.882	16310.73
793.214	16312.99
793.546	16326.1
793.879	16210.84
794.211	16065.99
794.543	16178.53
794.875	16020.34
795.207	16124.07
795.539	15979.44
795.871	15995.03
796.203	15855.15
796.535	15797.75
796.867	15792.32
797.198	15764.53
797.53	15715.72
797.862	15563.86
798.193	15663.51
798.525	15516.17
798.856	15561.82
799.188	15374.48
799.519	15475.5
799.85	15295.16
800.182	15376.97
800.513	15299
800.844	15098.11
801.175	15221.27
801.506	15232.79
801.837	15133.81
802.168	15067.82
802.499	15039.8
802.83	14894.27
803.161	14867.38
803.491	14850.2
803.822	14856.98
804.153	14872.58
804.483	14702.64
804.814	14564.33
805.145	14646.59
805.475	14601.4
805.805	14553.04
806.136	14557.1
806.466	14515.07
806.796	14531.57
807.126	14400.05
807.457	14363.21
807.787	14324.79
808.117	14287.51
808.447	14244.79
808.777	14275.98
809.107	14218.81
809.436	14227.62
809.766	14153.72
810.096	14081.86
810.426	14041.41
810.755	14021.98
811.085	13995.31
811.414	13971.36
811.744	13909.44
812.073	13843.45
812.403	13826.05
812.732	13794.86
813.061	13830.57
813.39	13666.51
813.719	13648.43
814.049	13711.48
814.378	13707.41
814.707	13554.87
815.036	13621.08
815.365	13495.66
815.693	13356
816.022	13447.75
816.351	13378.6
816.68	13299.51
817.008	13315.55
817.337	13213.64
817.665	13182.9
817.994	13276.23
818.322	13220.19
818.651	13149.46
818.979	13130.93
819.307	13176.57
819.636	13059.74
819.964	13008.67
820.292	13077.82
820.62	12984.94
820.948	13001.21
821.276	13033.98
821.604	13026.3
821.932	13004.83
822.259	13014.32
822.587	12990.14
822.915	12920.31
823.243	12963.92
823.57	12904.04
823.898	12935.22
824.225	12925.96
824.553	12962.34
824.88	12916.69
825.207	12961.89
825.535	12956.69
825.862	12942
826.189	12907.43
826.516	13004.15
826.843	12964.38
827.17	13007.77
827.497	12921.89
827.824	13021.32
828.151	12967.54
828.478	12865.62
828.805	12969.8
829.131	12914.89
829.458	12898.39
829.785	12843.93
830.111	12917.6
830.438	12966.18
830.764	12888.45
831.09	12901.33
831.417	12843.48
831.743	12871.5
832.069	12877.83
832.395	12797.6
832.722	12810.26
833.048	12865.62
833.374	12866.75
833.7	12796.02
834.026	12782.23
834.351	12810.48
834.677	12932.51
835.003	12835.34
835.329	12755.34
835.654	12842.35
835.98	12746.76
836.306	12723.03
836.631	12667.44
836.956	12694.1
837.282	12700.65
837.607	12644.61
837.932	12612.75
838.258	12579.08
838.583	12629.47
838.908	12540.43
839.233	12607.1
839.558	12555.8
839.883	12457.27
840.208	12492.75
840.533	12523.94
840.858	12486.65
841.182	12433.77
841.507	12385.86
841.832	12393.77
842.156	12383.6
842.481	12380.66
842.805	12260.67
843.13	12288.46
843.454	12205.07
843.778	12133.44
844.103	12129.14
844.427	12120.11
844.751	12148.58
845.075	12110.84
845.399	12099.99
845.723	11983.61
846.047	11991.97
846.371	11902.03
846.695	11880.79
847.019	11776.84
847.343	11777.74
847.666	11741.81
847.99	11669.27
848.313	11652.32
848.637	11570.51
848.96	11505.88
849.284	11528.71
849.607	11396.51
849.931	11387.92
850.254	11366.68
850.577	11344.98
850.9	11235.16
851.223	11208.49
851.546	11129.62
851.869	11143.41
852.192	11175.95
852.515	11005.56
852.838	11033.35
853.161	10971.89
853.483	10994.03
853.806	10910.65
854.129	10864.32
854.451	10792.46
854.774	10808.05
855.096	10808.28
855.419	10723.98
855.741	10661.84
856.063	10657.54
856.385	10656.64
856.708	10620.71
857.03	10576.87
857.352	10571.22
857.674	10497.77
857.996	10475.18
858.318	10446.25
858.64	10411.22
858.961	10326.48
859.283	10437.21
859.605	10281.96
859.926	10333.03
860.248	10377.33
860.57	10255.75
860.891	10213.71
861.212	10162.42
861.534	10165.58
861.855	10116.32
862.176	10158.8
862.498	10113.38
862.819	10111.57
863.14	10107.5
863.461	10065.24
863.782	10010.56
864.103	10013.49
864.424	9980.27
864.745	9984.79
865.065	9978.47
865.386	9994.96
865.707	9953.38
866.027	9939.15
866.348	9928.75
866.668	9824.8
866.989	9844.01
867.309	9807.85
867.63	9890.79
867.95	9838.36
868.27	9827.74
868.59	9867.96
868.91	9769.43
869.23	9814.4
869.55	9685.37
869.87	9766.27
870.19	9627.97
870.51	9683.11
870.83	9725.14
871.15	9645.37
871.469	9669.77
871.789	9726.27
872.109	9580.06
872.428	9588.65
872.748	9566.05
873.067	9578.02
873.386	9563.34
873.706	9562.88
874.025	9514.52
874.344	9523.11
874.663	9516.11
874.982	9513.62
875.301	9397.69
875.62	9449.89
875.939	9424.13
876.258	9384.36
876.577	9386.39
876.896	9389.1
877.214	9369.89
877.533	9366.05
877.852	9385.04
878.17	9359.05
878.489	9354.08
878.807	9267.3
879.125	9265.49
879.444	9248.77
879.762	9229.79
880.08	9247.41
880.398	9196.11
880.716	9265.72
881.034	9217.13
881.352	9150.92
881.67	9149.79
881.988	9192.95
882.306	9163.35
882.624	9097.81
882.941	9077.25
883.259	9053.07
883.577	9034.54
883.894	8969.91
884.212	8994.09
884.529	8999.06
884.846	8919.06
885.164	8882.45
885.481	8901.66
885.798	8912.05
886.115	8840.87
886.432	8829.12
886.75	8761.78
887.067	8860.76
887.383	8775.11
887.7	8794.09
888.017	8705.73
888.334	8719.29
888.651	8698.73
888.967	8723.58
889.284	8631.38
889.6	8616.24
889.917	8551.61
890.233	8552.52
890.55	8489.69
890.866	8540.54
891.182	8527.88
891.498	8435.68
891.815	8449.24
892.131	8354.1
892.447	8424.38
892.763	8416.25
893.079	8397.04
893.395	8391.84
893.71	8379.64
894.026	8349.13
894.342	8304.61
894.657	8241.79
894.973	8243.82
895.289	8121.57
895.604	8215.8
895.92	8127.89
896.235	8100.32
896.55	8090.83
896.865	8057.84
897.181	8006.77
897.496	8052.64
897.811	7953.89
898.126	7948.92
898.441	7948.92
898.756	7942.81
899.071	7864.4
899.386	7948.24
899.7	7791.41
900.015	7740.33
900.33	7711.41
900.644	7672.09
900.959	7719.09
901.273	7654.46
901.588	7692.88
901.902	7565.87
902.216	7621.47
902.531	7573.78
902.845	7524.97
903.159	7525.2
903.473	7541.69
903.787	7450.17
904.101	7393.68
904.415	7391.19
904.729	7371.08
905.042	7343.51
905.356	7317.52
905.67	7337.86
905.984	7240.46
906.297	7213.12
906.611	7188.94
906.924	7144.42
907.237	7108.49
907.551	7161.82
907.864	7075.94
908.177	7073.23
908.491	7056.06
908.804	7054.7
909.117	6973.35
909.43	6944.65
909.743	6916.63
910.056	6906.91
910.368	6847.7
910.681	6804.54
910.994	6820.13
911.307	6789.4
911.619	6721.6
911.932	6711.66
912.244	6732
912.557	6664.43
912.869	6626.69
913.181	6631.66
913.494	6590.76
913.806	6556.86
914.118	6544.21
914.43	6425.57
914.742	6490.87
915.054	6418.33
915.366	6458.11
915.678	6403.42
915.99	6383.53
916.302	6349.86
916.613	6390.54
916.925	6321.16
917.236	6302.86
917.548	6248.85
917.859	6254.27
918.171	6175.18
918.482	6214.27
918.794	6161.17
919.105	6109.64
919.416	6038.01
919.727	6082.52
920.038	6069.87
920.349	6022.86
920.66	6006.37
920.971	6005.92
921.282	6033.49
921.593	5965.46
921.903	5849.54
922.214	5878.69
922.525	5840.95
922.835	5857.44
923.146	5800.27
923.456	5780.84
923.767	5729.09
924.077	5745.81
924.387	5761.85
924.697	5719.14
925.008	5701.74
925.318	5658.35
925.628	5625.13
925.938	5605.7
926.248	5561.41
926.558	5574.06
926.867	5521.63
927.177	5476.66
927.487	5496.1
927.796	5419.26
928.106	5420.62
928.416	5430.56
928.725	5391.92
929.034	5349.66
929.344	5400.73
929.653	5329.78
929.962	5312.6
930.271	5283.9
930.581	5273.51
930.89	5274.64
931.199	5235.09
931.508	5159.61
931.817	5177.46
932.125	5150.57
932.434	5103.11
932.743	5116.9
933.051	5073.51
933.36	5049.78
933.669	4991.03
933.977	5004.36
934.286	5000.29
934.594	4915.77
934.902	4937.7
935.21	4958.49
935.519	4914.87
935.827	4909.67
936.135	4877.13
936.443	4830.81
936.751	4759.62
937.059	4799.62
937.367	4754.42
937.674	4771.82
937.982	4750.13
938.29	4708.55
938.597	4742.45
938.905	4693.18
939.213	4661.09
939.52	4617.25
939.827	4646.86
940.135	4606.86
940.442	4541.1
940.749	4542.68
941.056	4587.2
941.363	4534.77
941.67	4504.03
941.977	4514.43
942.284	4469.46
942.591	4401.21
942.898	4388.56
943.205	4412.96
943.511	4412.51
943.818	4349.46
944.125	4389.91
944.431	4348.78
944.738	4341.78
945.044	4299.75
945.35	4306.3
945.657	4200.99
945.963	4224.04
946.269	4228.11
946.575	4210.71
946.881	4189.69
947.187	4180.43
947.493	4159.18
947.799	4113.99
948.105	4117.83
948.41	4085.97
948.716	4102.91
949.022	4101.78
949.327	4054.78
949.633	4087.77
949.938	4040.09
950.244	4016.14
950.549	4000.54
950.854	3956.03
951.16	3925.29
951.465	3913.54
951.77	3913.77
952.075	3860.21
952.38	3859.53
952.685	3878.06
952.99	3859.76
953.294	3838.74
953.599	3799.65
953.904	3801.23
954.209	3771.17
954.513	3742.47
954.818	3733.43
955.122	3739.53
955.426	3756.03
955.731	3686.88
956.035	3667.22
956.339	3689.14
956.643	3696.82
956.948	3648.01
957.252	3618.41
957.556	3585.41
957.86	3560.56
958.163	3621.35
958.467	3583.83
958.771	3556.49
959.075	3545.42
959.378	3562.82
959.682	3509.03
959.985	3468.81
960.289	3437.4
960.592	3445.53
960.896	3446.43
961.199	3446.43
961.502	3377.06
961.805	3420.45
962.108	3342.26
962.411	3318.3
962.714	3346.78
963.017	3356.72
963.32	3360.79
963.623	3278.76
963.926	3292.31
964.228	3304.52
964.531	3257.51
964.833	3283.28
965.136	3261.58
965.438	3191.3
965.741	3233.33
966.043	3191.07
966.345	3163.28
966.648	3164.86
966.95	3157.18
967.252	3149.49
967.554	3162.15
967.856	3168.7
968.158	3140.91
968.46	3127.35
968.761	3060.46
969.063	3046.22
969.365	3058.87
969.666	3064.3
969.968	3013.23
970.269	3009.38
970.571	3045.09
970.872	3006.67
971.174	2943.62
971.475	2927.35
971.776	2955.83
972.077	2920.35
972.378	2923.51
972.679	2930.52
972.98	2899.33
973.281	2919.44
973.582	2870.86
973.883	2863.4
974.183	2842.83
974.484	2829.05
974.785	2806.23
975.085	2805.77
975.386	2831.31
975.686	2810.52
975.986	2810.97
976.287	2784.76
976.587	2766.45
976.887	2737.75
977.187	2749.05
977.487	2715.15
977.787	2725.1
978.087	2672.22
978.387	2675.83
978.687	2695.72
978.987	2636.06
979.286	2651.2
979.586	2614.82
979.885	2602.84
980.185	2615.5
980.484	2552
980.784	2606.68
981.083	2592.67
981.382	2574.14
981.682	2574.37
981.981	2572.56
982.28	2552.45
982.579	2504.99
982.878	2495.73
983.177	2507.25
983.475	2449.62
983.774	2460.47
984.073	2480.13
984.372	2463.64
984.67	2432
984.969	2417.54
985.267	2417.54
985.566	2392.23
985.864	2400.13
986.162	2400.36
986.461	2356.29
986.759	2376.41
987.057	2331.21
987.355	2338.22
987.653	2377.08
987.951	2338.89
988.249	2316.07
988.547	2329.63
988.844	2297.76
989.142	2325.11
989.44	2299.57
989.737	2261.16
990.035	2274.94
990.332	2245.79
990.63	2250.31
990.927	2233.13
991.224	2237.2
991.521	2202.17
991.819	2177.54
992.116	2210.54
992.413	2186.35
992.71	2173.02
993.006	2137.99
993.303	2162.85
993.6	2125.57
993.897	2151.33
994.193	2118.56
994.49	2100.26
994.787	2115.17
995.083	2087.15
995.379	2115.62
995.676	2071.33
995.972	2084.21
996.268	2070.88
996.565	2070.88
996.861	2032.01
997.157	1997.21
997.453	2032.23
997.749	2008.05
998.044	1994.27
998.34	1987.72
998.636	1970.09
998.932	1973.25
999.227	1956.98
999.523	1945.01
999.818	1915.85
1000.114	1926.25
1000.409	1916.98
1000.704	1895.97
1001	1878.34
1001.295	1889.19
1001.59	1879.02
1001.885	1893.26
1002.18	1880.6
1002.475	1843.77
1002.77	1807.38
1003.065	1828.62
1003.359	1802.64
1003.654	1829.08
1003.949	1786.37
1004.243	1789.76
1004.538	1766.03
1004.832	1771.45
1005.127	1778.46
1005.421	1740.72
1005.715	1754.5
1006.009	1744.33
1006.304	1725.58
1006.598	1701.62
1006.892	1703.88
1007.186	1717.44
1007.48	1688.06
1007.773	1719.02
1008.067	1650.78
1008.361	1662.3
1008.655	1646.93
1008.948	1656.88
1009.242	1624.34
1009.535	1620.72
1009.829	1640.15
1010.122	1606.71
1010.415	1589.76
1010.708	1583.88
1011.001	1588.86
1011.295	1566.03
1011.588	1577.78
1011.881	1569.2
1012.173	1576.2
1012.466	1519.25
1012.759	1529.65
1013.052	1513.15
1013.344	1506.6
1013.637	1489.65
1013.93	1473.38
1014.222	1497.11
1014.514	1473.15
1014.807	1477
1015.099	1448.75
1015.391	1433.83
1015.683	1418.69
1015.976	1452.59
1016.268	1406.94
1016.56	1394.74
1016.851	1384.12
1017.143	1403.1
1017.435	1388.18
1017.727	1379.6
1018.018	1361.52
1018.31	1334.85
1018.602	1368.75
1018.893	1324.46
1019.185	1336.66
1019.476	1334.85
1019.767	1329.2
1020.058	1290.56
1020.35	1296.66
1020.641	1287.17
1020.932	1298.69
1021.223	1262.31
1021.514	1266.38
1021.804	1263.67
1022.095	1285.36
1022.386	1235.42
1022.677	1220.96
1022.967	1191.8
1023.258	1230.9
1023.548	1194.74
1023.839	1195.65
1024.129	1186.83
1024.419	1171.47
1024.709	1199.04
1025	1168.3
1025.29	1196.32
1025.58	1178.25
1025.87	1142.99
1026.16	1134.63
1026.449	1105.48
1026.739	1126.5
1027.029	1103.22
1027.319	1120.39
1027.608	1098.7
1027.898	1127.17
1028.187	1112.94
1028.477	1114.52
1028.766	1113.84
1029.055	1078.14
1029.344	1086.04
1029.634	1073.84
1029.923	1033.16
1030.212	1051.92
1030.501	1054.63
1030.79	1039.72
1031.078	1031.13
1031.367	1019.61
1031.656	1020.96
1031.945	1020.06
1032.233	1013.73
1032.522	1006.72
1032.81	1019.15
1033.099	1012.6
1033.387	996.78
1033.675	979.83
1033.963	980.96
1034.251	970.79
1034.54	974.18
1034.828	951.81
1035.116	958.36
1035.403	948.2
1035.691	933.73
1035.979	954.3
1036.267	946.61
1036.554	931.25
1036.842	914.98
1037.129	924.92
1037.417	910.68
1037.704	889.67
1037.992	909.1
1038.279	883.34
1038.566	866.84
1038.853	866.84
1039.14	866.84
