Data from red_cardboard_box_FLMS001491_00019.txt Node
Date: Wed Feb 08 11:31:37 GMT 2017
User: dcchb
Spectrometer: FLMS00149
Trigger mode: 0
Integration Time (sec): 2.000000E-2
Scans to average: 10
Electric dark correction enabled: true
Nonlinearity correction enabled: false
Boxcar width: 0
XAxis mode: Wavelengths
Number of Pixels in Spectrum: 2048
>>>>>Begin Spectral Data<<<<<
341.393	-14.51
341.776	-14.51
342.16	-14.51
342.543	-73.49
342.927	-78.91
343.31	-68.52
343.693	-57.67
344.077	-75.75
344.46	-54.73
344.843	-61.51
345.226	-42.08
345.61	-45.24
345.993	-17.44
346.376	-12.02
346.759	16.23
347.142	27.08
347.525	46.06
347.908	58.71
348.291	91.25
348.674	82.89
349.057	112.72
349.44	139.39
349.823	136
350.206	174.19
350.588	193.4
350.971	191.37
351.354	218.71
351.737	252.38
352.119	250.35
352.502	265.71
352.884	274.07
353.267	266.84
353.65	296.22
354.032	297.35
354.414	316.11
354.797	306.16
355.179	320.85
355.562	334.19
355.944	312.04
356.326	337.12
356.709	330.34
357.091	340.06
357.473	357.24
357.855	338.25
358.238	365.82
358.62	326.73
359.002	326.05
359.384	345.03
359.766	324.24
360.148	330.12
360.53	344.13
360.912	324.02
361.294	332.6
361.676	345.49
362.057	341.87
362.439	325.15
362.821	333.96
363.203	319.5
363.584	334.41
363.966	322.21
364.348	313.17
364.729	326.28
365.111	341.42
365.493	320.85
365.874	311.59
366.256	310.68
366.637	302.32
367.019	315.2
367.4	306.39
367.781	298.71
368.163	308.42
368.544	329.44
368.925	308.2
369.306	339.61
369.688	326.5
370.069	301.42
370.45	307.97
370.831	312.94
371.212	333.28
371.593	327.86
371.974	313.85
372.355	319.5
372.736	303.68
373.117	324.92
373.498	321.98
373.879	313.62
374.26	335.09
374.641	340.74
375.021	321.31
375.402	328.54
375.783	309.33
376.163	315.88
376.544	315.88
376.925	319.5
377.305	319.05
377.686	317.69
378.066	303.9
378.447	305.94
378.827	318.14
379.208	328.99
379.588	312.94
379.968	324.92
380.349	338.93
380.729	313.85
381.109	308.88
381.489	327.86
381.87	324.69
382.25	311.81
382.63	321.53
383.01	346.39
383.39	340.74
383.77	349.55
384.15	347.29
384.53	343
384.91	308.2
385.29	344.13
385.67	350.23
386.049	348.42
386.429	321.53
386.809	347.97
387.189	340.29
387.568	362.21
387.948	337.8
388.328	343.45
388.707	350.68
389.087	324.47
389.466	343.23
389.846	357.69
390.225	340.74
390.605	342.32
390.984	352.04
391.363	360.63
391.743	347.97
392.122	352.49
392.501	338.03
392.881	354.3
393.26	355.43
393.639	351.13
394.018	354.3
394.397	364.69
394.776	369.21
395.155	352.04
395.534	370.12
395.913	350.23
396.292	379.38
396.671	345.71
397.05	362.66
397.429	356.33
397.808	364.92
398.186	357.69
398.565	362.89
398.944	349.33
399.323	364.47
399.701	370.57
400.08	371.7
400.458	383.68
400.837	375.09
401.215	359.27
401.594	391.59
401.972	360.17
402.351	366.5
402.729	385.26
403.107	387.29
403.486	366.5
403.864	384.13
404.242	363.34
404.62	357.69
404.999	390.91
405.377	371.7
405.755	370.57
406.133	379.83
406.511	392.72
406.889	376.67
407.267	382.55
407.645	399.5
408.023	398.14
408.401	392.49
408.779	391.13
409.156	378.7
409.534	409.21
409.912	400.17
410.29	412.15
410.667	417.57
411.045	400.85
411.422	414.41
411.8	400.85
412.178	401.53
412.555	402.21
412.933	415.99
413.31	418.03
413.687	424.13
414.065	415.09
414.442	424.58
414.819	406.05
415.197	404.24
415.574	438.82
415.951	415.77
416.328	428.65
416.705	426.61
417.082	435.88
417.46	423.45
417.837	424.81
418.214	440.62
418.591	429.78
418.967	438.59
419.344	435.43
419.721	434.75
420.098	436.1
420.475	424.13
420.852	439.27
421.228	436.78
421.605	458.02
421.982	434.07
422.358	456.44
422.735	461.64
423.111	460.96
423.488	460.51
423.864	454.41
424.241	469.32
424.617	439.27
424.994	460.06
425.37	477.01
425.746	473.84
426.123	495.31
426.499	446.73
426.875	461.87
427.251	472.94
427.627	460.74
428.003	504.35
428.379	486.95
428.756	472.71
429.132	471.36
429.507	479.27
429.883	492.6
430.259	506.38
430.635	467.97
431.011	484.01
431.387	506.84
431.763	477.69
432.138	506.16
432.514	490.57
432.89	527.4
433.265	530.34
433.641	507.97
434.016	519.94
434.392	524.24
434.767	514.75
435.143	530.34
435.518	528.08
435.894	529.21
436.269	545.48
436.644	531.92
437.02	538.93
437.395	536.44
437.77	551.36
438.145	581.19
438.52	535.76
438.895	546.38
439.271	527.4
439.646	567.63
440.021	570.56
440.395	555.88
440.77	543.67
441.145	550.45
441.52	590
441.895	566.04
442.27	565.59
442.645	580.51
443.019	563.11
443.394	562.2
443.769	573.73
444.143	577.12
444.518	579.6
444.892	581.86
445.267	571.02
445.641	574.86
446.016	590.68
446.39	589.09
446.764	592.26
447.139	589.32
447.513	585.7
447.887	611.69
448.262	591.81
448.636	583.9
449.01	615.99
449.384	609.89
449.758	596.78
450.132	630.68
450.506	622.54
450.88	619.6
451.254	622.54
451.628	622.09
452.002	624.12
452.376	640.39
452.75	633.39
453.123	623.22
453.497	627.51
453.871	631.58
454.244	655.99
454.618	631.35
454.992	663.67
455.365	644.91
455.739	662.77
456.112	659.38
456.486	677.68
456.859	694.63
457.232	680.39
457.606	670.67
457.979	676.78
458.352	686.72
458.725	703.67
459.099	717.9
459.472	696.44
459.845	727.17
460.218	727.62
460.591	723.33
460.964	716.77
461.337	726.27
461.71	738.24
462.083	729.88
462.456	729.66
462.829	716.55
463.201	746.15
463.574	761.29
463.947	764.46
464.32	754.51
464.692	782.54
465.065	773.95
465.438	789.32
465.81	802.42
466.183	817.79
466.555	786.38
466.928	789.09
467.3	800.84
467.672	806.04
468.045	811.24
468.417	839.48
468.789	813.27
469.161	847.39
469.534	827.96
469.906	843.33
470.278	865.47
470.65	868.86
471.022	858.69
471.394	874.96
471.766	893.95
472.138	893.04
472.51	911.35
472.882	902.53
473.253	889.88
473.625	926.49
473.997	939.14
474.369	962.64
474.74	968.29
475.112	980.95
475.484	956.99
475.855	985.02
476.227	995.19
476.598	1006.71
476.97	1021.85
477.341	1039.03
477.713	1055.07
478.084	1050.1
478.455	1050.78
478.827	1067.73
479.198	1091
479.569	1113.15
479.94	1102.53
480.311	1138.01
480.682	1137.78
481.053	1163.77
481.424	1185.46
481.795	1202.86
482.166	1203.09
482.537	1178.23
482.908	1220.49
483.279	1264.33
483.65	1254.84
484.021	1276.76
484.391	1292.35
484.762	1296.65
485.133	1298.68
485.503	1289.87
485.874	1359.92
486.244	1345.68
486.615	1375.29
486.985	1371.22
487.356	1392.24
487.726	1422.29
488.097	1420.94
488.467	1413.71
488.837	1445.12
489.207	1486.7
489.578	1491.44
489.948	1496.87
490.318	1523.08
490.688	1537.54
491.058	1553.36
491.428	1539.13
491.798	1562.18
492.168	1610.54
492.538	1583.19
492.908	1645.34
493.278	1576.19
493.648	1628.16
494.017	1657.32
494.387	1665.9
494.757	1673.59
495.126	1685.79
495.496	1726.92
495.866	1729.18
496.235	1755.84
496.605	1752
496.974	1768.27
497.344	1742.96
497.713	1809.63
498.082	1771.89
498.452	1802.17
498.821	1795.62
499.19	1816.86
499.559	1853.69
499.928	1860.93
500.298	1872.68
500.667	1886.69
501.036	1876.52
501.405	1902.73
501.774	1905.22
502.143	1897.99
502.512	1910.64
502.88	1936.4
503.249	1932.11
503.618	1967.82
503.987	1966.01
504.356	1982.73
504.724	1992.9
505.093	1996.06
505.462	2020.47
505.83	2011.88
506.199	2076.29
506.567	2056.85
506.936	2104.31
507.304	2071.54
507.672	2108.83
508.041	2136.17
508.409	2132.56
508.777	2122.39
509.145	2168.26
509.514	2147.02
509.882	2173.01
510.25	2189.5
510.618	2181.82
510.986	2235.38
511.354	2219.79
511.722	2246
512.09	2256.4
512.458	2237.64
512.826	2282.61
513.193	2313.8
513.561	2370.29
513.929	2330.74
514.297	2352.21
514.664	2372.55
515.032	2350.4
515.4	2407.35
515.767	2423.4
516.135	2395.15
516.502	2427.01
516.869	2465.43
517.237	2486.67
517.604	2444.64
517.972	2485.77
518.339	2512.43
518.706	2511.53
519.073	2538.2
519.44	2546.33
519.808	2559.44
520.175	2614.8
520.542	2636.5
520.909	2663.39
521.276	2620.91
521.643	2697.97
522.009	2685.31
522.376	2726.21
522.743	2732.09
523.11	2755.82
523.477	2750.62
523.843	2767.57
524.21	2778.64
524.577	2853.44
524.943	2835.59
525.31	2851.63
525.676	2893.44
526.043	2933.21
526.409	2893.44
526.776	2934.57
527.142	2949.94
527.508	2944.51
527.874	3022.7
528.241	3031.06
528.607	3025.19
528.973	3094.57
529.339	3057.73
529.705	3130.72
530.071	3168.01
530.437	3155.13
530.803	3143.15
531.169	3203.49
531.535	3157.84
531.901	3176.6
532.267	3222.25
532.632	3256.14
532.998	3246.2
533.364	3236.26
533.73	3313.54
534.095	3349.93
534.461	3325.75
534.826	3354.9
535.192	3355.8
535.557	3387.44
535.923	3422.69
536.288	3397.61
536.653	3442.8
537.019	3420.43
537.384	3465.18
537.749	3495.23
538.114	3497.94
538.479	3475.35
538.845	3539.07
539.21	3560.77
539.575	3543.37
539.94	3578.17
540.305	3553.08
540.67	3576.59
541.034	3570.94
541.399	3608.45
541.764	3631.05
542.129	3650.71
542.494	3654.55
542.858	3669.69
543.223	3680.76
543.587	3715.79
543.952	3718.73
544.316	3726.64
544.681	3740.65
545.045	3780.65
545.41	3832.85
545.774	3857.94
546.138	3861.78
546.503	3825.17
546.867	3863.81
547.231	3950.14
547.595	3935.9
547.959	3938.16
548.324	3913.98
548.688	3978.38
549.052	3985.39
549.416	4020.87
549.779	4051.6
550.143	4039.85
550.507	4054.54
550.871	4088.66
551.235	4088.66
551.599	4124.82
551.962	4166.4
552.326	4225.16
552.689	4222.22
553.053	4238.49
553.417	4261.99
553.78	4278.04
554.143	4305.16
554.507	4354.65
554.87	4356.45
555.234	4412.27
555.597	4426.96
555.96	4431.71
556.323	4424.7
556.686	4452.72
557.05	4501.31
557.413	4572.27
557.776	4589.67
558.139	4604.36
558.502	4670.8
558.865	4654.3
559.228	4742.43
559.59	4732.71
559.953	4708.08
560.316	4824.24
560.679	4855.2
561.041	4885.93
561.404	4953.27
561.767	4959.6
562.129	4957.79
562.492	5013.61
562.854	5102.87
563.217	5060.16
563.579	5161.4
563.941	5161.18
564.304	5224
564.666	5259.03
565.028	5303.32
565.39	5336.09
565.753	5356.2
566.115	5467.84
566.477	5499.47
566.839	5516.2
567.201	5598.68
567.563	5627.83
567.925	5756.19
568.287	5736.3
568.648	5728.17
569.01	5817.43
569.372	5843.19
569.734	5909.41
570.095	6001.16
570.457	6026.24
570.819	6038.22
571.18	6155.5
571.542	6220.36
571.903	6244.77
572.265	6273.46
572.626	6315.27
572.987	6405.44
573.349	6431.88
573.71	6523.63
574.071	6537.19
574.432	6658.54
574.794	6757.75
575.155	6759.78
575.516	6829.16
575.877	6908.7
576.238	6936.5
576.599	7129.71
576.96	7125.42
577.32	7190.05
577.681	7281.12
578.042	7329.26
578.403	7377.39
578.763	7577.16
579.124	7620.77
579.485	7688.57
579.845	7790.94
580.206	7821.67
580.566	8035.45
580.927	8019.41
581.287	8164.04
581.648	8263.7
582.008	8399.06
582.368	8481.32
582.728	8663.23
583.089	8775.55
583.449	8860.06
583.809	9011.7
584.169	9130.11
584.529	9206.04
584.889	9404.23
585.249	9522.87
585.609	9737.1
585.969	9878.57
586.329	9991.79
586.688	10122.63
587.048	10340.93
587.408	10401.27
587.768	10667.25
588.127	10866.79
588.487	11069.72
588.846	11312.88
589.206	11500.9
589.565	11649.82
589.925	11988.34
590.284	12119.86
590.643	12353.08
591.003	12647.31
591.362	12929.34
591.721	13127.75
592.08	13336.33
592.44	13645.47
592.799	13889.08
593.158	14119.81
593.517	14301.5
593.876	14601.83
594.235	14966.57
594.593	15214.02
594.952	15539.89
595.311	15676.83
595.67	16112.08
596.029	16529.92
596.387	16808.1
596.746	17162.22
597.104	17296.68
597.463	17617.8
597.822	17967.62
598.18	18267.27
598.538	18547.27
598.897	18925.56
599.255	19160.58
599.613	19726.9
599.972	19861.36
600.33	20274.9
600.688	20607.1
601.046	20951.5
601.404	21427.42
601.762	21690.23
602.12	21995.09
602.478	22365.02
602.836	22660.83
603.194	22963.2
603.552	23319.57
603.91	23477.53
604.268	23813.12
604.625	24231.86
604.983	24600.21
605.341	24769.7
605.698	25122.01
606.056	25655.1
606.413	25833.63
606.771	26059.61
607.128	26478.58
607.485	26493.72
607.843	26881.74
608.2	27383.87
608.557	27585.45
608.914	27777.76
609.272	28194.92
609.629	28486.21
609.986	28753.1
610.343	28925.07
610.7	29306.08
611.057	29466.3
611.414	29771.38
611.771	29977.47
612.127	30240.29
612.484	30502.43
612.841	30686.61
613.198	30889.31
613.554	31126.6
613.911	31414.27
614.267	31514.16
614.624	31776.52
614.98	31891.55
615.337	32147.59
615.693	32316.4
616.05	32417.18
616.406	32913.67
616.762	32766.33
617.118	33120.22
617.475	33207.22
617.831	33510.49
618.187	33500.77
618.543	33720.2
618.899	34110.7
619.255	34193.63
619.611	34222.56
619.967	34358.6
620.323	34573.29
620.678	34613.28
621.034	34536
621.39	34853.73
621.746	34824.8
622.101	35368.75
622.457	35182.31
622.812	35356.32
623.168	35530.55
623.523	35660.26
623.879	35919.01
624.234	35763.99
624.589	35944.55
624.945	35962.63
625.3	36289.85
625.655	36271.32
626.01	36246.69
626.365	36299.12
626.72	36316.74
627.075	36418.89
627.43	36538.88
627.785	36539.34
628.14	36598.32
628.495	36717.86
628.85	36882.83
629.205	36748.6
629.559	36971.64
629.914	36870.17
630.269	37130.73
630.623	36867.24
630.978	36998.31
631.332	37151.75
631.687	37300.67
632.041	37182.93
632.396	37271.75
632.75	37167.57
633.104	37271.52
633.459	37140.22
633.813	37181.58
634.167	37262.93
634.521	37183.39
634.875	37390.16
635.229	37348.35
635.583	37249.83
635.937	37260.9
636.291	37183.61
636.645	37386.55
636.999	37247.57
637.352	37278.3
637.706	37155.14
638.06	37340.22
638.413	37321.01
638.767	37258.41
639.121	37374.12
639.474	37357.62
639.828	37366.88
640.181	37419.31
640.534	37445.98
640.888	37249.15
641.241	37321.46
641.594	37345.87
641.947	37483.72
642.301	37285.98
642.654	37393.1
643.007	37331.41
643.36	37398.75
643.713	37158.3
644.066	37415.7
644.419	37072.66
644.771	36933.45
645.124	36642.84
645.477	36504.76
645.83	36368.27
646.182	36334.6
646.535	36174.15
646.888	36491.65
647.24	36257.08
647.593	36521.03
647.945	36435.16
648.298	36286.24
648.65	36368.94
649.002	36084.66
649.355	36392.45
649.707	36316.29
650.059	36467.02
650.411	37019.32
650.763	36996.05
651.115	37333.89
651.467	37156.72
651.819	37192.88
652.171	37152.2
652.523	37168.02
652.875	37122.15
653.227	36974.13
653.578	37340.22
653.93	37107.23
654.282	37140
654.633	37028.59
654.985	37049.15
655.337	37036.95
655.688	37082.82
656.039	37236.72
656.391	36934.81
656.742	36924.41
657.094	36998.76
657.445	37180.67
657.796	37006.89
658.147	36934.58
658.498	37024.52
658.849	37029.04
659.2	37016.39
659.551	36815.03
659.902	37134.35
660.253	36915.6
660.604	37150.39
660.955	36832.89
661.306	37016.39
661.656	36937.74
662.007	36962.6
662.358	37014.35
662.708	37137.74
663.059	36994.24
663.409	36789.95
663.76	37058.87
664.11	37020.91
664.461	36972.32
664.811	37094.8
665.161	36956.27
665.511	36887.35
665.862	37078.3
666.212	36912.66
666.562	37094.12
666.912	36991.53
667.262	37048.25
667.612	36946.33
667.962	36919.66
668.312	36851.87
668.662	37107.68
669.011	37131.64
669.361	36989.49
669.711	37052.09
670.06	36940.23
670.41	36788.82
670.76	36825.2
671.109	36916.73
671.459	36761.7
671.808	36841.02
672.157	36849.38
672.507	36752.21
672.856	36669.73
673.205	36645.77
673.554	36794.24
673.904	36713.34
674.253	36777.97
674.602	36722.61
674.951	36329.85
675.3	36148.16
675.649	36570.3
675.998	36639.22
676.346	36559.9
676.695	36728.48
677.044	36459.34
677.393	36691.87
677.741	36582.72
678.09	36529.17
678.438	36461.37
678.787	36434.71
679.135	36532.33
679.484	36248.04
679.832	36466.34
680.181	36210.08
680.529	36342.05
680.877	36218.89
681.225	36218.21
681.573	36318.78
681.922	36052.12
682.27	36039.91
682.618	36059.35
682.966	35993.36
683.314	36059.57
683.661	36025.45
684.009	35796.08
684.357	35672.24
684.705	35487.84
685.053	35759.47
685.4	35691.45
685.748	35401.74
686.095	35522.64
686.443	35358.35
686.79	35310.22
687.138	35431.79
687.485	35385.69
687.832	35270.89
688.18	35281.74
688.527	35098.02
688.874	35067.51
689.221	34918.59
689.568	34875.42
689.915	34704.36
690.262	34811.25
690.609	34686.96
690.956	34586.84
691.303	34489.9
691.65	34428.66
691.997	34346.63
692.344	34196.35
692.69	34268.89
693.037	34328.32
693.383	33926.52
693.73	34163.13
694.077	33922.23
694.423	33883.59
694.769	33848.11
695.116	33649.02
695.462	33762.23
695.808	33592.29
696.155	33510.26
696.501	33346.43
696.847	33343.49
697.193	33096.26
697.539	33260.33
697.885	32957.51
698.231	32974.46
698.577	32823.05
698.923	32898.53
699.269	32711.19
699.614	32650.17
699.96	32565.66
700.306	32684.52
700.651	32380.35
700.997	32275.72
701.342	32224.2
701.688	32258.77
702.033	32120.69
702.379	32104.42
702.724	31829.4
703.069	32020.13
703.415	31599.58
703.76	31769.07
704.105	31797.09
704.45	31697.43
704.795	31480.71
705.14	31475.06
705.485	31399.81
705.83	31241.85
706.175	31308.29
706.52	31155.52
706.865	31167.27
707.209	31098.12
707.554	30954.85
707.899	31122.76
708.243	30830.33
708.588	30835.53
708.932	30588.31
709.277	30621.07
709.621	30626.95
709.966	30300.18
710.31	30409.1
710.654	30256.56
710.998	30341.31
711.342	30141.76
711.687	30188.77
712.031	30086.62
712.375	29951.71
712.719	30111.03
713.063	29899.96
713.407	30114.19
713.75	29880.3
714.094	29928.89
714.438	29751.04
714.782	29749.68
715.125	29747.42
715.469	29710.59
715.812	29447.54
716.156	29302.69
716.499	29428.11
716.843	29431.5
717.186	29087.33
717.53	29439.41
717.873	29357.83
718.216	29330.03
718.559	29148.57
718.902	28977.05
719.246	29050.95
719.589	28958.97
719.932	28686.89
720.275	28734.57
720.617	28841.23
720.96	28882.14
721.303	28745.64
721.646	28684.85
721.989	28728.92
722.331	28689.82
722.674	28682.82
723.016	28625.87
723.359	28567.57
723.701	28631.52
724.044	28324.18
724.386	28229.05
724.729	28315.82
725.071	28355.82
725.413	28295.71
725.755	28310.17
726.097	28156.73
726.439	27965.1
726.782	27987.7
727.124	28120.12
727.465	27897.53
727.807	27995.61
728.149	27820.47
728.491	27879.9
728.833	27804.65
729.175	27749.28
729.516	27680.59
729.858	27656.86
730.199	27780.24
730.541	27686.91
730.882	27611.66
731.224	27621.15
731.565	27490.99
731.906	27409.41
732.248	27556.52
732.589	27311.78
732.93	27323.31
733.271	27226.13
733.612	27351.33
733.953	27323.31
734.294	27194.5
734.635	27241.73
734.976	27280.82
735.317	27096.87
735.658	27005.8
735.999	27059.13
736.339	26999.25
736.68	27076.08
737.021	26971
737.361	26868.4
737.702	27073.82
738.042	26824.56
738.383	26798.8
738.723	26736.43
739.063	26701.4
739.404	26751.57
739.744	26767.16
740.084	26568.98
740.424	26642.65
740.764	26553.84
741.104	26670.67
741.444	26513.61
741.784	26389.77
742.124	26481.3
742.464	26421.41
742.804	26408.75
743.143	26314.29
743.483	26427.06
743.823	26137.12
744.162	26164.92
744.502	26306.61
744.841	26204.69
745.181	26248.76
745.52	26014.19
745.86	26073.4
746.199	26073.17
746.538	26077.69
746.877	26161.3
747.216	26072.94
747.556	26024.58
747.895	26101.87
748.234	25872.72
748.573	25849.67
748.911	25792.95
749.25	25832.05
749.589	25776.91
749.928	25703.24
750.267	25779.17
750.605	25700.3
750.944	25709.34
751.283	25559.96
751.621	25608.55
751.96	25533.98
752.298	25498.72
752.636	25457.59
752.975	25319.52
753.313	25290.37
753.651	25341.44
753.989	25281.78
754.327	25210.82
754.666	25072.07
755.004	25144.83
755.342	25129.92
755.679	24970.15
756.017	24948
756.355	24992.07
756.693	24901.9
757.031	24960.66
757.368	24710.04
757.706	24759.08
758.044	24601.12
758.381	24762.47
758.719	24615.36
759.056	24623.49
759.394	24552.98
759.731	24318.64
760.068	24287.68
760.405	24183.05
760.743	24152.09
761.08	24218.53
761.417	24151.86
761.754	24188.7
762.091	23940.57
762.428	23870.06
762.765	23772.89
763.102	23817.86
763.438	23741.93
763.775	23659.9
764.112	23660.8
764.449	23633.69
764.785	23454.26
765.122	23303.75
765.458	23272.34
765.795	23226.47
766.131	23113.47
766.467	23105.11
766.804	22959.58
767.14	23007.94
767.476	23000.03
767.812	22870.54
768.148	22927.94
768.485	22647.95
768.821	22605.92
769.157	22552.58
769.492	22512.81
769.828	22437.11
770.164	22343.32
770.5	22282.54
770.836	22235.08
771.171	22156.66
771.507	22061.52
771.842	21851.36
772.178	21959.61
772.513	21860.63
772.849	21750.57
773.184	21646.85
773.519	21787.86
773.855	21705.15
774.19	21495.66
774.525	21421.09
774.86	21424.25
775.195	21480.07
775.53	21291.6
775.865	21104.49
776.2	21082.57
776.535	20879.18
776.87	20947.66
777.205	20805.06
777.539	20674.22
777.874	20764.84
778.209	20587.44
778.543	20633.09
778.878	20339.76
779.212	20474.45
779.547	20301.34
779.881	20359.87
780.215	20200.1
780.55	20246.66
780.884	20157.17
781.218	19987.91
781.552	20103.16
781.886	19838.31
782.22	19830.17
782.554	19778.65
782.888	19588.37
783.222	19566.67
783.556	19438.32
783.889	19326.23
784.223	19268.15
784.557	19218.44
784.89	19230.86
785.224	19176.18
785.557	19011.21
785.891	19023.64
786.224	19023.86
786.558	18932.34
786.891	18671.11
787.224	18717.88
787.557	18701.39
787.891	18751.1
788.224	18668.62
788.557	18435.41
788.89	18519.47
789.223	18446.7
789.556	18365.58
789.888	18347.05
790.221	18308.18
790.554	18158.58
790.887	18111.57
791.219	18008.98
791.552	17924.68
791.884	17888.07
792.217	17821.41
792.549	17797.68
792.882	17618.7
793.214	17427.52
793.546	17701.64
793.879	17575.31
794.211	17396.56
794.543	17465.71
794.875	17377.13
795.207	17487.41
795.539	17340.97
795.871	17310.01
796.203	17212.39
796.535	17091.49
796.867	17043.35
797.198	16972.39
797.53	16944.37
797.862	16852.85
798.193	16878.16
798.525	16768.78
798.856	16795.22
799.188	16660.08
799.519	16592.52
799.85	16519.3
800.182	16557.26
800.513	16562.01
800.844	16388.91
801.175	16430.26
801.506	16410.6
801.837	16287.89
802.168	16270.04
802.499	16235.91
802.83	16163.6
803.161	16039.54
803.491	16016.03
803.822	16082.25
804.153	15976.03
804.483	15809.71
804.814	15794.57
805.145	15799.09
805.475	15722.26
805.805	15721.35
806.136	15738.98
806.466	15675.25
806.796	15665.08
807.126	15533.79
807.457	15551.41
807.787	15443.85
808.117	15336.73
808.447	15393
808.777	15411.53
809.107	15349.84
809.436	15277.52
809.766	15320.46
810.096	15233.91
810.426	15126.34
810.755	15113.01
811.085	15048.15
811.414	15007.25
811.744	14911.43
812.073	14956.63
812.403	14988.72
812.732	14876.63
813.061	14959.11
813.39	14589.86
813.719	14664.43
814.049	14763.64
814.378	14637.76
814.707	14560.03
815.036	14695.39
815.365	14541.5
815.693	14385.79
816.022	14405.68
816.351	14387.38
816.68	14276.42
817.008	14370.88
817.337	14277.77
817.665	14226.25
817.994	14315.06
818.322	14282.07
818.651	14149.87
818.979	14150.09
819.307	14248.85
819.636	14079.14
819.964	14024.45
820.292	14092.47
820.62	14076.2
820.948	14015.63
821.276	14013.83
821.604	14019.02
821.932	14061.06
822.259	14105.35
822.587	14007.72
822.915	13997.56
823.243	13930.89
823.57	13936.31
823.898	13929.99
824.225	13902.87
824.553	13969.53
824.88	13948.52
825.207	13939.7
825.535	13992.58
825.862	13920.5
826.189	13887.05
826.516	13880.95
826.843	13971.79
827.17	13965.24
827.497	13921.4
827.824	13927.5
828.151	13877.33
828.478	13865.81
828.805	13908.07
829.131	13957.78
829.458	13950.1
829.785	13772.7
830.111	13839.37
830.438	13895.64
830.764	13826.94
831.09	13855.19
831.417	13837.79
831.743	13876.88
832.069	13861.29
832.395	13784.23
832.722	13772.25
833.048	13792.14
833.374	13825.36
833.7	13877.11
834.026	13739.48
834.351	13776.77
834.677	13758.47
835.003	13775.41
835.329	13798.69
835.654	13667.39
835.98	13710.33
836.306	13693.61
836.631	13591.69
836.956	13662.65
837.282	13606.83
837.607	13526.61
837.932	13572.48
838.258	13476.67
838.583	13484.8
838.908	13494.97
839.233	13515.31
839.558	13432.15
839.883	13457
840.208	13358.25
840.533	13386.27
840.858	13357.35
841.182	13386.5
841.507	13381.98
841.832	13374.75
842.156	13279.38
842.481	13356.22
842.805	13268.54
843.13	13177.46
843.454	13207.07
843.778	13096.34
844.103	13094.98
844.427	13045.04
844.751	13064.02
845.075	13081.42
845.399	12986.73
845.723	12909.67
846.047	12972.95
846.371	12719.85
846.695	12727.98
847.019	12687.99
847.343	12583.81
847.666	12605.95
847.99	12520.08
848.313	12518.27
848.637	12426.52
848.96	12390.37
849.284	12452.51
849.607	12345.85
849.931	12265.4
850.254	12227.66
850.577	12129.81
850.9	12055.23
851.223	12138.17
851.546	12031.51
851.869	11870.61
852.192	11965.74
852.515	11883.49
852.838	11845.3
853.161	11783.6
853.483	11800.55
853.806	11781.79
854.129	11749.93
854.451	11728.91
854.774	11581.57
855.096	11605.3
855.419	11509.71
855.741	11554.91
856.063	11464.97
856.385	11443.5
856.708	11427.68
857.03	11424.97
857.352	11397.4
857.674	11268.36
857.996	11276.95
858.318	11245.31
858.64	11226.56
858.961	11148.82
859.283	11076.95
859.605	11095.94
859.926	11175.26
860.248	11097.52
860.57	11049.84
860.891	11072.89
861.212	10978.43
861.534	10915.6
861.855	10836.28
862.176	10954.25
862.498	10944.75
862.819	10871.54
863.14	10807.13
863.461	10764.65
863.782	10807.58
864.103	10809.84
864.424	10776.62
864.745	10784.53
865.065	10775.49
865.386	10693.24
865.707	10698.21
866.027	10657.08
866.348	10665.67
866.668	10661.37
866.989	10595.16
867.309	10452.34
867.63	10515.84
867.95	10602.39
868.27	10507.03
868.59	10562.39
868.91	10458.67
869.23	10448.27
869.55	10448.72
869.87	10470.19
870.19	10370.53
870.51	10433.36
870.83	10432.45
871.15	10367.59
871.469	10360.59
871.789	10353.58
872.109	10289.86
872.428	10281.95
872.748	10311.1
873.067	10279.01
873.386	10197.66
873.706	10261.61
874.025	10243.3
874.344	10198.11
874.663	10199.01
874.982	10184.55
875.301	10231.1
875.62	10123.08
875.939	10031.33
876.258	10072.01
876.577	10122.86
876.896	10082.63
877.214	9974.84
877.533	10085.12
877.852	10087.15
878.17	9997.21
878.489	9999.24
878.807	10004.44
879.125	9918.34
879.444	9979.81
879.762	9940.49
880.08	9928.28
880.398	9922.63
880.716	9927.15
881.034	9873.14
881.352	9880.83
881.67	9766.25
881.988	9831.56
882.306	9800.38
882.624	9779.59
882.941	9709.98
883.259	9696.43
883.577	9670.44
883.894	9590.44
884.212	9635.86
884.529	9632.47
884.846	9606.03
885.164	9579.59
885.481	9585.69
885.798	9500.27
886.115	9459.37
886.432	9344.34
886.75	9471.57
887.067	9465.02
887.383	9431.35
887.7	9408.3
888.017	9360.62
888.334	9335.98
888.651	9309.54
888.967	9280.62
889.284	9302.76
889.6	9294.85
889.917	9217.79
890.233	9207.85
890.55	9217.57
890.866	9108.64
891.182	9155.42
891.498	9067.29
891.815	9036.78
892.131	9030.91
892.447	8971.25
892.763	8909.55
893.079	8941.19
893.395	8967.86
893.71	8931.47
894.026	8926.05
894.342	8880.4
894.657	8762.21
894.973	8761.31
895.289	8738.71
895.604	8775.55
895.92	8753.17
896.235	8733.51
896.55	8705.04
896.865	8572.39
897.181	8651.03
897.496	8552.95
897.811	8519.28
898.126	8539.39
898.441	8511.15
898.756	8546.17
899.071	8439.28
899.386	8425.27
899.7	8387.76
900.015	8340.3
900.33	8300.98
900.644	8246.29
900.959	8302.34
901.273	8279.74
901.588	8189.35
901.902	8174.43
902.216	8163.13
902.531	8169.91
902.845	8105.51
903.159	8093.08
903.473	8026.87
903.787	8036.81
904.101	7971.5
904.415	7972.86
904.729	7957.94
905.042	7875.46
905.356	7943.48
905.67	7864.84
905.984	7836.81
906.297	7790.49
906.611	7738.74
906.924	7777.38
907.237	7653.99
907.551	7642.24
907.864	7666.2
908.177	7651.73
908.491	7541
908.804	7501.68
909.117	7508.46
909.43	7462.36
909.743	7468.01
910.056	7451.97
910.368	7398.86
910.681	7344.4
910.994	7338.07
911.307	7208.13
911.619	7218.07
911.932	7223.04
912.244	7175.36
912.557	7141.92
912.869	7155.25
913.181	7123.61
913.494	7076.38
913.806	7079.77
914.118	7021.24
914.43	7003.84
914.742	6973.79
915.054	6901.02
915.366	6854.47
915.678	6881.58
915.99	6838.65
916.302	6821.47
916.613	6796.39
916.925	6774.02
917.236	6756.16
917.548	6714.58
917.859	6733.79
918.171	6661.93
918.482	6619.22
918.794	6558.2
919.105	6583.06
919.416	6513.46
919.727	6524.08
920.038	6505.32
920.349	6480.24
920.66	6426.91
920.971	6427.13
921.282	6409.51
921.593	6299.23
921.903	6289.96
922.214	6288.38
922.525	6322.5
922.835	6257.87
923.146	6186.01
923.456	6192.56
923.767	6190.98
924.077	6188.04
924.387	6204.54
924.697	6087.93
925.008	6068.27
925.318	6028.73
925.628	6065.11
925.938	6000.03
926.248	5997.99
926.558	6014.04
926.867	5908.05
927.177	5876.19
927.487	5870.54
927.796	5820.37
928.106	5826.47
928.416	5777.66
928.725	5749.64
929.034	5765.68
929.344	5753.25
929.653	5762.52
929.962	5674.61
930.271	5684.55
930.581	5630.54
930.89	5577.89
931.199	5615.86
931.508	5516.65
931.817	5515.74
932.125	5537.44
932.434	5510.1
932.743	5443.88
933.051	5391
933.36	5396.43
933.669	5335.64
933.977	5360.49
934.286	5295.41
934.594	5334.96
934.902	5269.42
935.21	5289.54
935.519	5289.54
935.827	5200.5
936.135	5206.15
936.443	5171.57
936.751	5134.51
937.059	5133.38
937.367	5124.34
937.674	5093.16
937.982	5060.16
938.29	5050.22
938.597	5063.1
938.905	4986.72
939.213	5022.42
939.52	4954.86
939.827	5007.28
940.135	4901.75
940.442	4888.19
940.749	4939.71
941.056	4885.48
941.363	4828.08
941.67	4818.14
941.977	4778.14
942.284	4814.52
942.591	4713.28
942.898	4688.42
943.205	4704.47
943.511	4699.95
943.818	4672.83
944.125	4662.66
944.431	4617.01
944.738	4673.73
945.044	4595.99
945.35	4574.07
945.657	4539.73
945.963	4525.26
946.269	4500.86
946.575	4498.14
946.881	4468.54
947.187	4446.17
947.493	4453.85
947.799	4428.77
948.105	4419.73
948.41	4361.88
948.716	4370.69
949.022	4370.01
949.327	4347.41
949.633	4286.62
949.938	4300.18
950.244	4318.26
950.549	4246.4
950.854	4221.09
951.16	4199.85
951.465	4204.14
951.77	4166.85
952.075	4148.55
952.38	4150.58
952.685	4174.09
952.99	4093.41
953.294	4123.24
953.599	4099.51
953.904	4045.05
954.209	4045.05
954.513	3994.43
954.818	4036.24
955.122	3978.84
955.426	3985.62
955.731	3969.57
956.035	3954.2
956.339	3906.75
956.643	3875.34
956.948	3868.1
957.252	3897.71
957.556	3899.06
957.86	3840.31
958.163	3837.82
958.467	3821.33
958.771	3793.98
959.075	3775.45
959.378	3715.57
959.682	3786.07
959.985	3727.09
960.289	3701.56
960.592	3727.32
960.896	3692.97
961.199	3662.01
961.502	3679.18
961.805	3612.29
962.108	3620.43
962.411	3673.31
962.714	3606.87
963.017	3580.2
963.32	3586.08
963.623	3522.35
963.926	3498.62
964.228	3511.5
964.531	3495.68
964.833	3510.6
965.136	3482.35
965.438	3434.67
965.741	3419.98
966.043	3396.48
966.345	3373.65
966.648	3395.12
966.95	3379.76
967.252	3351.28
967.554	3353.32
967.856	3325.75
968.158	3309.48
968.46	3313.54
968.761	3282.13
969.063	3250.49
969.365	3248.23
969.666	3233.32
969.968	3218.86
970.269	3187.22
970.571	3216.37
970.872	3175.92
971.174	3188.12
971.475	3163.04
971.776	3144.06
972.077	3149.25
972.378	3134.11
972.679	3107.67
972.98	3093.66
973.281	3085.07
973.582	3094.11
973.883	3063.61
974.183	3018.41
974.484	3038.75
974.785	3034.23
975.085	2981.12
975.386	3001.69
975.686	2988.13
975.986	2933.89
976.287	2962.59
976.587	2936.38
976.887	2935.02
977.187	2954.68
977.487	2918.3
977.787	2893.44
978.087	2877.62
978.387	2858.87
978.687	2862.26
978.987	2837.4
979.286	2841.69
979.586	2803.95
979.885	2763.95
980.185	2774.12
980.484	2736.38
980.784	2733.22
981.083	2734.57
981.382	2756.5
981.682	2739.55
981.981	2739.77
982.28	2734.35
982.579	2688.93
982.878	2692.09
983.177	2654.58
983.475	2627.46
983.774	2640.11
984.073	2608.7
984.372	2597.86
984.67	2623.84
984.969	2586.33
985.267	2597.4
985.566	2561.7
985.864	2551.3
986.162	2559.89
986.461	2531.64
986.759	2524.86
987.057	2480.12
987.355	2541.36
987.653	2502.26
987.951	2463.4
988.249	2464.07
988.547	2454.36
988.844	2426.56
989.142	2432.44
989.44	2432.21
989.737	2426.79
990.035	2429.72
990.332	2375.94
990.63	2396.5
990.927	2397.86
991.224	2370.52
991.521	2353.12
991.819	2328.48
992.116	2335.04
992.413	2316.05
992.71	2279.67
993.006	2291.65
993.303	2272.67
993.6	2288.94
993.897	2217.07
994.193	2255.72
994.49	2215.49
994.787	2221.82
995.083	2232.67
995.379	2199
995.676	2229.96
995.972	2159.9
996.268	2147.92
996.565	2164.87
996.861	2152.44
997.157	2163.06
997.453	2148.38
997.749	2156.74
998.044	2114.7
998.34	2109.05
998.636	2119
998.932	2067.25
999.227	2088.94
999.523	2062.28
999.818	2084.87
1000.114	2061.15
1000.409	1999.91
1000.704	2013.69
1001	2010.53
1001.295	1989.28
1001.59	1967.36
1001.885	2010.07
1002.18	1977.76
1002.475	1944.31
1002.77	1949.74
1003.065	1911.77
1003.359	1922.84
1003.654	1933.69
1003.949	1888.95
1004.243	1922.39
1004.538	1890.98
1004.832	1919
1005.127	1839.23
1005.421	1859.34
1005.715	1844.2
1006.009	1828.38
1006.304	1814.6
1006.598	1828.84
1006.892	1779.8
1007.186	1789.97
1007.48	1784.32
1007.773	1777.31
1008.067	1778.22
1008.361	1756.3
1008.655	1743.87
1008.948	1730.53
1009.242	1714.04
1009.535	1712.91
1009.829	1683.3
1010.122	1680.59
1010.415	1689.63
1010.708	1690.76
1011.001	1663.87
1011.295	1673.81
1011.588	1648.28
1011.881	1647.37
1012.173	1611.89
1012.466	1589.07
1012.759	1617.54
1013.052	1607.6
1013.344	1608.73
1013.637	1606.47
1013.93	1594.72
1014.222	1551.33
1014.514	1575.96
1014.807	1567.37
1015.099	1550.65
1015.391	1540.93
1015.683	1526.47
1015.976	1512.01
1016.268	1484.44
1016.56	1490.99
1016.851	1446.93
1017.143	1480.82
1017.435	1478.34
1017.727	1476.98
1018.018	1447.6
1018.31	1430.65
1018.602	1434.5
1018.893	1425.91
1019.185	1413.71
1019.476	1399.47
1019.767	1368.28
1020.058	1391.79
1020.35	1367.83
1020.641	1356.76
1020.932	1371
1021.223	1363.31
1021.514	1352.92
1021.804	1320.83
1022.095	1324.89
1022.386	1292.35
1022.677	1304.33
1022.967	1296.42
1023.258	1276.31
1023.548	1291.68
1023.839	1280.83
1024.129	1274.27
1024.419	1242.64
1024.709	1265.69
1025	1235.63
1025.29	1229.76
1025.58	1220.49
1025.87	1222.3
1026.16	1226.82
1026.449	1214.16
1026.739	1207.61
1027.029	1207.84
1027.319	1161.51
1027.608	1185.46
1027.898	1147.72
1028.187	1150.21
1028.477	1159.7
1028.766	1132.58
1029.055	1112.02
1029.344	1140.72
1029.634	1125.13
1029.923	1123.09
1030.212	1096.2
1030.501	1091.68
1030.79	1080.38
1031.078	1076.31
1031.367	1071.79
1031.656	1083.54
1031.945	1074.73
1032.233	1032.02
1032.522	1029.76
1032.81	1036.77
1033.099	1042.42
1033.387	1035.41
1033.675	1001.74
1033.963	1031.79
1034.251	1000.16
1034.54	982.53
1034.828	978.91
1035.116	980.95
1035.403	981.85
1035.691	972.14
1035.979	960.61
1036.267	984.56
1036.554	956.54
1036.842	987.5
1037.129	952.02
1037.417	946.37
1037.704	941.4
1037.992	941.85
1038.279	944.34
1038.566	932.81
1038.853	932.81
1039.14	932.81
