Data from red_shiny_book_FLMS001491_00065.txt Node
Date: Wed Feb 08 15:25:13 GMT 2017
User: dcchb
Spectrometer: FLMS00149
Trigger mode: 0
Integration Time (sec): 2.000000E-2
Scans to average: 10
Electric dark correction enabled: true
Nonlinearity correction enabled: false
Boxcar width: 0
XAxis mode: Wavelengths
Number of Pixels in Spectrum: 2048
>>>>>Begin Spectral Data<<<<<
341.393	1.91
341.776	1.91
342.16	1.91
342.543	-54.14
342.927	-41.03
343.31	-71.31
343.693	-70.18
344.077	-79.67
344.46	-65.21
344.843	-33.12
345.226	-37.19
345.61	-33.12
345.993	-8.71
346.376	0.78
346.759	8.91
347.142	28.8
347.525	43.71
347.908	63.6
348.291	74.22
348.674	79.42
349.057	99.08
349.44	125.97
349.823	140.21
350.206	175.46
350.588	196.25
350.971	224.05
351.354	234.44
351.737	245.97
352.119	259.53
352.502	263.59
352.884	272.18
353.267	299.07
353.65	291.84
354.032	303.14
354.414	305.85
354.797	322.12
355.179	336.14
355.562	318.96
355.944	341.11
356.326	331.62
356.709	349.92
357.091	354.67
357.473	339.07
357.855	346.76
358.238	338.62
358.62	348.34
359.002	357.6
359.384	325.06
359.766	332.75
360.148	332.97
360.53	337.27
360.912	326.42
361.294	339.75
361.676	339.98
362.057	321.9
362.439	340.43
362.821	332.07
363.203	349.24
363.584	344.72
363.966	310.37
364.348	316.25
364.729	319.41
365.111	317.38
365.493	332.97
365.874	324.61
366.256	314.89
366.637	315.57
367.019	305.18
367.4	319.86
367.781	328.9
368.163	299.75
368.544	297.94
368.925	304.05
369.306	331.16
369.688	303.14
370.069	302.69
370.45	305.85
370.831	311.96
371.212	324.61
371.593	314.67
371.974	317.83
372.355	313.54
372.736	317.6
373.117	312.63
373.498	297.49
373.879	319.86
374.26	301.11
374.641	313.31
375.021	306.98
375.402	290.03
375.783	312.63
376.163	311.05
376.544	320.32
376.925	325.06
377.305	332.52
377.686	310.15
378.066	316.93
378.447	334.33
378.827	310.83
379.208	319.19
379.588	315.57
379.968	323.71
380.349	333.88
380.729	318.73
381.109	335.46
381.489	329.13
381.87	327.32
382.25	318.06
382.63	327.32
383.01	332.97
383.39	322.8
383.77	344.04
384.15	331.84
384.53	330.71
384.91	336.59
385.29	352.63
385.67	350.37
386.049	342.69
386.429	343.37
386.809	338.4
387.189	349.92
387.568	348.79
387.948	329.58
388.328	357.15
388.707	358.96
389.087	359.64
389.466	339.3
389.846	345.4
390.225	352.41
390.605	355.8
390.984	345.17
391.363	328.68
391.743	341.33
392.122	364.16
392.501	348.11
392.881	391.95
393.26	365.29
393.639	345.63
394.018	332.75
394.397	357.6
394.776	369.81
395.155	390.15
395.534	367.32
395.913	384.5
396.292	367.55
396.671	364.16
397.05	373.87
397.429	375.68
397.808	366.19
398.186	358.28
398.565	376.36
398.944	348.11
399.323	344.04
399.701	358.51
400.08	359.64
400.458	398.96
400.837	375
401.215	380.88
401.594	369.81
401.972	382.91
402.351	365.51
402.729	368.68
403.107	386.53
403.486	387.66
403.864	378.39
404.242	387.43
404.62	389.47
404.999	376.36
405.377	372.52
405.755	383.14
406.133	395.57
406.511	398.28
406.889	395.57
407.267	387.66
407.645	419.07
408.023	383.37
408.401	378.85
408.779	411.39
409.156	400.99
409.534	411.16
409.912	396.47
410.29	425.4
410.667	409.81
411.045	412.74
411.422	418.39
411.8	422.91
412.178	420.43
412.555	427.88
412.933	427.88
413.31	425.85
413.687	441.44
414.065	448.22
414.442	437.6
414.819	433.31
415.197	444.83
415.574	463.82
415.951	447.32
416.328	449.13
416.705	457.94
417.082	464.95
417.46	464.49
417.837	461.56
418.214	448.67
418.591	464.04
418.967	468.11
419.344	486.64
419.721	473.31
420.098	476.7
420.475	484.83
420.852	478.5
421.228	488.9
421.605	473.53
421.982	500.65
422.358	506.98
422.735	502.91
423.111	498.39
423.488	495.91
423.864	502.01
424.241	512.85
424.617	506.3
424.994	495.68
425.37	502.91
425.746	512.85
426.123	481.22
426.499	509.69
426.875	522.35
427.251	507.2
427.627	541.33
428.003	534.32
428.379	535.9
428.756	526.86
429.132	545.17
429.507	548.11
429.883	545.85
430.259	544.04
430.635	537.71
431.011	551.72
431.387	544.49
431.763	558.28
432.138	569.35
432.514	579.74
432.89	577.03
433.265	572.06
433.641	592.85
434.016	594.89
434.392	583.36
434.767	579.74
435.143	578.84
435.518	592.17
435.894	622.23
436.269	628.78
436.644	606.64
437.02	621.33
437.395	611.38
437.77	611.83
438.145	615.9
438.52	619.29
438.895	605.05
439.271	619.07
439.646	629.46
440.021	611.16
440.395	642.12
440.77	647.09
441.145	641.44
441.52	632.17
441.895	642.57
442.27	667.65
442.645	658.39
443.019	669.23
443.394	645.96
443.769	658.61
444.143	652.96
444.518	651.38
444.892	657.93
445.267	652.06
445.641	683.47
446.016	683.47
446.39	676.92
446.764	708.78
447.139	685.96
447.513	682.79
447.887	675.79
448.262	689.8
448.636	664.71
449.01	676.92
449.384	683.24
449.758	678.27
450.132	701.32
450.506	685.05
450.88	683.24
451.254	702.68
451.628	708.55
452.002	726.41
452.376	712.62
452.75	719.85
453.123	722.79
453.497	723.47
453.871	705.84
454.244	728.67
454.618	725.28
454.992	725.28
455.365	730.02
455.739	747.42
456.112	761.89
456.486	755.79
456.859	767.76
457.232	749.01
457.606	753.98
457.979	758.72
458.352	742.45
458.725	737.48
459.099	758.72
459.472	769.57
459.845	740.19
460.218	766.18
460.591	765.95
460.964	755.56
461.337	789
461.71	801.21
462.083	798.04
462.456	779.97
462.829	793.98
463.201	807.99
463.574	778.16
463.947	813.41
464.32	806.18
464.692	804.37
465.065	768.67
465.438	812.73
465.81	814.31
466.183	818.83
466.555	811.83
466.928	847.53
467.3	858.16
467.672	864.03
468.045	842.79
468.417	850.25
468.789	869.91
469.161	869.45
469.534	868.32
469.906	869.91
470.278	856.35
470.65	862.22
471.022	876.69
471.394	901.54
471.766	912.39
472.138	911.04
472.51	939.96
472.882	959.85
473.253	967.98
473.625	968.66
473.997	981.99
474.369	961.66
474.74	938.61
475.112	960.53
475.484	945.84
475.855	942.45
476.227	983.58
476.598	996.23
476.97	1007.3
477.341	1034.87
477.713	1053.86
478.084	1078.71
478.455	1077.36
478.827	1109.22
479.198	1116.68
479.569	1104.93
479.94	1120.3
480.311	1133.85
480.682	1140.63
481.053	1134.76
481.424	1140.18
481.795	1139.5
482.166	1151.48
482.537	1183.12
482.908	1200.52
483.279	1227.64
483.65	1254.98
484.021	1287.3
484.391	1273.96
484.762	1313.51
485.133	1318.48
485.503	1312.61
485.874	1328.88
486.244	1317.35
486.615	1312.83
486.985	1358.26
487.356	1367.52
487.726	1346.73
488.097	1412.94
488.467	1425.82
488.837	1451.59
489.207	1471.02
489.578	1531.13
489.948	1537.23
490.318	1542.88
490.688	1520.74
491.058	1581.75
491.428	1592.83
491.798	1584.92
492.168	1567.29
492.538	1612.71
492.908	1580.62
493.278	1595.76
493.648	1626.27
494.017	1612.03
494.387	1659.72
494.757	1684.12
495.126	1695.2
495.496	1733.61
495.866	1723.22
496.235	1802.31
496.605	1780.62
496.974	1800.05
497.344	1774.52
497.713	1776.1
498.082	1748.75
498.452	1770.22
498.821	1748.08
499.19	1760.05
499.559	1754.63
499.928	1802.31
500.298	1792.82
500.667	1840.73
501.036	1880.73
501.405	1906.26
501.774	1849.77
502.143	1873.5
502.512	1912.82
502.88	1949.65
503.249	1951.46
503.618	1958.47
503.987	1904.23
504.356	1848.86
504.724	1884.12
505.093	1856.55
505.462	1836.43
505.83	1887.73
506.199	1880.73
506.567	1894.29
506.936	1954.62
507.304	1949.2
507.672	1978.35
508.041	1998.92
508.409	2023.1
508.777	2019.03
509.145	1992.81
509.514	1981.29
509.882	2014.74
510.25	1952.82
510.618	1966.6
510.986	1937.9
511.354	1907.39
511.722	1922.99
512.09	1919.6
512.458	1916.21
512.826	1918.24
513.193	1947.62
513.561	1987.39
513.929	2023.77
514.297	2043.89
514.664	2019.25
515.032	2043.21
515.4	2099.03
515.767	2054.51
516.135	2035.53
516.502	2027.16
516.869	1991.23
517.237	2005.47
517.604	1963.89
517.972	1959.82
518.339	1961.63
518.706	1929.09
519.073	1918.47
519.44	1982.87
519.808	1963.89
520.175	1967.5
520.542	2004.11
520.909	2058.8
521.276	2068.07
521.643	2091.34
522.009	2073.26
522.376	2083.43
522.743	2092.25
523.11	2070.78
523.477	2064.45
523.843	2016.09
524.21	1995.3
524.577	2013.83
524.943	2007.5
525.31	1999.14
525.676	2035.07
526.043	2025.36
526.409	2046.37
526.776	2101.96
527.142	2101.74
527.508	2137.22
527.874	2206.37
528.241	2216.09
528.607	2229.87
528.973	2260.6
529.339	2254.05
529.705	2243.88
530.071	2265.58
530.437	2288.17
530.803	2219.93
531.169	2206.59
531.535	2223.09
531.901	2192.13
532.267	2165.24
532.632	2210.44
532.998	2223.09
533.364	2251.79
533.73	2316.2
534.095	2343.99
534.461	2405.91
534.826	2412.46
535.192	2436.42
535.557	2467.6
535.923	2495.17
536.288	2525.46
536.653	2550.77
537.019	2506.93
537.384	2459.92
537.749	2475.29
538.114	2454.95
538.479	2449.75
538.845	2455.85
539.21	2430.77
539.575	2415.63
539.94	2463.76
540.305	2491.33
540.67	2505.57
541.034	2551.44
541.399	2613.36
541.764	2644.32
542.129	2667.6
542.494	2700.82
542.858	2740.14
543.223	2778.33
543.587	2753.02
543.952	2778.56
544.316	2767.71
544.681	2720.25
545.045	2724.77
545.41	2691.33
545.774	2671.89
546.138	2671.89
546.503	2673.93
546.867	2682.74
547.231	2643.65
547.595	2678.9
547.959	2671.67
548.324	2742.4
548.688	2762.74
549.052	2781.27
549.416	2843.19
549.779	2858.1
550.143	2892.9
550.507	2946.91
550.871	2940.36
551.235	2867.14
551.599	2866.92
551.962	2907.37
552.326	2845.67
552.689	2816.3
553.053	2780.36
553.417	2762.29
553.78	2730.2
554.143	2712.12
554.507	2698.33
554.87	2715.28
555.234	2715.06
555.597	2722.06
555.96	2751.21
556.323	2797.31
556.686	2819.46
557.05	2894.03
557.413	2910.08
557.776	2973.81
558.139	2974.26
558.502	2990.3
558.865	2968.83
559.228	3021.71
559.59	2981.04
559.953	2898.33
560.316	2920.7
560.679	2929.06
561.041	2860.81
561.404	2806.8
561.767	2835.28
562.129	2756.41
562.492	2784.21
562.854	2774.94
563.217	2832.11
563.579	2818.56
563.941	2891.32
564.304	2902.85
564.666	2927.48
565.028	3008.61
565.39	3033.69
565.753	3042.73
566.115	3109.17
566.477	3089.28
566.839	3105.78
567.201	3145.1
567.563	3117.76
567.925	3104.88
568.287	3035.5
568.648	3011.32
569.01	2995.95
569.372	2988.27
569.734	3002.96
570.095	2981.94
570.457	2968.38
570.819	2988.95
571.18	3006.57
571.542	3006.35
571.903	3044.09
572.265	3120.92
572.626	3180.35
572.987	3226.23
573.349	3308.49
573.71	3382.83
574.071	3433.68
574.432	3444.3
574.794	3529.05
575.155	3563.85
575.516	3559.55
575.877	3593.9
576.238	3607.24
576.599	3670.51
576.96	3623.73
577.32	3609.5
577.681	3688.14
578.042	3704.63
578.403	3756.16
578.763	3809.94
579.124	3891.07
579.485	4042.7
579.845	4165.19
580.206	4219.42
580.566	4408.34
580.927	4570.15
581.287	4750.03
581.648	4946.64
582.008	5155.9
582.368	5308.89
582.728	5539.84
583.089	5788.2
583.449	5940.51
583.809	6168.07
584.169	6406.03
584.529	6609.64
584.889	6810.54
585.249	7014.38
585.609	7261.6
585.969	7486.23
586.329	7651.42
586.688	8042.83
587.048	8303.16
587.408	8606.65
587.768	8922.58
588.127	9263.13
588.487	9652.95
588.846	10078.25
589.206	10452.48
589.565	10828.51
589.925	11302.63
590.284	11750.3
590.643	12069.84
591.003	12645.87
591.362	13048.8
591.721	13491.95
592.08	13908.21
592.44	14387.07
592.799	14762.65
593.158	15218.46
593.517	15598.33
593.876	16004.42
594.235	16297.52
594.593	16804.63
594.952	17167.11
595.311	17508.79
595.67	17897.93
596.029	18458.6
596.387	18812.94
596.746	19319.59
597.104	19676.42
597.463	20081.6
597.822	20606.34
598.18	20960
598.538	21426.88
598.897	21995.23
599.255	22339.62
599.613	23079.27
599.972	23326.72
600.33	23857.32
600.688	24258.44
601.046	24702.5
601.404	25140.91
601.762	25511.29
602.12	25986.31
602.478	26345.39
602.836	26719.85
603.194	26821.31
603.552	27222.21
603.91	27426.72
604.268	27911.68
604.625	28079.36
604.983	28467.6
605.341	28563.64
605.698	29082.5
606.056	29491.07
606.413	29728.58
606.771	30196.14
607.128	30463.48
607.485	30725.84
607.843	31064.37
608.2	31396.56
608.557	31849.88
608.914	31994.96
609.272	32516.98
609.629	32828.84
609.986	33248.04
610.343	33316.06
610.7	33827.23
611.057	33940
611.414	34126.43
611.771	34358.74
612.127	34658.17
612.484	34671.28
612.841	35037.6
613.198	34852.52
613.554	35158.04
613.911	35416.12
614.267	35544.02
614.624	35767.97
614.98	35752.83
615.337	36180.39
615.693	36253.83
616.05	36315.98
616.406	36683.2
616.762	36746.93
617.118	36937.66
617.475	37008.17
617.831	37453.13
618.187	37509.85
618.543	37804.08
618.899	38096.05
619.255	38088.36
619.611	38155.25
619.967	38545.75
620.323	38658.97
620.678	38748.68
621.034	38501.01
621.39	38653.32
621.746	38741.23
622.101	39244.49
622.457	38988
622.812	39011.28
623.168	39162.23
623.523	39168.56
623.879	39287.43
624.234	39050.82
624.589	39238.16
624.945	39345.96
625.3	39408.1
625.655	39384.83
626.01	39630.02
626.365	39662.56
626.72	39668.21
627.075	39742.1
627.43	39794.53
627.785	39853.74
628.14	40112.04
628.495	40166.95
628.85	40176.9
629.205	40176.67
629.559	40420.28
629.914	40405.14
630.269	40412.14
630.623	40313.62
630.978	40337.34
631.332	40532.37
631.687	40510.45
632.041	40267.06
632.396	40411.92
632.75	40093.96
633.104	40320.85
633.459	40005.83
633.813	40031.14
634.167	39943.23
634.521	40025.04
634.875	39917.02
635.229	40095.54
635.583	39796.57
635.937	39855.32
636.291	39907.98
636.645	39870.91
636.999	39818.49
637.352	40047.41
637.706	39835.66
638.06	40069.78
638.413	40034.98
638.767	39991.59
639.121	39987.97
639.474	39882.44
639.828	39948.88
640.181	40082.66
640.534	40135.99
640.888	39941.42
641.241	39867.07
641.594	39886.28
641.947	40004.47
642.301	39857.58
642.654	39840.86
643.007	39739.39
643.36	39670.92
643.713	39557.93
644.066	39786.85
644.419	39382.11
644.771	39166.07
645.124	38734
645.477	38513.66
645.83	38487
646.182	38255.82
646.535	38120.9
646.888	38283.16
647.24	38131.98
647.593	38406.32
647.945	38395.93
648.298	38240.22
648.65	38256.72
649.002	38092.88
649.355	38378.75
649.707	38212.88
650.059	38441.8
650.411	38936.93
650.763	38945.52
651.115	39213.76
651.467	39357.93
651.819	39078.17
652.171	39108.9
652.523	38892.41
652.875	38904.39
653.227	38736.71
653.578	38951.39
653.93	38830.49
654.282	38614.9
654.633	38418.75
654.985	38563.38
655.337	38479.99
655.688	38462.36
656.039	38540.55
656.391	38215.82
656.742	38264.4
657.094	38382.82
657.445	38458.97
657.796	38305.76
658.147	38427.34
658.498	38413.78
658.849	38613.55
659.2	38422.59
659.551	38345.31
659.902	38616.26
660.253	38331.52
660.604	38543.72
660.955	38542.81
661.306	38621.46
661.656	38658.07
662.007	38448.81
662.358	38564.96
662.708	38475.7
663.059	38408.58
663.409	38348.02
663.76	38384.63
664.11	38384.17
664.461	38296.27
664.811	38308.02
665.161	38283.61
665.511	38084.07
665.862	38000
666.212	38152.99
666.562	38116.38
666.912	38071.41
667.262	37769.95
667.612	37842.04
667.962	37903.28
668.312	37712.78
668.662	37942.15
669.011	37888.82
669.361	37679.33
669.711	37835.71
670.06	37953.23
670.41	37881.59
670.76	37790.07
671.109	37966.78
671.459	37831.42
671.808	37872.32
672.157	38102.15
672.507	37924.98
672.856	37971.08
673.205	37939.44
673.554	38125.2
673.904	37818.99
674.253	38116.61
674.602	37910.74
674.951	37292.68
675.3	37223.3
675.649	37799.1
675.998	37585.1
676.346	37626.23
676.695	37555.04
677.044	37342.62
677.393	37313.92
677.741	37350.08
678.09	37279.57
678.438	37239.57
678.787	37370.19
679.135	37154.15
679.484	36990.99
679.832	36982.18
680.181	36832.8
680.529	36995.28
680.877	36883.87
681.225	36921.84
681.573	37223.07
681.922	36861.73
682.27	36848.4
682.618	36828.51
682.966	36662.19
683.314	36975.17
683.661	36890.65
684.009	36709.19
684.357	36653.82
684.705	36697.89
685.053	36613.6
685.4	36584.9
685.748	36436.65
686.095	36492.25
686.443	36404.11
686.79	36243.21
687.138	36200.05
687.485	36287.05
687.832	36047.29
688.18	36048.87
688.527	35666.05
688.874	35822.66
689.221	35595.32
689.568	35467.87
689.915	35226.29
690.262	35375.21
690.609	35094.32
690.956	35096.58
691.303	35060.87
691.65	34847.32
691.997	34806.64
692.344	34603.93
692.69	34685.74
693.037	34744.04
693.383	34416.14
693.73	34699.75
694.077	34406.65
694.423	34427.89
694.769	34475.58
695.116	34429.7
695.462	34289.82
695.808	34342.7
696.155	34269.25
696.501	34207.79
696.847	34067
697.193	33866.33
697.539	34026.77
697.885	33791.53
698.231	33710.4
698.577	33723.73
698.923	33707.24
699.269	33460.91
699.614	33235.84
699.96	33127.14
700.306	33138.66
700.651	32970.98
700.997	32948.39
701.342	32752.91
701.688	32653.25
702.033	32418.91
702.379	32506.14
702.724	32397.67
703.069	32352.69
703.415	31934.85
703.76	32084.45
704.105	32025.92
704.45	31974.63
704.795	31791.35
705.14	31747.06
705.485	31691.47
705.83	31545.71
706.175	31784.12
706.52	31560.4
706.865	31437.69
707.209	31473.62
707.554	31486.28
707.899	31477.92
708.243	31296.68
708.588	31317.24
708.932	31172.61
709.277	31236.11
709.621	31108.43
709.966	30924.26
710.31	31005.39
710.654	30699.86
710.998	30885.84
711.342	30815.79
711.687	30684.26
712.031	30555.45
712.375	30384.84
712.719	30454.21
713.063	30337.83
713.407	30356.81
713.75	30068.23
714.094	30124.28
714.438	29944.4
714.782	29956.6
715.125	29710.73
715.469	29774.91
715.812	29712.31
716.156	29567.46
716.499	29519.32
716.843	29540.79
717.186	29364.98
717.53	29356.62
717.873	29548.25
718.216	29393
718.559	29294.02
718.902	29154.13
719.246	29150.07
719.589	29052.22
719.932	29094.48
720.275	29190.07
720.617	29005.44
720.96	29071.2
721.303	29171.08
721.646	29122.05
721.989	28891.09
722.331	28983.97
722.674	28983.97
723.016	28950.98
723.359	28807.48
723.701	28829.4
724.044	28610.42
724.386	28568.84
724.729	28715.5
725.071	28472.8
725.413	28519.12
725.755	28363.42
726.097	28266.02
726.439	28241.84
726.782	28130.43
727.124	28253.14
727.465	27989.19
727.807	28066.25
728.149	27816.77
728.491	27810.44
728.833	27798.01
729.175	27656.55
729.516	27493.61
729.858	27570.67
730.199	27481.86
730.541	27470.56
730.882	27416.78
731.224	27512.82
731.565	27311.92
731.906	27519.6
732.248	27465.82
732.589	27201.19
732.93	27337.46
733.271	27255.65
733.612	27336.33
733.953	27436.67
734.294	27214.3
734.635	27203.45
734.976	27192.83
735.317	27210.46
735.658	27255.88
735.999	27179.95
736.339	27119.39
736.68	27216.56
737.021	27179.72
737.361	26926.62
737.702	27047.07
738.042	26877.36
738.383	26897.92
738.723	26928.2
739.063	26886.4
739.404	26977.92
739.744	26641.43
740.084	26580.87
740.424	26560.98
740.764	26517.59
741.104	26564.6
741.444	26305.4
741.784	26375
742.124	26311.95
742.464	26160.31
742.804	26027.89
743.143	26036.7
743.483	26011.62
743.823	25877.38
744.162	26003.26
744.502	25881.45
744.841	25747.67
745.181	26001.45
745.52	25761.91
745.86	25854.33
746.199	25683.27
746.538	25886.65
746.877	25729.37
747.216	25846.2
747.556	25704.06
747.895	25788.35
748.234	25647.11
748.573	25577.05
748.911	25599.43
749.25	25704.28
749.589	25518.3
749.928	25673.32
750.267	25568.92
750.605	25479.43
750.944	25475.36
751.283	25262.03
751.621	25299.55
751.96	25184.3
752.298	25174.8
752.636	25170.74
752.975	24942.72
753.313	24938.43
753.651	24961.48
753.989	24830.86
754.327	24813.46
754.666	24699.56
755.004	24655.95
755.342	24602.39
755.679	24559
756.017	24326.01
756.355	24323.75
756.693	24322.17
757.031	24297.09
757.368	24017.09
757.706	24024.78
758.044	24008.73
758.381	23893.03
758.719	23821.62
759.056	23840.6
759.394	23827.49
759.731	23560.38
760.068	23638.57
760.405	23549.76
760.743	23477.67
761.08	23581.17
761.417	23531.68
761.754	23486.94
762.091	23496.88
762.428	23358.81
762.765	23201.52
763.102	23325.81
763.438	23235.87
763.775	23001.53
764.112	23126.04
764.449	23213.27
764.785	22937.35
765.122	22932.15
765.458	22848.09
765.795	22728.99
766.131	22831.59
766.467	22742.33
766.804	22587.75
767.14	22464.37
767.476	22438.15
767.812	22394.09
768.148	22303.02
768.485	22195.45
768.821	21994.77
769.157	22015.34
769.492	21875.68
769.828	21865.74
770.164	21599.08
770.5	21548.91
770.836	21557.72
771.171	21429.59
771.507	21317.73
771.842	21121.13
772.178	21246.77
772.513	21050.62
772.849	20915.93
773.184	20887.46
773.519	20912.09
773.855	20764.98
774.19	20567.69
774.525	20725.88
774.86	20579.22
775.195	20590.29
775.53	20562.5
775.865	20352.33
776.2	20249.51
776.535	20208.38
776.87	20225.56
777.205	20152.79
777.539	20000.25
777.874	20162.96
778.209	19918.22
778.543	19864.21
778.878	19876.19
779.212	19809.97
779.547	19729.75
779.881	19836.19
780.215	19671.22
780.55	19671.67
780.884	19519.59
781.218	19455.63
781.552	19553.48
781.886	19368.86
782.22	19245.02
782.554	19151.01
782.888	19012.03
783.222	18888.42
783.556	18921.41
783.889	18754.41
784.223	18677.57
784.557	18581.98
784.89	18643.22
785.224	18447.98
785.557	18318.04
785.891	18360.52
786.224	18301.09
786.558	18180.86
786.891	18043.47
787.224	18004.15
787.557	17950.14
787.891	17841.89
788.224	17823.36
788.557	17724.15
788.89	17758.28
789.223	17731.16
789.556	17510.37
789.888	17521.9
790.221	17474.44
790.554	17385.63
790.887	17387.44
791.219	17301.11
791.552	17251.17
791.884	17255.01
792.217	17173.21
792.549	17135.69
792.882	17089.59
793.214	16935.7
793.546	16948.58
793.879	16796.49
794.211	16895.02
794.543	16751.97
794.875	16811.41
795.207	16906.1
795.539	16745.65
795.871	16754.23
796.203	16576.61
796.535	16543.62
796.867	16493
797.198	16442.83
797.53	16400.8
797.862	16335.71
798.193	16397.86
798.525	16266.34
798.856	16235.6
799.188	16098.43
799.519	16071.31
799.85	15936.4
800.182	15966.91
800.513	15779.12
800.844	15773.92
801.175	15731.66
801.506	15781.6
801.837	15626.58
802.168	15650.08
802.499	15536.41
802.83	15502.74
803.161	15369.19
803.491	15392.46
803.822	15369.86
804.153	15276.76
804.483	15114.5
804.814	15119.02
805.145	15084.22
805.475	15041.96
805.805	15007.61
806.136	14957.9
806.466	14916.32
806.796	14907.28
807.126	14846.49
807.457	14838.8
807.787	14740.95
808.117	14667.28
808.447	14720.62
808.777	14711.12
809.107	14633.16
809.436	14671.35
809.766	14706.15
810.096	14617.79
810.426	14547.51
810.755	14557.91
811.085	14556.78
811.414	14458.93
811.744	14425.71
812.073	14314.52
812.403	14423.9
812.732	14384.81
813.061	14352.26
813.39	14335.54
813.719	14244.47
814.049	14308.65
814.378	14184.58
814.707	14129.9
815.036	14078.6
815.365	14071.59
815.693	13934.65
816.022	13865.27
816.351	13857.81
816.68	13754.09
817.008	13854.88
817.337	13717.93
817.665	13716.57
817.994	13740.08
818.322	13581.89
818.651	13580.08
818.979	13478.16
819.307	13653.3
819.636	13476.81
819.964	13380.99
820.292	13367.88
820.62	13363.82
820.948	13284.72
821.276	13363.36
821.604	13334.66
821.932	13382.35
822.259	13386.19
822.587	13326.08
822.915	13263.7
823.243	13302.12
823.57	13271.84
823.898	13362.91
824.225	13308.45
824.553	13254.89
824.88	13213.54
825.207	13337.83
825.535	13245.63
825.862	13330.14
826.189	13277.49
826.516	13361.33
826.843	13386.41
827.17	13343.25
827.497	13354.78
827.824	13438.62
828.151	13404.27
828.478	13408.79
828.805	13479.07
829.131	13397.49
829.458	13325.85
829.785	13410.59
830.111	13384.15
830.438	13544.38
830.764	13433.64
831.09	13362.46
831.417	13326.98
831.743	13360.65
832.069	13433.42
832.395	13331.95
832.722	13329.92
833.048	13286.3
833.374	13240.88
833.7	13225.74
834.026	13350.26
834.351	13215.12
834.677	13218.73
835.003	13204.72
835.329	13145.29
835.654	13074.56
835.98	12974.67
836.306	13026.87
836.631	13021.23
836.956	13069.59
837.282	12988.68
837.607	12897.84
837.932	12890.38
838.258	12878.18
838.583	12841.12
838.908	12786.2
839.233	12797.73
839.558	12733.55
839.883	12744.85
840.208	12754.57
840.533	12761.8
840.858	12761.35
841.182	12671.86
841.507	12673.44
841.832	12620.33
842.156	12581.24
842.481	12525.87
842.805	12569.03
843.13	12533.78
843.454	12551.86
843.778	12527.91
844.103	12489.94
844.427	12426.44
844.751	12474.12
845.075	12440.45
845.399	12436.83
845.723	12390.28
846.047	12402.94
846.371	12199.78
846.695	12288.82
847.019	12175.6
847.343	12201.36
847.666	12093.34
847.99	11988.03
848.313	12102.61
848.637	12050.86
848.96	12002.27
849.284	11903.97
849.607	11861.03
849.931	11796.85
850.254	11708.49
850.577	11661.71
850.9	11594.6
851.223	11635.27
851.546	11548.27
851.869	11448.61
852.192	11490.87
852.515	11403.87
852.838	11300.59
853.161	11335.62
853.483	11231.89
853.806	11168.17
854.129	11138.11
854.451	11078.68
854.774	11002.75
855.096	11013.37
855.419	10943.99
855.741	10931.11
856.063	10841.85
856.385	10862.64
856.708	10755.3
857.03	10785.8
857.352	10753.26
857.674	10733.6
857.996	10686.37
858.318	10593.94
858.64	10597.56
858.961	10607.96
859.283	10517.79
859.605	10479.82
859.926	10498.81
860.248	10477.11
860.57	10507.39
860.891	10433.04
861.212	10391.92
861.534	10437.11
861.855	10364.35
862.176	10330
862.498	10342.2
862.819	10326.61
863.14	10336.1
863.461	10295.65
863.782	10256.78
864.103	10334.52
864.424	10260.39
864.745	10273.95
865.065	10226.95
865.386	10195.09
865.707	10221.07
866.027	10217.23
866.348	10184.24
866.668	10167.52
866.989	10202.32
867.309	10072.38
867.63	10156.89
867.95	10131.36
868.27	10036.45
868.59	10121.87
868.91	10038.48
869.23	10090
869.55	9967.97
869.87	10070.79
870.19	9991.7
870.51	9917.8
870.83	9993.96
871.15	9956
871.469	9926.84
871.789	9944.92
872.109	9831.03
872.428	9786.51
872.748	9849.56
873.067	9737.24
873.386	9767.3
873.706	9730.92
874.025	9776.34
874.344	9650.47
874.663	9699.28
874.982	9661.99
875.301	9638.26
875.62	9555.55
875.939	9524.82
876.258	9588.1
876.577	9548.77
876.896	9508.55
877.214	9510.81
877.533	9530.92
877.852	9434.2
878.17	9501.54
878.489	9416.12
878.807	9420.87
879.125	9386.97
879.444	9347.65
879.762	9323.47
880.08	9312.85
880.398	9395.56
880.716	9343.13
881.034	9312.85
881.352	9281.66
881.67	9303.58
881.988	9304.49
882.306	9266.07
882.624	9246.64
882.941	9223.81
883.259	9222.68
883.577	9200.53
883.894	9219.97
884.212	9184.72
884.529	9240.99
884.846	9187.2
885.164	9156.92
885.481	9060.88
885.798	9132.51
886.115	9029.92
886.432	9133.42
886.75	8935.91
887.067	9035.12
887.383	8979.52
887.7	9081.89
888.017	8955.12
888.334	8996.25
888.651	8995.57
888.967	8903.37
889.284	8897.04
889.6	8802.35
889.917	8734.78
890.233	8787.89
890.55	8709.25
890.866	8767.33
891.182	8750.38
891.498	8643.94
891.815	8600.55
892.131	8627.22
892.447	8573.43
892.763	8567.33
893.079	8572.3
893.395	8549.93
893.71	8412.76
894.026	8408.01
894.342	8420.22
894.657	8369.37
894.973	8392.42
895.289	8312.87
895.604	8292.99
895.92	8298.64
896.235	8212.31
896.55	8217.74
896.865	8192.2
897.181	8164.4
897.496	8114.01
897.811	8025.88
898.126	8068.36
898.441	7988.14
898.756	8058.87
899.071	7976.39
899.386	7977.97
899.7	7861.59
900.015	7862.04
900.33	7848.71
900.644	7858.65
900.959	7844.41
901.273	7811.64
901.588	7759.22
901.902	7726.45
902.216	7741.36
902.531	7701.37
902.845	7666.79
903.159	7632.44
903.473	7629.73
903.787	7560.58
904.101	7565.78
904.415	7570.52
904.729	7491.65
905.042	7465.67
905.356	7458.43
905.67	7457.76
905.984	7461.15
906.297	7416.85
906.611	7430.41
906.924	7356.97
907.237	7280.13
907.551	7276.74
907.864	7277.87
908.177	7304.99
908.491	7242.62
908.804	7168.95
909.117	7142.96
909.43	7141.38
909.743	7078.1
910.056	7117.88
910.368	7039.01
910.681	7060.48
910.994	6961.72
911.307	6923.98
911.619	6883.99
911.932	6946.36
912.244	6897.32
912.557	6854.38
912.869	6781.16
913.181	6763.99
913.494	6726.25
913.806	6685.12
914.118	6645.8
914.43	6640.6
914.742	6611.22
915.054	6565.12
915.366	6545.46
915.678	6447.16
915.99	6472.25
916.302	6425.92
916.613	6433.15
916.925	6404.9
917.236	6352.93
917.548	6321.51
917.859	6272.02
918.171	6272.93
918.482	6274.74
918.794	6196.32
919.105	6228.86
919.416	6163.1
919.727	6155.42
920.038	6112.71
920.349	6086.27
920.66	6046.04
920.971	6032.48
921.282	6039.26
921.593	6010.79
921.903	5940.73
922.214	5923.11
922.525	5937.34
922.835	5883.79
923.146	5863.9
923.456	5862.32
923.767	5838.82
924.077	5804.24
924.387	5838.82
924.697	5786.39
925.008	5808.53
925.318	5730.57
925.628	5745.03
925.938	5710.68
926.248	5658.48
926.558	5688.08
926.867	5589.33
927.177	5623.68
927.487	5602.44
927.796	5525.83
928.106	5616
928.416	5533.74
928.725	5493.06
929.034	5471.82
929.344	5491.48
929.653	5435.66
929.962	5418.94
930.271	5405.83
930.581	5378.04
930.89	5322.22
931.199	5289.23
931.508	5301.43
931.817	5281.32
932.125	5254.65
932.434	5223.92
932.743	5181.43
933.051	5153.86
933.36	5167.19
933.669	5129.46
933.977	5130.13
934.286	5098.72
934.594	5067.99
934.902	4990.02
935.21	5034.77
935.519	4962.23
935.827	5001.78
936.135	4935.56
936.443	4867.99
936.751	4877.48
937.059	4869.58
937.367	4820.31
937.674	4816.02
937.982	4835
938.29	4788.22
938.597	4729.92
938.905	4749.35
939.213	4680.2
939.52	4685.85
939.827	4644.27
940.135	4641.78
940.442	4632.97
940.749	4636.36
941.056	4609.7
941.363	4566.53
941.67	4563.82
941.977	4524.73
942.284	4501
942.591	4483.82
942.898	4448.34
943.205	4491.73
943.511	4462.13
943.818	4388.46
944.125	4396.37
944.431	4411.96
944.738	4357.5
945.044	4377.61
945.35	4355.69
945.657	4364.73
945.963	4310.72
946.269	4289.25
946.575	4306.88
946.881	4260.55
947.187	4242.02
947.493	4243.15
947.799	4208.12
948.105	4188.24
948.41	4185.3
948.716	4154.79
949.022	4136.71
949.327	4115.02
949.633	4113.21
949.938	4101.69
950.244	4124.06
950.549	4085.42
950.854	4076.15
951.16	4048.58
951.465	4009.03
951.77	3990.5
952.075	4043.83
952.38	3947.34
952.685	3925.19
952.99	3908.02
953.294	3868.25
953.599	3912.99
953.904	3851.3
954.209	3840.22
954.513	3840.22
954.818	3812.2
955.122	3818.53
955.426	3774.24
955.731	3785.99
956.035	3749.6
956.339	3776.5
956.643	3705.76
956.948	3685.65
957.252	3693.56
957.556	3710.28
957.86	3667.57
958.163	3661.7
958.467	3646.56
958.771	3621.7
959.075	3600.91
959.378	3581.93
959.682	3546.67
959.985	3559.55
960.289	3503.51
960.592	3487.92
960.896	3514.81
961.199	3482.72
961.502	3439.56
961.805	3472.32
962.108	3466.45
962.411	3427.58
962.714	3426
963.017	3379.67
963.32	3376.28
963.623	3352.33
963.926	3332.44
964.228	3329.5
964.531	3280.24
964.833	3308.03
965.136	3272.56
965.438	3308.94
965.741	3233.46
966.043	3213.35
966.345	3292.89
966.648	3214.48
966.95	3206.34
967.252	3166.8
967.554	3180.81
967.856	3148.72
968.158	3146
968.46	3109.85
968.761	3104.42
969.063	3125.89
969.365	3112.79
969.666	3083.18
969.968	3053.58
970.269	3003.64
970.571	3049.51
970.872	3010.64
971.174	3039.12
971.475	3033.47
971.776	2992.79
972.077	2971.32
972.378	2988.27
972.679	2974.26
972.98	2963.18
973.281	2940.36
973.582	2894.03
973.883	2922.28
974.183	2916.18
974.484	2939.68
974.785	2874.83
975.085	2896.97
975.386	2885.67
975.686	2841.15
975.986	2860.59
976.287	2853.58
976.587	2816.52
976.887	2814.04
977.187	2797.31
977.487	2779.91
977.787	2779.23
978.087	2777.43
978.387	2745.79
978.687	2724.77
978.987	2690.42
979.286	2679.12
979.586	2706.69
979.885	2687.71
980.185	2664.44
980.484	2639.58
980.784	2628.28
981.083	2656.98
981.382	2622.18
981.682	2613.36
981.981	2602.97
982.28	2612.01
982.579	2573.14
982.878	2570.2
983.177	2560.03
983.475	2532.24
983.774	2512.12
984.073	2500.15
984.372	2492.46
984.67	2477.55
984.969	2461.05
985.267	2476.42
985.566	2453.82
985.864	2427.15
986.162	2438.23
986.461	2428.74
986.759	2405.91
987.057	2388.28
987.355	2372.01
987.653	2353.94
987.951	2372.92
988.249	2347.83
988.547	2334.95
988.844	2323.65
989.142	2334.27
989.44	2300.6
989.737	2274.16
990.035	2282.07
990.332	2272.13
990.63	2243.2
990.927	2229.87
991.224	2241.85
991.521	2225.13
991.819	2226.48
992.116	2219.25
992.413	2172.47
992.71	2227.84
993.006	2191.23
993.303	2175.18
993.6	2177.22
993.897	2178.12
994.193	2135.41
994.49	2125.92
994.787	2155.97
995.083	2129.99
995.379	2142.64
995.676	2115.07
995.972	2073.04
996.268	2090.89
996.565	2066.94
996.861	2065.81
997.157	2043.89
997.453	2058.8
997.749	2047.28
998.044	2035.98
998.34	2021.29
998.636	2020.16
998.932	1978.8
999.227	1985.36
999.523	1980.39
999.818	1950.1
1000.114	2004.79
1000.409	1941.97
1000.704	1948.75
1001	1920.05
1001.295	1926.15
1001.59	1939.26
1001.885	1922.99
1002.18	1914.62
1002.475	1858.81
1002.77	1888.41
1003.065	1868.98
1003.359	1865.13
1003.654	1848.86
1003.949	1833.5
1004.243	1843.89
1004.538	1813.84
1004.832	1802.76
1005.127	1805.48
1005.421	1776.32
1005.715	1745.59
1006.009	1793.72
1006.304	1742.43
1006.598	1735.87
1006.892	1734.06
1007.186	1735.87
1007.48	1720.73
1007.773	1698.36
1008.067	1694.29
1008.361	1718.02
1008.655	1654.74
1008.948	1671.24
1009.242	1665.14
1009.535	1646.38
1009.829	1626.5
1010.122	1626.72
1010.415	1628.53
1010.708	1604.35
1011.001	1586.95
1011.295	1577.23
1011.588	1589.89
1011.881	1580.85
1012.173	1570.68
1012.466	1543.79
1012.759	1546.05
1013.052	1544.47
1013.344	1544.69
1013.637	1529.1
1013.93	1545.82
1014.222	1518.48
1014.514	1484.58
1014.807	1484.58
1015.099	1468.53
1015.391	1453.39
1015.683	1469.21
1015.976	1451.36
1016.268	1451.13
1016.56	1419.04
1016.851	1452.72
1017.143	1443
1017.435	1379.72
1017.727	1385.37
1018.018	1401.87
1018.31	1399.84
1018.602	1399.84
1018.893	1353.51
1019.185	1382.89
1019.476	1344.02
1019.767	1342.21
1020.058	1335.21
1020.35	1329.1
1020.641	1304.7
1020.932	1327.97
1021.223	1307.18
1021.514	1292.72
1021.804	1301.53
1022.095	1285.71
1022.386	1246.85
1022.677	1273.06
1022.967	1268.54
1023.258	1245.94
1023.548	1233.74
1023.839	1209.33
1024.129	1214.76
1024.419	1222.89
1024.709	1204.14
1025	1220.63
1025.29	1208.88
1025.58	1188.32
1025.87	1164.36
1026.16	1179.95
1026.449	1184.25
1026.739	1161.88
1027.029	1176.34
1027.319	1126.62
1027.608	1135.89
1027.898	1139.96
1028.187	1142.67
1028.477	1124.59
1028.766	1114.65
1029.055	1122.56
1029.344	1078.26
1029.634	1100.86
1029.923	1099.05
1030.212	1052.5
1030.501	1076.91
1030.79	1063.35
1031.078	1049.56
1031.367	1057.02
1031.656	1023.12
1031.945	1019.96
1032.233	1028.77
1032.522	993.29
1032.81	1029
1033.099	1017.02
1033.387	1016.34
1033.675	986.29
1033.963	994.42
1034.251	977.7
1034.54	973.63
1034.828	980.19
1035.116	980.19
1035.403	960.98
1035.691	966.4
1035.979	952.39
1036.267	934.54
1036.554	934.09
1036.842	940.87
1037.129	934.54
1037.417	910.36
1037.704	935.89
1037.992	892.96
1038.279	902.67
1038.566	891.83
1038.853	891.83
1039.14	891.83
