Data from red_shiny_book_FLMS001491_00039.txt Node
Date: Wed Feb 08 15:24:47 GMT 2017
User: dcchb
Spectrometer: FLMS00149
Trigger mode: 0
Integration Time (sec): 2.000000E-2
Scans to average: 10
Electric dark correction enabled: true
Nonlinearity correction enabled: false
Boxcar width: 0
XAxis mode: Wavelengths
Number of Pixels in Spectrum: 2048
>>>>>Begin Spectral Data<<<<<
341.393	-2.23
341.776	-2.23
342.16	-2.23
342.543	-57.6
342.927	-65.51
343.31	-53.98
343.693	-61.89
344.077	-55.34
344.46	-63.02
344.843	-47.65
345.226	-65.28
345.61	-25.28
345.993	-25.96
346.376	-10.59
346.759	16.52
347.142	26.47
347.525	36.19
347.908	55.39
348.291	87.71
348.674	97.43
349.057	89.29
349.44	124.32
349.823	144.66
350.206	169.97
350.588	194.6
350.971	225.11
351.354	239.12
351.737	243.19
352.119	230.08
352.502	267.59
352.884	275.05
353.267	277.54
353.65	303.52
354.032	293.81
354.414	300.36
354.797	327.48
355.179	327.7
355.562	327.48
355.944	325.9
356.326	337.42
356.709	343.07
357.091	340.36
357.473	338.78
357.855	352.79
358.238	343.07
358.62	348.49
359.002	337.65
359.384	350.98
359.766	374.03
360.148	352.56
360.53	342.84
360.912	353.24
361.294	343.52
361.676	333.8
362.057	363.41
362.439	338.55
362.821	333.58
363.203	322.51
363.584	328.83
363.966	332.45
364.348	345.33
364.729	350.75
365.111	332.67
365.493	332
365.874	344.2
366.256	314.14
366.637	302.62
367.019	329.06
367.4	336.74
367.781	323.64
368.163	327.25
368.544	319.34
368.925	330.64
369.306	340.13
369.688	308.49
370.069	332.45
370.45	330.42
370.831	341.04
371.212	327.25
371.593	306.01
371.974	296.52
372.355	323.64
372.736	324.54
373.117	310.98
373.498	328.16
373.879	315.05
374.26	337.19
374.641	346.91
375.021	331.09
375.402	315.95
375.783	333.35
376.163	343.52
376.544	333.8
376.925	331.32
377.305	325.9
377.686	317.76
378.066	331.54
378.447	340.13
378.827	347.59
379.208	352.79
379.588	326.35
379.968	365.89
380.349	346.23
380.729	338.78
381.109	351.43
381.489	345.1
381.87	355.95
382.25	341.49
382.63	350.08
383.01	342.17
383.39	355.73
383.77	350.98
384.15	335.16
384.53	349.85
384.91	339.91
385.29	346.23
385.67	360.92
386.049	360.7
386.429	363.86
386.809	372.45
387.189	384.42
387.568	378.55
387.948	375.61
388.328	385.1
388.707	348.95
389.087	351.21
389.466	388.49
389.846	373.35
390.225	361.83
390.605	359.11
390.984	376.74
391.363	352.11
391.743	372
392.122	360.92
392.501	376.97
392.881	355.05
393.26	392.79
393.639	372
394.018	370.19
394.397	399.79
394.776	393.46
395.155	390.98
395.534	394.14
395.913	390.98
396.292	383.52
396.671	403.18
397.05	379.68
397.429	375.39
397.808	405.44
398.186	397.08
398.565	396.4
398.944	406.12
399.323	402.73
399.701	393.69
400.08	397.76
400.458	411.99
400.837	402.96
401.215	417.19
401.594	397.31
401.972	404.31
402.351	410.86
402.729	410.41
403.107	429.4
403.486	415.61
403.864	415.38
404.242	413.12
404.62	421.71
404.999	414.71
405.377	407.48
405.755	430.53
406.133	432.79
406.511	424.42
406.889	430.3
407.267	449.73
407.645	444.31
408.023	445.89
408.401	432.11
408.779	449.73
409.156	453.35
409.534	462.16
409.912	452.9
410.29	458.55
410.667	468.49
411.045	487.93
411.422	466
411.8	448.83
412.178	480.24
412.555	481.15
412.933	494.03
413.31	477.3
413.687	503.07
414.065	504.87
414.442	490.64
414.819	501.71
415.197	502.16
415.574	523.4
415.951	503.29
416.328	530.18
416.705	514.14
417.082	508.26
417.46	532.44
417.837	577.19
418.214	524.08
418.591	531.09
418.967	530.86
419.344	557.75
419.721	537.87
420.098	543.74
420.475	552.56
420.852	561.82
421.228	551.2
421.605	565.89
421.982	556.4
422.358	574.25
422.735	574.93
423.111	562.05
423.488	599.56
423.864	583.06
424.241	596.17
424.617	612.22
424.994	597.98
425.37	571.54
425.746	599.56
426.123	591.2
426.499	617.19
426.875	608.6
427.251	583.06
427.627	604.76
428.003	615.38
428.379	627.36
428.756	616.06
429.132	637.07
429.507	645.89
429.883	647.24
430.259	666
430.635	658.32
431.011	646.56
431.387	664.42
431.763	666
432.138	670.52
432.514	667.58
432.89	661.93
433.265	645.66
433.641	702.83
434.016	680.01
434.392	713.46
434.767	705.77
435.143	707.58
435.518	700.8
435.894	724.98
436.269	731.53
436.644	713.46
437.02	738.77
437.395	728.37
437.77	742.83
438.145	761.36
438.52	778.54
438.895	771.08
439.271	750.29
439.646	774.7
440.021	776.73
440.395	775.83
440.77	762.27
441.145	773.12
441.52	775.38
441.895	796.17
442.27	785.77
442.645	809.27
443.019	793.23
443.394	796.17
443.769	809.27
444.143	816.73
444.518	817.41
444.892	825.09
445.267	816.28
445.641	826.45
446.016	816.05
446.39	801.59
446.764	835.03
447.139	821.25
447.513	849.72
447.887	853.34
448.262	827.13
448.636	833.9
449.01	857.41
449.384	852.66
449.758	860.34
450.132	869.38
450.506	860.8
450.88	879.33
451.254	864.64
451.628	848.14
452.002	890.17
452.376	872.55
452.75	889.72
453.123	873
453.497	901.02
453.871	916.39
454.244	914.58
454.618	931.08
454.992	921.36
455.365	916.16
455.739	933.34
456.112	945.54
456.486	922.26
456.859	908.25
457.232	955.71
457.606	937.4
457.979	918.42
458.352	973.11
458.725	999.55
459.099	976.05
459.472	981.7
459.845	976.95
460.218	964.3
460.591	977.18
460.964	993.67
461.337	985.09
461.71	1017.18
462.083	1019.44
462.456	1036.16
462.829	1019.21
463.201	1037.97
463.574	1043.62
463.947	1056.5
464.32	1058.98
464.692	1063.5
465.065	1061.7
465.438	1071.64
465.81	1057.63
466.183	1085.2
466.555	1097.4
466.928	1130.39
467.3	1106.44
467.672	1129.26
468.045	1125.2
468.417	1155.93
468.789	1153.22
469.161	1156.38
469.534	1183.5
469.906	1184.63
470.278	1185.31
470.65	1164.07
471.022	1199.09
471.394	1211.97
471.766	1205.42
472.138	1227.57
472.51	1256.49
472.882	1264.4
473.253	1279.09
473.625	1299.2
473.997	1321.8
474.369	1298.3
474.74	1323.16
475.112	1325.42
475.484	1325.87
475.855	1375.36
476.227	1350.5
476.598	1368.58
476.97	1361.57
477.341	1429.37
477.713	1449.26
478.084	1439.09
478.455	1497.16
478.827	1500.33
479.198	1541.91
479.569	1532.42
479.94	1585.52
480.311	1546.88
480.682	1604.05
481.053	1587.78
481.424	1643.15
481.795	1637.5
482.166	1652.19
482.537	1684.05
482.908	1720.89
483.279	1725.86
483.65	1746.2
484.021	1814.67
484.391	1846.31
484.762	1831.39
485.133	1892.41
485.503	1885.18
485.874	1901.45
486.244	1911.84
486.615	1928.79
486.985	1940.54
487.356	1974.67
487.726	2026.42
488.097	2028.45
488.467	2054.44
488.837	2087.66
489.207	2115.45
489.578	2164.27
489.948	2175.56
490.318	2212.85
490.688	2263.47
491.058	2226.86
491.428	2247.43
491.798	2310.48
492.168	2309.57
492.538	2311.83
492.908	2303.24
493.278	2316.13
493.648	2347.76
494.017	2404.26
494.387	2408.78
494.757	2433.41
495.126	2503.92
495.496	2519.96
495.866	2541.66
496.235	2563.12
496.605	2592.95
496.974	2585.72
497.344	2568.55
497.713	2607.64
498.082	2578.49
498.452	2585.72
498.821	2628.21
499.19	2577.14
499.559	2627.3
499.928	2665.95
500.298	2681.77
500.667	2723.57
501.036	2760.41
501.405	2761.09
501.774	2815.77
502.143	2788.2
502.512	2813.74
502.88	2810.35
503.249	2787.75
503.618	2802.44
503.987	2768.32
504.356	2805.15
504.724	2752.05
505.093	2779.16
505.462	2799.73
505.83	2779.16
506.199	2805.15
506.567	2917.69
506.936	2879.95
507.304	2953.85
507.672	2951.59
508.041	2975.32
508.409	2973.06
508.777	3006.73
509.145	2988.2
509.514	2952.27
509.882	2954.75
510.25	2926.5
510.618	2901.19
510.986	2938.03
511.354	2927.63
511.722	2957.92
512.09	2980.06
512.458	2969.89
512.826	3005.6
513.193	3060.06
513.561	3052.83
513.929	3093.05
514.297	3148.42
514.664	3135.54
515.032	3118.36
515.4	3108.42
515.767	3131.02
516.135	3056.9
516.502	3050.8
516.869	3062.32
517.237	3063
517.604	3026.62
517.972	3065.94
518.339	3089.66
518.706	3080.85
519.073	3078.14
519.44	3167.85
519.808	3205.37
520.175	3204.69
520.542	3238.81
520.909	3268.64
521.276	3285.14
521.643	3290.34
522.009	3276.78
522.376	3312.48
522.743	3262.09
523.11	3229.55
523.477	3230.68
523.843	3258.47
524.21	3240.4
524.577	3248.76
524.943	3271.13
525.31	3333.27
525.676	3412.37
526.043	3392.71
526.409	3477.22
526.776	3540.05
527.142	3516.09
527.508	3595.19
527.874	3624.34
528.241	3631.35
528.607	3612.36
528.973	3612.36
529.339	3616.88
529.705	3578.01
530.071	3575.75
530.437	3575.08
530.803	3570.56
531.169	3628.41
531.535	3599.71
531.901	3665.69
532.267	3695.07
532.632	3756.99
532.998	3810.32
533.364	3858.46
533.73	3901.62
534.095	3970.77
534.461	4026.14
534.826	4000.38
535.192	4013.26
535.557	4021.39
535.923	4001.28
536.288	3975.29
536.653	4022.75
537.019	3958.79
537.384	3940.94
537.749	3991.11
538.114	3935.97
538.479	4003.99
538.845	4055.97
539.21	4066.81
539.575	4182.07
539.94	4210.99
540.305	4261.16
540.67	4293.02
541.034	4372.57
541.399	4375.05
541.764	4359.91
542.129	4435.39
542.494	4411.89
542.858	4447.37
543.223	4395.62
543.587	4394.49
543.952	4333.7
544.316	4311.1
544.681	4365.34
545.045	4334.6
545.41	4417.31
545.774	4461.15
546.138	4445.11
546.503	4494.37
546.867	4499.34
547.231	4596.97
547.595	4632.45
547.959	4709.28
548.324	4748.15
548.688	4720.81
549.052	4723.52
549.416	4726.01
549.779	4751.32
550.143	4690.3
550.507	4639.91
550.871	4621.38
551.235	4582.73
551.599	4574.82
551.962	4572.11
552.326	4562.39
552.689	4575.28
553.053	4522.17
553.417	4617.99
553.78	4677.19
554.143	4687.81
554.507	4796.29
554.87	4840.13
555.234	4888.26
555.597	4887.13
555.96	4917.87
556.323	4935.04
556.686	4913.8
557.05	4888.94
557.413	4863.86
557.776	4798.09
558.139	4808.04
558.502	4790.41
558.865	4743.86
559.228	4763.07
559.59	4724.2
559.953	4728.72
560.316	4807.36
560.679	4770.75
561.041	4860.92
561.404	4886.45
561.767	4955.38
562.129	5032.21
562.492	5094.58
562.854	5140.23
563.217	5120.8
563.579	5168.03
563.941	5197.41
564.304	5198.08
564.666	5196.05
565.028	5151.76
565.39	5129.84
565.753	5131.42
566.115	5065.43
566.477	5006.9
566.839	5006.22
567.201	5039.44
567.563	5003.29
567.925	5025.43
568.287	5070.86
568.648	5068.6
569.01	5166.9
569.372	5206.45
569.734	5281.7
570.095	5412.99
570.457	5450.28
570.819	5520.56
571.18	5556.27
571.542	5607.11
571.903	5627.9
572.265	5667.9
572.626	5578.41
572.987	5607.79
573.349	5640.78
573.71	5617.73
574.071	5563.05
574.432	5544.52
574.794	5592.88
575.155	5558.75
575.516	5560.33
575.877	5677.17
576.238	5738.18
576.599	5866.99
576.96	5939.53
577.32	6113.54
577.681	6202.35
578.042	6360.54
578.403	6454.55
578.763	6606.86
579.124	6759.85
579.485	6908.55
579.845	7082.78
580.206	7186.05
580.566	7225.15
580.927	7391.47
581.287	7521.86
581.648	7684.12
582.008	7773.16
582.368	7869.43
582.728	8065.58
583.089	8280.04
583.449	8449.3
583.809	8748.27
584.169	9108.26
584.529	9292.89
584.889	9700.11
585.249	10011.06
585.609	10431.62
585.969	10789.8
586.329	11247.64
586.688	11721.53
587.048	12104.12
587.408	12422.75
587.768	12907.94
588.127	13288.49
588.487	13662.04
588.846	14130.96
589.206	14393.1
589.565	14744.5
589.925	15246.18
590.284	15635.55
590.643	16116.89
591.003	16430.33
591.362	16912.8
591.721	17380.81
592.08	17812.44
592.44	18331.3
592.799	18919.98
593.158	19340.08
593.517	19853.97
593.876	20462.99
594.235	21046.48
594.593	21573.47
594.952	22274.47
595.311	22720.11
595.67	23255.69
596.029	23886.41
596.387	24561.87
596.746	24988.07
597.104	25308.97
597.463	25821.5
597.822	26327.92
598.18	26637.75
598.538	26941.24
598.897	27638.4
599.255	27741.45
599.613	28599.5
599.972	28899.38
600.33	29352.02
600.688	29677.44
601.046	30208.73
601.404	30776.85
601.762	31268.58
602.12	31891.62
602.478	32217.03
602.836	32852.27
603.194	33041.65
603.552	33675.3
603.91	33900.61
604.268	34706.23
604.625	34793.01
604.983	35403.84
605.341	35703.72
605.698	36132.41
606.056	36437.71
606.413	36850.58
606.771	37140.29
607.128	37486.73
607.485	37515.2
607.843	38028.63
608.2	38286.48
608.557	38762.17
608.914	38692.57
609.272	39122.16
609.629	39620.68
609.986	39947
610.343	39959.66
610.7	40467.44
611.057	40695.91
611.414	41038.05
611.771	41141.55
612.127	41711.25
612.484	42022.65
612.841	42306.49
613.198	42560.04
613.554	42680.04
613.911	43132.45
614.267	43345.33
614.624	43414.25
614.98	43527.7
615.337	43954.58
615.693	43973.56
616.05	44105.54
616.406	44277.06
616.762	44268.92
617.118	44362.03
617.475	44396.6
617.831	44539.42
618.187	44758.4
618.543	45003.59
618.899	45286.3
619.255	45185.96
619.611	45245.84
619.967	45666.17
620.323	45752.05
620.678	45897.58
621.034	45961.53
621.39	46043.56
621.746	46026.39
622.101	46647.84
622.457	46666.82
622.812	46708.4
623.168	46841.51
623.523	46906.82
623.879	47149.52
624.234	46884.22
624.589	47170.77
624.945	47116.98
625.3	47102.07
625.655	47144.55
626.01	47192.69
626.365	47238.33
626.72	47112.46
627.075	47247.37
627.43	47101.39
627.785	47016.65
628.14	47012.13
628.495	47260.48
628.85	47185.23
629.205	47097.77
629.559	47552.45
629.914	47306.81
630.269	47503.64
630.623	47433.58
630.978	47469.06
631.332	47785.21
631.687	47766.68
632.041	47728.94
632.396	47832.22
632.75	47849.84
633.104	47877.41
633.459	47796.06
633.813	47761.94
634.167	47648.94
634.521	47816.85
634.875	47728.72
635.229	47599
635.583	47423.19
635.937	47390.87
636.291	47357.2
636.645	47349.52
636.999	47121.95
637.352	47315.62
637.706	47000.6
638.06	47243.76
638.413	47128.96
638.767	46910.21
639.121	47090.54
639.474	46895.29
639.828	46914.27
640.181	47147.04
640.534	47258.22
640.888	47169.86
641.241	47057.55
641.594	47165.79
641.947	47329.41
642.301	47186.81
642.654	47237.2
643.007	47310.42
643.36	47196.75
643.713	47197.43
644.066	47331.44
644.419	47001.5
644.771	46849.64
645.124	46286.49
645.477	46223.67
645.83	45923.79
646.182	45709.79
646.535	45492.84
646.888	45617.13
647.24	45369.46
647.593	45563.8
647.945	45442.22
648.298	45279.06
648.65	45136.47
649.002	45074.78
649.355	45154.1
649.707	45225.28
650.059	45240.65
650.411	45983.23
650.763	45910.91
651.115	46331.24
651.467	46201.07
651.819	46254.18
652.171	46304.57
652.523	46242.43
652.875	46367.4
653.227	46044.24
653.578	46442.65
653.93	46485.36
654.282	46239.49
654.633	46058.48
654.985	46036.56
655.337	46103
655.688	45898.26
656.039	46127.85
656.391	45661.2
656.742	45745.94
657.094	45660.75
657.445	45714.08
657.796	45571.03
658.147	45474.99
658.498	45461.66
658.849	45510.92
659.2	45450.36
659.551	45504.37
659.902	45520.87
660.253	45442.45
660.604	45660.3
660.955	45578.26
661.306	45601.77
661.656	45655.55
662.007	45783.46
662.358	45727.41
662.708	45766.28
663.059	45712.95
663.409	45585.72
663.76	45867.52
664.11	45785.49
664.461	45819.16
664.811	45739.84
665.161	45673.63
665.511	45545.27
665.862	45579.62
666.212	45720.41
666.562	45449.91
666.912	45427.99
667.262	45278.39
667.612	45198.61
667.962	45107.99
668.312	45079.29
668.662	45189.12
669.011	45036.13
669.361	44931.28
669.711	44880.88
670.06	44860.09
670.41	44768.34
670.76	44777.83
671.109	44985.06
671.459	45025.51
671.808	44896.02
672.157	44989.13
672.507	44873.42
672.856	44852.63
673.205	45027.32
673.554	45161.33
673.904	45102.57
674.253	45320.64
674.602	45071.39
674.951	44649.02
675.3	44483.15
675.649	45096.47
675.998	44901.45
676.346	45017.83
676.695	44977.15
677.044	44597.73
677.393	44785.97
677.741	44680.44
678.09	44717.04
678.438	44404.06
678.787	44457.16
679.135	44220.11
679.484	43940.12
679.832	44046.55
680.181	43870.51
680.529	44002.71
680.877	43845.2
681.225	43793.9
681.573	44147.34
681.922	43828.25
682.27	43587.36
682.618	43881.81
682.966	43832.32
683.314	43937.86
683.661	43801.81
684.009	43578.77
684.357	43708.03
684.705	43682.27
685.053	43724.75
685.4	43771.53
685.748	43576.96
686.095	43610.86
686.443	43466.23
686.79	43427.13
687.138	43581.71
687.485	43317.31
687.832	43131.1
688.18	43205.22
688.527	42830.99
688.874	42845.46
689.221	42746.7
689.568	42544.45
689.915	42400.5
690.262	42313.49
690.609	42230.1
690.956	42049.54
691.303	41843.22
691.65	41620.85
691.997	41530.69
692.344	41399.17
692.69	41434.64
693.037	41531.14
693.383	41244.82
693.73	41394.42
694.077	41185.39
694.423	41169.57
694.769	40967.99
695.116	41061.55
695.462	41071.26
695.808	41012.96
696.155	40980.42
696.501	40784.27
696.847	40898.84
697.193	40586.31
697.539	40832.4
697.885	40581.11
698.231	40459.53
698.577	40328.46
698.923	40328.91
699.269	40021.35
699.614	39993.33
699.96	40058.18
700.306	39861.8
700.651	39593.34
700.997	39527.58
701.342	39263.85
701.688	39261.59
702.033	38993.35
702.379	38858.67
702.724	38741.83
703.069	38893.47
703.415	38340.72
703.76	38422.07
704.105	38420.94
704.45	38182.53
704.795	38099.14
705.14	37967.84
705.485	37954.96
705.83	37900.5
706.175	37887.17
706.52	37731.69
706.865	37711.13
707.209	37772.14
707.554	37669.77
707.899	37691.92
708.243	37622.77
708.588	37542.32
708.932	37459.61
709.277	37488.99
709.621	37431.59
709.966	37270.91
710.31	37325.83
710.654	36992.73
710.998	37139.62
711.342	37084.7
711.687	37051.71
712.031	36815.56
712.375	36631.83
712.719	36579.41
713.063	36542.8
713.407	36625.96
713.75	36251.28
714.094	36139.87
714.438	35995.24
714.782	36021.68
715.125	35842.02
715.469	35777.17
715.812	35659.66
716.156	35226.45
716.499	35430.28
716.843	35385.54
717.186	35306.44
717.53	35490.62
717.873	35276.61
718.216	35270.74
718.559	35269.61
718.902	34917.08
719.246	35017.41
719.589	35009.96
719.932	34878.89
720.275	35000.92
720.617	34943.29
720.96	34936.74
721.303	35048.37
721.646	35003.85
721.989	34874.14
722.331	34938.54
722.674	34764.09
723.016	34786.01
723.359	34770.87
723.701	34855.83
724.044	34465.11
724.386	34390.54
724.729	34398.45
725.071	34361.61
725.413	34195.06
725.755	34250.65
726.097	34054.5
726.439	33676.43
726.782	33742.87
727.124	33934.96
727.465	33604.57
727.807	33491.13
728.149	33442.76
728.491	33320.51
728.833	33311.02
729.175	33202.55
729.516	33254.75
729.858	33052.04
730.199	33123.68
730.541	32996.9
730.882	32852.27
731.224	33006.84
731.565	32856.79
731.906	33020.63
732.248	33040.29
732.589	32878.03
732.93	32941.99
733.271	32833.74
733.612	32932.5
733.953	33026.5
734.294	32918.94
734.635	32699.28
734.976	32953.51
735.317	32726.17
735.658	32798.94
735.999	32758.94
736.339	32732.27
736.68	32693.86
737.021	32658.6
737.361	32591.49
737.702	32520.3
738.042	32429.46
738.383	32336.13
738.723	32575.89
739.063	32169.8
739.404	32221.55
739.744	32037.83
740.084	31898.17
740.424	31897.27
740.764	31731.85
741.104	31786.31
741.444	31697.95
741.784	31535.92
742.124	31536.15
742.464	31528.24
742.804	31315.36
743.143	31327.57
743.483	31220.45
743.823	31119.66
744.162	31136.84
744.502	31187.68
744.841	31060.45
745.181	31222.94
745.52	30918.31
745.86	31032.66
746.199	31087.8
746.538	31088.93
746.877	31239.88
747.216	31208.25
747.556	31136.61
747.895	31104.75
748.234	31051.19
748.573	30959.21
748.911	30989.27
749.25	30960.12
749.589	30872.44
749.928	30777.98
750.267	30890.74
750.605	30792.44
750.944	30635.38
751.283	30502.96
751.621	30465.89
751.96	30355.39
752.298	30276.52
752.636	30261.83
752.975	30057.77
753.313	29945.91
753.651	30022.52
753.989	29742.07
754.327	29684.22
754.666	29421.63
755.004	29565.8
755.342	29464.34
755.679	29385.92
756.017	29150
756.355	29252.14
756.693	29126.49
757.031	29207.62
757.368	28956.1
757.706	29011.24
758.044	28702.32
758.381	28894.64
758.719	28760.18
759.056	28741.87
759.394	28655.55
759.731	28643.57
760.068	28507.3
760.405	28582.33
760.743	28354.08
761.08	28615.32
761.417	28418.26
761.754	28404.03
762.091	28308.89
762.428	28262.56
762.765	28219.85
763.102	28304.14
763.438	28136.01
763.775	28020.53
764.112	28027.99
764.449	27893.53
764.785	27936.69
765.122	27717.94
765.458	27583.26
765.795	27545.29
766.131	27338.52
766.467	27305.52
766.804	27099.2
767.14	26971.3
767.476	27025.53
767.812	26809.94
768.148	26840.9
768.485	26569.05
768.821	26453.34
769.157	26304.42
769.492	26171.77
769.828	26152.56
770.164	25922.96
770.5	25803.19
770.836	25904.21
771.171	25687.26
771.507	25522.3
771.842	25344.9
772.178	25444.33
772.513	25451.79
772.849	25284.34
773.184	25156.2
773.519	25194.39
773.855	25099.03
774.19	25063.55
774.525	25065.13
774.86	24949.88
775.195	24996.66
775.53	25047.51
775.865	24803.22
776.2	24509.89
776.535	24558.25
776.87	24519.84
777.205	24448.65
777.539	24342.67
777.874	24454.53
778.209	24289.11
778.543	24219.05
778.878	24017.02
779.212	23974.99
779.547	23825.39
779.881	23849.12
780.215	23728.9
780.55	23778.84
780.884	23499.98
781.218	23473.99
781.552	23475.34
781.886	23272.86
782.22	23122.81
782.554	22931.63
782.888	22827.68
783.222	22733.44
783.556	22613.44
783.889	22403.06
784.223	22281.7
784.557	22336.16
784.89	22306.56
785.224	22134.14
785.557	22012.33
785.891	22054.59
786.224	21909.73
786.558	21957.19
786.891	21638.1
787.224	21597.65
787.557	21558.33
787.891	21514.72
788.224	21530.76
788.557	21427.94
788.89	21416.87
789.223	21514.49
789.556	21272.92
789.888	21276.98
790.221	21224.55
790.554	21081.06
790.887	21142.75
791.219	20988.4
791.552	21040.38
791.884	20956.77
792.217	20932.81
792.549	20780.95
792.882	20578.02
793.214	20631.35
793.546	20709.54
793.879	20614.85
794.211	20378.7
794.543	20453.73
794.875	20406.72
795.207	20496.44
795.539	20286.27
795.871	20300.51
796.203	20099.39
796.535	19927.41
796.867	19953.63
797.198	19808.77
797.53	19778.94
797.862	19600.87
798.193	19604.26
798.525	19386.64
798.856	19412.17
799.188	19267.77
799.519	19220.09
799.85	19075.46
800.182	19072.75
800.513	18962.47
800.844	18878.4
801.175	18991.62
801.506	18881.11
801.837	18709.37
802.168	18706.43
802.499	18636.37
802.83	18550.5
803.161	18519.99
803.491	18458.3
803.822	18560.22
804.153	18400
804.483	18261.02
804.814	18326.33
805.145	18344.4
805.475	18404.97
805.805	18177.4
806.136	18233.22
806.466	18188.02
806.796	18207.01
807.126	18110.06
807.457	18024.87
807.787	18034.58
808.117	17917.98
808.447	17923.62
808.777	17962.27
809.107	17941.48
809.436	17795.49
809.766	17854.02
810.096	17752.78
810.426	17722.95
810.755	17873.68
811.085	17543.52
811.414	17604.09
811.744	17469.4
812.073	17424.65
812.403	17371.55
812.732	17260.59
813.061	17228.05
813.39	17120.26
813.719	17102.63
814.049	17111.44
814.378	17083.87
814.707	16932.69
815.036	16896.76
815.365	16741.06
815.693	16691.34
816.022	16589.65
816.351	16546.26
816.68	16433.95
817.008	16406.83
817.337	16317.79
817.665	16284.35
817.994	16361.63
818.322	16286.83
818.651	16265.59
818.979	16110.34
819.307	16257.45
819.636	16162.77
819.964	16104.69
820.292	16087.51
820.62	16263.33
820.948	16094.07
821.276	16188.3
821.604	16110.79
821.932	16239.38
822.259	16179.26
822.587	16110.79
822.915	16120.06
823.243	16228.3
823.57	16181.52
823.898	16281.63
824.225	16164.57
824.553	16229.21
824.88	16204.12
825.207	16308.98
825.535	16221.52
825.862	16358.92
826.189	16147.63
826.516	16254.74
826.843	16355.76
827.17	16253.16
827.497	16301.29
827.824	16282.09
828.151	16282.54
828.478	16195.99
828.805	16228.3
829.131	16121.19
829.458	16103.33
829.785	16068.08
830.111	16117.34
830.438	16083.67
830.764	16028.08
831.09	16061.98
831.417	15965.48
831.743	16043
832.069	15963.9
832.395	15879.38
832.722	15936.11
833.048	15874.41
833.374	15809.56
833.7	15755.55
834.026	15802.78
834.351	15801.65
834.677	15678.49
835.003	15767.07
835.329	15779.73
835.654	15777.47
835.98	15626.51
836.306	15723.23
836.631	15582.22
836.956	15649.79
837.282	15617.24
837.607	15550.35
837.932	15537.7
838.258	15594.19
838.583	15555.33
838.908	15543.35
839.233	15511.26
839.558	15515.1
839.883	15515.1
840.208	15477.81
840.533	15484.37
840.858	15534.54
841.182	15557.59
841.507	15516.46
841.832	15436.01
842.156	15523.01
842.481	15482.56
842.805	15398.27
843.13	15415.44
843.454	15302
843.778	15346.74
844.103	15252.51
844.427	15221.77
844.751	15163.47
845.075	15172.74
845.399	15118.05
845.723	15044.38
846.047	14959.18
846.371	14854.33
846.695	14861.78
847.019	14740.88
847.343	14675.12
847.666	14599.64
847.99	14478.97
848.313	14517.16
848.637	14313.1
848.96	14304.51
849.284	14231.07
849.607	14162.14
849.931	14078.75
850.254	13950.62
850.577	13882.6
850.9	13863.84
851.223	13777.29
851.546	13705.88
851.869	13660.69
852.192	13696.84
852.515	13514.7
852.838	13490.75
853.161	13468.15
853.483	13455.95
853.806	13325.1
854.129	13319.68
854.451	13285.55
854.774	13255.5
855.096	13270.64
855.419	13165.33
855.741	13170.53
856.063	13095.05
856.385	13135.28
856.708	13089.18
857.03	13105.22
857.352	13065.9
857.674	13017.09
857.996	13010.76
858.318	12902.74
858.64	12936.86
858.961	12929.41
859.283	12873.59
859.605	12784.1
859.926	12869.97
860.248	12842.4
860.57	12770.99
860.891	12829.07
861.212	12705.68
861.534	12665.68
861.855	12711.78
862.176	12765.79
862.498	12648.96
862.819	12538.23
863.14	12542.52
863.461	12521.28
863.782	12582.97
864.103	12493.71
864.424	12439.93
864.745	12449.87
865.065	12263.43
865.386	12348.86
865.707	12227.96
866.027	12241.74
866.348	12227.96
866.668	12226.37
866.989	12138.47
867.309	12114.29
867.63	12084.46
867.95	12085.13
868.27	12032.71
868.59	11915.87
868.91	11872.71
869.23	11846.72
869.55	11811.02
869.87	11871.13
870.19	11819.15
870.51	11813.05
870.83	11902.77
871.15	11724.69
871.469	11794.29
871.789	11801.75
872.109	11695.54
872.428	11657.57
872.748	11716.1
873.067	11690.34
873.386	11728.53
873.706	11672.04
874.025	11698.25
874.344	11568.99
874.663	11637.46
874.982	11588.2
875.301	11625.94
875.62	11657.8
875.939	11605.37
876.258	11632.26
876.577	11538.48
876.896	11650.8
877.214	11566.05
877.533	11538.71
877.852	11580.06
878.17	11567.41
878.489	11612.38
878.807	11530.57
879.125	11518.82
879.444	11533.74
879.762	11498.93
880.08	11506.62
880.398	11429.11
880.716	11384.59
881.034	11353.85
881.352	11363.12
881.67	11366.06
881.988	11347.53
882.306	11268.66
882.624	11304.36
882.941	11184.59
883.259	11223.46
883.577	11135.33
883.894	11153.63
884.212	11136.91
884.529	11096.69
884.846	10966.07
885.164	10978.95
885.481	10929.68
885.798	10914.09
886.115	10858.5
886.432	10727.2
886.75	10735.79
887.067	10754.77
887.383	10667.77
887.7	10695.11
888.017	10580.32
888.334	10667.54
888.651	10646.3
888.967	10522.01
889.284	10502.58
889.6	10495.57
889.917	10402.47
890.233	10413.54
890.55	10418.96
890.866	10400.66
891.182	10349.59
891.498	10393.88
891.815	10289.7
892.131	10294.9
892.447	10208.12
892.763	10185.75
893.079	10193.21
893.395	10170.83
893.71	10166.09
894.026	10123.15
894.342	10104.62
894.657	10072.76
894.973	10083.15
895.289	10055.36
895.604	10005.87
895.92	10037.96
896.235	9978.75
896.55	9974.91
896.865	9931.97
897.181	9954.34
897.496	9947.79
897.811	9929.94
898.126	9845.65
898.441	9895.81
898.756	9796.38
899.071	9751.86
899.386	9687.23
899.7	9674.12
900.015	9646.1
900.33	9618.76
900.644	9644.52
900.959	9604.97
901.273	9601.58
901.588	9490.4
901.902	9444.75
902.216	9388.03
902.531	9378.54
902.845	9312.55
903.159	9263.51
903.473	9215.15
903.787	9188.04
904.101	9059.45
904.415	9111.43
904.729	9051.09
905.042	8973.8
905.356	8942.84
905.67	8967.48
905.984	8859
906.297	8855.84
906.611	8805.22
906.924	8822.62
907.237	8746.01
907.551	8662.4
907.864	8658.11
908.177	8635.06
908.491	8601.16
908.804	8549.86
909.117	8495.62
909.43	8434.61
909.743	8493.82
910.056	8395.29
910.368	8381.28
910.681	8277.78
910.994	8291.79
911.307	8310.77
911.619	8181.73
911.932	8234.39
912.244	8102.64
912.557	8181.73
912.869	8128.4
913.181	8082.53
913.494	8029.42
913.806	7962.76
914.118	8004.56
914.43	7915.98
914.742	7897
915.054	7875.53
915.366	7849.31
915.678	7866.04
915.99	7868.75
916.302	7819.03
916.613	7751.91
916.925	7729.77
917.236	7771.35
917.548	7723.89
917.859	7734.74
918.171	7624.01
918.482	7692.03
918.794	7638.02
919.105	7602.54
919.416	7571.13
919.727	7565.03
920.038	7475.54
920.349	7483
920.66	7478.25
920.971	7444.35
921.282	7426.95
921.593	7326.84
921.903	7315.54
922.214	7205.71
922.525	7258.14
922.835	7213.17
923.146	7166.62
923.456	7127.07
923.767	7086.85
924.077	7049.79
924.387	7056.79
924.697	6984.03
925.008	6998.04
925.318	6932.28
925.628	6895.44
925.938	6866.74
926.248	6751.94
926.558	6723.47
926.867	6673.07
927.177	6685.28
927.487	6650.02
927.796	6580.42
928.106	6539.29
928.416	6531.61
928.725	6466.52
929.034	6482.57
929.344	6467.43
929.653	6400.76
929.962	6381.33
930.271	6363.02
930.581	6328.9
930.89	6280.99
931.199	6231.73
931.508	6241.22
931.817	6236.7
932.125	6261.56
932.434	6255.46
932.743	6111.05
933.051	6079.19
933.36	6127.78
933.669	6086.65
933.977	6082.13
934.286	6031.51
934.594	6018.18
934.902	5960.32
935.21	5945.41
935.519	6001.9
935.827	5922.58
936.135	5861.34
936.443	5891.4
936.751	5855.92
937.059	5838.29
937.367	5801.68
937.674	5756.49
937.982	5802.81
938.29	5734.34
938.597	5753.32
938.905	5648.02
939.213	5677.17
939.52	5629.94
939.827	5678.07
940.135	5618.41
940.442	5611.86
940.749	5580.9
941.056	5614.57
941.363	5495.03
941.67	5539.32
941.977	5549.26
942.284	5471.3
942.591	5428.59
942.898	5445.53
943.205	5410.51
943.511	5423.16
943.818	5383.16
944.125	5347.68
944.431	5367.8
944.738	5315.14
945.044	5280.57
945.35	5235.82
945.657	5198.54
945.963	5184.07
946.269	5179.33
946.575	5119.89
946.881	5100.69
947.187	5096.62
947.493	5032.44
947.799	5086.9
948.105	5021.37
948.41	4933.46
948.716	4934.14
949.022	4919.22
949.327	4923.97
949.633	4841.48
949.938	4831.54
950.244	4862.05
950.549	4790.18
950.854	4776.63
951.16	4771.88
951.465	4729.4
951.77	4695.95
952.075	4673.13
952.38	4664.54
952.685	4642.17
952.99	4612.56
953.294	4600.81
953.599	4588.38
953.904	4549.74
954.209	4530.53
954.513	4554.94
954.818	4540.02
955.122	4457.09
955.426	4490.98
955.731	4472
956.035	4443.98
956.339	4444.43
956.643	4423.19
956.948	4381.61
957.252	4388.61
957.556	4404.43
957.86	4358.78
958.163	4352.91
958.467	4347.03
958.771	4333.47
959.075	4301.84
959.378	4265.45
959.682	4250.99
959.985	4203.53
960.289	4224.32
960.592	4192.23
960.896	4189.75
961.199	4180.03
961.502	4123.76
961.805	4142.29
962.108	4126.47
962.411	4128.73
962.714	4129.41
963.017	4068.85
963.32	4100.94
963.623	4074.27
963.926	4063.2
964.228	4064.55
964.531	3977.78
964.833	3997.44
965.136	4025.91
965.438	3945.01
965.741	3942.75
966.043	3949.75
966.345	3915.86
966.648	3890.55
966.95	3887.16
967.252	3838.8
967.554	3830.44
967.856	3811.23
968.158	3767.16
968.46	3768.74
968.761	3792.47
969.063	3762.42
969.365	3689.42
969.666	3704.79
969.968	3687.61
970.269	3655.3
970.571	3649.65
970.872	3597.22
971.174	3583.66
971.475	3613.04
971.776	3565.58
972.077	3555.64
972.378	3569.88
972.679	3497.79
972.98	3458.92
973.281	3470.22
973.582	3454.4
973.883	3439.03
974.183	3393.61
974.484	3430.22
974.785	3408.75
975.085	3389.77
975.386	3346.38
975.686	3361.75
975.986	3341.41
976.287	3291.47
976.587	3298.02
976.887	3253.28
977.187	3243.11
977.487	3244.46
977.787	3260.06
978.087	3230.9
978.387	3180.74
978.687	3181.64
978.987	3199.94
979.286	3134.18
979.586	3173.5
979.885	3147.06
980.185	3157.23
980.484	3131.47
980.784	3119.04
981.083	3125.37
981.382	3072.72
981.682	3102.77
981.981	3061.64
982.28	3065.94
982.579	3046.05
982.878	3044.92
983.177	3029.78
983.475	3012.6
983.774	2990.46
984.073	2956.33
984.372	2976.9
984.67	2951.14
984.969	2980.51
985.267	2954.98
985.566	2948.2
985.864	2915.88
986.162	2894.64
986.461	2915.43
986.759	2879.27
987.057	2870.69
987.355	2858.48
987.653	2864.59
987.951	2824.59
988.249	2823.23
988.547	2799.73
988.844	2801.08
989.142	2776
989.44	2823.68
989.737	2743.23
990.035	2779.39
990.332	2744.81
990.63	2679.73
990.927	2703.46
991.224	2712.5
991.521	2674.31
991.819	2688.32
992.116	2670.24
992.413	2652.84
992.71	2602.45
993.006	2620.07
993.303	2601.32
993.6	2583.24
993.897	2574.2
994.193	2578.94
994.49	2533.07
994.787	2500.98
995.083	2482.22
995.379	2491.49
995.676	2487.65
995.972	2453.98
996.268	2458.04
996.565	2434.31
996.861	2406.29
997.157	2401.77
997.453	2379.4
997.749	2361.1
998.044	2360.87
998.34	2361.1
998.636	2371.04
998.932	2329.01
999.227	2321.1
999.523	2322
999.818	2298.5
1000.114	2267.09
1000.409	2303.24
1000.704	2254.88
1001	2266.41
1001.295	2240.65
1001.59	2250.59
1001.885	2256.92
1002.18	2192.96
1002.475	2195.22
1002.77	2208.11
1003.065	2147.99
1003.359	2178.95
1003.654	2125.62
1003.949	2113.87
1004.243	2098.73
1004.538	2114.77
1004.832	2077.26
1005.127	2077.49
1005.421	2051.95
1005.715	2050.6
1006.009	2021.67
1006.304	2022.12
1006.598	2024.38
1006.892	2052.86
1007.186	2018.05
1007.48	2014.44
1007.773	2018.51
1008.067	1980.54
1008.361	1949.58
1008.655	1984.61
1008.948	1961.56
1009.242	1954.55
1009.535	1938.51
1009.829	1922.46
1010.122	1919.98
1010.415	1913.65
1010.708	1896.48
1011.001	1922.01
1011.295	1879.53
1011.588	1901.67
1011.881	1837.49
1012.173	1852.86
1012.466	1854.89
1012.759	1839.3
1013.052	1812.64
1013.344	1809.92
1013.637	1808.12
1013.93	1798.63
1014.222	1785.52
1014.514	1769.25
1014.807	1751.39
1015.099	1746.2
1015.391	1745.29
1015.683	1729.47
1015.976	1719.53
1016.268	1710.27
1016.56	1713.88
1016.851	1703.71
1017.143	1670.49
1017.435	1649.7
1017.727	1658.74
1018.018	1646.09
1018.31	1611.06
1018.602	1619.65
1018.893	1587.33
1019.185	1619.65
1019.476	1586.2
1019.767	1577.39
1020.058	1571.74
1020.35	1544.17
1020.641	1526.54
1020.932	1529.25
1021.223	1511.85
1021.514	1500.78
1021.804	1500.78
1022.095	1463.49
1022.386	1467.33
1022.677	1464.4
1022.967	1458.07
1023.258	1443.83
1023.548	1415.81
1023.839	1400.44
1024.129	1418.3
1024.419	1415.81
1024.709	1397.05
1025	1379.43
1025.29	1384.62
1025.58	1362.93
1025.87	1337.62
1026.16	1334.91
1026.449	1343.5
1026.739	1322.25
1027.029	1337.85
1027.319	1329.94
1027.608	1298.53
1027.898	1305.08
1028.187	1309.15
1028.477	1287.45
1028.766	1266.21
1029.055	1264.63
1029.344	1258.98
1029.634	1239.09
1029.923	1219.88
1030.212	1232.99
1030.501	1223.5
1030.79	1215.14
1031.078	1221.69
1031.367	1195.7
1031.656	1197.51
1031.945	1193.22
1032.233	1148.92
1032.522	1178.08
1032.81	1158.64
1033.099	1149.15
1033.387	1131.75
1033.675	1105.76
1033.963	1111.41
1034.251	1127.23
1034.54	1142.82
1034.828	1112.77
1035.116	1094.46
1035.403	1118.19
1035.691	1081.81
1035.979	1089.94
1036.267	1092.2
1036.554	1060.34
1036.842	1052.2
1037.129	1057.63
1037.417	1071.86
1037.704	1058.98
1037.992	1056.95
1038.279	1054.24
1038.566	1018.31
1038.853	1018.31
1039.14	1018.31
