Data from red_cardboard_box_FLMS001491_00039.txt Node
Date: Wed Feb 08 11:32:06 GMT 2017
User: dcchb
Spectrometer: FLMS00149
Trigger mode: 0
Integration Time (sec): 2.000000E-2
Scans to average: 10
Electric dark correction enabled: true
Nonlinearity correction enabled: false
Boxcar width: 0
XAxis mode: Wavelengths
Number of Pixels in Spectrum: 2048
>>>>>Begin Spectral Data<<<<<
341.393	-30.39
341.776	-30.39
342.16	-30.39
342.543	-45.76
342.927	-54.57
343.31	-65.87
343.693	-63.16
344.077	-78.75
344.46	-58.64
344.843	-38.98
345.226	-44.18
345.61	-24.52
345.993	-21.81
346.376	-5.76
346.759	0.11
347.142	25.65
347.525	31.07
347.908	71.3
348.291	60
348.674	110.17
349.057	103.39
349.44	111.97
349.823	130.05
350.206	139.09
350.588	198.98
350.971	228.58
351.354	241.01
351.737	233.78
352.119	239.2
352.502	238.3
352.884	282.82
353.267	276.72
353.65	291.63
354.032	294.79
354.414	323.04
354.797	302.7
355.179	325.53
355.562	314
355.944	339.99
356.326	324.62
356.709	331.63
357.091	340.67
357.473	337.05
357.855	354.68
358.238	332.99
358.62	346.09
359.002	341.8
359.384	344.74
359.766	337.73
360.148	347
360.53	335.02
360.912	334.79
361.294	343.61
361.676	331.63
362.057	321.69
362.439	335.47
362.821	326.88
363.203	334.57
363.584	326.66
363.966	321.69
364.348	323.72
364.729	312.65
365.111	306.32
365.493	323.27
365.874	300.22
366.256	294.12
366.637	320.33
367.019	301.8
367.4	307
367.781	318.52
368.163	308.35
368.544	305.64
368.925	307.9
369.306	311.52
369.688	297.96
370.069	284.4
370.45	320.33
370.831	306.77
371.212	331.86
371.593	313.78
371.974	332.31
372.355	303.83
372.736	299.99
373.117	324.85
373.498	314.91
373.879	309.94
374.26	294.34
374.641	309.48
375.021	301.12
375.402	312.87
375.783	328.24
376.163	343.38
376.544	311.07
376.925	298.18
377.305	312.87
377.686	316.71
378.066	321.69
378.447	317.62
378.827	326.43
379.208	315.58
379.588	323.04
379.968	323.72
380.349	319.65
380.729	332.99
381.109	316.49
381.489	346.32
381.87	325.53
382.25	323.95
382.63	299.31
383.01	305.42
383.39	321.46
383.77	335.25
384.15	307.45
384.53	313.78
384.91	338.86
385.29	330.05
385.67	326.43
386.049	349.03
386.429	342.48
386.809	327.34
387.189	342.25
387.568	351.74
387.948	345.19
388.328	342.02
388.707	331.63
389.087	343.38
389.466	346.09
389.846	346.54
390.225	353.1
390.605	348.13
390.984	359.65
391.363	332.31
391.743	343.15
392.122	357.17
392.501	371.18
392.881	345.19
393.26	345.19
393.639	355.13
394.018	364.17
394.397	325.98
394.776	328.69
395.155	351.97
395.534	362.36
395.913	357.62
396.292	357.62
396.671	360.33
397.05	353.55
397.429	342.93
397.808	368.24
398.186	356.94
398.565	349.48
398.944	368.01
399.323	350.16
399.701	359.65
400.08	387.22
400.458	363.04
400.837	375.47
401.215	359.88
401.594	390.61
401.972	367.11
402.351	355.13
402.729	366.21
403.107	353.55
403.486	395.81
403.864	374.79
404.242	388.13
404.62	375.7
404.999	365.3
405.377	361.91
405.755	373.44
406.133	386.09
406.511	384.28
406.889	393.77
407.267	371.18
407.645	379.99
408.023	386.54
408.401	386.54
408.779	390.61
409.156	393.55
409.534	381.57
409.912	402.14
410.29	412.31
410.667	406.43
411.045	416.6
411.422	421.57
411.8	418.41
412.178	407.11
412.555	406.88
412.933	417.73
413.31	404.85
413.687	417.96
414.065	403.04
414.442	394.45
414.819	423.6
415.197	435.58
415.574	436.49
415.951	430.84
416.328	426.54
416.705	425.19
417.082	460.67
417.46	434.45
417.837	431.06
418.214	457.95
418.591	423.6
418.967	420.67
419.344	440.55
419.721	433.1
420.098	415.02
420.475	439.65
420.852	462.02
421.228	449.82
421.605	454.56
421.982	450.27
422.358	443.04
422.735	452.76
423.111	448.01
423.488	463.15
423.864	453.21
424.241	472.19
424.617	468.12
424.994	471.29
425.37	471.74
425.746	460.67
426.123	464.06
426.499	469.03
426.875	454.56
427.251	462.7
427.627	493.21
428.003	483.04
428.379	495.92
428.756	485.3
429.132	484.85
429.507	497.95
429.883	488.01
430.259	493.89
430.635	502.02
431.011	500.21
431.387	486.2
431.763	520.78
432.138	518.74
432.514	509.93
432.89	492.08
433.265	528.23
433.641	527.33
434.016	524.39
434.392	526.88
434.767	536.82
435.143	535.24
435.518	556.71
435.894	547.9
436.269	523.72
436.644	551.51
437.02	576.82
437.395	557.16
437.77	547.44
438.145	577.05
438.52	565.3
438.895	577.95
439.271	558.06
439.646	577.05
440.021	595.8
440.395	571.62
440.77	567.33
441.145	572.75
441.52	598.74
441.895	599.42
442.27	588.12
442.645	586.99
443.019	574.34
443.394	586.99
443.769	594.67
444.143	598.52
444.518	590.83
444.892	607.1
445.267	576.14
445.641	584.73
446.016	611.85
446.39	625.63
446.764	603.26
447.139	612.98
447.513	622.7
447.887	595.13
448.262	618.85
448.636	620.44
449.01	640.1
449.384	629.02
449.758	610.49
450.132	639.42
450.506	657.04
450.88	643.03
451.254	652.75
451.628	657.72
452.002	634.45
452.376	636.48
452.75	646.42
453.123	654.11
453.497	664.05
453.871	655.01
454.244	657.27
454.618	653.66
454.992	675.12
455.365	686.2
455.739	670.38
456.112	675.58
456.486	683.26
456.859	712.64
457.232	705.18
457.606	694.33
457.979	700.43
458.352	718.29
458.725	728
459.099	761.45
459.472	743.14
459.845	732.75
460.218	738.85
460.591	739.75
460.964	756.03
461.337	751.28
461.71	768.68
462.083	780.43
462.456	749.25
462.829	770.04
463.201	769.36
463.574	789.47
463.947	759.64
464.32	793.99
464.692	793.76
465.065	802.35
465.438	800.54
465.81	811.84
466.183	796.7
466.555	836.02
466.928	846.64
467.3	838.28
467.672	822.92
468.045	878.28
468.417	853.65
468.789	842.58
469.161	868.34
469.534	856.14
469.906	889.36
470.278	883.03
470.65	898.17
471.022	898.85
471.394	928.9
471.766	910.15
472.138	937.72
472.51	945.17
472.882	946.53
473.253	948.34
473.625	960.09
473.997	978.39
474.369	1003.02
474.74	1002.12
475.112	1012.29
475.484	1037.15
475.855	1037.6
476.227	1029.01
476.598	1057.03
476.97	1082.12
477.341	1072.85
477.713	1088.45
478.084	1100.2
478.455	1112.4
478.827	1132.06
479.198	1160.08
479.569	1144.94
479.94	1143.59
480.311	1166.41
480.682	1204.83
481.053	1226.75
481.424	1240.76
481.795	1239.18
482.166	1257.93
482.537	1268.1
482.908	1282.57
483.279	1297.03
483.65	1298.61
484.021	1338.38
484.391	1354.43
484.762	1327.76
485.133	1368.66
485.503	1378.83
485.874	1383.13
486.244	1394.65
486.615	1436.91
486.985	1435.56
487.356	1459.06
487.726	1493.18
488.097	1497.02
488.467	1479.17
488.837	1550.81
489.207	1547.42
489.578	1561.2
489.948	1561.43
490.318	1595.78
490.688	1596.46
491.058	1626.06
491.428	1660.63
491.798	1626.74
492.168	1671.93
492.538	1687.07
492.908	1666.51
493.278	1706.06
493.648	1727.75
494.017	1717.13
494.387	1737.02
494.757	1730.69
495.126	1763
495.496	1765.49
495.866	1818.82
496.235	1793.29
496.605	1830.57
496.974	1835.09
497.344	1850.01
497.713	1868.09
498.082	1894.75
498.452	1887.3
498.821	1897.24
499.19	1896.79
499.559	1924.58
499.928	1956.9
500.298	1949.44
500.667	1958.93
501.036	1974.98
501.405	2006.84
501.774	1978.14
502.143	2020.62
502.512	2026.27
502.88	2045.71
503.249	2027.63
503.618	2006.61
503.987	2066.27
504.356	2075.31
504.724	2069.89
505.093	2124.12
505.462	2121.19
505.83	2119.15
506.199	2131.81
506.567	2191.24
506.936	2157.34
507.304	2164.12
507.672	2204.35
508.041	2172.49
508.409	2228.75
508.777	2256.55
509.145	2260.62
509.514	2248.87
509.882	2262.65
510.25	2294.52
510.618	2299.94
510.986	2307.85
511.354	2339.94
511.722	2351.24
512.09	2381.07
512.458	2343.1
512.826	2371.8
513.193	2397.56
513.561	2400.95
513.929	2427.39
514.297	2469.88
514.664	2487.51
515.032	2445.25
515.4	2495.41
515.767	2477.56
516.135	2508.97
516.502	2510.56
516.869	2570.89
517.237	2582.87
517.604	2561.85
517.972	2586.71
518.339	2638.01
518.706	2611.34
519.073	2619.03
519.44	2631.46
519.808	2722.3
520.175	2656.09
520.542	2711.23
520.909	2785.12
521.276	2744.45
521.643	2779.02
522.009	2778.12
522.376	2807.5
522.743	2848.85
523.11	2861.96
523.477	2852.92
523.843	2888.85
524.21	2901.96
524.577	2960.94
524.943	2980.37
525.31	2988.51
525.676	2994.38
526.043	3026.25
526.409	3013.59
526.776	3033.25
527.142	3049.52
527.508	3099.24
527.874	3152.57
528.241	3142.4
528.607	3129.97
528.973	3136.98
529.339	3151.22
529.705	3173.59
530.071	3229.41
530.437	3237.99
530.803	3251.55
531.169	3273.7
531.535	3299.91
531.901	3299.01
532.267	3342.85
532.632	3307.82
532.998	3391.21
533.364	3392.57
533.73	3405
534.095	3399.35
534.461	3434.15
534.826	3505.33
535.192	3494.71
535.557	3483.41
535.923	3499
536.288	3499.68
536.653	3536.52
537.019	3545.78
537.384	3566.12
537.749	3575.16
538.114	3555.27
538.479	3622.39
538.845	3628.49
539.21	3575.39
539.575	3631.88
539.94	3648.15
540.305	3693.35
540.67	3677.76
541.034	3771.54
541.399	3786.45
541.764	3724.53
542.129	3755.27
542.494	3774.25
542.858	3790.52
543.223	3773.35
543.587	3835.27
543.952	3870.07
544.316	3875.04
544.681	3863.97
545.045	3866.68
545.41	3918.43
545.774	3925.43
546.138	3922.04
546.503	3937.18
546.867	3948.71
547.231	4002.27
547.595	3990.74
547.959	4037.07
548.324	4090.63
548.688	4069.16
549.052	4058.54
549.416	4129.5
549.779	4111.19
550.143	4144.41
550.507	4167.46
550.871	4222.15
551.235	4195.03
551.599	4232.54
551.962	4218.08
552.326	4240.23
552.689	4283.84
553.053	4279.32
553.417	4309.38
553.78	4383.95
554.143	4385.08
554.507	4392.77
554.87	4431.18
555.234	4449.26
555.597	4486.77
555.96	4489.94
556.323	4532.88
556.686	4556.83
557.05	4585.76
557.413	4580.56
557.776	4682.7
558.139	4645.64
558.502	4703.94
558.865	4710.05
559.228	4752.76
559.59	4790.72
559.953	4790.27
560.316	4865.3
560.679	4899.87
561.041	4907.1
561.404	4963.37
561.767	5006.99
562.129	5031.62
562.492	5053.99
562.854	5097.38
563.217	5126.98
563.579	5187.55
563.941	5231.84
564.304	5283.36
564.666	5320.88
565.028	5348.9
565.39	5392.97
565.753	5472.96
566.115	5502.34
566.477	5505.28
566.839	5564.26
567.201	5621.43
567.563	5693.3
567.925	5706.18
568.287	5739.4
568.648	5801.09
569.01	5929
569.372	5886.74
569.734	5965.38
570.095	5966.96
570.457	5983.68
570.819	6034.98
571.18	6153.4
571.542	6291.02
571.903	6262.1
572.265	6279.95
572.626	6351.81
572.987	6368.53
573.349	6470.45
573.71	6550.45
574.071	6586.61
574.432	6653.5
574.794	6802.42
575.155	6796.32
575.516	6813.72
575.877	6903.66
576.238	6989.53
576.599	7056.65
576.96	7105.69
577.32	7151.34
577.681	7289.41
578.042	7338
578.403	7383.87
578.763	7514.72
579.124	7538.9
579.485	7676.52
579.845	7781.6
580.206	7875.39
580.566	7917.19
580.927	8048.71
581.287	8202.84
581.648	8228.15
582.008	8390.85
582.368	8461.13
582.728	8572.54
583.089	8678.98
583.449	8824.29
583.809	8998.97
584.169	9071.06
584.529	9090.95
584.889	9314.44
585.249	9455.91
585.609	9498.85
585.969	9738.39
586.329	9889.12
586.688	10004.82
587.048	10108.32
587.408	10266.51
587.768	10434.19
588.127	10630.79
588.487	10760.96
588.846	11115.07
589.206	11169.08
589.565	11376.76
589.925	11543.99
590.284	11743.53
590.643	11977.43
591.003	12215.84
591.362	12494.7
591.721	12586.45
592.08	12784.41
592.44	13124.51
592.799	13310.72
593.158	13572.19
593.517	13796.81
593.876	14053.3
594.235	14233.86
594.593	14501.43
594.952	14845.37
595.311	15010.57
595.67	15380.73
596.029	15681.28
596.387	15995.4
596.746	16197.65
597.104	16391.32
597.463	16700.69
597.822	17013.22
598.18	17248.25
598.538	17624.28
598.897	17876.25
599.255	18028.79
599.613	18565.05
599.972	18707.64
600.33	19018.82
600.688	19332.94
601.046	19618.81
601.404	20111.67
601.762	20263.31
602.12	20622.62
602.478	20878.43
602.836	21226.67
603.194	21402.04
603.552	21681.35
603.91	21895.13
604.268	22313.88
604.625	22613.76
604.983	22960.19
605.341	23051.26
605.698	23442.66
606.056	23679.72
606.413	23976.88
606.771	24272.02
607.128	24634.72
607.485	24723.98
607.843	24964.88
608.2	25360.35
608.557	25607.8
608.914	25767.35
609.272	26178.18
609.629	26455.01
609.986	26683.48
610.343	26836.02
610.7	27207.99
611.057	27373.86
611.414	27511.25
611.771	27715.77
612.127	28102.88
612.484	28202.54
612.841	28525.46
613.198	28669.19
613.554	28752.58
613.911	29105.11
614.267	29264.2
614.624	29334.71
614.98	29566.57
615.337	29884.3
615.693	30025.76
616.05	29997.52
616.406	30392.99
616.762	30471.18
617.118	30536.71
617.475	30819.64
617.831	30967.21
618.187	31270.7
618.543	31282.23
618.899	31613.75
619.255	31696.68
619.611	31609.68
619.967	31949.78
620.323	31995.2
620.678	32173.73
621.034	32215.54
621.39	32380.96
621.746	32392.93
622.101	32867.5
622.457	32624.57
622.812	32761.06
623.168	32913.82
623.523	33108.17
623.879	33151.33
624.234	33157.21
624.589	33387.71
624.945	33348.16
625.3	33628.83
625.655	33555.84
626.01	33608.95
626.365	33810.3
626.72	33775.5
627.075	33812.11
627.43	33923.29
627.785	33910.18
628.14	33954.47
628.495	34216.39
628.85	34209.61
629.205	34100.01
629.559	34363.28
629.914	34307.46
630.269	34315.82
630.623	34317.85
630.978	34306.1
631.332	34505.19
631.687	34622.03
632.041	34415.03
632.396	34522.14
632.75	34565.53
633.104	34501.35
633.459	34504.74
633.813	34561.24
634.167	34651.41
634.521	34563.95
634.875	34753.55
635.229	34527.79
635.583	34503.84
635.937	34594.23
636.291	34661.8
636.645	34657.73
636.999	34552.65
637.352	34643.95
637.706	34509.04
638.06	34693.44
638.413	34599.43
638.767	34605.08
639.121	34674.68
639.474	34535.02
639.828	34637.62
640.181	34768.92
640.534	34762.81
640.888	34678.75
641.241	34604.4
641.594	34531.18
641.947	34699.99
642.301	34613.21
642.654	34704.74
643.007	34727.34
643.36	34610.05
643.713	34681.23
644.066	34850.27
644.419	34457.96
644.771	34325.31
645.124	33976.62
645.477	33875.15
645.83	33764.2
646.182	33750.64
646.535	33665.22
646.888	33844.19
647.24	33692.33
647.593	34042.83
647.945	33764.2
648.298	33714.25
648.65	33785.67
649.002	33689.85
649.355	33869.5
649.707	33714.71
650.059	33886.23
650.411	34301.81
650.763	34275.37
651.115	34840.1
651.467	34468.13
651.819	34615.02
652.171	34519.43
652.523	34516.72
652.875	34419.77
653.227	34297.97
653.578	34665.42
653.93	34606.43
654.282	34448.92
654.633	34389.49
654.985	34481.24
655.337	34524.4
655.688	34261.59
656.039	34509.49
656.391	34219.55
656.742	34340
657.094	34533.44
657.445	34549.04
657.796	34581.35
658.147	34334.13
658.498	34370.28
658.849	34390.17
659.2	34338.42
659.551	34257.74
659.902	34397.85
660.253	34398.76
660.604	34454.57
660.955	34178.42
661.306	34394.01
661.656	34298.65
662.007	34476.72
662.358	34425.87
662.708	34582.93
663.059	34418.87
663.409	34257.52
663.76	34530.73
664.11	34390.17
664.461	34645.53
664.811	34483.05
665.161	34437.85
665.511	34277.4
665.862	34487.12
666.212	34421.35
666.562	34442.37
666.912	34383.84
667.262	34348.36
667.612	34347.46
667.962	34465.65
668.312	34366.22
668.662	34661.35
669.011	34447.12
669.361	34374.58
669.711	34460.9
670.06	34353.11
670.41	34265.65
670.76	34267.01
671.109	34405.99
671.459	34268.59
671.808	34147.46
672.157	34392.88
672.507	34056.62
672.856	34054.81
673.205	34241.92
673.554	34129.16
673.904	34126.67
674.253	34270.62
674.602	34161.47
674.951	33610.08
675.3	33479.23
675.649	34102.49
675.998	34120.35
676.346	33980.69
676.695	34248.93
677.044	33935.49
677.393	33953.57
677.741	34056.39
678.09	33933.46
678.438	33930.75
678.787	33937.07
679.135	33960.35
679.484	33794.03
679.832	33801.94
680.181	33624.77
680.529	33888.71
680.877	33635.61
681.225	33706.35
681.573	33735.05
681.922	33646.69
682.27	33431.1
682.618	33477.42
682.966	33507.71
683.314	33656.63
683.661	33443.98
684.009	33257.54
684.357	33123.54
684.705	33147.94
685.053	33073.37
685.4	33065.68
685.748	33005.35
686.095	32942.52
686.443	32756.54
686.79	32862.07
687.138	32867.95
687.485	32906.59
687.832	32601.74
688.18	32707.95
688.527	32582.53
688.874	32574.17
689.221	32440.62
689.568	32429.99
689.915	32372.82
690.262	32359.26
690.609	32250.56
690.956	32173.05
691.303	32082.66
691.65	31978.93
691.997	31959.95
692.344	31806.51
692.69	31726.74
693.037	31730.13
693.383	31599.28
693.73	31699.62
694.077	31480.19
694.423	31542.56
694.769	31394.77
695.116	31309.8
695.462	31246.98
695.808	31091.05
696.155	31162.91
696.501	30936.93
696.847	30985.51
697.193	30890.6
697.539	30825.97
697.885	30657.16
698.231	30556.82
698.577	30530.16
698.923	30485.41
699.269	30382.36
699.614	30185.53
699.96	30236.38
700.306	30240
700.651	30123.16
700.997	29933.34
701.342	29872.1
701.688	30028.48
702.033	29833
702.379	29831.64
702.724	29645.21
703.069	29762.27
703.415	29446.8
703.76	29548.49
704.105	29447.7
704.45	29338.1
704.795	29313.69
705.14	29114.83
705.485	29193.47
705.83	29175.84
706.175	29139.23
706.52	28983.53
706.865	28917.09
707.209	28867.15
707.554	28816.3
707.899	28858.79
708.243	28682.52
708.588	28591.9
708.932	28532.92
709.277	28474.84
709.621	28473.71
709.966	28215.42
710.31	28374.28
710.654	28095.19
710.998	28214.06
711.342	28123.89
711.687	28195.76
712.031	28050.45
712.375	27744.47
712.719	27927.06
713.063	27828.76
713.407	27969.32
713.75	27795.31
714.094	27824.01
714.438	27690.68
714.782	27677.35
715.125	27531.82
715.469	27622.21
715.812	27361.65
716.156	27254.09
716.499	27279.62
716.843	27437.58
717.186	27222
717.53	27358.94
717.873	27269.9
718.216	27198.95
718.559	27171.6
718.902	26955.56
719.246	27007.31
719.589	26939.29
719.932	26803.02
720.275	26830.59
720.617	26744.27
720.96	26722.12
721.303	26682.8
721.646	26700.43
721.989	26587.89
722.331	26685.74
722.674	26638.51
723.016	26492.07
723.359	26489.36
723.701	26603.71
724.044	26423.15
724.386	26073.78
724.729	26413.2
725.071	26326.65
725.413	26162.81
725.755	26205.3
726.097	26205.07
726.439	26084.85
726.782	25985.64
727.124	26115.36
727.465	25991.75
727.807	25989.71
728.149	25914.01
728.491	25817.51
728.833	25872.65
729.175	25760.57
729.516	25698.65
729.858	25729.61
730.199	25763.73
730.541	25720.79
730.882	25672.21
731.224	25713.56
731.565	25594.02
731.906	25575.94
732.248	25556.5
732.589	25340.46
732.93	25427.02
733.271	25415.26
733.612	25355.6
733.953	25458.43
734.294	25253.46
734.635	25255.49
734.976	25393.57
735.317	25163.52
735.658	25221.6
735.999	25074.26
736.339	24974.15
736.68	25138.44
737.021	25099.79
737.361	24931.43
737.702	25202.39
738.042	24947.48
738.383	24914.94
738.723	24929.85
739.063	24892.57
739.404	24927.59
739.744	24886.24
740.084	24702.51
740.424	24816.18
740.764	24623.19
741.104	24825.22
741.444	24589.75
741.784	24545.23
742.124	24668.84
742.464	24651.22
742.804	24612.12
743.143	24440.83
743.483	24573.48
743.823	24378.46
744.162	24446.25
744.502	24434.72
744.841	24350.21
745.181	24452.35
745.52	24349.08
745.86	24298.23
746.199	24232.02
746.538	24235.86
746.877	24254.16
747.216	24227.27
747.556	24158.57
747.895	24122.42
748.234	24056.66
748.573	23987.73
748.911	24004.23
749.25	23959.71
749.589	23865.47
749.928	23858.69
750.267	23884.91
750.605	23812.37
750.944	23900.28
751.283	23743.44
751.621	23842.88
751.96	23698.7
752.298	23644.69
752.636	23674.07
752.975	23504.58
753.313	23523.34
753.651	23527.18
753.989	23306.62
754.327	23427.29
754.666	23241.08
755.004	23230.91
755.342	23202.67
755.679	23207.19
756.017	23096.23
756.355	23241.08
756.693	22962.22
757.031	23169.22
757.368	22932.62
757.706	22996.12
758.044	22884.48
758.381	22836.35
758.719	22779.85
759.056	22878.61
759.394	22760.87
759.731	22611.5
760.068	22576.24
760.405	22525.17
760.743	22370.15
761.08	22473.87
761.417	22324.72
761.754	22297.38
762.091	22287.66
762.428	22106.65
762.765	22043.6
763.102	22138.06
763.438	22092.41
763.775	21894.45
764.112	21880.44
764.449	21983.26
764.785	21782.59
765.122	21553.67
765.458	21601.58
765.795	21553.67
766.131	21515.93
766.467	21483.16
766.804	21337.63
767.14	21314.35
767.476	21277.97
767.812	21145.32
768.148	21167.24
768.485	21091.54
768.821	20921.6
769.157	20839.57
769.492	20893.35
769.828	20771.09
770.164	20726.8
770.5	20614.94
770.836	20640.47
771.171	20543.98
771.507	20392.12
771.842	20320.48
772.178	20393.7
772.513	20236.19
772.849	20267.15
773.184	20128.4
773.519	20207.94
773.855	20108.28
774.19	19892.7
774.525	19964.56
774.86	19793.72
775.195	19721.63
775.53	19701.29
775.865	19649.77
776.2	19665.81
776.535	19429.43
776.87	19368.64
777.205	19318.25
777.539	19144.92
777.874	19266.27
778.209	19192.15
778.543	19097.92
778.878	19037.13
779.212	18957.58
779.547	18770.69
779.881	18827.41
780.215	18763.24
780.55	18864.48
780.884	18581.77
781.218	18590.81
781.552	18570.02
781.886	18399.18
782.22	18415.67
782.554	18309.69
782.888	18144.27
783.222	18087.32
783.556	17994.67
783.889	17974.33
784.223	17912.64
784.557	17821.34
784.89	17983.37
785.224	17798.52
785.557	17755.8
785.891	17690.72
786.224	17555.13
786.558	17622.02
786.891	17393.78
787.224	17357.62
787.557	17238.76
787.891	17265.65
788.224	17292.31
788.557	17153.56
788.89	17153.56
789.223	17142.04
789.556	17031.98
789.888	16982.94
790.221	16950.85
790.554	16748.15
790.887	16836.96
791.219	16738.43
791.552	16688.04
791.884	16709.28
792.217	16502.05
792.549	16507.25
792.882	16474.48
793.214	16286.24
793.546	16384.31
793.879	16252.57
794.211	16065.45
794.543	16142.29
794.875	16053.25
795.207	16212.57
795.539	16000.6
795.871	15998.34
796.203	15886.93
796.535	15770.09
796.867	15829.53
797.198	15691.9
797.53	15776.2
797.862	15678.12
798.193	15691.23
798.525	15632.47
798.856	15603.09
799.188	15446.94
799.519	15375.75
799.85	15357.68
800.182	15363.32
800.513	15312.25
800.844	15191.35
801.175	15266.83
801.506	15242.65
801.837	15051.02
802.168	15103.67
802.499	15057.34
802.83	14896.44
803.161	14862.55
803.491	14896.44
803.822	14969.89
804.153	14811.47
804.483	14682.21
804.814	14669.11
805.145	14690.12
805.475	14632.5
805.805	14630.46
806.136	14565.83
806.466	14587.3
806.796	14506.62
807.126	14446.06
807.457	14380.98
807.787	14397.02
808.117	14378.27
808.447	14193.19
808.777	14300.53
809.107	14272.28
809.436	14122.91
809.766	14195.67
810.096	14121.55
810.426	14094.66
810.755	13996.36
811.085	14061.66
811.414	13995
811.744	13880.65
812.073	13826.64
812.403	13827.55
812.732	13836.36
813.061	13827.55
813.39	13720.2
813.719	13675.46
814.049	13735.12
814.378	13608.57
814.707	13561.79
815.036	13500.77
815.365	13484.73
815.693	13464.17
816.022	13397.73
816.351	13368.35
816.68	13276.15
817.008	13330.16
817.337	13216.94
817.665	13179.88
817.994	13238.86
818.322	13294.23
818.651	13103.5
818.979	13077.06
819.307	13160.67
819.636	13163.16
819.964	13053.56
820.292	13009.71
820.62	13013.1
820.948	12956.83
821.276	13092.2
821.604	12963.61
821.932	13045.65
822.259	13013.56
822.587	13006.1
822.915	12939.66
823.243	13006.55
823.57	12973.78
823.898	12948.25
824.225	12944.41
824.553	12895.37
824.88	12981.69
825.207	12952.77
825.535	12974.01
825.862	12980.79
826.189	12940.56
826.516	12972.88
826.843	12972.65
827.17	12934.69
827.497	12952.77
827.824	12951.41
828.151	12972.2
828.478	12976.04
828.805	12981.47
829.131	12894.69
829.458	12944.18
829.785	12804.52
830.111	12937.17
830.438	12927.23
830.764	12924.07
831.09	12891.75
831.417	12827.35
831.743	12911.41
832.069	12848.36
832.395	12838.65
832.722	12993.9
833.048	12812.21
833.374	12928.36
833.7	12804.3
834.026	12833.45
834.351	12864.63
834.677	12908.25
835.003	12759.33
835.329	12789.61
835.654	12797.52
835.98	12807.01
836.306	12746.44
836.631	12673.23
836.956	12688.14
837.282	12773.79
837.607	12647.01
837.932	12693.56
838.258	12611.76
838.583	12646.33
838.908	12570.4
839.233	12584.41
839.558	12567.69
839.883	12479.33
840.208	12523.85
840.533	12466.68
840.858	12371.77
841.182	12494.93
841.507	12502.16
841.832	12401.82
842.156	12354.82
842.481	12364.76
842.805	12334.48
843.13	12294.93
843.454	12199.11
843.778	12252.22
844.103	12188.95
844.427	12259.23
844.751	12094.94
845.075	12116.63
845.399	12068.04
845.723	11994.83
846.047	12070.3
846.371	11923.87
846.695	11939.46
847.019	11829.41
847.343	11810.2
847.666	11757.09
847.99	11742.4
848.313	11698.11
848.637	11612.46
848.96	11591.22
849.284	11520.94
849.607	11473.94
849.931	11473.48
850.254	11378.34
850.577	11328.63
850.9	11215.86
851.223	11265.81
851.546	11203.66
851.869	11088.86
852.192	11196.43
852.515	11109.2
852.838	10947.62
853.161	11046.15
853.483	10932.03
853.806	10914.18
854.129	10898.13
854.451	10849.55
854.774	10788.98
855.096	10801.18
855.419	10739.49
855.741	10714.18
856.063	10626.73
856.385	10601.19
856.708	10576.11
857.03	10610
857.352	10564.35
857.674	10591.92
857.996	10554.19
858.318	10425.38
858.64	10494.75
858.961	10428.09
859.283	10321.65
859.605	10296.11
859.926	10289.11
860.248	10348.77
860.57	10205.72
860.891	10194.87
861.212	10134.54
861.534	10122.33
861.855	10194.87
862.176	10173.86
862.498	10238.94
862.819	10164.37
863.14	10090.92
863.461	10063.8
863.782	10071.71
864.103	9988.78
864.424	10063.58
864.745	10078.27
865.065	9991.26
865.386	9981.77
865.707	9953.52
866.027	9934.54
866.348	9814.54
866.668	9862
866.989	9855.22
867.309	9797.14
867.63	9907.88
867.95	9875.56
868.27	9814.32
868.59	9857.93
868.91	9765.51
869.23	9763.25
869.55	9721.21
869.87	9698.84
870.19	9738.16
870.51	9702.46
870.83	9690.03
871.15	9655.23
871.469	9661.78
871.789	9655.45
872.109	9575
872.428	9533.2
872.748	9623.59
873.067	9535.68
873.386	9558.96
873.706	9543.36
874.025	9511.73
874.344	9518.96
874.663	9459.75
874.982	9497.49
875.301	9445.06
875.62	9386.98
875.939	9380.66
876.258	9440.99
876.577	9347.21
876.896	9363.48
877.214	9389.24
877.533	9410.94
877.852	9354.44
878.17	9355.8
878.489	9359.64
878.807	9268.57
879.125	9328.23
879.444	9304.28
879.762	9227.44
880.08	9240.77
880.398	9265.63
880.716	9230.15
881.034	9125.52
881.352	9148.8
881.67	9159.42
881.988	9136.6
882.306	9138.86
882.624	9117.84
882.941	9076.94
883.259	9113.32
883.577	9022.02
883.894	8994.9
884.212	8999.2
884.529	8982.25
884.846	8956.94
885.164	8930.73
885.481	8906.55
885.798	8920.33
886.115	8808.69
886.432	8896.15
886.75	8763.5
887.067	8837.85
887.383	8784.51
887.7	8747.68
888.017	8738.19
888.334	8732.99
888.651	8780.9
888.967	8641.69
889.284	8675.82
889.6	8641.02
889.917	8616.16
890.233	8579.77
890.55	8552.88
890.866	8537.74
891.182	8522.83
891.498	8474.24
891.815	8391.98
892.131	8438.31
892.447	8366.9
892.763	8368.93
893.079	8372.1
893.395	8332.32
893.71	8293
894.026	8318.99
894.342	8297.52
894.657	8125.78
894.973	8199.22
895.289	8197.64
895.604	8224.53
895.92	8166.23
896.235	8163.97
896.55	8169.84
896.865	7993.12
897.181	8016.17
897.496	8014.59
897.811	7948.38
898.126	7920.58
898.441	7931.88
898.756	7931.2
899.071	7875.39
899.386	7906.8
899.7	7808.04
900.015	7775.73
900.33	7730.98
900.644	7724.88
900.959	7686.69
901.273	7749.29
901.588	7673.36
901.902	7594.72
902.216	7563.53
902.531	7566.47
902.845	7567.15
903.159	7498.67
903.473	7490.76
903.787	7518.79
904.101	7374.61
904.415	7390.65
904.729	7373.7
905.042	7310.2
905.356	7407.6
905.67	7304.55
905.984	7285.12
906.297	7219.36
906.611	7199.47
906.924	7159.7
907.237	7161.73
907.551	7101.17
907.864	7102.07
908.177	7081.06
908.491	7046.93
908.804	7056.65
909.117	6950.21
909.43	6971.68
909.743	7001.28
910.056	6925.13
910.368	6854.62
910.681	6833.15
910.994	6738.47
911.307	6818.46
911.619	6729.65
911.932	6745.25
912.244	6669.77
912.557	6640.16
912.869	6662.54
913.181	6615.53
913.494	6610.56
913.806	6584.8
914.118	6570.79
914.43	6548.19
914.742	6481.3
915.054	6418.93
915.366	6453.95
915.678	6438.81
915.99	6385.03
916.302	6355.65
916.613	6363.34
916.925	6344.8
917.236	6307.97
917.548	6284.02
917.859	6231.14
918.171	6216.22
918.482	6227.97
918.794	6155.66
919.105	6197.24
919.416	6096.45
919.727	6100.97
920.038	5999.73
920.349	6035.66
920.66	6039.05
920.971	6013.29
921.282	5990.24
921.593	5911.6
921.903	5911.14
922.214	5852.61
922.525	5905.27
922.835	5832.5
923.146	5826.85
923.456	5831.6
923.767	5806.29
924.077	5822.78
924.387	5735.56
924.697	5674.99
925.008	5728.1
925.318	5600.64
925.628	5634.09
925.938	5640.42
926.248	5590.7
926.558	5574.43
926.867	5523.36
927.177	5493.75
927.487	5491.27
927.796	5442.91
928.106	5424.15
928.416	5429.8
928.725	5390.93
929.034	5398.39
929.344	5385.96
929.653	5369.69
929.962	5342.57
930.271	5265.29
930.581	5262.12
930.89	5222.8
931.199	5202.24
931.508	5204.04
931.817	5198.62
932.125	5119.53
932.434	5136.7
932.743	5103.48
933.051	5033.88
933.36	5047.44
933.669	5000.89
933.977	5035.46
934.286	5010.38
934.594	4967.89
934.902	4970.15
935.21	4890.15
935.519	4928.57
935.827	4924.05
936.135	4855.35
936.443	4865.3
936.751	4818.07
937.059	4797.95
937.367	4745.52
937.674	4719.31
937.982	4734.9
938.29	4703.72
938.597	4708.24
938.905	4645.19
939.213	4681.35
939.52	4595.25
939.827	4622.82
940.135	4622.36
940.442	4589.6
940.749	4543.72
941.056	4596.83
941.363	4539.88
941.67	4555.93
941.977	4437.74
942.284	4466.21
942.591	4398.87
942.898	4402.48
943.205	4385.76
943.511	4388.25
943.818	4367.23
944.125	4364.97
944.431	4392.77
944.738	4332.65
945.044	4303.73
945.35	4268.48
945.657	4269.38
945.963	4237.29
946.269	4188.7
946.575	4209.27
946.881	4201.58
947.187	4174.47
947.493	4165.65
947.799	4117.97
948.105	4138.54
948.41	4089.72
948.716	4073.45
949.022	4077.97
949.327	4096.28
949.633	4019.22
949.938	4042.27
950.244	4032.55
950.549	3991.19
950.854	3965.43
951.16	3949.61
951.465	3900.12
951.77	3891.54
952.075	3903.06
952.38	3845.21
952.685	3870.52
952.99	3844.98
953.294	3847.92
953.599	3831.2
953.904	3744.2
954.209	3821.03
954.513	3776.96
954.818	3753.69
955.122	3767.02
955.426	3693.12
955.731	3682.5
956.035	3694.03
956.339	3657.64
956.643	3685.21
956.948	3650.41
957.252	3606.12
957.556	3641.83
957.86	3589.17
958.163	3555.27
958.467	3566.12
958.771	3504.43
959.075	3528.61
959.378	3544.88
959.682	3526.8
959.985	3484.09
960.289	3494.48
960.592	3458.33
960.896	3433.7
961.199	3442.96
961.502	3409.51
961.805	3384.88
962.108	3350.99
962.411	3415.62
962.714	3351.89
963.017	3321.61
963.32	3379.69
963.623	3313.92
963.926	3328.16
964.228	3264.89
964.531	3273.25
964.833	3281.38
965.136	3227.6
965.438	3218.56
965.741	3222.85
966.043	3199.35
966.345	3171.1
966.648	3158.9
966.95	3155.74
967.252	3173.81
967.554	3150.31
967.856	3126.58
968.158	3130.65
968.46	3052.91
968.761	3063.99
969.063	3059.02
969.365	3013.14
969.666	3002.29
969.968	3015.17
970.269	3028.96
970.571	3001.16
970.872	3002.29
971.174	2949.41
971.475	2946.48
971.776	2937.89
972.077	2896.08
972.378	2948.28
972.679	2913.03
972.98	2897.89
973.281	2898.57
973.582	2890.88
973.883	2888.85
974.183	2829.19
974.484	2820.38
974.785	2812.69
975.085	2823.99
975.386	2790.1
975.686	2777.44
975.986	2793.94
976.287	2797.78
976.587	2760.49
976.887	2734.73
977.187	2718.69
977.487	2711.45
977.787	2709.42
978.087	2664.22
978.387	2673.49
978.687	2705.8
978.987	2688.18
979.286	2622.19
979.586	2614.96
979.885	2605.47
980.185	2610.44
980.484	2609.54
980.784	2551.46
981.083	2571.57
981.382	2598.91
981.682	2560.05
981.981	2576.54
982.28	2528.63
982.579	2493.61
982.878	2512.82
983.177	2519.37
983.475	2460.84
983.774	2481.63
984.073	2459.26
984.372	2437.34
984.67	2472.36
984.969	2425.13
985.267	2410.67
985.566	2407.96
985.864	2396.43
986.162	2365.02
986.461	2375.87
986.759	2368.19
987.057	2360.05
987.355	2347.62
987.653	2361.86
987.951	2333.16
988.249	2312.59
988.547	2306.27
988.844	2283.89
989.142	2283.67
989.44	2301.3
989.737	2282.09
990.035	2238.25
990.332	2218.59
990.63	2212.71
990.927	2174.29
991.224	2197.57
991.521	2206.61
991.819	2216.33
992.116	2206.61
992.413	2181.75
992.71	2197.8
993.006	2176.1
993.303	2141.98
993.6	2113.28
993.897	2092.71
994.193	2101.98
994.49	2102.2
994.787	2080.51
995.083	2063.11
995.379	2098.36
995.676	2071.7
995.972	2052.71
996.268	2051.81
996.565	2033.96
996.861	2003
997.157	2014.98
997.453	2016.33
997.749	2001.42
998.044	1988.31
998.34	1973.62
998.636	1991.25
998.932	1964.58
999.227	1953.28
999.523	1925.03
999.818	1962.77
1000.114	1896.33
1000.409	1897.01
1000.704	1890.23
1001	1883
1001.295	1880.52
1001.59	1870.12
1001.885	1844.13
1002.18	1854.53
1002.475	1865.6
1002.77	1832.61
1003.065	1799.39
1003.359	1812.72
1003.654	1776.34
1003.949	1798.26
1004.243	1786.28
1004.538	1779.28
1004.832	1773.63
1005.127	1767.3
1005.421	1733.85
1005.715	1742.21
1006.009	1720.75
1006.304	1691.14
1006.598	1717.81
1006.892	1691.14
1007.186	1706.73
1007.48	1658.83
1007.773	1643.01
1008.067	1648.43
1008.361	1658.15
1008.655	1638.49
1008.948	1655.89
1009.242	1631.71
1009.535	1620.64
1009.829	1617.92
1010.122	1593.29
1010.415	1584.25
1010.708	1565.27
1011.001	1577.02
1011.295	1581.09
1011.588	1555.55
1011.881	1552.16
1012.173	1543.12
1012.466	1543.8
1012.759	1545.84
1013.052	1499.96
1013.344	1528.66
1013.637	1506.97
1013.93	1501.54
1014.222	1499.73
1014.514	1471.94
1014.807	1444.59
1015.099	1444.37
1015.391	1474.88
1015.683	1448.66
1015.976	1440.98
1016.268	1419.96
1016.56	1386.97
1016.851	1408.44
1017.143	1421.09
1017.435	1385.16
1017.727	1383.81
1018.018	1367.31
1018.31	1336.35
1018.602	1362.11
1018.893	1339.96
1019.185	1313.75
1019.476	1342
1019.767	1325.28
1020.058	1316.91
1020.35	1309.01
1020.641	1317.37
1020.932	1273.3
1021.223	1283.47
1021.514	1279.63
1021.804	1258.38
1022.095	1263.58
1022.386	1257.48
1022.677	1242.11
1022.967	1243.02
1023.258	1216.58
1023.548	1218.61
1023.839	1215.67
1024.129	1190.14
1024.419	1193.08
1024.709	1186.3
1025	1191.72
1025.29	1154.43
1025.58	1169.57
1025.87	1135.9
1026.16	1136.81
1026.449	1124.38
1026.739	1141.1
1027.029	1135.45
1027.319	1112.4
1027.608	1116.02
1027.898	1101.1
1028.187	1083.7
1028.477	1106.75
1028.766	1103.13
1029.055	1087.77
1029.344	1070.37
1029.634	1050.03
1029.923	1062.91
1030.212	1074.44
1030.501	1040.99
1030.79	1066.3
1031.078	1030.37
1031.367	1025.62
1031.656	1013.42
1031.945	1020.88
1032.233	1001.22
1032.522	993.76
1032.81	978.84
1033.099	974.55
1033.387	973.42
1033.675	980.88
1033.963	968.22
1034.251	952.63
1034.54	946.08
1034.828	960.99
1035.116	952.86
1035.403	946.3
1035.691	950.6
1035.979	926.64
1036.267	957.15
1036.554	920.99
1036.842	892.52
1037.129	916.7
1037.417	916.25
1037.704	882.58
1037.992	915.57
1038.279	884.84
1038.566	888.45
1038.853	888.45
1039.14	888.45
