Data from red_cardboard_box_FLMS001491_00003.txt Node
Date: Wed Feb 08 11:31:23 GMT 2017
User: dcchb
Spectrometer: FLMS00149
Trigger mode: 0
Integration Time (sec): 2.000000E-2
Scans to average: 10
Electric dark correction enabled: true
Nonlinearity correction enabled: false
Boxcar width: 0
XAxis mode: Wavelengths
Number of Pixels in Spectrum: 2048
>>>>>Begin Spectral Data<<<<<
341.393	-3.04
341.776	-3.04
342.16	-3.04
342.543	-36.93
342.927	-71.51
343.31	-77.38
343.693	-56.37
344.077	-79.42
344.46	-67.67
344.843	-53.2
345.226	-47.1
345.61	-17.73
345.993	-12.75
346.376	3.29
346.759	18.88
347.142	27.25
347.525	43.29
347.908	48.49
348.291	69.73
348.674	83.74
349.057	116.96
349.44	130.07
349.823	163.06
350.206	172.55
350.588	191.08
350.971	214.36
351.354	226.11
351.737	235.38
352.119	257.75
352.502	257.52
352.884	290.51
353.267	283.06
353.65	304.07
354.032	303.62
354.414	312.21
354.797	290.97
355.179	311.53
355.562	325.32
355.944	331.64
356.326	328.03
356.709	348.59
357.091	341.59
357.473	331.19
357.855	351.08
358.238	339.33
358.62	372.09
359.002	334.13
359.384	321.7
359.766	334.81
360.148	361.7
360.53	349.5
360.912	344.3
361.294	330.06
361.676	328.71
362.057	347.69
362.439	338.65
362.821	343.39
363.203	323.28
363.584	328.03
363.966	316.05
364.348	331.42
364.729	327.12
365.111	319.89
365.493	327.8
365.874	321.47
366.256	339.78
366.637	312.44
367.019	303.17
367.4	305.88
367.781	327.35
368.163	307.69
368.544	297.52
368.925	301.36
369.306	328.25
369.688	328.25
370.069	308.37
370.45	324.41
370.831	306.56
371.212	277.86
371.593	309.27
371.974	318.99
372.355	311.31
372.736	320.57
373.117	321.93
373.498	320.34
373.879	323.73
374.26	326.67
374.641	321.02
375.021	300.23
375.402	329.84
375.783	321.47
376.163	326.45
376.544	318.76
376.925	333.45
377.305	329.38
377.686	298.65
378.066	315.15
378.447	319.44
378.827	324.41
379.208	315.6
379.588	305.88
379.968	328.48
380.349	331.64
380.729	315.6
381.109	345.88
381.489	342.94
381.87	335.03
382.25	337.75
382.63	333.9
383.01	316.73
383.39	325.99
383.77	342.72
384.15	344.98
384.53	339.55
384.91	333.45
385.29	334.36
385.67	337.52
386.049	351.98
386.429	333.9
386.809	338.65
387.189	346.33
387.568	343.62
387.948	350.85
388.328	346.33
388.707	352.89
389.087	343.85
389.466	364.19
389.846	340.01
390.225	350.4
390.605	361.7
390.984	369.38
391.363	362.38
391.743	358.54
392.122	365.54
392.501	352.43
392.881	365.77
393.26	365.99
393.639	370.51
394.018	366.9
394.397	352.66
394.776	357.18
395.155	382.26
395.534	371.87
395.913	378.65
396.292	368.03
396.671	363.96
397.05	371.87
397.429	362.38
397.808	374.58
398.186	362.83
398.565	363.73
398.944	361.47
399.323	371.19
399.701	382.26
400.08	374.35
400.458	392.66
400.837	401.92
401.215	368.48
401.594	379.78
401.972	396.5
402.351	369.61
402.729	377.29
403.107	387.24
403.486	375.26
403.864	370.96
404.242	380.46
404.62	393.56
404.999	387.69
405.377	401.92
405.755	409.38
406.133	404.41
406.511	398.31
406.889	389.72
407.267	389.72
407.645	408.03
408.023	397.4
408.401	411.19
408.779	420.68
409.156	421.13
409.534	415.03
409.912	403.96
410.29	413.68
410.667	429.72
411.045	413.45
411.422	415.71
411.8	408.93
412.178	429.49
412.555	434.01
412.933	436.95
413.31	409.61
413.687	440.12
414.065	432.21
414.442	444.41
414.819	436.73
415.197	439.21
415.574	451.41
415.951	445.09
416.328	427.69
416.705	463.17
417.082	452.54
417.46	447.8
417.837	441.92
418.214	466.56
418.591	446.44
418.967	459.55
419.344	454.8
419.721	468.14
420.098	476.95
420.475	480.79
420.852	466.78
421.228	479.66
421.605	459.32
421.982	467.69
422.358	476.72
422.735	488.25
423.111	475.82
423.488	472.66
423.864	516.05
424.241	486.67
424.617	465.88
424.994	475.14
425.37	474.92
425.746	502.49
426.123	495.48
426.499	514.01
426.875	509.49
427.251	511.75
427.627	516.27
428.003	524.41
428.379	521.47
428.756	505.65
429.132	507.68
429.507	502.26
429.883	526.89
430.259	513.56
430.635	529.6
431.011	523.96
431.387	542.03
431.763	548.81
432.138	542.71
432.514	534.8
432.89	544.75
433.265	549.04
433.641	576.84
434.016	550.17
434.392	559.66
434.767	556.72
435.143	577.51
435.518	563.73
435.894	567.34
436.269	583.16
436.644	597.4
437.02	596.04
437.395	571.41
437.77	589.26
438.145	602.6
438.52	600.79
438.895	605.08
439.271	609.6
439.646	617.51
440.021	617.74
440.395	611.86
440.77	603.5
441.145	613.9
441.52	621.13
441.895	598.53
442.27	617.51
442.645	631.3
443.019	622.26
443.394	640.34
443.769	627.46
444.143	628.59
444.518	634.91
444.892	648.92
445.267	652.54
445.641	666.32
446.016	631.52
446.39	639.43
446.764	655.48
447.139	646.89
447.513	639.88
447.887	628.81
448.262	669.49
448.636	664.06
449.01	654.12
449.384	671.97
449.758	659.77
450.132	664.52
450.506	690.28
450.88	675.14
451.254	671.97
451.628	697.74
452.002	699.09
452.376	704.74
452.75	701.13
453.123	717.17
453.497	704.74
453.871	715.81
454.244	725.31
454.618	721.92
454.992	715.59
455.365	730.5
455.739	744.06
456.112	740.9
456.486	751.29
456.859	770.95
457.232	735.48
457.606	760.11
457.979	766.43
458.352	769.37
458.725	789.03
459.099	777.51
459.472	802.59
459.845	791.29
460.218	809.6
460.591	812.99
460.964	826.55
461.337	798.3
461.71	828.58
462.083	836.94
462.456	842.59
462.829	866.09
463.201	851.4
463.574	831.07
463.947	868.8
464.32	855.25
464.692	846.21
465.065	857.73
465.438	871.52
465.81	880.78
466.183	897.28
466.555	896.37
466.928	910.39
467.3	924.17
467.672	906.54
468.045	957.84
468.417	956.03
468.789	937.96
469.161	930.72
469.534	979.99
469.906	966.2
470.278	977.73
470.65	997.62
471.022	1020.67
471.394	1021.57
471.766	999.65
472.138	1016.15
472.51	1032.19
472.882	1073.77
473.253	1081
473.625	1062.7
473.997	1085.52
474.369	1069.7
474.74	1106.09
475.112	1120.78
475.484	1114
475.855	1134.33
476.227	1129.14
476.598	1161.9
476.97	1149.25
477.341	1179.76
477.713	1183.82
478.084	1198.97
478.455	1237.61
478.827	1227.67
479.198	1269.47
479.569	1251.17
479.94	1265.86
480.311	1291.39
480.682	1323.26
481.053	1335.23
481.424	1342.69
481.795	1339.07
482.166	1396.25
482.537	1389.92
482.908	1418.39
483.279	1447.77
483.65	1468.11
484.021	1468.34
484.391	1480.09
484.762	1513.31
485.133	1536.36
485.503	1518.73
485.874	1524.38
486.244	1555.79
486.615	1596.02
486.985	1568
487.356	1597.37
487.726	1640.31
488.097	1641.44
488.467	1652.74
488.837	1686.64
489.207	1684.83
489.578	1710.59
489.948	1725.28
490.318	1793.07
490.688	1760.31
491.058	1810.47
491.428	1824.26
491.798	1808.44
492.168	1868.33
492.538	1872.85
492.908	1905.61
493.278	1904.94
493.648	1948.78
494.017	1935.22
494.387	1976.12
494.757	1976.12
495.126	1987.19
495.496	1984.26
495.866	2021.32
496.235	2015.22
496.605	2025.16
496.974	2073.52
497.344	2095.44
497.713	2085.5
498.082	2095.21
498.452	2115.55
498.821	2106.74
499.19	2130.92
499.559	2212.05
499.928	2177.47
500.298	2175.44
500.667	2200.97
501.036	2193.52
501.405	2216.57
501.774	2215.66
502.143	2263.34
502.512	2299.5
502.88	2258.82
503.249	2315.55
503.618	2300.18
503.987	2312.38
504.356	2338.14
504.724	2368.2
505.093	2371.82
505.462	2391.25
505.83	2369.56
506.199	2411.82
506.567	2443.23
506.936	2416.79
507.304	2476.45
507.672	2462.21
508.041	2490.23
508.409	2509.67
508.777	2512.38
509.145	2560.74
509.514	2538.37
509.882	2586.5
510.25	2578.36
510.618	2584.69
510.986	2610.45
511.354	2653.84
511.722	2673.73
512.09	2679.6
512.458	2653.16
512.826	2713.95
513.193	2702.2
513.561	2732.48
513.929	2764.35
514.297	2784.01
514.664	2792.37
515.032	2804.35
515.4	2849.77
515.767	2896.77
516.135	2846.83
516.502	2863.1
516.869	2899.94
517.237	2917.11
517.604	2942.2
517.972	2940.16
518.339	2958.24
518.706	2945.81
519.073	3003.44
519.44	3007.05
519.808	3057.67
520.175	3060.84
520.542	3064.23
520.909	3130.89
521.276	3118.69
521.643	3127.5
522.009	3169.54
522.376	3174.73
522.743	3235.52
523.11	3229.19
523.477	3253.6
523.843	3266.48
524.21	3313.94
524.577	3352.58
524.943	3344.22
525.31	3367.04
525.676	3412.01
526.043	3408.85
526.409	3466.25
526.776	3486.59
527.142	3495.63
527.508	3505.57
527.874	3528.85
528.241	3571.56
528.607	3618.34
528.973	3635.29
529.339	3655.62
529.705	3710.76
530.071	3700.59
530.437	3717.09
530.803	3727.94
531.169	3786.69
531.535	3778.78
531.901	3770.2
532.267	3805.9
532.632	3863.98
532.998	3850.87
533.364	3871.89
533.73	3893.58
534.095	3916.86
534.461	3918.44
534.826	3964.77
535.192	3979.23
535.557	4000.93
535.923	4006.12
536.288	4043.41
536.653	4015.61
537.019	4071.21
537.384	4059.68
537.749	4133.58
538.114	4164.31
538.479	4150.53
538.845	4136.52
539.21	4170.64
539.575	4174.25
539.94	4190.07
540.305	4263.29
540.67	4236.63
541.034	4284.99
541.399	4316.85
541.764	4338.77
542.129	4329.05
542.494	4367.92
542.858	4380.8
543.223	4387.36
543.587	4409.73
543.952	4473.46
544.316	4433.46
544.681	4459.44
545.045	4526.56
545.41	4526.56
545.774	4503.51
546.138	4547.8
546.503	4592.55
546.867	4606.33
547.231	4647.24
547.595	4661.93
547.959	4638.42
548.324	4741.7
548.688	4690.63
549.052	4743.96
549.416	4778.08
549.779	4746.67
550.143	4780.34
550.507	4832.99
550.871	4846.55
551.235	4814.01
551.599	4954.8
551.962	4887.68
552.326	4943.73
552.689	4980.79
553.053	5011.75
553.417	4988.02
553.78	5043.38
554.143	5013.78
554.507	5085.19
554.87	5136.04
555.234	5219.42
555.597	5163.16
555.96	5181.46
556.323	5213.1
556.686	5278.41
557.05	5314.56
557.413	5377.84
557.776	5424.17
558.139	5427.56
558.502	5484.5
558.865	5468.46
559.228	5598.4
559.59	5627.78
559.953	5573.77
560.316	5661.45
560.679	5718.17
561.041	5780.09
561.404	5782.57
561.767	5856.92
562.129	5857.37
562.492	5951.16
562.854	5978.73
563.217	5984.15
563.579	6045.39
563.941	6098.27
564.304	6151.83
564.666	6197.93
565.028	6270.47
565.39	6257.36
565.753	6408.77
566.115	6429.34
566.477	6492.16
566.839	6528.77
567.201	6609.67
567.563	6582.1
567.925	6700.52
568.287	6721.53
568.648	6770.12
569.01	6887.86
569.372	6950.9
569.734	6984.35
570.095	7065.7
570.457	7131.69
570.819	7174.85
571.18	7234.97
571.542	7310.9
571.903	7359.71
572.265	7483.32
572.626	7513.83
572.987	7552.02
573.349	7659.36
573.71	7777.78
574.071	7836.53
574.432	7894.83
574.794	7921.5
575.155	8037.88
575.516	8086.24
575.877	8158.1
576.238	8280.81
576.599	8375.5
576.96	8452.11
577.32	8557.42
577.681	8713.12
578.042	8761.25
578.403	8809.39
578.763	8896.39
579.124	9016.61
579.485	9110.62
579.845	9212.09
580.206	9347
580.566	9516.71
580.927	9549.93
581.287	9756.03
581.648	9856.14
582.008	9979.3
582.368	10095.68
582.728	10269.24
583.089	10397.37
583.449	10481.89
583.809	10707.87
584.169	10800.52
584.529	10882.1
584.889	11191.92
585.249	11295.65
585.609	11386.04
585.969	11651.35
586.329	11775.86
586.688	11988.29
587.048	12197.32
587.408	12357.54
587.768	12574.03
588.127	12783.07
588.487	12978.09
588.846	13299.89
589.206	13378.31
589.565	13557.74
589.925	13912.98
590.284	14042.92
590.643	14416.47
591.003	14552.06
591.362	14795.9
591.721	15136.23
592.08	15349.33
592.44	15663.67
592.799	15903.89
593.158	16191.11
593.517	16520.37
593.876	16715.85
594.235	16954.94
594.593	17246
594.952	17650.28
595.311	17926.44
595.67	18231.96
596.029	18653.2
596.387	18935.67
596.746	19339.73
597.104	19511.48
597.463	19781.53
597.822	20156.66
598.18	20434.17
598.538	20756.19
598.897	21180.14
599.255	21286.8
599.613	21961.36
599.972	22118.42
600.33	22538.74
600.688	22704.84
601.046	23144.6
601.404	23500.3
601.762	23701.88
602.12	24317.23
602.478	24603.55
602.836	24884.22
603.194	25132.8
603.552	25402.62
603.91	25687.59
604.268	26204.64
604.625	26267.91
604.983	26832.87
605.341	26981.79
605.698	27482.57
606.056	27754.65
606.413	28029.9
606.771	28350.79
607.128	28676.21
607.485	28834.85
607.843	29061.06
608.2	29513.48
608.557	29890.87
608.914	30074.59
609.272	30401.36
609.629	30675.48
609.986	30968.13
610.343	31185.75
610.7	31547.32
611.057	31625.74
611.414	31942.34
611.771	32198.38
612.127	32569.44
612.484	32748.87
612.841	33025.25
613.198	33166.94
613.554	33327.39
613.911	33755.4
614.267	33743.42
614.624	34034.49
614.98	34350.41
615.337	34502.72
615.693	34598.31
616.05	34711.76
616.406	35204.4
616.762	35152.88
617.118	35448.01
617.475	35578.4
617.831	35696.36
618.187	35942.01
618.543	36158.72
618.899	36299.29
619.255	36597.13
619.611	36530.47
619.967	36852.94
620.323	37022.2
620.678	36872.15
621.034	37041.87
621.39	37255.64
621.746	37294.29
622.101	37729.08
622.457	37746.71
622.812	37709.19
623.168	37955.74
623.523	38076.19
623.879	38218.56
624.234	38118.67
624.589	38414.48
624.945	38437.99
625.3	38601.82
625.655	38583.75
626.01	38814.47
626.365	38803.63
626.72	38875.49
627.075	38892.89
627.43	39005.88
627.785	38934.24
628.14	39110.29
628.495	39176.95
628.85	39301.69
629.205	39186.22
629.559	39436.83
629.914	39393.22
630.269	39411.75
630.623	39340.11
630.978	39384.63
631.332	39688.12
631.687	39759.53
632.041	39633.21
632.396	39740.78
632.75	39591.63
633.104	39856.71
633.459	39516.15
633.813	39830.04
634.167	39718.18
634.521	39792.3
634.875	39722.7
635.229	39843.83
635.583	39575.13
635.937	39670.95
636.291	39854.67
636.645	39843.15
636.999	39692.64
637.352	39824.62
637.706	39660.78
638.06	39915.01
638.413	39691.29
638.767	39720.21
639.121	39929.7
639.474	39684.06
639.828	39630.72
640.181	39907.1
640.534	39842.92
640.888	39755.24
641.241	39675.47
641.594	39779.65
641.947	39842.92
642.301	39694
642.654	39828.01
643.007	39815.58
643.36	39760.21
643.713	39768.35
644.066	39900.55
644.419	39599.09
644.771	39254.24
645.124	38963.85
645.477	38922.27
645.83	38709.17
646.182	38804.53
646.535	38647.02
646.888	38889.27
647.24	38731.31
647.593	38690.64
647.945	38720.92
648.298	38794.81
648.65	38717.08
649.002	38556.63
649.355	38812.21
649.707	38668.04
650.059	38739
650.411	39293.56
650.763	39254.01
651.115	39732.19
651.467	39610.84
651.819	39634.79
652.171	39591.63
652.523	39574.91
652.875	39479.09
653.227	39351.63
653.578	39612.19
653.93	39593.89
654.282	39502.37
654.633	39250.39
654.985	39488.35
655.337	39541.46
655.688	39529.26
656.039	39700.1
656.391	39299.21
656.742	39562.25
657.094	39418.98
657.445	39506.21
657.796	39345.76
658.147	39484.74
658.498	39364.74
658.849	39425.76
659.2	39333.78
659.551	39257.63
659.902	39358.19
660.253	39240.45
660.604	39331.3
660.955	39087.46
661.306	39328.58
661.656	39266.44
662.007	39226.44
662.358	39234.58
662.708	39267.12
663.059	39351.63
663.409	39162.04
663.76	39470.05
664.11	39268.7
664.461	39478.41
664.811	39352.76
665.161	39331.97
665.511	39321.13
665.862	39357.51
666.212	39452.65
666.562	39300.34
666.912	39336.49
667.262	39175.59
667.612	39163.62
667.962	39356.15
668.312	39361.35
668.662	39461.69
669.011	39355.02
669.361	39305.99
669.711	39140.11
670.06	39254.24
670.41	39038.42
670.76	39087.91
671.109	39296.95
671.459	39278.19
671.808	39222.37
672.157	39142.6
672.507	38832.33
672.856	39007.01
673.205	38910.29
673.554	39128.82
673.904	38902.61
674.253	39290.85
674.602	39145.99
674.951	38668.04
675.3	38256.07
675.649	38973.79
675.998	39101.02
676.346	38946.67
676.695	39077.74
677.044	38706.23
677.393	38807.92
677.741	38920.69
678.09	38914.81
678.438	38691.77
678.787	38736.51
679.135	38775.83
679.484	38639.79
679.832	38745.1
680.181	38526.35
680.529	38778.54
680.877	38594.37
681.225	38485.44
681.573	38776.51
681.922	38435.73
682.27	38353.47
682.618	38346.69
682.966	38266.01
683.314	38257.2
683.661	38164.55
684.009	37953.03
684.357	37988.73
684.705	37781.51
685.053	37910.54
685.4	37932.92
685.748	37749.42
686.095	37790.77
686.443	37580.38
686.79	37571.79
687.138	37657.44
687.485	37537.67
687.832	37436.43
688.18	37489.31
688.527	37290.67
688.874	37235.98
689.221	37151.92
689.568	37244.35
689.915	36991.24
690.262	37067.18
690.609	36908.76
690.956	36775.66
691.303	36774.3
691.65	36594.19
691.997	36577.24
692.344	36415.67
692.69	36400.98
693.037	36413.86
693.383	36095.45
693.73	36253.19
694.077	36023.13
694.423	35996.92
694.769	35958.05
695.116	35889.13
695.462	35902.23
695.808	35648
696.155	35760.77
696.501	35504.05
696.847	35515.35
697.193	35250.95
697.539	35469.7
697.885	35021.35
698.231	35015.03
698.577	35072.2
698.923	34941.58
699.269	34773.45
699.614	34695.26
699.96	34653.45
700.306	34735.26
700.651	34504.3
700.997	34394.48
701.342	34354.48
701.688	34171.21
702.033	34270.86
702.379	34150.64
702.724	34031.1
703.069	34058.21
703.415	33653.48
703.76	33774.61
704.105	33761.5
704.45	33708.85
704.795	33569.41
705.14	33435.63
705.485	33451.45
705.83	33242.19
706.175	33245.58
706.52	33204.45
706.865	33099.14
707.209	33055.08
707.554	32951.35
707.899	33034.06
708.243	32897.57
708.588	32811.02
708.932	32638.59
709.277	32537.12
709.621	32483.11
709.966	32327.41
710.31	32471.59
710.654	32251.71
710.998	32279.5
711.342	32260.75
711.687	32209.22
712.031	32068.66
712.375	31808.1
712.719	31914.32
713.063	31901.44
713.407	31941.89
713.75	31718.39
714.094	31698.05
714.438	31661.89
714.782	31669.12
715.125	31559.98
715.469	31639.52
715.812	31371.73
716.156	31328.34
716.499	31303.71
716.843	31245.18
717.186	31060.33
717.53	31232.07
717.873	31260.32
718.216	31095.81
718.559	31029.82
718.902	30757.96
719.246	30931.74
719.589	30780.11
719.932	30734.46
720.275	30671.64
720.617	30601.36
720.96	30498.76
721.303	30620.11
721.646	30649.26
721.989	30470.96
722.331	30580.57
722.674	30498.53
723.016	30410.85
723.359	30264.19
723.701	30429.84
724.044	30253.79
724.386	30088.38
724.729	30153.91
725.071	30078.21
725.413	30032.56
725.755	30027.59
726.097	29888.83
726.439	29774.94
726.782	29778.33
727.124	29866.69
727.465	29724.09
727.807	29681.83
728.149	29740.14
728.491	29535.4
728.833	29622.4
729.175	29550.99
729.516	29451.78
729.858	29335.17
730.199	29426.47
730.541	29445.68
730.882	29435.29
731.224	29432.12
731.565	29115.52
731.906	29185.35
732.248	29285.46
732.589	29001.62
732.93	28984
733.271	28918.91
733.612	28966.6
733.953	29098.12
734.294	28887.28
734.635	28818.8
734.976	29005.69
735.317	28804.57
735.658	28783.1
735.999	28789.65
736.339	28715.53
736.68	28720.05
737.021	28643.89
737.361	28646.38
737.702	28723.67
738.042	28563.22
738.383	28496.33
738.723	28511.24
739.063	28327.74
739.404	28425.14
739.744	28381.98
740.084	28349.66
740.424	28474.63
740.764	28357.8
741.104	28305.15
741.444	28220.63
741.784	28138.14
742.124	28128.65
742.464	28040.29
742.804	27970.47
743.143	28025.6
743.483	28010.69
743.823	27843.91
744.162	27807.08
744.502	27954.42
744.841	27840.3
745.181	27919.39
745.52	27746.06
745.86	27751.71
746.199	27878.72
746.538	27651.83
746.877	27745.61
747.216	27732.73
747.556	27579.29
747.895	27708.1
748.234	27639.4
748.573	27521.89
748.911	27496.81
749.25	27494.55
749.589	27304.04
749.928	27312.86
750.267	27332.29
750.605	27312.86
750.944	27223.14
751.283	27163.25
751.621	27161.22
751.96	26993.09
752.298	27061.56
752.636	27117.83
752.975	26928.23
753.313	26880.32
753.651	26950.83
753.989	26870.61
754.327	26859.76
754.666	26523.72
755.004	26631.07
755.342	26558.52
755.679	26607.56
756.017	26525.08
756.355	26575.47
756.693	26366.67
757.031	26440.11
757.368	26257.97
757.706	26258.87
758.044	26113.11
758.381	26156.95
758.719	26038.76
759.056	26083.74
759.394	26047.8
759.731	25877.86
760.068	25782.05
760.405	25770.52
760.743	25509.51
761.08	25637.19
761.417	25534.6
761.754	25507.93
762.091	25450.76
762.428	25199.01
762.765	25187.94
763.102	25257.99
763.438	25174.38
763.775	25135.51
764.112	25034.95
764.449	25047.6
764.785	24913.14
765.122	24745.47
765.458	24685.81
765.795	24635.19
766.131	24737.1
766.467	24483.1
766.804	24446.26
767.14	24267.51
767.476	24263.67
767.812	24198.59
768.148	24188.87
768.485	24049.44
768.821	23934.41
769.157	23912.04
769.492	23932.83
769.828	23919.72
770.164	23671.82
770.5	23602.9
770.836	23555.44
771.171	23566.51
771.507	23390.47
771.842	23249.01
772.178	23266.41
772.513	23202.45
772.849	23125.17
773.184	22997.94
773.519	23007.21
773.855	22805.18
774.19	22724.95
774.525	22737.61
774.86	22719.3
775.195	22614.67
775.53	22561.79
775.865	22501.23
776.2	22275.47
776.535	22130.39
776.87	22089.94
777.205	22052.65
777.539	21993.45
777.874	21970.17
778.209	21875.71
778.543	21688.14
778.878	21615.38
779.212	21634.81
779.547	21541.26
779.881	21609.05
780.215	21430.52
780.55	21454.48
780.884	21356.85
781.218	21150.76
781.552	21251.09
781.886	21141.49
782.22	20934.72
782.554	20947.82
782.888	20724.1
783.222	20689.53
783.556	20491.11
783.889	20471.68
784.223	20422.19
784.557	20291.12
784.89	20421.29
785.224	20291.57
785.557	20245.7
785.891	20137.68
786.224	20151.91
786.558	20027.62
786.891	19882.54
787.224	19813.39
787.557	19812.49
787.891	19722.09
788.224	19675.54
788.557	19622.66
788.89	19704.92
789.223	19492.72
789.556	19381.31
789.888	19410.69
790.221	19300.18
790.554	19134.77
790.887	19106.29
791.219	19059.74
791.552	19008.67
791.884	18985.16
792.217	18920.99
792.549	18878.73
792.882	18630.82
793.214	18631.73
793.546	18677.6
793.879	18530.94
794.211	18393.99
794.543	18512.63
794.875	18365.75
795.207	18552.41
795.539	18325.07
795.871	18382.02
796.203	18235.13
796.535	18059.54
796.867	18093.66
797.198	17955.36
797.53	18069.26
797.862	17832.2
798.193	17906.77
798.525	17789.94
798.856	17826.55
799.188	17576.61
799.519	17603.28
799.85	17463.85
800.182	17515.15
800.513	17498.42
800.844	17277.41
801.175	17511.53
801.506	17414.81
801.837	17229.96
802.168	17296.62
802.499	17223.86
802.83	17051.88
803.161	17105.67
803.491	17061.37
803.822	17058.44
804.153	16941.6
804.483	16848.5
804.814	16735.73
805.145	16793.13
805.475	16719.91
805.805	16519.47
806.136	16547.26
806.466	16537.32
806.796	16621.16
807.126	16366.48
807.457	16438.56
807.787	16453.93
808.117	16300.94
808.447	16226.14
808.777	16302.98
809.107	16200.83
809.436	16190.66
809.766	16224.56
810.096	16184.56
810.426	16024.79
810.755	16071.34
811.085	15922.65
811.414	16011.46
811.744	15833.84
812.073	15876.32
812.403	15815.98
812.732	15725.59
813.061	15632.48
813.39	15611.02
813.719	15601.98
814.049	15577.57
814.378	15597.01
814.707	15528.53
815.036	15488.53
815.365	15317.69
815.693	15317.24
816.022	15319.05
816.351	15203.12
816.68	15156.11
817.008	15218.03
817.337	15136
817.665	15126.06
817.994	15067.3
818.322	15080.63
818.651	14978.04
818.979	15001.09
819.307	15100.07
819.636	14936.46
819.964	14865.05
820.292	14938.72
820.62	14880.87
820.948	14865.95
821.276	14875.44
821.604	14910.02
821.932	14828.44
822.259	14901.43
822.587	14845.39
822.915	14789.57
823.243	14823.69
823.57	14726.29
823.898	14692.85
824.225	14689.68
824.553	14672.51
824.88	14783.69
825.207	14809.46
825.535	14775.56
825.862	14832.96
826.189	14687.88
826.516	14776.24
826.843	14811.04
827.17	14737.82
827.497	14798.38
827.824	14846.29
828.151	14771.72
828.478	14779.85
828.805	14782.79
829.131	14824.6
829.458	14583.02
829.785	14626.64
830.111	14698.05
830.438	14795.22
830.764	14689.23
831.09	14759.51
831.417	14606.97
831.743	14710.25
832.069	14651.95
832.395	14664.15
832.722	14641.1
833.048	14516.81
833.374	14639.74
833.7	14597.03
834.026	14652.62
834.351	14702.34
834.677	14706.63
835.003	14605.84
835.329	14662.34
835.654	14551.16
835.98	14547.32
836.306	14473.87
836.631	14478.62
836.956	14465.06
837.282	14546.19
837.607	14420.31
837.932	14403.14
838.258	14388.45
838.583	14421.22
838.908	14225.06
839.233	14360.88
839.558	14258.96
839.883	14241.56
840.208	14172.86
840.533	14207.66
840.858	14235.91
841.182	14159.08
841.507	14145.52
841.832	14145.52
842.156	14079.53
842.481	14042.47
842.805	13989.82
843.13	14004.05
843.454	13945.07
843.778	13878.86
844.103	13916.6
844.427	13886.32
844.751	13790.05
845.075	13802.7
845.399	13715.47
845.723	13729.94
846.047	13715.92
846.371	13536.95
846.695	13594.8
847.019	13427.34
847.343	13432.54
847.666	13348.25
847.99	13266.44
848.313	13293.56
848.637	13200.01
848.96	13201.14
849.284	13137.86
849.607	13034.36
849.931	12996.17
850.254	12998.2
850.577	12906.23
850.9	12848.38
851.223	12762.05
851.546	12707.14
851.869	12615.61
852.192	12787.14
852.515	12566.58
852.838	12508.72
853.161	12590.53
853.483	12553.02
853.806	12412.46
854.129	12394.15
854.451	12343.76
854.774	12268.96
855.096	12252.01
855.419	12241.84
855.741	12189.19
856.063	12119.36
856.385	12085.46
856.708	12074.16
857.03	12045.23
857.352	12069.87
857.674	11992.35
857.996	11908.97
858.318	11770.89
858.64	11864.9
858.961	11826.71
859.283	11811.12
859.605	11715.98
859.926	11773.6
860.248	11713.72
860.57	11687.05
860.891	11660.39
861.212	11612.25
861.534	11564.12
861.855	11561.18
862.176	11568.86
862.498	11569.31
862.819	11497.9
863.14	11512.82
863.461	11390.56
863.782	11426.04
864.103	11381.52
864.424	11430.56
864.745	11418.13
865.065	11420.62
865.386	11379.04
865.707	11324.58
866.027	11318.25
866.348	11282.99
866.668	11225.82
866.989	11228.98
867.309	11121.87
867.63	11142.88
867.95	11254.29
868.27	11116.44
868.59	11145.6
868.91	11119.16
869.23	11110.34
869.55	10991.25
869.87	10970.23
870.19	11033.06
870.51	11022.89
870.83	11043.9
871.15	10972.72
871.469	10965.04
871.789	11016.11
872.109	10999.84
872.428	10883.91
872.748	10954.42
873.067	10886.39
873.386	10827.19
873.706	10791.93
874.025	10843.01
874.344	10765.27
874.663	10835.77
874.982	10739.28
875.301	10794.87
875.62	10756.91
875.939	10724.36
876.258	10684.37
876.577	10675.78
876.896	10677.59
877.214	10653.86
877.533	10712.16
877.852	10627.19
878.17	10615.22
878.489	10567.53
878.807	10606.18
879.125	10569.34
879.444	10599.85
879.762	10438.95
880.08	10501.09
880.398	10476.46
880.716	10524.37
881.034	10447.31
881.352	10410.7
881.67	10432.85
881.988	10447.99
882.306	10453.86
882.624	10392.85
882.941	10288.22
883.259	10321.89
883.577	10258.61
883.894	10233.3
884.212	10236.92
884.529	10230.59
884.846	10161.44
885.164	10133.87
885.481	10176.13
885.798	10068.79
886.115	10013.2
886.432	10044.83
886.75	9956.93
887.067	10018.85
887.383	9994.44
887.7	9917.61
888.017	9913.54
888.334	9902.92
888.651	9882.13
888.967	9824.73
889.284	9855.46
889.6	9789.93
889.917	9778.63
890.233	9785.18
890.55	9760.32
890.866	9703.6
891.182	9635.58
891.498	9608.01
891.815	9504.51
892.131	9584.06
892.447	9497.05
892.763	9518.07
893.079	9527.11
893.395	9487.11
893.71	9525.07
894.026	9397.17
894.342	9387.22
894.657	9274.01
894.973	9324.18
895.289	9243.5
895.604	9290.5
895.92	9254.35
896.235	9226.55
896.55	9142.03
896.865	9165.99
897.181	9144.52
897.496	9124.63
897.811	9076.5
898.126	9080.57
898.441	8973
898.756	9013.45
899.071	8965.32
899.386	8980
899.7	8858.65
900.015	8803.51
900.33	8761.48
900.644	8772.1
900.959	8689.39
901.273	8737.52
901.588	8635.61
901.902	8608.04
902.216	8600.13
902.531	8579.56
902.845	8594.03
903.159	8537.53
903.473	8439.91
903.787	8471.09
904.101	8425.44
904.415	8433.13
904.729	8429.28
905.042	8355.84
905.356	8347.7
905.67	8275.84
905.984	8292.34
906.297	8326.01
906.611	8182.28
906.924	8148.61
907.237	8144.32
907.551	8047.6
907.864	8064.77
908.177	8051.44
908.491	7990.88
908.804	7990.88
909.117	7989.07
909.43	7938.45
909.743	7851.22
910.056	7869.07
910.368	7817.77
910.681	7792.01
910.994	7705.69
911.307	7759.92
911.619	7609.19
911.932	7652.36
912.244	7593.6
912.557	7544.56
912.869	7519.7
913.181	7548.86
913.494	7493.72
913.806	7474.73
914.118	7468.41
914.43	7389.76
914.742	7406.26
915.054	7306.83
915.366	7290.1
915.678	7280.61
915.99	7237
916.302	7185.47
916.613	7162.42
916.925	7178.47
917.236	7153.39
917.548	7095.53
917.859	7134.63
918.171	7040.85
918.482	6978.7
918.794	6978.02
919.105	7023.22
919.416	6898.48
919.727	6858.93
920.038	6885.37
920.349	6865.71
920.66	6839.5
920.971	6808.54
921.282	6798.14
921.593	6731.93
921.903	6709.78
922.214	6657.35
922.525	6620.97
922.835	6611.25
923.146	6569.22
923.456	6581.87
923.767	6555.21
924.077	6543.68
924.387	6498.04
924.697	6442.44
925.008	6409.9
925.318	6371.71
925.628	6406.06
925.938	6368.32
926.248	6246.06
926.558	6317.02
926.867	6265.27
927.177	6214.88
927.487	6172.17
927.796	6192.51
928.106	6078.84
928.416	6099.85
928.725	6096.46
929.034	6085.16
929.344	6088.33
929.653	6061.44
929.962	6045.62
930.271	5939.18
930.581	5949.35
930.89	5900.76
931.199	5872.74
931.508	5850.14
931.817	5856.24
932.125	5845.17
932.434	5862.8
932.743	5740.99
933.051	5715.68
933.36	5721.11
933.669	5678.17
933.977	5613.54
934.286	5623.26
934.594	5624.39
934.902	5573.31
935.21	5558.85
935.519	5560.88
935.827	5590.94
936.135	5459.64
936.443	5461
936.751	5389.59
937.059	5430.04
937.367	5366.77
937.674	5433.88
937.982	5388.91
938.29	5327.22
938.597	5346.65
938.905	5315.69
939.213	5237.96
939.52	5176.94
939.827	5214.23
940.135	5194.79
940.442	5136.26
940.749	5150.27
941.056	5177.62
941.363	5137.62
941.67	5100.56
941.977	5057.85
942.284	5033.44
942.591	5026.44
942.898	4995.02
943.205	5001.13
943.511	5015.81
943.818	4963.39
944.125	4922.71
944.431	4910.73
944.738	4880.45
945.044	4839.1
945.35	4828.02
945.657	4807.23
945.963	4800.23
946.269	4736.95
946.575	4757.74
946.881	4710.29
947.187	4741.7
947.493	4669.61
947.799	4663.96
948.105	4633.68
948.41	4566.79
948.716	4635.94
949.022	4593.68
949.327	4579.89
949.633	4560.01
949.938	4597.75
950.244	4505.09
950.549	4474.59
950.854	4425.1
951.16	4466.22
951.465	4422.38
951.77	4443.4
952.075	4348.94
952.38	4390.52
952.685	4405.44
952.99	4324.76
953.294	4272.33
953.599	4346.23
953.904	4294.48
954.209	4275.27
954.513	4261.94
954.818	4239.56
955.122	4213.58
955.426	4202.5
955.731	4145.33
956.035	4158.66
956.339	4126.57
956.643	4135.61
956.948	4106.91
957.252	4077.31
957.556	4089.51
957.86	4082.73
958.163	4030.53
958.467	3983.98
958.771	3986.24
959.075	3988.04
959.378	4008.61
959.682	3961.38
959.985	3953.24
960.289	3874.83
960.592	3917.76
960.896	3875.96
961.199	3851.1
961.502	3848.84
961.805	3795.06
962.108	3814.94
962.411	3793.7
962.714	3783.76
963.017	3776.3
963.32	3774.27
963.623	3757.09
963.926	3718
964.228	3672.35
964.531	3705.11
964.833	3680.26
965.136	3649.97
965.438	3651.33
965.741	3584.67
966.043	3608.39
966.345	3572.91
966.648	3529.98
966.95	3547.15
967.252	3518.9
967.554	3485.69
967.856	3519.36
968.158	3475.52
968.46	3471.67
968.761	3474.39
969.063	3446.36
969.365	3456.31
969.666	3416.31
969.968	3416.99
970.269	3374.95
970.571	3396.65
970.872	3331.34
971.174	3291.79
971.475	3337.67
971.776	3322.3
972.077	3304.9
972.378	3286.59
972.679	3265.58
972.98	3306.03
973.281	3262.87
973.582	3221.96
973.883	3207.05
974.183	3193.26
974.484	3214.28
974.785	3146.71
975.085	3161.17
975.386	3147.84
975.686	3180.83
975.986	3101.51
976.287	3102.19
976.587	3049.09
976.887	3021.97
977.187	3080.05
977.487	3022.19
977.787	3008.86
978.087	3028.97
978.387	2996.21
978.687	3010.22
978.987	3013.83
979.286	2959.82
979.586	2957.11
979.885	2981.97
980.185	2906.94
980.484	2883.67
980.784	2880.96
981.083	2892.71
981.382	2881.18
981.682	2831.24
981.981	2861.97
982.28	2826.49
982.579	2823.1
982.878	2805.03
983.177	2799.83
983.475	2768.87
983.774	2717.34
984.073	2761.86
984.372	2757.57
984.67	2761.18
984.969	2723.45
985.267	2737.23
985.566	2664.69
985.864	2673.28
986.162	2653.39
986.461	2682.32
986.759	2660.85
987.057	2604.58
987.355	2626.72
987.653	2644.8
987.951	2601.87
988.249	2554.18
988.547	2595.31
988.844	2606.61
989.142	2549.66
989.44	2539.72
989.737	2531.13
990.035	2490.01
990.332	2503.11
990.63	2475.54
990.927	2469.67
991.224	2463.79
991.521	2464.24
991.819	2460.63
992.116	2425.15
992.413	2420.85
992.71	2447.75
993.006	2400.06
993.303	2359.16
993.6	2391.02
993.897	2368.88
994.193	2356.9
994.49	2328.2
994.787	2328.43
995.083	2332.5
995.379	2305.83
995.676	2314.64
995.972	2304.7
996.268	2297.47
996.565	2275.32
996.861	2246.4
997.157	2244.59
997.453	2264.47
997.749	2211.59
998.044	2238.26
998.34	2190.8
998.636	2190.13
998.932	2186.74
999.227	2162.1
999.523	2171.14
999.818	2150.81
1000.114	2147.19
1000.409	2152.84
1000.704	2117.59
1001	2118.94
1001.295	2094.31
1001.59	2095.89
1001.885	2054.99
1002.18	2043.69
1002.475	2044.59
1002.77	2048.66
1003.065	2002.79
1003.359	2019.06
1003.654	1999.17
1003.949	2010.47
1004.243	1986.52
1004.538	1988.32
1004.832	1996.91
1005.127	1974.54
1005.421	1939.06
1005.715	1954.65
1006.009	1924.6
1006.304	1882.34
1006.598	1909.68
1006.892	1855.22
1007.186	1872.85
1007.48	1887.76
1007.773	1873.75
1008.067	1842.34
1008.361	1799.18
1008.655	1801.21
1008.948	1845.73
1009.242	1812.96
1009.535	1789.23
1009.829	1794.66
1010.122	1776.58
1010.415	1799.85
1010.708	1777.71
1011.001	1704.04
1011.295	1748.33
1011.588	1736.8
1011.881	1673.3
1012.173	1698.39
1012.466	1741.32
1012.759	1663.59
1013.052	1680.31
1013.344	1682.12
1013.637	1671.5
1013.93	1697.94
1014.222	1641.67
1014.514	1624.27
1014.807	1611.38
1015.099	1621.55
1015.391	1607.09
1015.683	1582.68
1015.976	1587.66
1016.268	1567.54
1016.56	1539.75
1016.851	1540.2
1017.143	1547.88
1017.435	1556.92
1017.727	1496.58
1018.018	1511.27
1018.31	1522.35
1018.602	1488.22
1018.893	1486.19
1019.185	1468.34
1019.476	1469.47
1019.767	1479.41
1020.058	1443.93
1020.35	1426.53
1020.641	1410.49
1020.932	1442.12
1021.223	1414.1
1021.514	1382.46
1021.804	1370.03
1022.095	1391.5
1022.386	1359.19
1022.677	1351.73
1022.967	1356.02
1023.258	1342.01
1023.548	1342.24
1023.839	1347.89
1024.129	1321
1024.419	1328.45
1024.709	1298.4
1025	1291.62
1025.29	1262.24
1025.58	1273.54
1025.87	1258.63
1026.16	1248.91
1026.449	1255.69
1026.739	1224.5
1027.029	1247.78
1027.319	1243.48
1027.608	1226.99
1027.898	1211.85
1028.187	1211.62
1028.477	1191.51
1028.766	1182.69
1029.055	1186.76
1029.344	1173.66
1029.634	1172.53
1029.923	1174.33
1030.212	1155.35
1030.501	1161.45
1030.79	1130.27
1031.078	1125.3
1031.367	1133.2
1031.656	1108.12
1031.945	1107.44
1032.233	1112.87
1032.522	1111.28
1032.81	1087.33
1033.099	1090.04
1033.387	1062.92
1033.675	1070.38
1033.963	1052.08
1034.251	1077.39
1034.54	1021.8
1034.828	1031.74
1035.116	1055.24
1035.403	1016.6
1035.691	1011.85
1035.979	1013.66
1036.267	1021.8
1036.554	1006.43
1036.842	977.05
1037.129	996.94
1037.417	982.93
1037.704	995.58
1037.992	956.94
1038.279	985.64
1038.566	964.17
1038.853	964.17
1039.14	964.17
