Data from red_shiny_book_FLMS001491_00095.txt Node
Date: Wed Feb 08 15:25:37 GMT 2017
User: dcchb
Spectrometer: FLMS00149
Trigger mode: 0
Integration Time (sec): 2.000000E-2
Scans to average: 10
Electric dark correction enabled: true
Nonlinearity correction enabled: false
Boxcar width: 0
XAxis mode: Wavelengths
Number of Pixels in Spectrum: 2048
>>>>>Begin Spectral Data<<<<<
341.393	-11.1
341.776	-11.1
342.16	-11.1
342.543	-70.08
342.927	-58.78
343.31	-61.72
343.693	-88.16
344.077	-69.4
344.46	-66.24
344.843	-53.13
345.226	-32.57
345.61	-30.31
345.993	-32.8
346.376	-12.23
346.759	-9.29
347.142	9.24
347.525	58.05
347.908	76.35
348.291	81.33
348.674	112.74
349.057	118.16
349.44	152.06
349.823	154.32
350.206	155.67
350.588	203.58
350.971	217.14
351.354	233.19
351.737	222.34
352.119	263.02
352.502	266.41
352.884	300.08
353.267	272.28
353.65	304.37
354.032	299.85
354.414	319.51
354.797	318.61
355.179	346.4
355.562	343.92
355.944	331.94
356.326	352.28
356.709	345.5
357.091	357.93
357.473	369.91
357.855	358.61
358.238	361.09
358.62	364.26
359.002	326.29
359.384	363.8
359.766	334.2
360.148	327.42
360.53	323.35
360.912	337.82
361.294	307.31
361.676	334.2
362.057	337.59
362.439	337.82
362.821	345.05
363.203	332.84
363.584	325.84
363.966	348.44
364.348	325.16
364.729	320.87
365.111	337.82
365.493	326.52
365.874	335.33
366.256	330.81
366.637	322.22
367.019	325.16
367.4	315.22
367.781	320.42
368.163	326.06
368.544	334.65
368.925	306.63
369.306	342.56
369.688	345.05
370.069	343.92
370.45	341.43
370.831	348.21
371.212	313.64
371.593	313.86
371.974	324.71
372.355	321.55
372.736	313.18
373.117	314.54
373.498	340.98
373.879	319.06
374.26	324.48
374.641	320.19
375.021	337.82
375.402	340.98
375.783	344.6
376.163	343.92
376.544	324.93
376.925	333.07
377.305	328.32
377.686	354.09
378.066	316.35
378.447	331.04
378.827	341.88
379.208	338.95
379.588	351.6
379.968	322.68
380.349	334.43
380.729	335.1
381.109	353.63
381.489	357.7
381.87	360.64
382.25	353.86
382.63	342.11
383.01	373.3
383.39	353.63
383.77	360.41
384.15	355.67
384.53	365.84
384.91	356.35
385.29	368.1
385.67	356.35
386.049	390.7
386.429	353.86
386.809	361.54
387.189	357.93
387.568	375.56
387.948	364.93
388.328	368.1
388.707	374.65
389.087	373.97
389.466	380.3
389.846	365.84
390.225	374.43
390.605	383.01
390.984	379.85
391.363	369.68
391.743	370.36
392.122	376.69
392.501	378.72
392.881	405.84
393.26	394.54
393.639	374.43
394.018	391.37
394.397	388.66
394.776	403.35
395.155	395.22
395.534	377.14
395.913	391.37
396.292	419.17
396.671	419.62
397.05	418.49
397.429	422.56
397.808	413.97
398.186	422.79
398.565	391.37
398.944	400.87
399.323	396.35
399.701	387.98
400.08	425.72
400.458	439.73
400.837	442.9
401.215	401.09
401.594	431.37
401.972	421.88
402.351	430.24
402.729	414.42
403.107	423.46
403.486	440.41
403.864	440.41
404.242	444.03
404.62	441.54
404.999	446.97
405.377	458.26
405.755	452.16
406.133	458.04
406.511	444.48
406.889	447.87
407.267	447.87
407.645	472.5
408.023	478.83
408.401	456.91
408.779	473.18
409.156	460.3
409.534	480.64
409.912	461.65
410.29	488.77
410.667	499.17
411.045	480.19
411.422	488.77
411.8	476.57
412.178	514.08
412.555	508.21
412.933	525.38
413.31	502.78
413.687	525.83
414.065	510.01
414.442	532.61
414.819	515.89
415.197	519.51
415.574	521.31
415.951	536
416.328	524.48
416.705	541.43
417.082	553.4
417.46	579.39
417.837	554.31
418.214	566.96
418.591	561.76
418.967	562.22
419.344	564.02
419.721	558.15
420.098	567.64
420.475	607.41
420.852	599.28
421.228	593.4
421.605	594.76
421.982	615.55
422.358	604.7
422.735	622.33
423.111	591.14
423.488	598.37
423.864	632.72
424.241	626.62
424.617	604.7
424.994	610.35
425.37	626.17
425.746	659.16
426.123	656.45
426.499	669.78
426.875	660.29
427.251	655.55
427.627	652.38
428.003	626.85
428.379	684.25
428.756	649.9
429.132	638.15
429.507	669.33
429.883	705.49
430.259	671.14
430.635	684.7
431.011	704.59
431.387	728.09
431.763	705.94
432.138	706.85
432.514	717.02
432.89	698.26
433.265	705.26
433.641	725.83
434.016	752.27
434.392	759.27
434.767	771.25
435.143	772.15
435.518	779.61
435.894	799.27
436.269	785.94
436.644	774.41
437.02	783.45
437.395	762.44
437.77	767.41
438.145	785.94
438.52	819.39
438.895	803.11
439.271	814.87
439.646	849.67
440.021	831.59
440.395	825.26
440.77	856.22
441.145	863.68
441.52	857.58
441.895	830.46
442.27	811.48
442.645	871.14
443.019	822.77
443.394	843.79
443.769	861.42
444.143	857.35
444.518	910
444.892	905.48
445.267	922.43
445.641	898.48
446.016	892.38
446.39	857.58
446.764	880.4
447.139	904.81
447.513	885.82
447.887	926.05
448.262	909.78
448.636	893.51
449.01	919.5
449.384	941.87
449.758	925.37
450.132	952.26
450.506	949.78
450.88	964.47
451.254	932.83
451.628	940.29
452.002	950.23
452.376	920.4
452.75	934.86
453.123	955.65
453.497	959.95
453.871	983.67
454.244	1025.93
454.618	1009.89
454.992	1020.06
455.365	1023
455.739	1036.55
456.112	1026.39
456.486	1013.28
456.859	989.32
457.232	1016.22
457.606	1012.83
457.979	1021.64
458.352	1046.5
458.725	1047.85
459.099	1056.44
459.472	1073.84
459.845	1097.34
460.218	1135.08
460.591	1134.18
460.964	1119.04
461.337	1124.91
461.71	1079.94
462.083	1096.89
462.456	1100.28
462.829	1092.6
463.201	1108.42
463.574	1127.4
463.947	1139.38
464.32	1160.17
464.692	1180.28
465.065	1183.9
465.438	1213.73
465.81	1241.97
466.183	1251.24
466.555	1253.27
466.928	1241.3
467.3	1251.92
467.672	1206.04
468.045	1213.27
468.417	1246.04
468.789	1231.35
469.161	1231.13
469.534	1273.84
469.906	1347.28
470.278	1361.29
470.65	1380.5
471.022	1389.31
471.394	1412.59
471.766	1420.05
472.138	1413.95
472.51	1399.03
472.882	1397
473.253	1421.63
473.625	1378.24
473.997	1379.14
474.369	1408.3
474.74	1432.02
475.112	1492.14
475.484	1537.33
475.855	1580.27
476.227	1595.41
476.598	1633.83
476.97	1644.67
477.341	1667.5
477.713	1682.87
478.084	1667.05
478.455	1664.56
478.827	1639.7
479.198	1655.52
479.569	1649.87
479.94	1682.87
480.311	1718.12
480.682	1775.74
481.053	1818.23
481.424	1899.13
481.795	1908.17
482.166	1985.68
482.537	1985.68
482.908	2005.79
483.279	2001.73
483.65	2072.46
484.021	2040.14
484.391	2006.92
484.762	2036.75
485.133	2015.51
485.503	2020.48
485.874	2060.26
486.244	2135.28
486.615	2149.29
486.985	2215.73
487.356	2278.1
487.726	2332.34
488.097	2398.78
488.467	2429.06
488.837	2471.09
489.207	2480.13
489.578	2479.68
489.948	2462.73
490.318	2481.49
490.688	2431.77
491.058	2449.17
491.428	2454.82
491.798	2477.19
492.168	2537.31
492.538	2539.79
492.908	2606.46
493.278	2700.24
493.648	2736.62
494.017	2818.88
494.387	2871.76
494.757	2863.63
495.126	2905.21
495.496	2925.54
495.866	2880.8
496.235	2841.48
496.605	2806.23
496.974	2810.75
497.344	2811.65
497.713	2768.26
498.082	2821.82
498.452	2890.29
498.821	2913.79
499.19	2954.47
499.559	3065.65
499.928	3109.27
500.298	3139.32
500.667	3212.54
501.036	3197.18
501.405	3250.73
501.774	3195.14
502.143	3135.26
502.512	3110.62
502.88	3105.43
503.249	3045.77
503.618	3055.26
503.987	3023.62
504.356	3052.09
504.724	3112.21
505.093	3104.52
505.462	3200.79
505.83	3245.99
506.199	3307.23
506.567	3374.35
506.936	3420.9
507.304	3459.99
507.672	3467
508.041	3472.65
508.409	3394.68
508.777	3403.72
509.145	3347
509.514	3294.57
509.882	3288.25
510.25	3239.66
510.618	3248.25
510.986	3257.51
511.354	3278.53
511.722	3348.81
512.09	3427.23
512.458	3437.17
512.826	3543.38
513.193	3569.14
513.561	3662.25
513.929	3691.63
514.297	3703.6
514.664	3670.38
515.032	3639.65
515.4	3614.34
515.767	3547
516.135	3506.55
516.502	3453.67
516.869	3450.73
517.237	3396.04
517.604	3397.17
517.972	3451.41
518.339	3507.45
518.706	3615.92
519.073	3661.8
519.44	3714.22
519.808	3827.44
520.175	3860.44
520.542	3921.22
520.909	3930.49
521.276	3913.54
521.643	3885.07
522.009	3869.25
522.376	3819.76
522.743	3748.12
523.11	3666.77
523.477	3636.71
523.843	3602.59
524.21	3652.08
524.577	3702.7
524.943	3728.69
525.31	3770.04
525.676	3893.2
526.043	4016.82
526.409	4090.94
526.776	4182.01
527.142	4240.54
527.508	4298.84
527.874	4334.77
528.241	4324.6
528.607	4307.2
528.973	4262.01
529.339	4199.41
529.705	4178.84
530.071	4153.76
530.437	4108.56
530.803	4039.19
531.169	4055.01
531.535	4061.33
531.901	4106.98
532.267	4203.93
532.632	4272.85
532.998	4372.74
533.364	4523.69
533.73	4642.79
534.095	4761.65
534.461	4790.35
534.826	4836
535.192	4806.17
535.557	4837.81
535.923	4819.73
536.288	4792.61
536.653	4735.44
537.019	4651.6
537.384	4563.92
537.749	4560.3
538.114	4515.33
538.479	4497.93
538.845	4536.35
539.21	4570.47
539.575	4590.36
539.94	4746.51
540.305	4919.39
540.67	4939.05
541.034	5087.3
541.399	5193.73
541.764	5291.36
542.129	5326.16
542.494	5428.08
542.858	5349.66
543.223	5296.78
543.587	5217.46
543.952	5187.18
544.316	5128.88
544.681	5038.26
545.045	5013.17
545.41	4988.32
545.774	4958.71
546.138	4922.55
546.503	4962.55
546.867	4985.6
547.231	5116.22
547.595	5270.57
547.959	5356.22
548.324	5430.34
548.688	5509.66
549.052	5581.75
549.416	5693.83
549.779	5721.63
550.143	5737.45
550.507	5727.5
550.871	5768.86
551.235	5624.68
551.599	5573.61
551.962	5514.18
552.326	5377.23
552.689	5277.8
553.053	5213.85
553.417	5189.89
553.78	5217.91
554.143	5187.41
554.507	5254.07
554.87	5335.65
555.234	5450
555.597	5502.43
555.96	5642.31
556.323	5792.36
556.686	5826.71
557.05	5948.29
557.413	6049.53
557.776	6014.28
558.139	6056.08
558.502	6044.33
558.865	5964.33
559.228	5894.28
559.59	5852.25
559.953	5777.67
560.316	5689.54
560.679	5600.95
561.041	5555.76
561.404	5522.76
561.767	5497.91
562.129	5559.83
562.492	5623.33
562.854	5665.13
563.217	5754.4
563.579	5873.04
563.941	5999.59
564.304	6146.02
564.666	6304.66
565.028	6382.18
565.39	6439.58
565.753	6473.47
566.115	6456.53
566.477	6476.86
566.839	6432.12
567.201	6346.47
567.563	6341.5
567.925	6186.48
568.287	6172.46
568.648	6070.32
569.01	5978.57
569.372	6028.74
569.734	5947.39
570.095	5969.53
570.457	5974.73
570.819	5987.61
571.18	6097.21
571.542	6259.02
571.903	6393.93
572.265	6528.84
572.626	6666.92
572.987	6788.72
573.349	6928.83
573.71	7018.32
574.071	7155.72
574.432	7153
574.794	7218.54
575.155	7241.14
575.516	7107.36
575.877	7107.81
576.238	7081.37
576.599	7017.19
576.96	6906.91
577.32	6975.16
577.681	6907.36
578.042	6946.68
578.403	7016.06
578.763	7126.56
579.124	7260.12
579.485	7436.61
579.845	7618.75
580.206	7866.88
580.566	8072.75
580.927	8362.01
581.287	8691.72
581.648	8922.45
582.008	9289.67
582.368	9486.73
582.728	9765.14
583.089	9986.6
583.449	10090.55
583.809	10331.45
584.169	10528.73
584.529	10614.16
584.889	10883.53
585.249	10927.14
585.609	11161.26
585.969	11386.79
586.329	11523.51
586.688	11856.84
587.048	12170.73
587.408	12483.49
587.768	12842.12
588.127	13189.91
588.487	13701.53
588.846	14280.05
589.206	14709.19
589.565	15171.1
589.925	15768.37
590.284	16285.19
590.643	16749.14
591.003	17276.81
591.362	17798.37
591.721	18246.72
592.08	18630.22
592.44	19041.05
592.799	19444.21
593.158	19710.87
593.517	20003.74
593.876	20475.59
594.235	20680.78
594.593	20987.89
594.952	21400.31
595.311	21770.25
595.67	22048.21
596.029	22569.77
596.387	23052.92
596.746	23549.41
597.104	23790.31
597.463	24381.03
597.822	25031.63
598.18	25334.45
598.538	25934.43
598.897	26622.32
599.255	26961.07
599.613	27848.96
599.972	28169.85
600.33	28729.84
600.688	29037.17
601.046	29497.95
601.404	30071.5
601.762	30250.93
602.12	30743.12
602.478	30883.91
602.836	31248.42
603.194	31247.74
603.552	31534.96
603.91	31606.15
604.268	31961.62
604.625	32129.97
604.983	32502.39
605.341	32761.37
605.698	33066.9
606.056	33537.4
606.413	33732.42
606.771	34308.45
607.128	34706.4
607.485	34886.29
607.843	35334.64
608.2	35913.38
608.557	36238.57
608.914	36463.42
609.272	37111.54
609.629	37350.63
609.986	37770.73
610.343	37789.49
610.7	38309.02
611.057	38509.92
611.414	38426.31
611.771	38702.91
612.127	38933.86
612.484	38896.35
612.841	39110.36
613.198	38928.89
613.554	38992.39
613.911	39332.72
614.267	39396.68
614.624	39366.62
614.98	39528.2
615.337	39913.05
615.693	39941.29
616.05	40257.22
616.406	40508.74
616.762	40696.98
617.118	40844.55
617.475	41183.75
617.831	41459.45
618.187	41675.26
618.543	41981.47
618.899	42428.46
619.255	42491.96
619.611	42572.64
619.967	42646.53
620.323	42964.72
620.678	42928.33
621.034	42921.78
621.39	42927.43
621.746	42754.55
622.101	43267.53
622.457	42772.63
622.812	42949.12
623.168	42895.34
623.523	42965.4
623.879	42929.46
624.234	42558.85
624.589	42991.38
624.945	42846.53
625.3	42979.86
625.655	43003.59
626.01	43109.35
626.365	43375.1
626.72	43229.57
627.075	43464.14
627.43	43619.62
627.785	43619.39
628.14	43897.12
628.495	44228.41
628.85	44179.15
629.205	44149.09
629.559	44592.92
629.914	44284.46
630.269	44424.79
630.623	44445.58
630.978	44389.99
631.332	44502.53
631.687	44332.59
632.041	44008.08
632.396	44152.26
632.75	43837.24
633.104	43764.92
633.459	43610.12
633.813	43658.26
634.167	43397.93
634.521	43446.51
634.875	43352.96
635.229	43306.4
635.583	43072.06
635.937	43128.33
636.291	43179.4
636.645	43420.98
636.999	43401.54
637.352	43513.63
637.706	43406.74
638.06	43757.92
638.413	43717.69
638.767	43816.45
639.121	43869.55
639.474	43772.83
639.828	43908.42
640.181	44096.44
640.534	44106.83
640.888	43856.45
641.241	43798.82
641.594	43728.99
641.947	43885.82
642.301	43573.06
642.654	43417.81
643.007	43400.64
643.36	43179.18
643.713	43067.77
644.066	43097.6
644.419	42707.55
644.771	42379.2
645.124	41862.6
645.477	41859.44
645.83	41522.27
646.182	41330.64
646.535	41330.18
646.888	41542.83
647.24	41271.65
647.593	41713
647.945	41629.61
648.298	41720.91
648.65	41656.28
649.002	41602.27
649.355	41917.06
649.707	41876.84
650.059	42146.89
650.411	42653.09
650.763	42823.48
651.115	43175.11
651.467	42895.34
651.819	42887.66
652.171	42971.27
652.523	42720.43
652.875	42619.19
653.227	42365.19
653.578	42576.93
653.93	42371.74
654.282	42084.29
654.633	41836.39
654.985	41808.36
655.337	41888.59
655.688	41696.05
656.039	41800.91
656.391	41329.28
656.742	41453.12
657.094	41517.98
657.445	41642.27
657.796	41435.27
658.147	41533.57
658.498	41594.13
658.849	41795.93
659.2	41743.51
659.551	41701.47
659.902	42105.08
660.253	41964.07
660.604	42221.69
660.955	42135.36
661.306	42306.43
661.656	42362.02
662.007	42214.68
662.358	42241.8
662.708	42208.35
663.059	42257.39
663.409	41934.46
663.76	42230.95
664.11	42150.05
664.461	42005.42
664.811	41963.16
665.161	41792.09
665.511	41526.34
665.862	41549.39
666.212	41458.09
666.562	41476.4
666.912	41264.65
667.262	41021.94
667.612	41008.61
667.962	40932.23
668.312	40925.9
668.662	41036.63
669.011	41030.08
669.361	40938.33
669.711	41040.47
670.06	40996.41
670.41	41066.91
670.76	41280.02
671.109	41475.49
671.459	41387.81
671.808	41448.15
672.157	41627.8
672.507	41402.5
672.856	41597.97
673.205	41538.77
673.554	41633
673.904	41616.05
674.253	41753.68
674.602	41727.24
674.951	41061.94
675.3	40826.47
675.649	41279.56
675.998	41223.97
676.346	41291.09
676.695	41161.6
677.044	40691.11
677.393	40757.09
677.741	40772.01
678.09	40546.93
678.438	40313.04
678.787	40404.79
679.135	40278.23
679.484	40049.54
679.832	40209.54
680.181	39962.08
680.529	39938.58
680.877	39872.37
681.225	39869.21
681.573	40184.68
681.922	40018.13
682.27	39903.33
682.618	40055.42
682.966	40031.69
683.314	40299.25
683.661	40293.38
684.009	40093.38
684.357	40050.9
684.705	40177.9
685.053	40176.32
685.4	40125.47
685.748	40066.26
686.095	40015.87
686.443	39810.22
686.79	39844.57
687.138	39842.99
687.485	39697.46
687.832	39504.7
688.18	39504.7
688.527	39103.12
688.874	39084.82
689.221	38983.58
689.568	38712.85
689.915	38520.31
690.262	38433.76
690.609	38286.87
690.956	38076.26
691.303	38104.05
691.65	37838.3
691.997	37814.8
692.344	37563.05
692.69	37578.42
693.037	37575.48
693.383	37469.27
693.73	37701.58
694.077	37363.74
694.423	37464.07
694.769	37398.08
695.116	37450.96
695.462	37501.36
695.808	37500.23
696.155	37577.74
696.501	37422.26
696.847	37470.17
697.193	37212.78
697.539	37418.65
697.885	37195.6
698.231	36957.42
698.577	36947.93
698.923	36986.8
699.269	36702.06
699.614	36476.07
699.96	36455.06
700.306	36468.17
700.651	36227.95
700.997	35856.43
701.342	35973.49
701.688	35804.91
702.033	35649.43
702.379	35369.66
702.724	35255.99
703.069	35324.01
703.415	34897.13
703.76	34705.27
704.105	34771.49
704.45	34602.68
704.795	34557.03
705.14	34313.65
705.485	34406.52
705.83	34272.97
706.175	34292.63
706.52	34279.75
706.865	34209.24
707.209	34208.79
707.554	34125.85
707.899	34297.15
708.243	34118.85
708.588	34181.9
708.932	34111.39
709.277	34127.89
709.621	34210.15
709.966	34023.94
710.31	34142.12
710.654	33739.65
710.998	34077.04
711.342	33973.54
711.687	33918.4
712.031	33809.93
712.375	33526.77
712.719	33536.27
713.063	33437.74
713.407	33359.77
713.75	33106.67
714.094	33036.17
714.438	32852.89
714.782	32896.06
715.125	32668.72
715.469	32613.58
715.812	32389.63
716.156	32111.67
716.499	32122.06
716.843	32129.3
717.186	32032.35
717.53	31953.71
717.873	32013.37
718.216	31870.32
718.559	31769.31
718.902	31657.9
719.246	31686.6
719.589	31680.95
719.932	31399.6
720.275	31733.6
720.617	31646.82
720.96	31678.46
721.303	31682.98
721.646	31893.6
721.989	31622.87
722.331	31718.91
722.674	31642.98
723.016	31794.62
723.359	31680.27
723.701	31868.74
724.044	31551.01
724.386	31541.74
724.729	31662.19
725.071	31375.64
725.413	31513.04
725.755	31435.76
726.097	31189.21
726.439	31103.56
726.782	31111.7
727.124	31083.67
727.465	30755.55
727.807	30771.59
728.149	30539.96
728.491	30457.48
728.833	30262.68
729.175	30238.27
729.516	30143.81
729.858	30070.82
730.199	29979.07
730.541	29904.27
730.882	29882.8
731.224	29896.81
731.565	29640.32
731.906	29648.68
732.248	29802.13
732.589	29606.42
732.93	29535.69
733.271	29674.67
733.612	29614.79
733.953	29787.66
734.294	29539.53
734.635	29740.88
734.976	29782.69
735.317	29648.68
735.658	29735.24
735.999	29772.07
736.339	29692.3
736.68	29928
737.021	29746.08
737.361	29764.39
737.702	29848
738.042	29735.69
738.383	29745.18
738.723	29793.09
739.063	29577.5
739.404	29621.79
739.744	29562.36
740.084	29382.25
740.424	29482.13
740.764	29275.59
741.104	29283.95
741.444	29031.75
741.784	28902.71
742.124	28942.49
742.464	28876.5
742.804	28649.84
743.143	28493.46
743.483	28508.83
743.823	28224.54
744.162	28353.8
744.502	28300.02
744.841	28106.13
745.181	28199.91
745.52	28030.87
745.86	27946.13
746.199	27992.23
746.538	27826.58
746.877	27877.2
747.216	27954.72
747.556	27975.28
747.895	27947.71
748.234	27904.55
748.573	27964.66
748.911	27901.84
749.25	27906.13
749.589	27871.56
749.928	28060.02
750.267	28124.66
750.605	28047.37
750.944	27963.76
751.283	27852.35
751.621	27964.43
751.96	27713.14
752.298	27792.69
752.636	27908.62
752.975	27766.25
753.313	27558.57
753.651	27707.04
753.989	27506.59
754.327	27448.97
754.666	27291.46
755.004	27203.32
755.342	27197
755.679	27084.46
756.017	26857.8
756.355	26974.86
756.693	26728.99
757.031	26600.4
757.368	26499.16
757.706	26468.2
758.044	26267.3
758.381	26137.14
758.719	26014.88
759.056	26023.92
759.394	25889.23
759.731	25765.17
760.068	25668.22
760.405	25555.68
760.743	25562.69
761.08	25619.64
761.417	25372.64
761.754	25381.68
762.091	25419.19
762.428	25350.72
762.765	25279.53
763.102	25308.68
763.438	25245.64
763.775	25214
764.112	25186.88
764.449	25378.51
764.785	25179.2
765.122	25049.26
765.458	25084.96
765.795	25124.73
766.131	25154.56
766.467	24991.63
766.804	24941.01
767.14	24819.43
767.476	24866.21
767.812	24694.01
768.148	24769.04
768.485	24574.92
768.821	24602.26
769.157	24341.25
769.492	24221.03
769.828	24277.07
770.164	24087.93
770.5	23946.23
770.836	23876.63
771.171	23754.83
771.507	23570.2
771.842	23425.8
772.178	23292.47
772.513	23170.21
772.849	23101.06
773.184	22939.26
773.519	22826.49
773.855	22652.71
774.19	22546.95
774.525	22564.58
774.86	22546.95
775.195	22423.11
775.53	22224.25
775.865	22149.22
776.2	22000.75
776.535	21895.22
776.87	21898.6
777.205	21777.7
777.539	21688.22
777.874	21799.62
778.209	21645.05
778.543	21724.6
778.878	21577.71
779.212	21559.86
779.547	21476.92
779.881	21598.95
780.215	21416.13
780.55	21544.04
780.884	21490.25
781.218	21392.86
781.552	21470.59
781.886	21364.16
782.22	21216.14
782.554	21188.12
782.888	21008.68
783.222	20987.44
783.556	20911.74
783.889	20823.83
784.223	20711.97
784.557	20763.04
784.89	20698.18
785.224	20521.47
785.557	20458.87
785.891	20330.06
786.224	20248.93
786.558	20245.99
786.891	20015.72
787.224	19960.12
787.557	19790.19
787.891	19733.92
788.224	19658.44
788.557	19665.22
788.89	19396.3
789.223	19425.45
789.556	19290.31
789.888	19215.29
790.221	19133.71
790.554	18887.16
790.887	18852.13
791.219	18733.94
791.552	18832.7
791.884	18604.68
792.217	18698.24
792.549	18518.13
792.882	18396.32
793.214	18410.11
793.546	18383.22
793.879	18397.68
794.211	18320.62
794.543	18265.71
794.875	18230.68
795.207	18353.61
795.539	18304.8
795.871	18196.33
796.203	18191.13
796.535	18067.07
796.867	18167.4
797.198	18156.1
797.53	18066.16
797.862	17957.01
798.193	18125.37
798.525	17926.51
798.856	17992.04
799.188	17831.14
799.519	17764.93
799.85	17651.49
800.182	17679.05
800.513	17752.95
800.844	17583.01
801.175	17627.53
801.506	17546.63
801.837	17331.04
802.168	17341.66
802.499	17387.09
802.83	17157.26
803.161	17085.17
803.491	16940.32
803.822	17007.89
804.153	16793.2
804.483	16702.58
804.814	16565.86
805.145	16568.8
805.475	16561.8
805.805	16445.19
806.136	16333.78
806.466	16331.29
806.796	16200
807.126	16116.84
807.457	16164.74
807.787	16043.62
808.117	16030.06
808.447	15917.29
808.777	15991.19
809.107	15894.47
809.436	15825.32
809.766	15778.99
810.096	15834.81
810.426	15743.51
810.755	15757.98
811.085	15796.39
811.414	15758.2
811.744	15705.32
812.073	15695.38
812.403	15661.25
812.732	15516.63
813.061	15680.92
813.39	15605.89
813.719	15568.38
814.049	15658.54
814.378	15628.04
814.707	15634.59
815.036	15516.85
815.365	15507.81
815.693	15322.28
816.022	15490.19
816.351	15468.04
816.68	15264.43
817.008	15367.03
817.337	15200.93
817.665	15190.08
817.994	15264.43
818.322	15313.47
818.651	15129.74
818.979	15045.23
819.307	15001.84
819.636	14933.59
819.964	14824.67
820.292	14880.48
820.62	14896.08
820.948	14783.09
821.276	14876.64
821.604	14736.76
821.932	14736.08
822.259	14649.3
822.587	14631.9
822.915	14621.96
823.243	14594.39
823.57	14485.47
823.898	14536.54
824.225	14473.49
824.553	14416.32
824.88	14421.97
825.207	14435.3
825.535	14423.55
825.862	14428.29
826.189	14502.64
826.516	14509.65
826.843	14466.48
827.17	14549.65
827.497	14511.91
827.824	14534.73
828.151	14592.58
828.478	14463.09
828.805	14666.93
829.131	14504.45
829.458	14602.53
829.785	14480.95
830.111	14566.59
830.438	14618.57
830.764	14537.44
831.09	14661.73
831.417	14685.46
831.743	14722.75
832.069	14736.53
832.395	14641.17
832.722	14805.01
833.048	14674.84
833.374	14736.76
833.7	14727.49
834.026	14719.81
834.351	14656.76
834.677	14708.29
835.003	14773.37
835.329	14701.96
835.654	14703.77
835.98	14567.95
836.306	14589.42
836.631	14529.53
836.956	14452.7
837.282	14503.77
837.607	14359.14
837.932	14340.39
838.258	14359.59
838.583	14240.95
838.908	14191.24
839.233	14118.7
839.558	14141.52
839.883	14116.21
840.208	14076.21
840.533	13999.38
840.858	13969.55
841.182	13961.41
841.507	13917.35
841.832	13777.91
842.156	13780.63
842.481	13656.56
842.805	13710.8
843.13	13553.74
843.454	13586.96
843.778	13566.39
844.103	13553.06
844.427	13468.32
844.751	13500.63
845.075	13467.87
845.399	13429.22
845.723	13415.89
846.047	13350.58
846.371	13365.5
846.695	13308.55
847.019	13237.59
847.343	13366.4
847.666	13151.94
847.99	13026.75
848.313	13114.2
848.637	13068.33
848.96	13061.32
849.284	13027.43
849.607	12964.15
849.931	13010.48
850.254	12945.62
850.577	12820.43
850.9	12773.65
851.223	12868.56
851.546	12768.22
851.869	12707.21
852.192	12821.1
852.515	12642.58
852.838	12610.04
853.161	12568.91
853.483	12591.73
853.806	12486.65
854.129	12515.35
854.451	12399.19
854.774	12336.14
855.096	12267.45
855.419	12198.97
855.741	12151.06
856.063	12123.72
856.385	12031.29
856.708	12023.38
857.03	12013.44
857.352	12030.39
857.674	11892.54
857.996	11882.15
858.318	11727.8
858.64	11764.41
858.961	11644.86
859.283	11570.29
859.605	11577.52
859.926	11551.31
860.248	11469.05
860.57	11444.42
860.891	11451.42
861.212	11372.1
861.534	11315.38
861.855	11311.76
862.176	11207.59
862.498	11269.28
862.819	11268.6
863.14	11202.84
863.461	11157.64
863.782	11080.58
864.103	11088.95
864.424	11130.07
864.745	11142.96
865.065	10987.03
865.386	11011.89
865.707	11049.4
866.027	10983.64
866.348	11041.72
866.668	11042.62
866.989	10970.98
867.309	10970.98
867.63	10982.51
867.95	11102.05
868.27	11024.54
868.59	11053.47
868.91	11016.18
869.23	10960.14
869.55	10993.13
869.87	11017.31
870.19	11064.31
870.51	11078.1
870.83	11010.76
871.15	11002.17
871.469	10994.03
871.789	11016.63
872.109	11040.36
872.428	10974.37
872.748	10974.15
873.067	10868.16
873.386	10952.45
873.706	10879.69
874.025	10845.34
874.344	10757.43
874.663	10805.56
874.982	10814.6
875.301	10817.54
875.62	10770.76
875.939	10711.1
876.258	10709.07
876.577	10585.23
876.896	10512.01
877.214	10516.08
877.533	10512.69
877.852	10490.32
878.17	10502.97
878.489	10468.4
878.807	10491
879.125	10380.49
879.444	10317.21
879.762	10245.13
880.08	10352.69
880.398	10225.01
880.716	10242.87
881.034	10135.52
881.352	10143.21
881.67	10134.85
881.988	10132.13
882.306	10095.07
882.624	10013.72
882.941	10022.31
883.259	9999.26
883.577	9975.53
883.894	9949.77
884.212	9879.49
884.529	9905.02
884.846	9895.76
885.164	9879.49
885.481	9824.8
885.798	9931.24
886.115	9814.4
886.432	9847.17
886.75	9779.15
887.067	9867.96
887.383	9754.29
887.7	9852.82
888.017	9791.58
888.334	9794.06
888.651	9804.01
888.967	9804.23
889.284	9719.72
889.6	9827.51
889.917	9733.05
890.233	9728.08
890.55	9669.55
890.866	9721.07
891.182	9683.33
891.498	9659.83
891.815	9612.15
892.131	9538.25
892.447	9572.38
892.763	9523.11
893.079	9508.87
893.395	9489.21
893.71	9465.71
894.026	9450.34
894.342	9398.82
894.657	9344.81
894.973	9374.64
895.289	9325.83
895.604	9326.28
895.92	9233.63
896.235	9166.51
896.55	9113.4
896.865	9081.09
897.181	9022.33
897.496	9049.9
897.811	8938.72
898.126	8976.46
898.441	8921.09
898.756	8904.6
899.071	8820.98
899.386	8787.31
899.7	8740.98
900.015	8711.61
900.33	8651.95
900.644	8586.41
900.959	8603.81
901.273	8515
901.588	8445.63
901.902	8474.1
902.216	8394.55
902.531	8332.41
902.845	8257.38
903.159	8283.37
903.473	8239.3
903.787	8206.08
904.101	8152.07
904.415	8168.12
904.729	8094.22
905.042	8122.92
905.356	8069.82
905.67	8003.6
905.984	8101
906.297	8042.25
906.611	8014.68
906.924	7990.27
907.237	7974.68
907.551	7887.22
907.864	7948.46
908.177	7911.63
908.491	7930.84
908.804	7855.58
909.117	7810.16
909.43	7770.84
909.743	7775.81
910.056	7781.91
910.368	7802.7
910.681	7709.37
910.994	7708.47
911.307	7686.78
911.619	7653.78
911.932	7714.8
912.244	7615.82
912.557	7581.47
912.869	7599.09
913.181	7534.24
913.494	7516.84
913.806	7424.86
914.118	7391.64
914.43	7397.74
914.742	7379.44
915.054	7283.62
915.366	7308.48
915.678	7270.06
915.99	7252.44
916.302	7193
916.613	7202.27
916.925	7170.63
917.236	7158.43
917.548	7093.57
917.859	7032.33
918.171	7006.57
918.482	6927.7
918.794	6907.81
919.105	6886.12
919.416	6889.73
919.727	6815.61
920.038	6750.3
920.349	6743.3
920.66	6723.18
920.971	6695.61
921.282	6683.86
921.593	6577.2
921.903	6523.64
922.214	6510.76
922.525	6495.62
922.835	6485.68
923.146	6409.97
923.456	6393.48
923.767	6360.93
924.077	6329.97
924.387	6322.29
924.697	6217.21
925.008	6246.14
925.318	6202.29
925.628	6269.41
925.938	6160.94
926.248	6097.89
926.558	6112.35
926.867	6107.61
927.177	6074.84
927.487	6053.37
927.796	5991.23
928.106	5972.02
928.416	5948.74
928.725	5911.45
929.034	5905.35
929.344	5934.5
929.653	5944.67
929.962	5885.01
930.271	5863.32
930.581	5812.25
930.89	5792.36
931.199	5809.31
931.508	5776.09
931.817	5763.21
932.125	5747.39
932.434	5738.8
932.743	5738.8
933.051	5664.91
933.36	5730.22
933.669	5674.85
933.977	5682.53
934.286	5645.25
934.594	5657.9
934.902	5590.56
935.21	5594.17
935.519	5575.19
935.827	5565.7
936.135	5511.47
936.443	5497
936.751	5447.06
937.059	5460.85
937.367	5450.68
937.674	5396.89
937.982	5377.68
938.29	5338.14
938.597	5365.48
938.905	5265.37
939.213	5291.36
939.52	5245.03
939.827	5217.69
940.135	5183.56
940.442	5181.08
940.749	5134.75
941.056	5151.02
941.363	5116
941.67	5064.02
941.977	4989.67
942.284	4992.38
942.591	5000.52
942.898	4919.62
943.205	4912.84
943.511	4927.98
943.818	4905.61
944.125	4791.48
944.431	4833.74
944.738	4808.88
945.044	4782.22
945.35	4703.8
945.657	4672.62
945.963	4716.46
946.269	4672.17
946.575	4647.76
946.881	4615.67
947.187	4585.39
947.493	4621.55
947.799	4575.67
948.105	4497.03
948.41	4541.55
948.716	4516.92
949.022	4487.76
949.327	4443.92
949.633	4393.98
949.938	4421.1
950.244	4422.23
950.549	4405.73
950.854	4367.99
951.16	4377.03
951.465	4342
951.77	4310.59
952.075	4323.25
952.38	4309.69
952.685	4294.77
952.99	4258.39
953.294	4251.61
953.599	4247.09
953.904	4203.7
954.209	4200.09
954.513	4191.27
954.818	4197.6
955.122	4143.14
955.426	4160.77
955.731	4125.29
956.035	4143.14
956.339	4163.93
956.643	4095.46
956.948	4090.26
957.252	4059.07
957.556	4067.44
957.86	4020.21
958.163	4028.34
958.467	4082.12
958.771	4017.49
959.075	4034.44
959.378	3959.19
959.682	3968.45
959.985	3981.56
960.289	3895.24
960.592	3912.64
960.896	3906.31
961.199	3919.64
961.502	3883.03
961.805	3835.8
962.108	3801.23
962.411	3779.76
962.714	3792.87
963.017	3767.1
963.32	3763.04
963.623	3722.36
963.926	3702.93
964.228	3683.04
964.531	3691.63
964.833	3659.54
965.136	3655.24
965.438	3642.36
965.741	3628.12
966.043	3562.82
966.345	3544.96
966.648	3532.08
966.95	3539.09
967.252	3517.39
967.554	3458.19
967.856	3449.37
968.158	3434.23
968.46	3436.72
968.761	3430.84
969.063	3383.61
969.365	3341.8
969.666	3343.39
969.968	3330.96
970.269	3316.95
970.571	3300.68
970.872	3255.93
971.174	3236.04
971.475	3285.31
971.776	3256.61
972.077	3247.34
972.378	3223.16
972.679	3220.9
972.98	3163.96
973.281	3182.49
973.582	3189.72
973.883	3144.75
974.183	3153.11
974.484	3108.36
974.785	3146.1
975.085	3136.84
975.386	3070.17
975.686	3051.19
975.986	3056.16
976.287	3080.34
976.587	3003.96
976.887	3022.27
977.187	3006.22
977.487	3003.73
977.787	2973
978.087	2958.99
978.387	2967.8
978.687	2972.1
978.987	2984.07
979.286	2979.78
979.586	2940.69
979.885	2905.21
980.185	2918.31
980.484	2942.04
980.784	2850.52
981.083	2891.2
981.382	2884.42
981.682	2890.29
981.981	2869.27
982.28	2849.16
982.579	2822.72
982.878	2848.94
983.177	2824.53
983.475	2827.02
983.774	2775.04
984.073	2793.34
984.372	2775.49
984.67	2792.44
984.969	2788.37
985.267	2729.39
985.566	2775.72
985.864	2707.92
986.162	2721.03
986.461	2683.07
986.759	2686.45
987.057	2620.47
987.355	2613.24
987.653	2614.59
987.951	2653.69
988.249	2645.78
988.547	2606.68
988.844	2576.18
989.142	2569.62
989.44	2596.06
989.737	2537.53
990.035	2577.76
990.332	2523.52
990.63	2493.47
990.927	2501.6
991.224	2495.05
991.521	2480.36
991.819	2460.47
992.116	2430.19
992.413	2446.91
992.71	2395.61
993.006	2379.12
993.303	2395.61
993.6	2389.29
993.897	2383.86
994.193	2359.23
994.49	2316.07
994.787	2296.41
995.083	2291.21
995.379	2290.76
995.676	2296.18
995.972	2259.12
996.268	2253.7
996.565	2187.03
996.861	2232.91
997.157	2184.55
997.453	2218.9
997.749	2211.44
998.044	2179.8
998.34	2214.15
998.636	2156.98
998.932	2153.59
999.227	2131.22
999.523	2138.67
999.818	2132.12
1000.114	2083.98
1000.409	2076.53
1000.704	2092.35
1001	2087.6
1001.295	2082.85
1001.59	2076.53
1001.885	2046.92
1002.18	2012.8
1002.475	2043.76
1002.77	2020.71
1003.065	2021.84
1003.359	2041.5
1003.654	2002.63
1003.949	1986.13
1004.243	1973.93
1004.538	1963.99
1004.832	1957.21
1005.127	1958.11
1005.421	1905.91
1005.715	1921.96
1006.009	1912.92
1006.304	1934.16
1006.598	1897.55
1006.892	1899.81
1007.186	1909.53
1007.48	1891.45
1007.773	1861.17
1008.067	1833.6
1008.361	1848.06
1008.655	1829.98
1008.948	1826.59
1009.242	1818.23
1009.535	1800.15
1009.829	1827.72
1010.122	1817.33
1010.415	1777.1
1010.708	1768.74
1011.001	1787.72
1011.295	1742.3
1011.588	1724.67
1011.881	1719.47
1012.173	1746.37
1012.466	1735.07
1012.759	1691
1013.052	1718.34
1013.344	1702.07
1013.637	1694.62
1013.93	1683.77
1014.222	1657.1
1014.514	1641.96
1014.807	1626.14
1015.099	1618.46
1015.391	1617.33
1015.683	1600.38
1015.976	1592.7
1016.268	1598.35
1016.56	1585.92
1016.851	1558.8
1017.143	1545.02
1017.435	1538.69
1017.727	1501.4
1018.018	1502.98
1018.31	1477
1018.602	1490.55
1018.893	1496.43
1019.185	1486.94
1019.476	1466.6
1019.767	1443.1
1020.058	1454.4
1020.35	1445.58
1020.641	1408.97
1020.932	1403.55
1021.223	1373.72
1021.514	1389.54
1021.804	1362.87
1022.095	1369.88
1022.386	1355.87
1022.677	1300.28
1022.967	1331.01
1023.258	1317.45
1023.548	1324.68
1023.839	1315.87
1024.129	1311.58
1024.419	1291.24
1024.709	1303.21
1025	1278.58
1025.29	1284.68
1025.58	1260.96
1025.87	1245.59
1026.16	1256.89
1026.449	1260.05
1026.739	1248.07
1027.029	1240.39
1027.319	1235.87
1027.608	1201.3
1027.898	1205.36
1028.187	1190.45
1028.477	1172.6
1028.766	1177.57
1029.055	1167.62
1029.344	1168.3
1029.634	1196.78
1029.923	1137.12
1030.212	1128.3
1030.501	1158.81
1030.79	1107.29
1031.078	1134.41
1031.367	1119.04
1031.656	1128.3
1031.945	1126.04
1032.233	1106.84
1032.522	1083.11
1032.81	1090.56
1033.099	1079.94
1033.387	1079.04
1033.675	1098.47
1033.963	1078.14
1034.251	1089.43
1034.54	1060.51
1034.828	1055.99
1035.116	1028.87
1035.403	1024.8
1035.691	1028.87
1035.979	1013.5
1036.267	1042.43
1036.554	1017.12
1036.842	983
1037.129	990.23
1037.417	975.09
1037.704	1001.98
1037.992	969.21
1038.279	968.76
1038.566	967.18
1038.853	967.18
1039.14	967.18
