Data from red_shiny_book_FLMS001491_00047.txt Node
Date: Wed Feb 08 15:24:55 GMT 2017
User: dcchb
Spectrometer: FLMS00149
Trigger mode: 0
Integration Time (sec): 2.000000E-2
Scans to average: 10
Electric dark correction enabled: true
Nonlinearity correction enabled: false
Boxcar width: 0
XAxis mode: Wavelengths
Number of Pixels in Spectrum: 2048
>>>>>Begin Spectral Data<<<<<
341.393	-17.88
341.776	-17.88
342.16	-17.88
342.543	-68.28
342.927	-79.57
343.31	-69.4
343.693	-61.72
344.077	-70.08
344.46	-69.4
344.843	-69.86
345.226	-49.07
345.61	3.14
345.993	-3.42
346.376	-17.65
346.759	3.59
347.142	25.96
347.525	44.26
347.908	65.51
348.291	73.64
348.674	96.47
349.057	98.05
349.44	140.31
349.823	153.41
350.206	175.11
350.588	197.48
350.971	208.33
351.354	222.11
351.737	260.98
352.119	256.69
352.502	288.1
352.884	268.67
353.267	296.69
353.65	287.87
354.032	317.7
354.414	320.64
354.797	325.84
355.179	329.68
355.562	343.69
355.944	328.78
356.326	344.14
356.709	350.25
357.091	333.07
357.473	362.22
357.855	360.19
358.238	336.01
358.62	367.42
359.002	352.05
359.384	364.71
359.766	358.15
360.148	332.17
360.53	370.36
360.912	359.96
361.294	363.58
361.676	338.49
362.057	352.5
362.439	352.5
362.821	336.91
363.203	346.86
363.584	340.3
363.966	328.78
364.348	333.52
364.729	349.57
365.111	340.3
365.493	337.14
365.874	337.82
366.256	316.57
366.637	333.97
367.019	313.64
367.4	321.55
367.781	319.96
368.163	315.9
368.544	317.48
368.925	310.47
369.306	340.08
369.688	337.14
370.069	329
370.45	343.01
370.831	318.16
371.212	328.55
371.593	331.71
371.974	331.94
372.355	311.15
372.736	343.01
373.117	348.44
373.498	324.48
373.879	340.98
374.26	337.36
374.641	332.62
375.021	343.24
375.402	323.13
375.783	331.94
376.163	344.14
376.544	346.86
376.925	352.28
377.305	341.43
377.686	330.81
378.066	362
378.447	350.02
378.827	327.65
379.208	353.63
379.588	341.43
379.968	357.7
380.349	329.45
380.729	348.89
381.109	342.34
381.489	360.19
381.87	355.67
382.25	341.21
382.63	363.35
383.01	355.44
383.39	346.4
383.77	343.92
384.15	350.25
384.53	362.22
384.91	356.12
385.29	372.17
385.67	378.94
386.049	370.13
386.429	359.28
386.809	379.4
387.189	368.55
387.568	375.1
387.948	373.07
388.328	359.74
388.707	378.27
389.087	379.17
389.466	394.76
389.846	375.33
390.225	394.31
390.605	383.24
390.984	382.11
391.363	371.94
391.743	376.91
392.122	387.53
392.501	371.04
392.881	397.93
393.26	398.38
393.639	385.05
394.018	411.94
394.397	400.19
394.776	388.66
395.155	397.48
395.534	396.8
395.913	392.5
396.292	411.94
396.671	402.67
397.05	417.81
397.429	409.9
397.808	424.37
398.186	413.07
398.565	407.64
398.944	419.85
399.323	396.57
399.701	409.45
400.08	427.76
400.458	404.71
400.837	414.65
401.215	428.44
401.594	423.69
401.972	416.46
402.351	432.73
402.729	436.8
403.107	422.79
403.486	449.45
403.864	468.21
404.242	442.9
404.62	443.58
404.999	447.64
405.377	443.12
405.755	442.45
406.133	467.08
406.511	441.54
406.889	434.08
407.267	460.75
407.645	463.24
408.023	477.47
408.401	460.98
408.779	476.12
409.156	475.44
409.534	463.24
409.912	501.43
410.29	485.61
410.667	495.78
411.045	507.3
411.422	495.1
411.8	521.31
412.178	529.68
412.555	523.35
412.933	514.53
413.31	514.76
413.687	520.64
414.065	532.39
414.442	519.96
414.819	547.75
415.197	530.58
415.574	545.72
415.951	550.69
416.328	557.92
416.705	554.08
417.082	566.74
417.46	574.42
417.837	570.13
418.214	571.03
418.591	576.23
418.967	586.4
419.344	586.85
419.721	618.03
420.098	603.35
420.475	611.93
420.852	600.63
421.228	593.18
421.605	612.16
421.982	594.08
422.358	601.09
422.735	621.88
423.111	609
423.488	626.62
423.864	648.77
424.241	677.92
424.617	673.4
424.994	637.7
425.37	651.71
425.746	639.5
426.123	645.38
426.499	649.9
426.875	674.98
427.251	673.17
427.627	684.93
428.003	683.34
428.379	712.27
428.756	710.46
429.132	719.05
429.507	716.79
429.883	709.11
430.259	689.67
430.635	690.58
431.011	693.29
431.387	738.71
431.763	753.85
432.138	734.42
432.514	785.49
432.89	747.52
433.265	768.31
433.641	772.15
434.016	776.67
434.392	794.3
434.767	763.57
435.143	792.27
435.518	795.43
435.894	781.42
436.269	818.48
436.644	822.1
437.02	832.94
437.395	834.53
437.77	840.4
438.145	846.28
438.52	846.73
438.895	836.33
439.271	848.54
439.646	836.56
440.021	856.22
440.395	853.06
440.77	863.68
441.145	890.57
441.52	926.73
441.895	910.68
442.27	917.91
442.645	916.11
443.019	894.64
443.394	904.35
443.769	888.08
444.143	874.07
444.518	902.32
444.892	915.43
445.267	898.71
445.641	924.24
446.016	956.33
446.39	967.63
446.764	979.61
447.139	959.27
447.513	976.44
447.887	969.89
448.262	952.49
448.636	966.95
449.01	960.17
449.384	954.75
449.758	980.51
450.132	985.03
450.506	964.47
450.88	1012.37
451.254	1028.19
451.628	1028.42
452.002	1044.24
452.376	1020.96
452.75	998.36
453.123	987.52
453.497	1015.09
453.871	1024.13
454.244	1011.02
454.618	1055.76
454.992	1081.98
455.365	1059.38
455.739	1100.06
456.112	1110
456.486	1112.94
456.859	1104.35
457.232	1096.44
457.606	1107.51
457.979	1083.56
458.352	1077.68
458.725	1102.32
459.099	1124.46
459.472	1105.03
459.845	1136.21
460.218	1140.28
460.591	1207.85
460.964	1186.83
461.337	1199.49
461.71	1229.54
462.083	1249.43
462.456	1201.52
462.829	1215.53
463.201	1186.16
463.574	1200.62
463.947	1201.97
464.32	1236.78
464.692	1245.59
465.065	1270.45
465.438	1286.94
465.81	1345.7
466.183	1326.72
466.555	1353.16
466.928	1355.87
467.3	1318.81
467.672	1335.98
468.045	1364.23
468.417	1348.41
468.789	1317
469.161	1375.98
469.534	1363.78
469.906	1396.77
470.278	1433.15
470.65	1480.61
471.022	1484
471.394	1509.76
471.766	1551.8
472.138	1542.76
472.51	1572.59
472.882	1564.68
473.253	1545.69
473.625	1548.18
473.997	1574.62
474.369	1530.78
474.74	1566.03
475.112	1582.75
475.484	1634.73
475.855	1724.45
476.227	1724.67
476.598	1763.54
476.97	1783.65
477.341	1833.82
477.713	1817.1
478.084	1822.75
478.455	1863.88
478.827	1798.79
479.198	1831.56
479.569	1824.1
479.94	1877.89
480.311	1905.68
480.682	1931.45
481.053	1970.09
481.424	2043.76
481.795	2087.83
482.166	2171.89
482.537	2187.26
482.908	2243.53
483.279	2242.85
483.65	2247.82
484.021	2228.61
484.391	2218.44
484.762	2233.81
485.133	2203.08
485.503	2231.78
485.874	2293.24
486.244	2333.02
486.615	2415.28
486.985	2501.6
487.356	2537.31
487.726	2621.6
488.097	2686.68
488.467	2646
488.837	2693.69
489.207	2726.45
489.578	2723.52
489.948	2697.08
490.318	2689.62
490.688	2673.8
491.058	2725.32
491.428	2728.71
491.798	2802.38
492.168	2893.23
492.538	2937.07
492.908	3022.04
493.278	3081.92
493.648	3151.08
494.017	3167.8
494.387	3188.59
494.757	3181.58
495.126	3193.33
495.496	3151.75
495.866	3125.31
496.235	3099.55
496.605	3067.91
496.974	3111.75
497.344	3170.74
497.713	3222.94
498.082	3255.03
498.452	3352.65
498.821	3435.59
499.19	3467.9
499.559	3520.78
499.928	3565.08
500.298	3584.51
500.667	3563.95
501.036	3528.69
501.405	3548.35
501.774	3458.41
502.143	3434.01
502.512	3425.64
502.88	3395.59
503.249	3443.95
503.618	3471.07
503.987	3498.18
504.356	3610.72
504.724	3684.85
505.093	3772.75
505.462	3796.48
505.83	3820.66
506.199	3848.23
506.567	3880.55
506.936	3819.98
507.304	3822.02
507.672	3792.19
508.041	3749.48
508.409	3669.71
508.777	3661.34
509.145	3626.54
509.514	3664.28
509.882	3712.42
510.25	3775.69
510.618	3873.77
510.986	3961.22
511.354	4037.15
511.722	4133.2
512.09	4172.29
512.458	4094.1
512.826	4149.69
513.193	4100.65
513.561	4052.52
513.929	4025.18
514.297	3958.51
514.664	3914.67
515.032	3909.47
515.4	3873.99
515.767	3932.98
516.135	3958.96
516.502	4013.65
516.869	4093.42
517.237	4157.38
517.604	4243.7
517.972	4399.18
518.339	4415.9
518.706	4445.5
519.073	4422.45
519.44	4395.79
519.808	4383.36
520.175	4262.23
520.542	4239.63
520.909	4189.24
521.276	4112.41
521.643	4149.24
522.009	4174.33
522.376	4207.77
522.743	4252.74
523.11	4338.16
523.477	4387.43
523.843	4530.93
524.21	4618.61
524.577	4716.91
524.943	4783.35
525.31	4795.1
525.676	4830.35
526.043	4856.34
526.409	4827.19
526.776	4817.92
527.142	4687.76
527.508	4615.9
527.874	4614.54
528.241	4582.45
528.607	4542.68
528.973	4591.04
529.339	4701.32
529.705	4800.98
530.071	4943.8
530.437	5072.61
530.803	5173.4
531.169	5212.94
531.535	5302.88
531.901	5354.41
532.267	5436.66
532.632	5473.95
532.998	5393.28
533.364	5324.58
533.73	5243.45
534.095	5196.67
534.461	5146.28
534.826	5171.36
535.192	5137.69
535.557	5130.23
535.923	5158.03
536.288	5293.62
536.653	5377.23
537.019	5419.26
537.384	5559.83
537.749	5765.7
538.114	5847.05
538.479	5936.99
538.845	5947.61
539.21	5952.36
539.575	5975.41
539.94	5957.78
540.305	5888.4
540.67	5830.33
541.034	5725.7
541.399	5702.65
541.764	5656.09
542.129	5618.58
542.494	5638.69
542.858	5668.98
543.223	5751.23
543.587	5808.63
543.952	5902.64
544.316	6070.55
544.681	6186.93
545.045	6313.7
545.41	6422.18
545.774	6506.47
546.138	6589.63
546.503	6541.27
546.867	6516.86
547.231	6484.55
547.595	6358
547.959	6294.04
548.324	6186.93
548.688	6110.32
549.052	6038.23
549.416	5970.66
549.779	5982.64
550.143	6022.19
550.507	6143.09
550.871	6217.21
551.235	6304.89
551.599	6428.05
551.962	6544.21
552.326	6646.58
552.689	6772.9
553.053	6787.59
553.417	6840.7
553.78	6913.01
554.143	6900.58
554.507	6861.71
554.87	6739.91
555.234	6699.91
555.597	6565.22
555.96	6461.04
556.323	6371.33
556.686	6356.64
557.05	6300.15
557.413	6301.73
557.776	6354.15
558.139	6382.63
558.502	6529.97
558.865	6707.82
559.228	6868.04
559.59	6969.73
559.953	7130.18
560.316	7237.97
560.679	7304.41
561.041	7347.12
561.404	7349.83
561.767	7343.73
562.129	7273.68
562.492	7174.92
562.854	7081.59
563.217	6966.79
563.579	6889.96
563.941	6794.14
564.304	6762.05
564.666	6756.4
565.028	6750.3
565.39	6728.61
565.753	6805.67
566.115	6967.02
566.477	7132.21
566.839	7253.57
567.201	7456.72
567.563	7557.51
567.925	7685.19
568.287	7798.64
568.648	7897.62
569.01	7901.46
569.372	7960.44
569.734	7896.49
570.095	7846.55
570.457	7749.6
570.819	7606.33
571.18	7493.33
571.542	7437.06
571.903	7375.82
572.265	7281.81
572.626	7262.15
572.987	7233.91
573.349	7325.65
573.71	7491.53
574.071	7585.31
574.432	7788.02
574.794	8017.16
575.155	8207.67
575.516	8437.49
575.877	8605.17
576.238	8678.16
576.599	8865.73
576.96	8926.29
577.32	9031.37
577.681	9091.26
578.042	9106.17
578.403	9077.7
578.763	8983.46
579.124	8960.64
579.485	9006.74
579.845	9065.72
580.206	9032.28
580.566	9057.59
580.927	9173.74
581.287	9424.13
581.648	9595.2
582.008	9761.97
582.368	10161.29
582.728	10583.42
583.089	10951.32
583.449	11333.23
583.809	11720.12
584.169	12192.87
584.529	12496.37
584.889	12943.36
585.249	13152.17
585.609	13431.26
585.969	13819.5
586.329	14066.95
586.688	14273.95
587.048	14486.6
587.408	14765.01
587.768	14998.22
588.127	15299
588.487	15619.45
588.846	16110.96
589.206	16349.6
589.565	16755.24
589.925	17312.06
590.284	17813.51
590.643	18455.53
591.003	19005.12
591.362	19757.87
591.721	20277.63
592.08	20881
592.44	21632.4
592.799	22197.81
593.158	22755.98
593.517	23337.21
593.876	23867.82
594.235	24291.08
594.593	24778.98
594.952	25175.13
595.311	25459.64
595.67	25949.57
596.029	26429.11
596.387	26808.76
596.746	27188.64
597.104	27479.48
597.463	27942.06
597.822	28385.21
598.18	28775.49
598.538	29274.91
598.897	30043.25
599.255	30272.4
599.613	31495.64
599.972	31712.58
600.33	32476.86
600.688	32991.65
601.046	33661.46
601.404	34425.96
601.762	34792.05
602.12	35343.22
602.478	35949.08
602.836	36301.84
603.194	36411.67
603.552	36866.12
603.91	36985.67
604.268	37509.27
604.625	37678.08
604.983	38035.36
605.341	38125.07
605.698	38525.51
606.056	38911.49
606.413	38972.28
606.771	39438.48
607.128	39772.26
607.485	40115.08
607.843	40380.38
608.2	41014.94
608.557	41520.01
608.914	41889.27
609.272	42331.06
609.629	42812.86
609.986	43409.68
610.343	43512.73
610.7	44228.87
611.057	44344.34
611.414	44598.35
611.771	44875.4
612.127	45120.14
612.484	45156.75
612.841	45427.93
613.198	45361.94
613.554	45585.44
613.911	45689.62
614.267	45713.57
614.624	45802.38
614.98	45933.23
615.337	46161.02
615.693	46355.14
616.05	46292.99
616.406	46708.8
616.762	46694.79
617.118	46897.04
617.475	47049.58
617.831	47348.56
618.187	47647.08
618.543	47876.45
618.899	48291.81
619.255	48457.68
619.611	48607.51
619.967	48960.94
620.323	49070.77
620.678	49106.93
621.034	49070.09
621.39	49245.23
621.746	49230.09
622.101	49625.11
622.457	49292.46
622.812	49252.69
623.168	49278.45
623.523	49147.38
623.879	49268.05
624.234	49053.82
624.589	49177.89
624.945	49232.58
625.3	49245
625.655	49153.03
626.01	49316.64
626.365	49444.1
626.72	49480.48
627.075	49560.25
627.43	49633.02
627.785	49763.64
628.14	49927.7
628.495	50150.29
628.85	50132.89
629.205	50197.75
629.559	50581.69
629.914	50443.62
630.269	50389.61
630.623	50425.09
630.978	50434.13
631.332	50511.86
631.687	50478.42
632.041	50293.56
632.396	50430.28
632.75	50103.06
633.104	50144.87
633.459	49941.03
633.813	49879.56
634.167	49816.06
634.521	49620.81
634.875	49644.54
635.229	49575.39
635.583	49389.86
635.937	49459.69
636.291	49592.34
636.645	49720.02
636.999	49610.87
637.352	49835.95
637.706	49714.37
638.06	50017.19
638.413	49951.2
638.767	49970.86
639.121	50026.68
639.474	50006.57
639.828	50106.45
640.181	50208.37
640.534	50168.6
640.888	50046.34
641.241	49807.02
641.594	49895.16
641.947	49945.33
642.301	49788.95
642.654	49633.69
643.007	49603.64
643.36	49364.32
643.713	49254.5
644.066	49426.92
644.419	49011.11
644.771	48836.65
645.124	48481.63
645.477	48249.55
645.83	48034.19
646.182	47979.95
646.535	47976.56
646.888	48101.08
647.24	47928.66
647.593	48399.38
647.945	48244.8
648.298	48197.57
648.65	48195.99
649.002	48154.86
649.355	48308.08
649.707	48312.83
650.059	48393.05
650.411	48970.44
650.763	49046.59
651.115	49404.32
651.467	49170.88
651.819	49225.12
652.171	49059.92
652.523	48894.51
652.875	48709.65
653.227	48520.96
653.578	48669.88
653.93	48570.22
654.282	48177.46
654.633	48086.62
654.985	48207.07
655.337	48052.49
655.688	47942.89
656.039	48308.08
656.391	47890.46
656.742	47963.68
657.094	48083.23
657.445	48316.44
657.796	48256.56
658.147	48194.41
658.498	48321.87
658.849	48496.32
659.2	48488.19
659.551	48454.52
659.902	48790.78
660.253	48617.45
660.604	48723.66
660.955	48646.83
661.306	48742.87
661.656	48569.99
662.007	48564.34
662.358	48551.92
662.708	48385.59
663.059	48391.02
663.409	48084.36
663.76	48194.41
664.11	47948.54
664.461	48014.3
664.811	47859.5
665.161	47794.42
665.511	47578.61
665.862	47620.64
666.212	47745.83
666.562	47814.31
666.912	47599.4
667.262	47618.61
667.612	47470.36
667.962	47710.58
668.312	47635.78
668.662	47801.65
669.011	47844.59
669.361	47957.35
669.711	47952.61
670.06	48007.75
670.41	47904.93
670.76	48119.84
671.109	48173.17
671.459	48143.11
671.808	48111.48
672.157	48204.58
672.507	47956
672.856	47965.94
673.205	47816.79
673.554	48033.51
673.904	47710.81
674.253	47845.04
674.602	47673.52
674.951	47052.75
675.3	46668.35
675.649	47162.8
675.998	47079.19
676.346	47100.88
676.695	47145.4
677.044	46673.55
677.393	46852.75
677.741	46802.13
678.09	46755.13
678.438	46575.7
678.787	46821.57
679.135	46817.95
679.484	46569.59
679.832	46786.09
680.181	46646.2
680.529	46853.66
680.877	46931.85
681.225	46917.61
681.573	47232.18
681.922	46897.27
682.27	46978.17
682.618	46999.64
682.966	47030.15
683.314	47021.33
683.661	47007.1
684.009	46812.98
684.357	46665.41
684.705	46636.94
685.053	46537.28
685.4	46440.78
685.748	45993.34
686.095	45991.3
686.443	45763.51
686.79	45617.53
687.138	45570.3
687.485	45562.62
687.832	45198.56
688.18	45190.2
688.527	45086.7
688.874	45058.67
689.221	44857.55
689.568	44725.12
689.915	44550.44
690.262	44800.6
690.609	44725.35
690.956	44568.74
691.303	44642.87
691.65	44568.74
691.997	44612.58
692.344	44467.28
692.69	44398.13
693.037	44727.16
693.383	44345.25
693.73	44577.1
694.077	44322.87
694.423	44379.82
694.769	44285.36
695.116	44255.98
695.462	44156.78
695.808	43999.04
696.155	43998.59
696.501	43634.08
696.847	43624.36
697.193	43380.75
697.539	43316.8
697.885	42722.24
698.231	42683.6
698.577	42485.18
698.923	42371.06
699.269	42148.92
699.614	41959.32
699.96	41872.32
700.306	41862.83
700.651	41710.06
700.997	41467.13
701.342	41417.87
701.688	41370.64
702.033	41207.48
702.379	41259
702.724	41219.45
703.069	41342.61
703.415	40940.36
703.76	41168.15
704.105	41210.64
704.45	41123.64
704.795	41028.72
705.14	41080.7
705.485	40988.05
705.83	40886.13
706.175	40877.32
706.52	40735.85
706.865	40954.15
707.209	40837.77
707.554	40580.6
707.899	40688.85
708.243	40383.99
708.588	40315.75
708.932	40105.58
709.277	39990.56
709.621	39892.26
709.966	39482.78
710.31	39485.49
710.654	38999.4
710.998	39060.41
711.342	39023.58
711.687	38806.86
712.031	38555.34
712.375	38426.98
712.719	38543.14
713.063	38283.48
713.407	38441.9
713.75	38240.55
714.094	38107.67
714.438	38121.91
714.782	38206.88
715.125	38044.62
715.469	38153.77
715.812	38007.79
716.156	37902.48
716.499	37969.14
716.843	38235.8
717.186	37986.54
717.53	38379.3
717.873	38205.07
718.216	38125.52
718.559	38056.37
718.902	37839.65
719.246	37926.43
719.589	37832.2
719.932	37703.61
720.275	37846.21
720.617	37758.53
720.96	37563.5
721.303	37558.76
721.646	37428.82
721.989	37153.57
722.331	37315.6
722.674	36989.28
723.016	36872.22
723.359	36764.65
723.701	36742.51
724.044	36335.29
724.386	36172.58
724.729	36256.42
725.071	36117.44
725.413	36002.41
725.755	35945.69
726.097	35776.66
726.439	35700.73
726.782	35597.68
727.124	35660.73
727.465	35610.11
727.807	35537.12
728.149	35721.29
728.491	35512.48
728.833	35821.63
729.175	35590.45
729.516	35706.83
729.858	35785.02
730.199	35834.06
730.541	35712.03
730.882	35855.07
731.224	35871.8
731.565	35635.42
731.906	35751.12
732.248	35860.72
732.589	35667.96
732.93	35515.87
733.271	35516.33
733.612	35502.54
733.953	35406.5
734.294	35418.93
734.635	35137.13
734.976	35180.97
735.317	34929.45
735.658	34785.72
735.999	34662.79
736.339	34614.2
736.68	34617.82
737.021	34500.53
737.361	34178.73
737.702	34224.38
738.042	34160.43
738.383	33995.69
738.723	33997.27
739.063	33818.74
739.404	33846.54
739.744	33702.14
740.084	33619.65
740.424	33751.85
740.764	33692.42
741.104	33667.56
741.444	33683.38
741.784	33579.65
742.124	33718.86
742.464	33737.16
742.804	33817.61
743.143	33632.08
743.483	33778.07
743.823	33652.42
744.162	33737.84
744.502	33870.49
744.841	33759.54
745.181	33845.86
745.52	33712.98
745.86	33809.93
746.199	33613.55
746.538	33670.27
746.877	33689.71
747.216	33555.02
747.556	33426.89
747.895	33358.19
748.234	33235.71
748.573	33147.35
748.911	33145.77
749.25	32941.48
749.589	32668.04
749.928	32646.12
750.267	32596.18
750.605	32567.03
750.944	32271.67
751.283	32127.04
751.621	32121.84
751.96	31801.62
752.298	31864.67
752.636	31846.59
752.975	31664.68
753.313	31557.56
753.651	31641.4
753.989	31502.87
754.327	31447.05
754.666	31274.63
755.004	31456.77
755.342	31368.19
755.679	31353.27
756.017	31310.79
756.355	31414.96
756.693	31307.4
757.031	31361.41
757.368	31245.7
757.706	31165.03
758.044	31328.87
758.381	31325.25
758.719	31120.74
759.056	31226.5
759.394	31162.77
759.731	31088.87
760.068	31030.34
760.405	30895.66
760.743	30757.58
761.08	30746.06
761.417	30644.36
761.754	30477.36
762.091	30476.01
762.428	30303.58
762.765	30136.13
763.102	30024.72
763.438	29857.49
763.775	29681.9
764.112	29672.41
764.449	29558.74
764.785	29418.86
765.122	29086.44
765.458	29079.21
765.795	28849.61
766.131	28933.67
766.467	28701.59
766.804	28509.5
767.14	28276.74
767.476	28314.48
767.812	28290.98
768.148	28229.06
768.485	28128.72
768.821	28089.4
769.157	28006.69
769.492	27992
769.828	27955.17
770.164	27828.17
770.5	27695.51
770.836	27808.28
771.171	27686.25
771.507	27736.19
771.842	27462.53
772.178	27635.18
772.513	27469.53
772.849	27552.47
773.184	27431.11
773.519	27322.42
773.855	27226.37
774.19	27078.58
774.525	27073.16
774.86	27085.36
775.195	26986.83
775.53	26861.64
775.865	26733.05
776.2	26513.85
776.535	26490.35
776.87	26308.43
777.205	26161.32
777.539	25998.61
777.874	25973.75
778.209	25763.14
778.543	25604.95
778.878	25534.44
779.212	25418.29
779.547	25191.4
779.881	25205.41
780.215	24891.75
780.55	25002.7
780.884	24835.48
781.218	24721.13
781.552	24734.91
781.886	24489.72
782.22	24376.51
782.554	24264.87
782.888	24146
783.222	24126.79
783.556	23913.92
783.889	23872.79
784.223	23791.44
784.557	23679.58
784.89	23779.91
785.224	23696.07
785.557	23651.1
785.891	23658.78
786.224	23594.15
786.558	23608.16
786.891	23448.17
787.224	23402.97
787.557	23379.47
787.891	23325.46
788.224	23391.9
788.557	23325.46
788.89	23279.36
789.223	23229.87
789.556	23118.91
789.888	23017.45
790.221	22976.54
790.554	22704.01
790.887	22886.6
791.219	22748.75
791.552	22751.24
791.884	22567.51
792.217	22493.84
792.549	22271.7
792.882	22059.73
793.214	21964.82
793.546	21964.59
793.879	21777.25
794.211	21612.74
794.543	21591.49
794.875	21528.22
795.207	21560.53
795.539	21386.08
795.871	21347.21
796.203	21088.46
796.535	20940.89
796.867	20922.59
797.198	20797.17
797.53	20760.1
797.862	20685.76
798.193	20732.53
798.525	20373.45
798.856	20603.72
799.188	20376.16
799.519	20406.89
799.85	20245.99
800.182	20312.21
800.513	20354.69
800.844	20161.7
801.175	20297.52
801.506	20295.71
801.837	20214.58
802.168	20205.32
802.499	20081.7
802.83	19945.66
803.161	20008.94
803.491	20019.33
803.822	20059.78
804.153	19924.87
804.483	19868.38
804.814	19745.67
805.145	19802.61
805.475	19784.54
805.805	19762.16
806.136	19716.06
806.466	19693.01
806.796	19739.34
807.126	19518.55
807.457	19372.57
807.787	19421.83
808.117	19334.15
808.447	19131.22
808.777	19148.85
809.107	19058.23
809.436	18952.02
809.766	19004.67
810.096	18721.97
810.426	18703.21
810.755	18772.59
811.085	18624.11
811.414	18519.94
811.744	18398.81
812.073	18302.09
812.403	18327.17
812.732	18102.55
813.061	18088.54
813.39	17991.36
813.719	17892.38
814.049	18050.57
814.378	17999.27
814.707	17860.07
815.036	17899.16
815.365	17807.19
815.693	17674.31
816.022	17758.83
816.351	17548.44
816.68	17569.23
817.008	17712.73
817.337	17537.82
817.665	17614.42
817.994	17627.08
818.322	17602.22
818.651	17525.39
818.979	17467.76
819.307	17719.28
819.636	17541.66
819.964	17502.34
820.292	17665.5
820.62	17558.15
820.948	17571.26
821.276	17664.82
821.604	17512.28
821.932	17538.04
822.259	17612.39
822.587	17512.51
822.915	17484.03
823.243	17539.85
823.57	17536.69
823.898	17505.5
824.225	17425.28
824.553	17435.45
824.88	17346.18
825.207	17383.92
825.535	17361.32
825.862	17396.8
826.189	17293.98
826.516	17303.7
826.843	17308.22
827.17	17255.56
827.497	17210.14
827.824	17170.59
828.151	17276.81
828.478	17114.55
828.805	17052.18
829.131	17048.11
829.458	16937.15
829.785	16860.09
830.111	16854.22
830.438	17037.26
830.764	17062.57
831.09	17006.53
831.417	16873.2
831.743	16915.46
832.069	16949.58
832.395	16916.14
832.722	16950.71
833.048	16877.95
833.374	16861.68
833.7	16896.7
834.026	16939.87
834.351	16976.02
834.677	16951.16
835.003	17036.36
835.329	16963.37
835.654	17028.68
835.98	16946.64
836.306	16999.07
836.631	16936.02
836.956	16950.71
837.282	17037.94
837.607	16852.41
837.932	16913.65
838.258	16855.35
838.583	16877.95
838.908	16857.38
839.233	16866.19
839.558	16819.19
839.883	16839.08
840.208	16705.07
840.533	16720.44
840.858	16746.2
841.182	16734.22
841.507	16656.03
841.832	16555.92
842.156	16570.38
842.481	16482.48
842.805	16401.35
843.13	16352.99
843.454	16330.62
843.778	16219.88
844.103	16210.39
844.427	16046.78
844.751	16049.04
845.075	15997.07
845.399	15873.23
845.723	15762.72
846.047	15790.74
846.371	15610.18
846.695	15608.83
847.019	15521.82
847.343	15449.06
847.666	15364.99
847.99	15320.25
848.313	15194.15
848.637	15122.74
848.96	15113.02
849.284	15081.61
849.607	14973.36
849.931	14920.48
850.254	14878
850.577	14935.4
850.9	14737.66
851.223	14771.11
851.546	14706.25
851.869	14538.12
852.192	14643.43
852.515	14556.65
852.838	14504.45
853.161	14607.95
853.483	14545.8
853.806	14451.12
854.129	14544.9
854.451	14369.31
854.774	14325.02
855.096	14324.79
855.419	14395.3
855.741	14236.66
856.063	14203.89
856.385	14272.36
856.708	14126.15
857.03	14184.23
857.352	14130.22
857.674	14089.77
857.996	14051.58
858.318	14033.05
858.64	13962.32
858.961	13828.31
859.283	13896.1
859.605	13771.59
859.926	13792.15
860.248	13701.76
860.57	13687.52
860.891	13651.82
861.212	13562.1
861.534	13543.12
861.855	13429
862.176	13409.56
862.498	13381.31
862.819	13401.65
863.14	13208.66
863.461	13202.56
863.782	13175.22
864.103	13124.6
864.424	13060.87
864.745	13116.46
865.065	12999.4
865.386	12848.22
865.707	12947.65
866.027	12887.09
866.348	12796.7
866.668	12869.01
866.989	12843.25
867.309	12771.39
867.63	12813.87
867.95	12843.93
868.27	12737.49
868.59	12728.22
868.91	12721.22
869.23	12607.55
869.55	12589.7
869.87	12706.08
870.19	12645.51
870.51	12702.91
870.83	12802.12
871.15	12683.71
871.469	12697.94
871.789	12743.37
872.109	12702.69
872.428	12595.8
872.748	12765.29
873.067	12724.16
873.386	12811.61
873.706	12671.5
874.025	12657.94
874.344	12595.12
874.663	12734.33
874.982	12643.71
875.301	12636.25
875.62	12662.24
875.939	12645.51
876.258	12680.32
876.577	12575.46
876.896	12537.95
877.214	12466.76
877.533	12400.1
877.852	12418.63
878.17	12328.24
878.489	12414.79
878.807	12335.69
879.125	12320.33
879.444	12280.55
879.762	12254.11
880.08	12184.51
880.398	12079.65
880.716	12108.58
881.034	11987.91
881.352	12047.79
881.67	11994.46
881.988	11991.97
882.306	11860.68
882.624	11860
882.941	11779.78
883.259	11685.99
883.577	11725.99
883.894	11731.41
884.212	11594.7
884.529	11555.6
884.846	11513.57
885.164	11582.04
885.481	11484.42
885.798	11517.86
886.115	11405.77
886.432	11428.6
886.75	11332.1
887.067	11403.97
887.383	11338.43
887.7	11379.33
888.017	11397.86
888.334	11343.85
888.651	11369.16
888.967	11241.03
889.284	11236.06
889.6	11201.49
889.917	11232.67
890.233	11297.3
890.55	11206.91
890.866	11235.61
891.182	11237.42
891.498	11102.28
891.815	11190.41
892.131	11118.1
892.447	11151.32
892.763	11056.86
893.079	11105.44
893.395	11061.38
893.71	10968.95
894.026	10946.35
894.342	11014.82
894.657	10909.06
894.973	10911.78
895.289	10846.01
895.604	10886.01
895.92	10800.82
896.235	10733.25
896.55	10789.52
896.865	10671.33
897.181	10691.22
897.496	10621.84
897.811	10524.89
898.126	10570.09
898.441	10543.42
898.756	10448.74
899.071	10371.9
899.386	10312.02
899.7	10276.76
900.015	10270.66
900.33	10160.83
900.644	10173.72
900.959	10151.34
901.273	10021.18
901.588	9984.34
901.902	9864.57
902.216	9842.42
902.531	9842.2
902.845	9728.08
903.159	9629.55
903.473	9686.5
903.787	9645.37
904.101	9553.84
904.415	9583.22
904.729	9467.97
905.042	9430.01
905.356	9437.92
905.67	9347.52
905.984	9460.06
906.297	9368.09
906.611	9335.77
906.924	9274.98
907.237	9264.81
907.551	9184.59
907.864	9121.31
908.177	9165.15
908.491	9129
908.804	9179.84
909.117	9077.25
909.43	9008.1
909.743	9038.6
910.056	9045.38
910.368	8951.6
910.681	8987.53
910.994	8914.54
911.307	8925.39
911.619	8861.66
911.932	8867.76
912.244	8797.93
912.557	8749.57
912.869	8803.36
913.181	8740.08
913.494	8754.77
913.806	8642.46
914.118	8650.14
914.43	8587.77
914.742	8520.65
915.054	8565.17
915.366	8512.97
915.678	8455.34
915.99	8429.58
916.302	8356.81
916.613	8354.55
916.925	8378.51
917.236	8377.38
917.548	8284.73
917.859	8300.32
918.171	8267.1
918.482	8156.59
918.794	8134.45
919.105	8080.44
919.416	8085.41
919.727	8037.27
920.038	7992.3
920.349	7958.63
920.66	7887.45
920.971	7902.81
921.282	7800.44
921.593	7729.49
921.903	7693.55
922.214	7629.6
922.525	7650.39
922.835	7522.26
923.146	7513.45
923.456	7511.86
923.767	7472.54
924.077	7404.07
924.387	7378.76
924.697	7339.21
925.008	7267.35
925.318	7271.64
925.628	7163.4
925.938	7190.52
926.248	7098.99
926.558	7119.56
926.867	7108.71
927.177	7066.9
927.487	6938.09
927.796	6943.74
928.106	6969.51
928.416	6952.11
928.725	6903.52
929.034	6807.25
929.344	6878.21
929.653	6833.01
929.962	6808.61
930.271	6780.36
930.581	6757.08
930.89	6784.2
931.199	6744.65
931.508	6680.25
931.817	6679.12
932.125	6668.95
932.434	6665.79
932.743	6616.07
933.051	6601.15
933.36	6640.02
933.669	6597.99
933.977	6555.05
934.286	6476.64
934.594	6522.06
934.902	6506.02
935.21	6452.46
935.519	6491.78
935.827	6452.01
936.135	6447.26
936.443	6357.54
936.751	6387.83
937.059	6351.9
937.367	6362.06
937.674	6274.84
937.982	6253.14
938.29	6156.87
938.597	6183.76
938.905	6111
939.213	6112.58
939.52	6045.91
939.827	6095.86
940.135	6048.4
940.442	5969.31
940.749	6020.83
941.056	5999.81
941.363	5887.5
941.67	5876.88
941.977	5826.71
942.284	5821.51
942.591	5797.79
942.898	5744
943.205	5732.02
943.511	5680.95
943.818	5634.4
944.125	5614.51
944.431	5587.85
944.738	5663.55
945.044	5584.23
945.35	5539.71
945.657	5472.37
945.963	5473.05
946.269	5430.11
946.575	5426.72
946.881	5354.63
947.187	5348.98
947.493	5362.32
947.799	5321.87
948.105	5250.68
948.41	5201.64
948.716	5254.75
949.022	5161.64
949.327	5164.81
949.633	5138.14
949.938	5109.22
950.244	5156.45
950.549	5088.2
950.854	5059.05
951.16	5031.93
951.465	5024.92
951.77	5011.59
952.075	4979.73
952.38	4971.82
952.685	5018.37
952.99	4939.05
953.294	4924.36
953.599	4904.02
953.904	4913.29
954.209	4870.35
954.513	4883.91
954.818	4873.06
955.122	4881.65
955.426	4802.11
955.731	4751.71
956.035	4814.76
956.339	4797.36
956.643	4812.73
956.948	4737.93
957.252	4751.03
957.556	4682.56
957.86	4692.28
958.163	4670.36
958.467	4681.2
958.771	4692.73
959.075	4640.3
959.378	4576.35
959.682	4626.97
959.985	4575.9
960.289	4509.01
960.592	4506.29
960.896	4520.98
961.199	4491.15
961.502	4443.92
961.805	4452.51
962.108	4377.94
962.411	4409.8
962.714	4359.86
963.017	4368.67
963.32	4360.31
963.623	4337.26
963.926	4297.26
964.228	4229.69
964.531	4211.16
964.833	4235.79
965.136	4170.03
965.438	4186.3
965.741	4152.63
966.043	4161.9
966.345	4099.3
966.648	4096.14
966.95	4113.54
967.252	4029.47
967.554	3999.87
967.856	4022.92
968.158	3925.07
968.46	3960.55
968.761	3946.08
969.063	3885.97
969.365	3888.01
969.666	3889.14
969.968	3824.05
970.269	3860.44
970.571	3813.88
970.872	3814.79
971.174	3768.69
971.475	3773.21
971.776	3772.75
972.077	3714.45
972.378	3724.85
972.679	3691.4
972.98	3699.31
973.281	3676.03
973.582	3653.89
973.883	3662.25
974.183	3655.24
974.484	3614.79
974.785	3610.5
975.085	3591.52
975.386	3587
975.686	3558.3
975.986	3526.21
976.287	3549.48
976.587	3523.72
976.887	3509.26
977.187	3490.05
977.487	3505.87
977.787	3507
978.087	3437.4
978.387	3460.45
978.687	3409.37
978.987	3417.06
979.286	3420.67
979.586	3418.19
979.885	3422.93
980.185	3374.57
980.484	3363.73
980.784	3369.15
981.083	3338.64
981.382	3354.91
981.682	3360.56
981.981	3325.53
982.28	3293.9
982.579	3237.85
982.878	3248.47
983.177	3243.73
983.475	3278.08
983.774	3175.03
984.073	3197.18
984.372	3209.6
984.67	3206.22
984.969	3179.1
985.267	3168.93
985.566	3186.1
985.864	3100.68
986.162	3113.11
986.461	3065.43
986.759	3062.26
987.057	3033.11
987.355	3049.16
987.653	2999.67
987.951	3052.55
988.249	2964.64
988.547	2973.23
988.844	2937.97
989.142	2927.8
989.44	2935.04
989.737	2944.75
990.035	2888.71
990.332	2835.6
990.63	2811.88
990.927	2822.04
991.224	2814.14
991.521	2791.08
991.819	2790.18
992.116	2766.9
992.413	2748.37
992.71	2783.18
993.006	2688.04
993.303	2732.78
993.6	2735.04
993.897	2684.42
994.193	2689.17
994.49	2660.92
994.787	2602.16
995.083	2643.07
995.379	2640.35
995.676	2577.53
995.972	2575.27
996.268	2562.39
996.565	2584.76
996.861	2525.78
997.157	2538.44
997.453	2530.98
997.749	2532.79
998.044	2498.21
998.34	2487.14
998.636	2463.64
998.932	2457.76
999.227	2472.68
999.523	2445.56
999.818	2438.33
1000.114	2431.09
1000.409	2468.38
1000.704	2397.65
1001	2412.34
1001.295	2368.5
1001.59	2373.02
1001.885	2374.15
1002.18	2375.5
1002.475	2350.87
1002.77	2339.8
1003.065	2312.45
1003.359	2343.86
1003.654	2313.36
1003.949	2274.04
1004.243	2278.33
1004.538	2289.86
1004.832	2269.52
1005.127	2216.18
1005.421	2230.87
1005.715	2238.78
1006.009	2239.69
1006.304	2207.15
1006.598	2200.82
1006.892	2199.24
1007.186	2158.33
1007.48	2176.19
1007.773	2166.47
1008.067	2099.35
1008.361	2120.59
1008.655	2085.34
1008.948	2086.02
1009.242	2098.22
1009.535	2078.11
1009.829	2078.11
1010.122	2030.2
1010.415	2040.82
1010.708	2020.03
1011.001	2007.38
1011.295	1972.12
1011.588	1989.52
1011.881	1942.07
1012.173	1947.27
1012.466	1930.99
1012.759	1915.85
1013.052	1920.15
1013.344	1904.55
1013.637	1879.02
1013.93	1890.54
1014.222	1881.05
1014.514	1864.78
1014.807	1827.95
1015.099	1837.21
1015.391	1806.03
1015.683	1823.2
1015.976	1789.53
1016.268	1817.78
1016.56	1755.86
1016.851	1742.3
1017.143	1748.63
1017.435	1741.85
1017.727	1719.93
1018.018	1698.01
1018.31	1724.22
1018.602	1696.42
1018.893	1683.54
1019.185	1671.11
1019.476	1629.08
1019.767	1629.76
1020.058	1657.78
1020.35	1626.6
1020.641	1614.62
1020.932	1602.64
1021.223	1578.24
1021.514	1589.31
1021.804	1563.55
1022.095	1524
1022.386	1540.27
1022.677	1525.58
1022.967	1505.24
1023.258	1501.85
1023.548	1516.99
1023.839	1507.95
1024.129	1499.59
1024.419	1461.85
1024.709	1475.87
1025	1459.14
1025.29	1434.74
1025.58	1456.66
1025.87	1439.71
1026.16	1421.18
1026.449	1411.91
1026.739	1382.08
1027.029	1414.62
1027.319	1392.7
1027.608	1360.61
1027.898	1342.08
1028.187	1364.91
1028.477	1356.55
1028.766	1360.84
1029.055	1322.2
1029.344	1326.04
1029.634	1310.45
1029.923	1319.03
1030.212	1316.77
1030.501	1313.16
1030.79	1318.58
1031.078	1316.77
1031.367	1263.22
1031.656	1262.54
1031.945	1286.27
1032.233	1257.57
1032.522	1239.04
1032.81	1242.65
1033.099	1206.72
1033.387	1224.35
1033.675	1199.49
1033.963	1208.08
1034.251	1217.11
1034.54	1190.9
1034.828	1167.62
1035.116	1181.86
1035.403	1147.06
1035.691	1148.87
1035.979	1166.04
1036.267	1170.79
1036.554	1110.9
1036.842	1130.11
1037.129	1130.11
1037.417	1101.19
1037.704	1110.45
1037.992	1088.08
1038.279	1088.3
1038.566	1078.81
1038.853	1078.81
1039.14	1078.81
