Data from red_cardboard_box_FLMS001491_00024.txt Node
Date: Wed Feb 08 11:31:46 GMT 2017
User: dcchb
Spectrometer: FLMS00149
Trigger mode: 0
Integration Time (sec): 2.000000E-2
Scans to average: 10
Electric dark correction enabled: true
Nonlinearity correction enabled: false
Boxcar width: 0
XAxis mode: Wavelengths
Number of Pixels in Spectrum: 2048
>>>>>Begin Spectral Data<<<<<
341.393	-15.51
341.776	-15.51
342.16	-15.51
342.543	-71.33
342.927	-60.7
343.31	-55.28
343.693	-67.48
344.077	-71.33
344.46	-78.56
344.843	-59.57
345.226	-28.62
345.61	-36.98
345.993	-19.58
346.376	6.64
346.759	22.68
347.142	26.3
347.525	30.37
347.908	55.9
348.291	67.88
348.674	88.44
349.057	119.18
349.44	119.4
349.823	135
350.206	149.69
350.588	200.31
350.971	224.71
351.354	238.27
351.737	237.37
352.119	258.61
352.502	264.03
352.884	276.69
353.267	288.89
353.65	266.29
354.032	286.4
354.414	302.9
354.797	305.84
355.179	353.3
355.562	343.58
355.944	330.02
356.326	348.55
356.709	360.98
357.091	359.85
357.473	365.95
357.855	352.84
358.238	348.32
358.62	338.15
359.002	332.96
359.384	318.72
359.766	346.52
360.148	337.48
360.53	346.97
360.912	342.9
361.294	332.96
361.676	336.57
362.057	346.97
362.439	336.35
362.821	348.78
363.203	337.25
363.584	335.22
363.966	332.96
364.348	324.6
364.729	330.47
365.111	319.17
365.493	315.33
365.874	320.53
366.256	343.8
366.637	329.57
367.019	334.09
367.4	317.59
367.781	324.14
368.163	325.5
368.544	313.97
368.925	317.82
369.306	329.34
369.688	331.15
370.069	344.71
370.45	309
370.831	333.64
371.212	323.01
371.593	302.9
371.974	330.02
372.355	311.26
372.736	305.39
373.117	356.69
373.498	333.64
373.879	326.4
374.26	329.79
374.641	309.23
375.021	325.5
375.402	337.03
375.783	329.34
376.163	305.84
376.544	331.6
376.925	339.28
377.305	334.77
377.686	323.24
378.066	329.79
378.447	334.09
378.827	353.3
379.208	332.73
379.588	334.77
379.968	341.77
380.349	326.18
380.729	344.71
381.109	342.22
381.489	335.67
381.87	335.9
382.25	336.8
382.63	367.98
383.01	333.41
383.39	336.12
383.77	343.35
384.15	349.91
384.53	324.6
384.91	357.82
385.29	329.34
385.67	365.5
386.049	348.55
386.429	347.42
386.809	354.88
387.189	353.97
387.568	351.26
387.948	363.92
388.328	367.53
388.707	369.34
389.087	365.95
389.466	372.73
389.846	375.44
390.225	379.28
390.605	357.36
390.984	372.96
391.363	371.15
391.743	372.5
392.122	372.96
392.501	360.3
392.881	367.08
393.26	363.24
393.639	373.86
394.018	350.36
394.397	367.08
394.776	392.16
395.155	358.95
395.534	378.15
395.913	381.09
396.292	389
396.671	390.36
397.05	369.57
397.429	381.54
397.808	381.09
398.186	377.93
398.565	386.97
398.944	374.99
399.323	382.45
399.701	393.52
400.08	390.58
400.458	401.66
400.837	394.88
401.215	397.14
401.594	389.68
401.972	383.58
402.351	397.14
402.729	401.43
403.107	401.88
403.486	400.75
403.864	392.84
404.242	400.53
404.62	418.6
404.999	406.18
405.377	413.63
405.755	422.67
406.133	423.58
406.511	424.48
406.889	393.07
407.267	423.58
407.645	439.17
408.023	432.16
408.401	411.37
408.779	431.71
409.156	435.1
409.534	429
409.912	426.29
410.29	442.33
410.667	448.66
411.045	436.91
411.422	440.75
411.8	421.99
412.178	454.99
412.555	456.8
412.933	452.95
413.31	474.2
413.687	459.96
414.065	450.02
414.442	453.41
414.819	445.04
415.197	468.77
415.574	471.71
415.951	478.72
416.328	481.43
416.705	472.16
417.082	491.82
417.46	486.85
417.837	497.47
418.214	490.69
418.591	483.91
418.967	498.6
419.344	497.25
419.721	501.31
420.098	485.72
420.475	512.84
420.852	498.15
421.228	515.78
421.605	516.68
421.982	509.22
422.358	519.39
422.735	504.25
423.111	525.04
423.488	532.05
423.864	517.59
424.241	525.27
424.617	532.27
424.994	509.68
425.37	521.88
425.746	547.64
426.123	531.37
426.499	546.51
426.875	569.56
427.251	533.4
427.627	574.98
428.003	566.4
428.379	546.96
428.756	566.4
429.132	558.94
429.507	583.57
429.883	599.39
430.259	576.79
430.635	565.72
431.011	561.43
431.387	601.88
431.763	600.07
432.138	601.2
432.514	602.1
432.89	606.17
433.265	622.44
433.641	608.88
434.016	600.97
434.392	622.22
434.767	603.91
435.143	623.8
435.518	619.73
435.894	656.11
436.269	648.88
436.644	650.24
437.02	642.55
437.395	660.86
437.77	635.77
438.145	650.69
438.52	662.67
438.895	655.89
439.271	686.85
439.646	668.09
440.021	690.01
440.395	685.94
440.77	687.98
441.145	689.78
441.52	699.5
441.895	698.6
442.27	698.37
442.645	711.93
443.019	698.15
443.394	707.86
443.769	699.73
444.143	703.8
444.518	706.96
444.892	714.64
445.267	711.25
445.641	740.86
446.016	718.03
446.39	711.7
446.764	745.15
447.139	742.66
447.513	732.95
447.887	743.79
448.262	752.61
448.636	753.29
449.01	728.88
449.384	753.06
449.758	753.74
450.132	758.48
450.506	760.97
450.88	770.23
451.254	760.52
451.628	766.84
452.002	776.34
452.376	805.49
452.75	794.41
453.123	791.25
453.497	821.76
453.871	807.07
454.244	817.69
454.618	803
454.992	805.04
455.365	782.89
455.739	815.66
456.112	852.27
456.486	836.45
456.859	864.02
457.232	866.28
457.606	862.21
457.979	891.13
458.352	866.5
458.725	872.83
459.099	882.32
459.472	898.59
459.845	886.16
460.218	892.26
460.591	899.04
460.964	920.51
461.337	914.64
461.71	930.46
462.083	947.63
462.456	959.16
462.829	966.39
463.201	949.66
463.574	966.61
463.947	969.32
464.32	965.03
464.692	975.43
465.065	1010.45
465.438	1019.94
465.81	1018.14
466.183	1022.2
466.555	1034.18
466.928	1048.64
467.3	1054.07
467.672	1042.09
468.045	1084.8
468.417	1078.25
468.789	1086.84
469.161	1095.42
469.534	1103.33
469.906	1134.52
470.278	1110.34
470.65	1108.3
471.022	1157.57
471.394	1178.81
471.766	1171.13
472.138	1180.62
472.51	1207.51
472.882	1225.82
473.253	1202.09
473.625	1230.79
473.997	1252.93
474.369	1227.85
474.74	1268.75
475.112	1290.9
475.484	1301.29
475.855	1327.06
476.227	1344.91
476.598	1333.38
476.97	1364.79
477.341	1394.85
477.713	1395.75
478.084	1387.62
478.455	1447.5
478.827	1444.34
479.198	1450.67
479.569	1485.24
479.94	1521.63
480.311	1527.5
480.682	1526.82
481.053	1584.45
481.424	1555.75
481.795	1602.3
482.166	1618.35
482.537	1607.95
482.908	1655.86
483.279	1676.2
483.65	1690.44
484.021	1739.02
484.391	1751.45
484.762	1748.06
485.133	1770.43
485.503	1795.29
485.874	1837.1
486.244	1828.74
486.615	1865.8
486.985	1870.32
487.356	1905.57
487.726	1949.41
488.097	1968.17
488.467	1967.72
488.837	2018.79
489.207	2058.11
489.578	2025.34
489.948	2068.5
490.318	2103.31
490.688	2105.34
491.058	2111.22
491.428	2148.05
491.798	2171.78
492.168	2215.39
492.538	2197.54
492.908	2240.48
493.278	2284.77
493.648	2259.69
494.017	2299.46
494.387	2321.61
494.757	2327.03
495.126	2363.86
495.496	2375.39
495.866	2363.64
496.235	2395.5
496.605	2455.61
496.974	2414.94
497.344	2497.87
497.713	2511.66
498.082	2536.74
498.452	2547.59
498.821	2553.01
499.19	2567.25
499.559	2589.17
499.928	2600.02
500.298	2610.64
500.667	2618.77
501.036	2621.26
501.405	2669.85
501.774	2673.01
502.143	2714.59
502.512	2724.53
502.88	2726.11
503.249	2736.28
503.618	2757.75
503.987	2749.62
504.356	2798.88
504.724	2818.54
505.093	2834.36
505.462	2847.92
505.83	2843.63
506.199	2867.35
506.567	2920.46
506.936	2927.47
507.304	2939.67
507.672	2953
508.041	3029.38
508.409	2998.2
508.777	3023.28
509.145	3067.35
509.514	3040.68
509.882	3103.96
510.25	3064.86
510.618	3094.92
510.986	3161.58
511.354	3157.29
511.722	3195.03
512.09	3211.53
512.458	3203.62
512.826	3239.32
513.193	3270.96
513.561	3298.98
513.929	3331.07
514.297	3317.74
514.664	3345.53
515.032	3371.3
515.4	3393.67
515.767	3433.89
516.135	3416.94
516.502	3454.01
516.869	3496.04
517.237	3489.48
517.604	3524.29
517.972	3576.49
518.339	3571.97
518.706	3588.92
519.073	3587.79
519.44	3657.84
519.808	3668.24
520.175	3673.66
520.542	3729.7
520.909	3787.78
521.276	3749.59
521.643	3809.93
522.009	3862.81
522.376	3861.68
522.743	3889.02
523.11	3929.25
523.477	3981.22
523.843	3981.45
524.21	4005.63
524.577	4060.54
524.943	4090.37
525.31	4144.61
525.676	4165.4
526.043	4171.5
526.409	4182.12
526.776	4193.65
527.142	4250.14
527.508	4331.95
527.874	4300.99
528.241	4288.56
528.607	4330.14
528.973	4420.31
529.339	4362.68
529.705	4473.64
530.071	4505.5
530.437	4499.18
530.803	4581.43
531.169	4607.65
531.535	4553.19
531.901	4612.84
532.267	4631.6
532.632	4663.92
532.998	4698.49
533.364	4756.57
533.73	4666.4
534.095	4794.53
534.461	4794.76
534.826	4838.83
535.192	4862.1
535.557	4924.25
535.923	4904.81
536.288	4861.2
536.653	4975.1
537.019	4962.44
537.384	4963.34
537.749	4994.76
538.114	5039.5
538.479	5065.49
538.845	5084.24
539.21	5105.26
539.575	5123.11
539.94	5147.97
540.305	5144.13
540.67	5133.74
541.034	5261.42
541.399	5267.29
541.764	5299.38
542.129	5292.6
542.494	5330.57
542.858	5343.22
543.223	5356.33
543.587	5348.19
543.952	5380.06
544.316	5416.21
544.681	5445.82
545.045	5488.75
545.41	5480.39
545.774	5523.56
546.138	5562.42
546.503	5604.23
546.867	5636.32
547.231	5609.88
547.595	5678.13
547.959	5728.52
548.324	5710.44
548.688	5721.97
549.052	5794.96
549.416	5788.41
549.779	5879.25
550.143	5866.37
550.507	5920.61
550.871	5907.5
551.235	5967.61
551.599	5976.2
551.962	6013.49
552.326	6088.06
552.689	6131.67
553.053	6174.39
553.417	6138
553.78	6241.95
554.143	6214.38
554.507	6231.11
554.87	6302.29
555.234	6380.71
555.597	6335.29
555.96	6402.4
556.323	6386.81
556.686	6474.72
557.05	6554.26
557.413	6569.4
557.776	6608.05
558.139	6662.73
558.502	6712.22
558.865	6714.94
559.228	6827.25
559.59	6867.47
559.953	6899.79
560.316	7024.08
560.679	7051.42
561.041	7118.77
561.404	7111.76
561.767	7221.82
562.129	7243.74
562.492	7384.07
562.854	7364.86
563.217	7386.78
563.579	7456.16
563.941	7553.33
564.304	7601.24
564.666	7708.81
565.028	7704.51
565.39	7794
565.753	7905.64
566.115	7969.82
566.477	8063.83
566.839	8100.66
567.201	8212.52
567.563	8252.98
567.925	8378.85
568.287	8396.25
568.648	8466.98
569.01	8542.23
569.372	8657.26
569.734	8680.76
570.095	8760.98
570.457	8762.79
570.819	8899.74
571.18	8986.52
571.542	9065.16
571.903	9173.4
572.265	9211.14
572.626	9300.86
572.987	9411.36
573.349	9525.26
573.71	9617.91
574.071	9729.32
574.432	9759.15
574.794	10065.81
575.155	9970.67
575.516	10078.01
575.877	10214.96
576.238	10289.53
576.599	10385.35
576.96	10529.53
577.32	10638.9
577.681	10850.19
578.042	10922.51
578.403	11033.01
578.763	11214.25
579.124	11298.09
579.485	11379.45
579.845	11602.04
580.206	11665.99
580.566	11887.68
580.927	11924.29
581.287	12264.4
581.648	12262.81
582.008	12533.54
582.368	12635.23
582.728	12833.87
583.089	12969.46
583.449	13154.54
583.809	13327.42
584.169	13637.69
584.529	13710.23
584.889	14007.17
585.249	14140.96
585.609	14304.34
585.969	14647.38
586.329	14742.07
586.688	15055.96
587.048	15302.96
587.408	15464.99
587.768	15820.46
588.127	16055.93
588.487	16287.57
588.846	16751.96
589.206	16850.94
589.565	17128.45
589.925	17509
590.284	17686.4
590.643	18064.69
591.003	18367.96
591.362	18719.37
591.721	19025.8
592.08	19348.28
592.44	19721.15
592.799	20043.17
593.158	20363.39
593.517	20664.4
593.876	21104.61
594.235	21377.38
594.593	21698.27
594.952	22260.29
595.311	22563.11
595.67	22931.01
596.029	23376.42
596.387	23770.08
596.746	24183.63
597.104	24473.34
597.463	24862.26
597.822	25314.9
598.18	25629.69
598.538	25949.23
598.897	26528.2
599.255	26729.33
599.613	27480.94
599.972	27705.34
600.33	28146.69
600.688	28344.42
601.046	28975.37
601.404	29404.74
601.762	29819.87
602.12	30235.67
602.478	30625.72
602.836	31012.83
603.194	31236.78
603.552	31648.07
603.91	31952.24
604.268	32472
604.625	32927.13
604.983	33425.87
605.341	33537.28
605.698	34123.71
606.056	34471.49
606.413	34747.42
606.771	35117.81
607.128	35529.77
607.485	35689.32
607.843	36166.37
608.2	36557.09
608.557	36916.18
608.914	37136.96
609.272	37621.24
609.629	37958.86
609.986	38321.34
610.343	38418.06
610.7	39020.08
611.057	39208.32
611.414	39364.25
611.771	39750.45
612.127	40056.21
612.484	40321.06
612.841	40479.02
613.198	40639.69
613.554	40956.3
613.911	41335.5
614.267	41499.56
614.624	41761.25
614.98	41916.27
615.337	42197.62
615.693	42347.67
616.05	42589.47
616.406	43012.74
616.762	43047.09
617.118	43120.76
617.475	43438.26
617.831	43736.79
618.187	43809.78
618.543	44080.51
618.899	44365.02
619.255	44449.54
619.611	44539.25
619.967	44864.22
620.323	45059.01
620.678	44953.71
621.034	45139.01
621.39	45245
621.746	45200.03
622.101	45972.66
622.457	45697.64
622.812	45749.62
623.168	46050.85
623.523	46076.16
623.879	46294.01
624.234	46017.41
624.589	46289.94
624.945	46515.92
625.3	46645.64
625.655	46530.16
626.01	46688.12
626.365	46856.03
626.72	46699.65
627.075	46875.69
627.43	46997.49
627.785	46962.47
628.14	47085.85
628.495	47208.11
628.85	47273.64
629.205	47251.27
629.559	47522.23
629.914	47300.08
630.269	47517.03
630.623	47361.33
630.978	47323.36
631.332	47682.45
631.687	47763.8
632.041	47455.79
632.396	47701.2
632.75	47637.02
633.104	47677.25
633.459	47577.14
633.813	47608.1
634.167	47653.52
634.521	47557.03
634.875	47698.49
635.229	47687.19
635.583	47564.94
635.937	47653.3
636.291	47557.03
636.645	47761.54
636.999	47663.24
637.352	47712.5
637.706	47515.67
638.06	47714.76
638.413	47728.77
638.767	47561.32
639.121	47717.93
639.474	47595.22
639.828	47737.36
640.181	47813.06
640.534	47807.64
640.888	47634.76
641.241	47543.69
641.594	47776.23
641.947	47752.5
642.301	47629.11
642.654	47728.77
643.007	47684.71
643.36	47671.6
643.713	47658.27
644.066	47815.55
644.419	47559.74
644.771	47286.3
645.124	46964.5
645.477	46921.56
645.83	46712.75
646.182	46492.2
646.535	46529.26
646.888	46699.65
647.24	46421.46
647.593	46820.55
647.945	46551.63
648.298	46385.98
648.65	46426.21
649.002	46310.96
649.355	46472.08
649.707	46434.12
650.059	46648.58
650.411	47178.73
650.763	47190.48
651.115	47510.02
651.467	47407.88
651.819	47444.71
652.171	47258.5
652.523	47422.34
652.875	47257.37
653.227	47106.42
653.578	47534.43
653.93	47556.57
654.282	47237.49
654.633	47055.8
654.985	47315
655.337	47270.71
655.688	47352.51
656.039	47431.61
656.391	47077.72
656.742	47276.58
657.094	47091.28
657.445	47280.2
657.796	47319.74
658.147	47138.73
658.498	47117.94
658.849	47265.06
659.2	47143.93
659.551	46962.01
659.902	47183.93
660.253	47266.41
660.604	47174.44
660.955	46963.37
661.306	47150.71
661.656	47162.01
662.007	47088.34
662.358	47173.31
662.708	47202.91
663.059	47085.85
663.409	46983.26
663.76	47227.09
664.11	47171.5
664.461	47176.92
664.811	47255.11
665.161	47202.69
665.511	47108.45
665.862	47007.44
666.212	47204.49
666.562	47233.42
666.912	47139.64
667.262	47003.37
667.612	47146.42
667.962	47172.4
668.312	46912.52
668.662	47268.22
669.011	47097.38
669.361	47129.24
669.711	46912.75
670.06	47139.41
670.41	46915.46
670.76	46831.85
671.109	47071.39
671.459	46900.09
671.808	47027.55
672.157	46991.39
672.507	46785.97
672.856	46734
673.205	46858.97
673.554	47006.08
673.904	46755.24
674.253	47008.11
674.602	46878.4
674.951	46334.01
675.3	46036.39
675.649	46656.94
675.998	46686.54
676.346	46731.96
676.695	46849.25
677.044	46484.74
677.393	46580.1
677.741	46698.74
678.09	46582.59
678.438	46522.48
678.787	46494.23
679.135	46625.53
679.484	46333.1
679.832	46514.79
680.181	46091.98
680.529	46345.98
680.877	46317.74
681.225	46154.58
681.573	46359.77
681.922	46065.09
682.27	46054.47
682.618	46022.15
682.966	45883.85
683.314	45984.19
683.661	45813.8
684.009	45643.4
684.357	45635.04
684.705	45504.88
685.053	45640.69
685.4	45586
685.748	45308.72
686.095	45355.28
686.443	45207.94
686.79	45209.97
687.138	45289.52
687.485	45175.85
687.832	45017.66
688.18	45174.04
688.527	45019.69
688.874	44854.5
689.221	44798.91
689.568	44624.67
689.915	44564.79
690.262	44575.86
690.609	44448.41
690.956	44389.88
691.303	44249.99
691.65	44231.46
691.997	44036.89
692.344	43804.13
692.69	44012.26
693.037	43915.31
693.383	43403.92
693.73	43729.1
694.077	43467.42
694.423	43494.99
694.769	43369.79
695.116	43238.5
695.462	43348.55
695.808	42943.59
696.155	43174.09
696.501	42721.9
696.847	42874.21
697.193	42571.85
697.539	42553.32
697.885	42416.14
698.231	42436.71
698.577	42350.38
698.923	42217.51
699.269	42049.83
699.614	41975.25
699.96	41893.22
700.306	41825.2
700.651	41676.5
700.997	41415.94
701.342	41593.12
701.688	41285.1
702.033	41368.04
702.379	41227.25
702.724	41173.69
703.069	41124.2
703.415	40786.58
703.76	40779.58
704.105	40803.08
704.45	40616.87
704.795	40500.26
705.14	40539.36
705.485	40332.58
705.83	40253.26
706.175	40204
706.52	40223.66
706.865	40053.49
707.209	39882.65
707.554	39850.34
707.899	39932.82
708.243	39678.82
708.588	39628.65
708.932	39444.47
709.277	39447.86
709.621	39443.34
709.966	39265.04
710.31	39145.72
710.654	38972.62
710.998	39092.16
711.342	38964.26
711.687	38997.48
712.031	38796.8
712.375	38627.54
712.719	38661.22
713.063	38741.89
713.407	38739.41
713.75	38475.23
714.094	38524.5
714.438	38536.7
714.782	38377.15
715.125	38288.57
715.469	38228.46
715.812	38048.58
716.156	37842.71
716.499	37834.12
716.843	37938.3
717.186	37607.91
717.53	37804.97
717.873	37830.05
718.216	37755.48
718.559	37510.06
718.902	37338.31
719.246	37410.4
719.589	37277.3
719.932	37372.44
720.275	37141.93
720.617	37114.14
720.96	37143.97
721.303	37164.31
721.646	37189.84
721.989	36945.55
722.331	37095.83
722.674	36913.69
723.016	36925.89
723.359	36760.47
723.701	36728.61
724.044	36557.77
724.386	36488.39
724.729	36626.47
725.071	36517.09
725.413	36556.41
725.755	36463.31
726.097	36200.26
726.439	36115.52
726.782	36116.65
727.124	36286.81
727.465	35955.3
727.807	35927.5
728.149	35874.17
728.491	35782.19
728.833	35971.57
729.175	35649.32
729.516	35678.47
729.858	35751.46
730.199	35664.01
730.541	35726.15
730.882	35723.67
731.224	35627.17
731.565	35495.65
731.906	35418.59
732.248	35553.73
732.589	35224.7
732.93	35225.37
733.271	35239.61
733.612	35192.61
733.953	35289.55
734.294	35138.82
734.635	35019.73
734.976	35152.61
735.317	34894.08
735.658	34800.75
735.999	34897.47
736.339	34815.44
736.68	34769.34
737.021	34753.97
737.361	34550.36
737.702	34744.03
738.042	34544.26
738.383	34572.28
738.723	34491.83
739.063	34445.51
739.404	34499.29
739.744	34375.68
740.084	34125.74
740.424	34182.69
740.764	34336.13
741.104	34239.86
741.444	34198.73
741.784	34066.76
742.124	34146.98
742.464	34040.55
742.804	34055.69
743.143	33835.13
743.483	33933.2
743.823	33712.87
744.162	33842.81
744.502	33659.76
744.841	33601.91
745.181	33819.08
745.52	33580.44
745.86	33629.03
746.199	33485.08
746.538	33591.07
746.877	33529.6
747.216	33574.57
747.556	33374.12
747.895	33398.98
748.234	33175.26
748.573	33255.71
748.911	33195.14
749.25	33195.82
749.589	33044.64
749.928	33085.09
750.267	33022.95
750.605	33033.57
750.944	32952.89
751.283	32858.88
751.621	32931.42
751.96	32649.85
752.298	32793.35
752.636	32611.66
752.975	32413.24
753.313	32367.82
753.651	32572.11
753.989	32333.25
754.327	32319.01
754.666	32216.86
755.004	32137.32
755.342	32109.75
755.679	32139.8
756.017	31948.85
756.355	31927.61
756.693	31879.47
757.031	31905.01
757.368	31729.42
757.706	31750.66
758.044	31611
758.381	31624.56
758.719	31504.12
759.056	31444.91
759.394	31459.14
759.731	31265.03
760.068	31056.9
760.405	31037.46
760.743	31074.07
761.08	31073.17
761.417	30920.18
761.754	30776
762.091	30728.09
762.428	30554.76
762.765	30381.43
763.102	30544.37
763.438	30386.86
763.775	30189.8
764.112	30159.07
764.449	30149.57
764.785	30090.59
765.122	29749.59
765.458	29731.73
765.795	29709.81
766.131	29610.15
766.467	29587.1
766.804	29424.17
767.14	29298.52
767.476	29385.53
767.812	29207.68
768.148	29135.14
768.485	29044.97
768.821	28859.44
769.157	28785.32
769.492	28820.57
769.828	28789.38
770.164	28517.98
770.5	28464.42
770.836	28431.88
771.171	28236.86
771.507	28273.69
771.842	28020.36
772.178	28057.2
772.513	27896.53
772.849	27891.78
773.184	27709.19
773.519	27844.32
773.855	27657.89
774.19	27572.92
774.525	27358.01
774.86	27379.03
775.195	27326.6
775.53	27211.57
775.865	26979.26
776.2	26886.16
776.535	26767.52
776.87	26657.01
777.205	26594.87
777.539	26440.52
777.874	26537.92
778.209	26447.07
778.543	26284.82
778.878	26080.53
779.212	26074.43
779.547	26014.32
779.881	26022.9
780.215	25828.11
780.55	25852.74
780.884	25706.53
781.218	25620.2
781.552	25670.82
781.886	25459.53
782.22	25334.33
782.554	25182.93
782.888	25083.49
783.222	24958.52
783.556	24830.17
783.889	24783.61
784.223	24553.34
784.557	24606.9
784.89	24767.8
785.224	24410.74
785.557	24366.22
785.891	24235.38
786.224	24184.99
786.558	24214.59
786.891	24000.36
787.224	23993.58
787.557	23895.28
787.891	23813.24
788.224	23836.97
788.557	23833.36
788.89	23623.42
789.223	23515.4
789.556	23513.59
789.888	23390.2
790.221	23323.54
790.554	23135.3
790.887	23071.12
791.219	23017.78
791.552	22949.09
791.884	22923.1
792.217	22745.48
792.549	22716.78
792.882	22527.85
793.214	22466.16
793.546	22492.6
793.879	22423.9
794.211	22268.65
794.543	22265.71
794.875	22256.67
795.207	22240.63
795.539	22240.4
795.871	22041.77
796.203	21862.79
796.535	21865.72
796.867	21878.83
797.198	21651.72
797.53	21679.51
797.862	21605.62
798.193	21562.23
798.525	21422.8
798.856	21507.09
799.188	21322.01
799.519	21238.4
799.85	21083.15
800.182	21120.43
800.513	21020.32
800.844	20830.5
801.175	21079.08
801.506	20808.8
801.837	20825.07
802.168	20784.4
802.499	20713.89
802.83	20569.71
803.161	20489.49
803.491	20581.92
803.822	20493.33
804.153	20354.8
804.483	20260.12
804.814	20238.42
805.145	20110.74
805.475	20146.22
805.805	20018.77
806.136	20039.56
806.466	20022.61
806.796	19921.59
807.126	19870.07
807.457	19770.19
807.787	19778.1
808.117	19677.08
808.447	19647.93
808.777	19659.45
809.107	19578.1
809.436	19541.49
809.766	19480.02
810.096	19426.24
810.426	19306.24
810.755	19324.55
811.085	19310.09
811.414	19231.9
811.744	19031.22
812.073	19110.77
812.403	19024.44
812.732	18953.48
813.061	18951.68
813.39	18835.3
813.719	18783.32
814.049	18817.44
814.378	18848.63
814.707	18671.23
815.036	18645.02
815.365	18553.5
815.693	18425.36
816.022	18403.22
816.351	18400.28
816.68	18269.89
817.008	18301.75
817.337	18172.04
817.665	18179.95
817.994	18196.89
818.322	18277.34
818.651	18089.55
818.979	17989.44
819.307	18173.84
819.636	17961.87
819.964	17889.11
820.292	17943.34
820.62	17932.72
820.948	17930.91
821.276	17990.35
821.604	17911.93
821.932	17985.83
822.259	17986.05
822.587	17937.47
822.915	17781.99
823.243	17872.84
823.57	17786.96
823.898	17758.04
824.225	17765.04
824.553	17760.75
824.88	17752.61
825.207	17886.39
825.535	17829.45
825.862	17809.11
826.189	17729.11
826.516	17852.95
826.843	17792.61
827.17	17824.93
827.497	17835.32
827.824	17752.39
828.151	17859.5
828.478	17813.18
828.805	17822.67
829.131	17765.04
829.458	17670.13
829.785	17636.68
830.111	17703.35
830.438	17795.32
830.764	17729.56
831.09	17774.31
831.417	17620.86
831.743	17771.14
832.069	17741.77
832.395	17657.93
832.722	17701.09
833.048	17620.19
833.374	17719.17
833.7	17576.35
834.026	17605.95
834.351	17652.73
834.677	17576.8
835.003	17669.9
835.329	17611.37
835.654	17482.34
835.98	17450.47
836.306	17488.66
836.631	17436.91
836.956	17401.21
837.282	17454.09
837.607	17363.47
837.932	17256.13
838.258	17387.88
838.583	17405.95
838.908	17297.94
839.233	17273.53
839.558	17240.54
839.883	17140.65
840.208	17113.08
840.533	17106.08
840.858	17120.31
841.182	17119.18
841.507	17076.92
841.832	16966.19
842.156	16941.56
842.481	16946.98
842.805	16945.4
843.13	16829.92
843.454	16871.05
843.778	16739.98
844.103	16677.84
844.427	16690.27
844.751	16683.04
845.075	16592.87
845.399	16620.21
845.723	16400.78
846.047	16467.9
846.371	16251.18
846.695	16301.35
847.019	16210.05
847.343	16164.41
847.666	16026.78
847.99	15994.47
848.313	16003.28
848.637	15843.28
848.96	15901.81
849.284	15739.11
849.607	15640.35
849.931	15644.65
850.254	15597.64
850.577	15461.6
850.9	15415.27
851.223	15399.45
851.546	15331.89
851.869	15145.22
852.192	15337.76
852.515	15179.12
852.838	15048.73
853.161	15073.13
853.483	15036.53
853.806	14951.78
854.129	14896.42
854.451	14872.69
854.774	14826.81
855.096	14693.26
855.419	14795.18
855.741	14690.55
856.063	14585.69
856.385	14618.01
856.708	14525.58
857.03	14491.68
857.352	14432.93
857.674	14370.78
857.996	14432.7
858.318	14289.43
858.64	14228.19
858.961	14284
859.283	14165.14
859.605	14125.14
859.926	14148.87
860.248	14099.6
860.57	13982.09
860.891	13980.28
861.212	13972.37
861.534	13912.49
861.855	13888.53
862.176	13901.19
862.498	13984.8
862.819	13875.43
863.14	13789.78
863.461	13789.78
863.782	13700.29
864.103	13678.6
864.424	13718.14
864.745	13669.33
865.065	13698.26
865.386	13619.61
865.707	13620.97
866.027	13578.71
866.348	13513.18
866.668	13416
866.989	13443.57
867.309	13381.65
867.63	13431.14
867.95	13530.35
868.27	13414.42
868.59	13410.13
868.91	13416.46
869.23	13283.35
869.55	13244.71
869.87	13296.23
870.19	13291.94
870.51	13258.95
870.83	13271.6
871.15	13136.24
871.469	13183.47
871.789	13148.67
872.109	13137.37
872.428	13143.02
872.748	13140.3
873.067	13100.31
873.386	13123.36
873.706	13002.23
874.025	13024.6
874.344	13006.97
874.663	13047.43
874.982	12967.2
875.301	12977.37
875.62	12891.05
875.939	12912.51
876.258	12825.74
876.577	12887.66
876.896	12793.65
877.214	12785.06
877.533	12799.3
877.852	12711.16
878.17	12740.09
878.489	12705.51
878.807	12731.28
879.125	12643.82
879.444	12748.68
879.762	12635.23
880.08	12597.04
880.398	12600.43
880.716	12557.49
881.034	12559.3
881.352	12518.17
881.67	12482.24
881.988	12493.09
882.306	12470.27
882.624	12428.01
882.941	12329.48
883.259	12277.73
883.577	12324.28
883.894	12236.37
884.212	12272.98
884.529	12246.99
884.846	12193.21
885.164	12256.94
885.481	12152.99
885.798	12160.22
886.115	11996.83
886.432	12039.99
886.75	11972.65
887.067	11989.37
887.383	11958.41
887.7	12018.53
888.017	11887.68
888.334	11992.31
888.651	11884.97
888.967	11789.61
889.284	11762.71
889.6	11742.37
889.917	11660.12
890.233	11704.41
890.55	11588.93
890.866	11539.89
891.182	11603.85
891.498	11597.29
891.815	11499.9
892.131	11410.41
892.447	11413.34
892.763	11469.84
893.079	11404.98
893.395	11357.3
893.71	11419.22
894.026	11318.21
894.342	11240.47
894.657	11180.36
894.973	11181.49
895.289	11147.59
895.604	11123.86
895.92	11085.22
896.235	11010.64
896.55	11023.52
896.865	10939.91
897.181	10940.59
897.496	10919.12
897.811	10863.75
898.126	10845.45
898.441	10825.56
898.756	10783.08
899.071	10696.98
899.386	10692.01
899.7	10565.68
900.015	10579.47
900.33	10507.61
900.644	10522.97
900.959	10543.76
901.273	10446.82
901.588	10511.45
901.902	10370.89
902.216	10280.94
902.531	10285.24
902.845	10276.65
903.159	10237.33
903.473	10192.13
903.787	10092.02
904.101	10074.17
904.415	10056.09
904.729	10099.71
905.042	10024.23
905.356	9999.6
905.67	9987.62
905.984	9974.06
906.297	9859.26
906.611	9829.66
906.924	9775.42
907.237	9720.28
907.551	9744.91
907.864	9620.4
908.177	9607.52
908.491	9653.16
908.804	9532.49
909.117	9477.58
909.43	9524.35
909.743	9414.53
910.056	9429.44
910.368	9327.98
910.681	9294.76
910.994	9250.69
911.307	9223.57
911.619	9139.96
911.932	9100.86
912.244	9168.88
912.557	9092.5
912.869	9038.72
913.181	9047.98
913.494	9004.14
913.806	8934.54
914.118	8888.89
914.43	8859.96
914.742	8837.59
915.054	8732.96
915.366	8743.13
915.678	8723.47
915.99	8720.31
916.302	8603.93
916.613	8603.47
916.925	8628.56
917.236	8539.52
917.548	8473.76
917.859	8539.97
918.171	8410.03
918.482	8403.03
918.794	8365.51
919.105	8331.84
919.416	8226.99
919.727	8222.69
920.038	8247.55
920.349	8183.37
920.66	8121.45
920.971	8123.04
921.282	8165.07
921.593	8005.3
921.903	7991.51
922.214	8007.11
922.525	7910.84
922.835	7903.83
923.146	7845.53
923.456	7849.82
923.767	7776.83
924.077	7796.04
924.387	7682.37
924.697	7694.57
925.008	7622.94
925.318	7692.09
925.628	7637.17
925.938	7551.75
926.248	7571.41
926.558	7433.79
926.867	7485.99
927.177	7430.85
927.487	7387.24
927.796	7315.6
928.106	7341.36
928.416	7281.02
928.725	7290.51
929.034	7283.96
929.344	7240.35
929.653	7268.82
929.962	7149.73
930.271	7099.33
930.581	7104.76
930.89	7041.26
931.199	7051.2
931.508	7035.15
931.817	7040.58
932.125	6919.22
932.434	6909.06
932.743	6899.79
933.051	6827.7
933.36	6828.61
933.669	6800.36
933.977	6775.73
934.286	6717.87
934.594	6694.37
934.902	6606.69
935.21	6607.14
935.519	6600.59
935.827	6621.15
936.135	6514.94
936.443	6487.82
936.751	6507.26
937.059	6414.15
937.367	6416.41
937.674	6413.25
937.982	6378.67
938.29	6401.05
938.597	6323.99
938.905	6303.42
939.213	6237.43
939.52	6281.95
939.827	6257.55
940.135	6093.71
940.442	6128.51
940.749	6147.95
941.056	6182.75
941.363	6090.77
941.67	6058
941.977	6044.45
942.284	5921.74
942.591	5923.32
942.898	5915.64
943.205	5897.78
943.511	5925.58
943.818	5815.75
944.125	5852.36
944.431	5820.72
944.738	5815.98
945.044	5788.63
945.35	5670.9
945.657	5669.54
945.963	5732.59
946.269	5663.44
946.575	5641.97
946.881	5591.58
947.187	5596.77
947.493	5539.37
947.799	5555.42
948.105	5479.71
948.41	5452.82
948.716	5503.89
949.022	5485.36
949.327	5484.91
949.633	5351.13
949.938	5392.26
950.244	5389.1
950.549	5303.22
950.854	5289.89
951.16	5287.4
951.465	5208.08
951.77	5206.5
952.075	5208.54
952.38	5180.29
952.685	5190.23
952.99	5140.29
953.294	5121.53
953.599	5082.21
953.904	5067.07
954.209	5034.3
954.513	5058.26
954.818	5007.64
955.122	5017.81
955.426	4955.21
955.731	4959.95
956.035	4930.8
956.339	4908.66
956.643	4919.96
956.948	4884.7
957.252	4820.97
957.556	4802.67
957.86	4755.44
958.163	4786.4
958.467	4741.2
958.771	4719.51
959.075	4731.71
959.378	4664.14
959.682	4645.61
959.985	4646.52
960.289	4624.37
960.592	4628.89
960.896	4582.79
961.199	4555.67
961.502	4504.37
961.805	4534.65
962.108	4477.93
962.411	4476.8
962.714	4459.18
963.017	4472.96
963.32	4429.8
963.623	4411.04
963.926	4405.17
964.228	4410.36
964.531	4350.03
964.833	4347.54
965.136	4296.24
965.438	4242.69
965.741	4236.13
966.043	4291.5
966.345	4258.96
966.648	4211.95
966.95	4138.51
967.252	4138.51
967.554	4117.72
967.856	4148
968.158	4109.36
968.46	4070.94
968.761	4075.68
969.063	4123.59
969.365	4046.31
969.666	4026.87
969.968	4004.73
970.269	3992.3
970.571	3983.48
970.872	3958.17
971.174	3956.82
971.475	3898.74
971.776	3899.64
972.077	3861.23
972.378	3886.54
972.679	3836.82
972.98	3841.11
973.281	3880.66
973.582	3823.26
973.883	3763.15
974.183	3809.7
974.484	3761.12
974.785	3745.97
975.085	3718.86
975.386	3707.78
975.686	3696.26
975.986	3660.55
976.287	3655.36
976.587	3616.03
976.887	3623.94
977.187	3622.36
977.487	3630.95
977.787	3563.38
978.087	3585.98
978.387	3543.95
978.687	3546.21
978.987	3472.76
979.286	3497.17
979.586	3519.99
979.885	3468.69
980.185	3426.66
980.484	3405.19
980.784	3409.49
981.083	3394.35
981.382	3421.69
981.682	3433.89
981.981	3374.23
982.28	3290.62
982.579	3304.18
982.878	3346.21
983.177	3307.57
983.475	3283.84
983.774	3272.09
984.073	3215.14
984.372	3242.71
984.67	3231.64
984.969	3217.63
985.267	3192.09
985.566	3187.35
985.864	3167.91
986.162	3156.84
986.461	3150.06
986.759	3134.69
987.057	3085.88
987.355	3086.78
987.653	3065.77
987.951	3059.44
988.249	2993.23
988.547	3040.91
988.844	3033
989.142	3024.86
989.44	2995.03
989.737	2988.93
990.035	2957.97
990.332	2916.84
990.63	2910.74
990.927	2934.02
991.224	2916.62
991.521	2876.85
991.819	2883.4
992.116	2804.3
992.413	2870.29
992.71	2874.36
993.006	2790.07
993.303	2803.63
993.6	2791.65
993.897	2807.02
994.193	2766.11
994.49	2770.18
994.787	2778.99
995.083	2739.67
995.379	2724.08
995.676	2680.01
995.972	2670.3
996.268	2681.6
996.565	2645.21
996.861	2635.72
997.157	2654.25
997.453	2566.57
997.749	2584.88
998.044	2554.82
998.34	2595.04
998.636	2546.91
998.932	2577.19
999.227	2519.11
999.523	2545.55
999.818	2505.78
1000.114	2508.72
1000.409	2472.79
1000.704	2450.42
1001	2462.84
1001.295	2473.92
1001.59	2442.96
1001.885	2416.52
1002.18	2427.37
1002.475	2372.9
1002.77	2376.29
1003.065	2396.18
1003.359	2391.89
1003.654	2331.32
1003.949	2312.57
1004.243	2313.7
1004.538	2313.92
1004.832	2283.64
1005.127	2303.53
1005.421	2271.21
1005.715	2247.94
1006.009	2240.25
1006.304	2213.59
1006.598	2216.75
1006.892	2200.03
1007.186	2211.55
1007.48	2189.41
1007.773	2163.19
1008.067	2147.82
1008.361	2160.93
1008.655	2091.56
1008.948	2117.77
1009.242	2093.36
1009.535	2076.64
1009.829	2054.49
1010.122	2075.96
1010.415	2074.83
1010.708	2053.14
1011.001	2048.39
1011.295	2019.69
1011.588	2010.43
1011.881	1976.53
1012.173	1995.29
1012.466	1986.7
1012.759	1988.73
1013.052	1951.9
1013.344	1936.53
1013.637	1944.44
1013.93	1894.72
1014.222	1916.87
1014.514	1899.02
1014.807	1849.3
1015.099	1863.99
1015.391	1835.97
1015.683	1863.99
1015.976	1853.37
1016.268	1846.59
1016.56	1796.2
1016.851	1793.71
1017.143	1812.24
1017.435	1759.81
1017.727	1743.54
1018.018	1763.2
1018.31	1754.84
1018.602	1730.89
1018.893	1719.81
1019.185	1677.55
1019.476	1676.65
1019.767	1664
1020.058	1678.01
1020.35	1700.83
1020.641	1644.34
1020.932	1642.53
1021.223	1613.15
1021.514	1588.07
1021.804	1618.57
1022.095	1582.87
1022.386	1600.49
1022.677	1569.76
1022.967	1558.69
1023.258	1536.54
1023.548	1538.35
1023.839	1522.3
1024.129	1524.34
1024.419	1507.39
1024.709	1486.37
1025	1486.83
1025.29	1499.93
1025.58	1469.65
1025.87	1451.57
1026.16	1441.85
1026.449	1412.25
1026.739	1443.21
1027.029	1449.09
1027.319	1406.6
1027.608	1387.84
1027.898	1373.16
1028.187	1374.29
1028.477	1391.91
1028.766	1382.65
1029.055	1349.43
1029.344	1346.49
1029.634	1342.87
1029.923	1322.08
1030.212	1324.34
1030.501	1307.85
1030.79	1289.99
1031.078	1301.29
1031.367	1270.33
1031.656	1275.08
1031.945	1271.24
1032.233	1261.75
1032.522	1248.87
1032.81	1217.45
1033.099	1233.95
1033.387	1216.1
1033.675	1203.67
1033.963	1208.64
1034.251	1209.77
1034.54	1176.55
1034.828	1189.43
1035.116	1184.01
1035.403	1167.29
1035.691	1150.79
1035.979	1141.07
1036.267	1143.11
1036.554	1162.77
1036.842	1134.52
1037.129	1137
1037.417	1098.59
1037.704	1070.11
1037.992	1101.75
1038.279	1067.18
1038.566	1104.01
1038.853	1104.01
1039.14	1104.01
