Data from red_cardboard_box_FLMS001491_00044.txt Node
Date: Wed Feb 08 11:32:27 GMT 2017
User: dcchb
Spectrometer: FLMS00149
Trigger mode: 0
Integration Time (sec): 2.000000E-2
Scans to average: 10
Electric dark correction enabled: true
Nonlinearity correction enabled: false
Boxcar width: 0
XAxis mode: Wavelengths
Number of Pixels in Spectrum: 2048
>>>>>Begin Spectral Data<<<<<
341.393	-22.39
341.776	-22.39
342.16	-22.39
342.543	-61.26
342.927	-59
343.31	-71.65
343.693	-80.69
344.077	-78.43
344.46	-51.54
344.843	-45.21
345.226	-47.92
345.61	-29.17
345.993	-11.09
346.376	-4.99
346.759	12.64
347.142	16.26
347.525	29.59
347.908	65.75
348.291	75.24
348.674	111.85
349.057	109.36
349.44	144.39
349.823	157.27
350.206	157.72
350.588	193.65
350.971	219.42
351.354	236.36
351.737	251.5
352.119	257.83
352.502	263.26
352.884	269.36
353.267	278.4
353.65	284.72
354.032	320.88
354.414	315.01
354.797	319.75
355.179	310.03
355.562	317.72
355.944	344.38
356.326	340.32
356.709	340.77
357.091	329.24
357.473	342.58
357.855	337.83
358.238	344.38
358.62	340.09
359.002	350.03
359.384	362.01
359.766	338.28
360.148	346.87
360.53	338.28
360.912	330.82
361.294	337.6
361.676	331.28
362.057	336.7
362.439	310.71
362.821	337.83
363.203	320.88
363.584	305.74
363.966	308.9
364.348	326.76
364.729	323.37
365.111	314.78
365.493	310.94
365.874	318.4
366.256	322.24
366.637	298.74
367.019	303.71
367.4	310.71
367.781	335.12
368.163	318.4
368.544	298.96
368.925	297.38
369.306	330.37
369.688	306.42
370.069	318.62
370.45	322.46
370.831	324.05
371.212	318.62
371.593	306.19
371.974	317.49
372.355	298.06
372.736	333.76
373.117	340.99
373.498	325.18
373.879	319.75
374.26	296.25
374.641	324.5
375.021	305.29
375.402	323.59
375.783	319.07
376.163	326.76
376.544	327.21
376.925	332.86
377.305	324.5
377.686	330.82
378.066	334.44
378.447	327.89
378.827	305.06
379.208	310.26
379.588	332.41
379.968	332.86
380.349	345.29
380.729	349.81
381.109	317.49
381.489	348.68
381.87	322.01
382.25	335.12
382.63	327.43
383.01	345.29
383.39	323.37
383.77	336.7
384.15	326.98
384.53	356.13
384.91	332.86
385.29	359.3
385.67	350.03
386.049	345.06
386.429	341.67
386.809	366.98
387.189	349.13
387.568	345.74
387.948	352.29
388.328	346.64
388.707	363.82
389.087	342.58
389.466	353.2
389.846	344.84
390.225	349.81
390.605	344.16
390.984	337.38
391.363	341.67
391.743	345.97
392.122	361.11
392.501	333.99
392.881	366.08
393.26	361.11
393.639	343.03
394.018	354.78
394.397	370.37
394.776	375.34
395.155	370.6
395.534	384.38
395.913	373.99
396.292	390.94
396.671	352.97
397.05	371.73
397.429	375.12
397.808	371.05
398.186	377.6
398.565	376.25
398.944	379.86
399.323	394.1
399.701	387.55
400.08	372.18
400.458	386.87
400.837	384.83
401.215	390.03
401.594	376.7
401.972	362.69
402.351	377.15
402.729	376.47
403.107	386.87
403.486	388.9
403.864	376.7
404.242	389.81
404.62	404.27
404.999	404.95
405.377	409.69
405.755	418.73
406.133	398.85
406.511	393.87
406.889	391.39
407.267	385.96
407.645	394.55
408.023	403.37
408.401	403.82
408.779	411.95
409.156	423.25
409.534	390.48
409.912	424.83
410.29	394.33
410.667	402.69
411.045	439.75
411.422	446.53
411.8	444.95
412.178	424.38
412.555	442.46
412.933	405.17
413.31	404.5
413.687	432.74
414.065	445.4
414.442	423.03
414.819	434.55
415.197	433.42
415.574	468.22
415.951	476.36
416.328	448.34
416.705	474.55
417.082	459.63
417.46	462.12
417.837	474.1
418.214	464.61
418.591	420.99
418.967	449.47
419.344	466.19
419.721	458.73
420.098	457.83
420.475	455.79
420.852	460.31
421.228	476.13
421.605	462.57
421.982	475.91
422.358	468.9
422.735	482.01
423.111	495.11
423.488	490.37
423.864	458.5
424.241	479.97
424.617	488.33
424.994	490.14
425.37	492.85
425.746	494.89
426.123	495.11
426.499	482.91
426.875	506.87
427.251	500.31
427.627	507.54
428.003	503.02
428.379	522.01
428.756	534.44
429.132	516.13
429.507	528.33
429.883	547.09
430.259	550.93
430.635	544.83
431.011	530.37
431.387	543.7
431.763	544.15
432.138	547.99
432.514	548.67
432.89	554.1
433.265	559.29
433.641	554.55
434.016	573.08
434.392	551.61
434.767	583.7
435.143	597.03
435.518	595.22
435.894	592.06
436.269	583.93
436.644	594.09
437.02	595.68
437.395	599.52
437.77	625.28
438.145	619.86
438.52	595.9
438.895	605.62
439.271	620.31
439.646	611.27
440.021	609.69
440.395	603.13
440.77	645.17
441.145	625.73
441.52	616.69
441.895	639.29
442.27	639.74
442.645	635.22
443.019	662.12
443.394	673.19
443.769	645.84
444.143	634.55
444.518	645.62
444.892	650.36
445.267	679.06
445.641	662.12
446.016	664.6
446.39	655.79
446.764	670.93
447.139	675.22
447.513	669.12
447.887	668.22
448.262	673.64
448.636	684.04
449.01	688.1
449.384	694.2
449.758	717.03
450.132	699.4
450.506	681.32
450.88	716.58
451.254	690.59
451.628	715.67
452.002	699.18
452.376	715.67
452.75	697.59
453.123	745.95
453.497	694.2
453.871	723.13
454.244	726.75
454.618	728.55
454.992	737.14
455.365	741.66
455.739	741.21
456.112	733.75
456.486	755.22
456.859	787.99
457.232	786.63
457.606	785.95
457.979	780.76
458.352	811.49
458.725	800.87
459.099	806.97
459.472	818.95
459.845	833.18
460.218	793.19
460.591	835.67
460.964	832.73
461.337	840.19
461.71	848.33
462.083	854.65
462.456	868.66
462.829	836.35
463.201	854.43
463.574	880.64
463.947	872.96
464.32	929.23
464.692	891.49
465.065	912.05
465.438	893.75
465.81	910.47
466.183	905.05
466.555	933.07
466.928	932.62
467.3	930.36
467.672	962.22
468.045	955.89
468.417	967.64
468.789	984.59
469.161	993.63
469.534	988.21
469.906	1002.22
470.278	1003.8
470.65	1028.43
471.022	1018.72
471.394	1053.52
471.766	1084.25
472.138	1056.91
472.51	1067.08
472.882	1109.34
473.253	1086.06
473.625	1117.7
473.997	1140.07
474.369	1145.27
474.74	1147.3
475.112	1140.52
475.484	1145.49
475.855	1157.92
476.227	1185.94
476.598	1217.13
476.97	1228.43
477.341	1219.39
477.713	1251.03
478.084	1255.32
478.455	1300.74
478.827	1309.56
479.198	1314.3
479.569	1323.11
479.94	1356.79
480.311	1362.21
480.682	1372.38
481.053	1376.67
481.424	1420.06
481.795	1423.45
482.166	1460.96
482.537	1474.07
482.908	1482.88
483.279	1521.08
483.65	1514.97
484.021	1532.15
484.391	1545.71
484.762	1570.11
485.133	1543.22
485.503	1580.74
485.874	1619.6
486.244	1621.64
486.615	1677.91
486.985	1670
487.356	1707.96
487.726	1728.75
488.097	1756.32
488.467	1741.18
488.837	1783.22
489.207	1793.16
489.578	1819.83
489.948	1808.98
490.318	1848.07
490.688	1844.91
491.058	1884.68
491.428	1882.2
491.798	1933.95
492.168	1976.21
492.538	1937.11
492.908	1929.2
493.278	1991.35
493.648	1991.8
494.017	1995.87
494.387	2057.78
494.757	2092.36
495.126	2068.63
495.496	2104.56
495.866	2126.94
496.235	2126.71
496.605	2125.58
496.974	2154.96
497.344	2204.67
497.713	2198.12
498.082	2201.74
498.452	2244.45
498.821	2229.08
499.19	2215.97
499.559	2271.56
499.928	2298.46
500.298	2296.87
500.667	2332.58
501.036	2355.18
501.405	2342.98
501.774	2347.27
502.143	2404.89
502.512	2380.71
502.88	2403.99
503.249	2406.48
503.618	2429.75
503.987	2464.1
504.356	2451.9
504.724	2504.78
505.093	2487.83
505.462	2521.95
505.83	2525.12
506.199	2535.06
506.567	2567.83
506.936	2554.95
507.304	2587.04
507.672	2600.37
508.041	2618.22
508.409	2630.2
508.777	2645.57
509.145	2667.03
509.514	2705.68
509.882	2704.55
510.25	2732.34
510.618	2733.47
510.986	2771.44
511.354	2793.13
511.722	2772.79
512.09	2844.88
512.458	2810.76
512.826	2876.97
513.193	2894.83
513.561	2861.61
513.929	2935.73
514.297	2923.3
514.664	2951.77
515.032	2946.58
515.4	2979.12
515.767	2974.14
516.135	3024.77
516.502	2999.68
516.869	3089.85
517.237	3062.73
517.604	3101.15
517.972	3110.41
518.339	3138.43
518.706	3141.15
519.073	3186.57
519.44	3203.07
519.808	3239.45
520.175	3236.06
520.542	3251.65
520.909	3320.12
521.276	3312.89
521.643	3338.2
522.009	3382.72
522.376	3403.96
522.743	3416.85
523.11	3403.06
523.477	3462.49
523.843	3494.58
524.21	3532.77
524.577	3557.86
524.943	3575.71
525.31	3560.8
525.676	3641.92
526.043	3631.08
526.409	3621.13
526.776	3696.16
527.142	3700.68
527.508	3747.01
527.874	3807.8
528.241	3792.88
528.607	3820
528.973	3823.61
529.339	3897.51
529.705	3876.95
530.071	3942.03
530.437	3937.96
530.803	3949.94
531.169	4006.89
531.535	3956.04
531.901	4030.84
532.267	4062.03
532.632	4080.1
532.998	4064.06
533.364	4084.17
533.73	4117.17
534.095	4158.97
534.461	4206.43
534.826	4248.69
535.192	4226.99
535.557	4295.47
535.923	4269.93
536.288	4313.32
536.653	4355.58
537.019	4322.81
537.384	4349.7
537.749	4358.06
538.114	4377.95
538.479	4400.32
538.845	4422.92
539.21	4437.38
539.575	4446.2
539.94	4466.99
540.305	4532.52
540.67	4499.75
541.034	4577.49
541.399	4620.2
541.764	4577.72
542.129	4656.81
542.494	4637.6
542.858	4659.07
543.223	4705.85
543.587	4705.17
543.952	4707.88
544.316	4751.27
544.681	4777.04
545.045	4790.59
545.41	4816.13
545.774	4817.94
546.138	4833.98
546.503	4827.2
546.867	4834.66
547.231	4884.38
547.595	4935.45
547.959	4948.1
548.324	5016.35
548.688	5007.76
549.052	5051.6
549.416	5045.95
549.779	5043.92
550.143	5063.81
550.507	5132.51
550.871	5152.62
551.235	5192.17
551.599	5188.55
551.962	5205.5
552.326	5302.9
552.689	5319.85
553.053	5317.59
553.417	5325.95
553.78	5412.72
554.143	5501.54
554.507	5422.67
554.87	5506.96
555.234	5582.21
555.597	5570.91
555.96	5569.78
556.323	5645.26
556.686	5614.53
557.05	5655.2
557.413	5695.2
557.776	5831.47
558.139	5819.72
558.502	5824.92
558.865	5869.66
559.228	5904.24
559.59	5992.82
559.953	5972.03
560.316	6068.3
560.679	6077.57
561.041	6140.16
561.404	6212.93
561.767	6280.5
562.129	6255.87
562.492	6373.83
562.854	6339.25
563.217	6443.66
563.579	6480.49
563.941	6559.14
564.304	6586.93
564.666	6672.35
565.028	6695.63
565.39	6746.93
565.753	6780.6
566.115	6860.14
566.477	6936.98
566.839	6997.77
567.201	7070.76
567.563	7106.24
567.925	7154.15
568.287	7191.44
568.648	7278.89
569.01	7355.95
569.372	7435.95
569.734	7413.35
570.095	7583.29
570.457	7587.36
570.819	7698.09
571.18	7757.52
571.542	7775.37
571.903	7883.62
572.265	7919.1
572.626	8036.84
572.987	8027.12
573.349	8169.04
573.71	8279.09
574.071	8351.18
574.432	8385.3
574.794	8552.98
575.155	8576.26
575.516	8623.49
575.877	8793.2
576.238	8834.33
576.599	8891.28
576.96	8990.03
577.32	9046.75
577.681	9231.38
578.042	9289.46
578.403	9425.5
578.763	9515.44
579.124	9657.59
579.485	9712.05
579.845	9846.05
580.206	10015.09
580.566	10126.73
580.927	10165.14
581.287	10323.56
581.648	10445.13
582.008	10567.17
582.368	10685.81
582.728	10827.05
583.089	10994.27
583.449	11106.81
583.809	11255.28
584.169	11482.85
584.529	11595.61
584.889	11846.91
585.249	11960.58
585.609	12068.82
585.969	12384.74
586.329	12511.97
586.688	12751.74
587.048	12870.16
587.408	13109.47
587.768	13384.04
588.127	13565.96
588.487	13726.63
588.846	14044.59
589.206	14215.21
589.565	14485.03
589.925	14834.85
590.284	14974.51
590.643	15247.72
591.003	15479.13
591.362	15834.6
591.721	16064.65
592.08	16330.18
592.44	16712.31
592.799	17108.01
593.158	17308.68
593.517	17605.62
593.876	17926.52
594.235	18275.44
594.593	18597.69
594.952	18896.44
595.311	19247.16
595.67	19761.5
596.029	20078.55
596.387	20494.81
596.746	20879.44
597.104	21043.05
597.463	21497.95
597.822	21859.75
598.18	21971.16
598.538	22454.54
598.897	22948.08
599.255	23174.29
599.613	23811.34
599.972	24063.76
600.33	24435.28
600.688	24741.03
601.046	25062.15
601.404	25627.79
601.762	25943.03
602.12	26298.28
602.478	26612.85
602.836	26978.03
603.194	27264.13
603.552	27644.23
603.91	27999.7
604.268	28328.73
604.625	28590.42
604.983	29029.51
605.341	29302.72
605.698	29727.79
606.056	30200.32
606.413	30456.59
606.771	30862.68
607.128	31132.05
607.485	31433.51
607.843	31672.37
608.2	32056.77
608.557	32436.87
608.914	32586.02
609.272	33028.27
609.629	33345.55
609.986	33699.21
610.343	33792.54
610.7	34110.5
611.057	34308.46
611.414	34587.78
611.771	34900.31
612.127	35177.37
612.484	35332.39
612.841	35679.5
613.198	35929.66
613.554	36027.51
613.911	36371.01
614.267	36530.78
614.624	36851.22
614.98	36959.47
615.337	37318.33
615.693	37479.23
616.05	37632.67
616.406	37963.51
616.762	37994.02
617.118	38109.72
617.475	38284.63
617.831	38490.5
618.187	38778.85
618.543	39021.33
618.899	39238.95
619.255	39357.14
619.611	39492.28
619.967	39713.29
620.323	39897.24
620.678	39923.23
621.034	39875.55
621.39	40067.41
621.746	40033.96
622.101	40668.97
622.457	40418.81
622.812	40626.04
623.168	40881.62
623.523	40878.46
623.879	41134.72
624.234	40893.83
624.589	41245.68
624.945	41282.06
625.3	41426.24
625.655	41405
626.01	41668.95
626.365	41520.48
626.72	41615.84
627.075	41800.02
627.43	41862.16
627.785	41794.14
628.14	41943.52
628.495	41977.19
628.85	41981.03
629.205	41975.38
629.559	42240.91
629.914	42038.2
630.269	42343.28
630.623	42284.3
630.978	42314.35
631.332	42422.6
631.687	42497.85
632.041	42308.25
632.396	42506.44
632.75	42404.97
633.104	42519.32
633.459	42407.91
633.813	42420.79
634.167	42331.98
634.521	42360
634.875	42608.36
635.229	42546.89
635.583	42295.82
635.937	42344.64
636.291	42480.68
636.645	42454.01
636.999	42275.48
637.352	42562.93
637.706	42399.32
638.06	42458.3
638.413	42423.5
638.767	42332.21
639.121	42418.76
639.474	42313.9
639.828	42536.72
640.181	42515.48
640.534	42624.85
640.888	42432.54
641.241	42317.74
641.594	42343.51
641.947	42468.47
642.301	42326.33
642.654	42429.83
643.007	42468.02
643.36	42277.52
643.713	42400.68
644.066	42440.45
644.419	42315.03
644.771	42033.91
645.124	41453.13
645.477	41666.01
645.83	41362.97
646.182	41461.95
646.535	41282.52
646.888	41283.87
647.24	41267.6
647.593	41537.42
647.945	41441.38
648.298	41167.04
648.65	41294.72
649.002	41110.77
649.355	41234.61
649.707	41033.03
650.059	41368.16
650.411	41887.02
650.763	41887.47
651.115	42261.7
651.467	42255.6
651.819	42164.53
652.171	42200.23
652.523	42154.81
652.875	42112.32
653.227	42000.92
653.578	42303.96
653.93	42145.77
654.282	42036.39
654.633	42009.5
654.985	42143.28
655.337	42004.98
655.688	42106.45
656.039	42209.95
656.391	41835.95
656.742	41957.3
657.094	42061.7
657.445	42113.91
657.796	42160.23
658.147	41931.09
658.498	41959.11
658.849	42020.8
659.2	41972.22
659.551	41901.93
659.902	41921.82
660.253	41868.94
660.604	41996.62
660.955	41785.78
661.306	41901.03
661.656	41862.61
662.007	41895.83
662.358	41811.77
662.708	41905.78
663.059	41848.38
663.409	41726.35
663.76	41911.65
664.11	41882.95
664.461	41999.11
664.811	41854.93
665.161	41963.4
665.511	41830.52
665.862	41969.73
666.212	41953.69
666.562	41969.96
666.912	41887.47
667.262	41841.15
667.612	41748.27
667.962	41803.18
668.312	41791.43
668.662	42000.01
669.011	41872.56
669.361	41854.25
669.711	41804.54
670.06	41683.41
670.41	41729.96
670.76	41615.84
671.109	41798.89
671.459	41848.15
671.808	41779.23
672.157	41838.43
672.507	41614.71
672.856	41483.87
673.205	41621.72
673.554	41663.75
673.904	41554.6
674.253	41787.81
674.602	41468.05
674.951	41078
675.3	40835.97
675.649	41564.99
675.998	41491.1
676.346	41561.6
676.695	41450.65
677.044	41194.16
677.393	41532.91
677.741	41430.31
678.09	41345.57
678.438	41273.48
678.787	41339.01
679.135	41292.01
679.484	41019.92
679.832	41340.82
680.181	40972.92
680.529	41074.61
680.877	40965.24
681.225	40914.62
681.573	41276.19
681.922	40968.85
682.27	40846.14
682.618	40876.65
682.966	40754.85
683.314	40802.98
683.661	40681.18
684.009	40561.63
684.357	40435.31
684.705	40430.34
685.053	40437.79
685.4	40411.35
685.748	40291.13
686.095	40316.44
686.443	40061.08
686.79	40193.28
687.138	40035.32
687.485	39965.71
687.832	39905.6
688.18	39998.71
688.527	39751.93
688.874	39711.71
689.221	39637.14
689.568	39596.46
689.915	39448.89
690.262	39406.18
690.609	39308.33
690.956	39273.98
691.303	39119.86
691.65	39033.54
691.997	39022.24
692.344	38820.43
692.69	38786.99
693.037	38855.69
693.383	38398.75
693.73	38645.3
694.077	38340.45
694.423	38482.59
694.769	38321.92
695.116	38255.93
695.462	38233.1
695.808	38016.84
696.155	37984.3
696.501	37722.16
696.847	37870.85
697.193	37575.27
697.539	37735.04
697.885	37252.57
698.231	37327.82
698.577	37403.07
698.923	37343.64
699.269	37164.43
699.614	36955.17
699.96	36825.23
700.306	36923.76
700.651	36716.76
700.997	36635.63
701.342	36621.85
701.688	36638.8
702.033	36484
702.379	36426.6
702.724	36191.35
703.069	36316.09
703.415	35887.63
703.76	35935.99
704.105	35972.83
704.45	35893.96
704.795	35590.69
705.14	35615.77
705.485	35545.94
705.83	35439.96
706.175	35403.35
706.52	35368.1
706.865	35348.66
707.209	35237.25
707.554	35016.69
707.899	35138.5
708.243	35055.34
708.588	34911.16
708.932	34811.05
709.277	34720.43
709.621	34654.89
709.966	34375.35
710.31	34552.52
710.654	34366.09
710.998	34311.85
711.342	34370.38
711.687	34219.2
712.031	34090.61
712.375	33915.7
712.719	34058.07
713.063	34067.11
713.407	34111.18
713.75	33846.55
714.094	33779.44
714.438	33734.47
714.782	33833.22
715.125	33670.06
715.469	33665.32
715.812	33505.55
716.156	33296.74
716.499	33447.69
716.843	33498.99
717.186	33238.21
717.53	33438.43
717.873	33283.63
718.216	33086.8
718.559	33069.85
718.902	32792.57
719.246	32895.17
719.589	32793.25
719.932	32758.22
720.275	32782.4
720.617	32784.89
720.96	32575.4
721.303	32722.06
721.646	32666.7
721.989	32549.64
722.331	32622.86
722.674	32479.81
723.016	32498.34
723.359	32361.85
723.701	32551.22
724.044	32147.39
724.386	32059.71
724.729	32182.64
725.071	32108.97
725.413	31967.96
725.755	32028.3
726.097	31897
726.439	31835.53
726.782	31802.77
727.124	31861.07
727.465	31638.25
727.807	31810.67
728.149	31688.19
728.491	31643.45
728.833	31664.69
729.175	31554.86
729.516	31501.3
729.858	31390.35
730.199	31464.92
730.541	31330.69
730.882	31393.06
731.224	31469.67
731.565	31257.02
731.906	31220.86
732.248	31270.12
732.589	31107.64
732.93	31068.77
733.271	30986.74
733.612	31022.22
733.953	30950.81
734.294	30904.71
734.635	30864.71
734.976	30897.7
735.317	30750.82
735.658	30779.74
735.999	30659.97
736.339	30640.76
736.68	30737.93
737.021	30610.71
737.361	30444.16
737.702	30685.51
738.042	30479.18
738.383	30398.96
738.723	30436.7
739.063	30322.13
739.404	30472.18
739.744	30400.99
740.084	30229.7
740.424	30323.26
740.764	30261.11
741.104	30243.94
741.444	30077.61
741.784	29999.2
742.124	30148.8
742.464	30043.49
742.804	29996.94
743.143	29897.28
743.483	29947.45
743.823	29826.09
744.162	29795.81
744.502	29880.56
744.841	29817.73
745.181	29690.28
745.52	29650.05
745.86	29751.29
746.199	29657.51
746.538	29610.05
746.877	29658.19
747.216	29628.36
747.556	29429.72
747.895	29563.5
748.234	29454.58
748.573	29415.26
748.911	29302.27
749.25	29364.19
749.589	29196.96
749.928	29220.01
750.267	29270.4
750.605	29167.13
750.944	29197.86
751.283	29059.79
751.621	29177.98
751.96	28959.9
752.298	28876.51
752.636	28997.19
752.975	28770.08
753.313	28781.83
753.651	28860.24
753.989	28602.17
754.327	28646.24
754.666	28573.25
755.004	28591.55
755.342	28528.5
755.679	28524.89
756.017	28260.71
756.355	28475.4
756.693	28212.8
757.031	28302.29
757.368	28075.86
757.706	28108.17
758.044	28034.28
758.381	28054.16
758.719	27919.48
759.056	27931.68
759.394	27850.1
759.731	27547.28
760.068	27710.67
760.405	27501.41
760.743	27491.69
761.08	27568.75
761.417	27434.74
761.754	27462.99
762.091	27359.94
762.428	27223.68
762.765	27178.03
763.102	27158.82
763.438	27067.52
763.775	26923.12
764.112	26891.48
764.449	26760.19
764.785	26733.52
765.122	26550.25
765.458	26328.56
765.795	26383.25
766.131	26477.03
766.467	26214.21
766.804	26178.28
767.14	26154.33
767.476	26053.76
767.812	25987.1
768.148	25955.24
768.485	25888.8
768.821	25685.64
769.157	25684.28
769.492	25671.4
769.828	25632.53
770.164	25342.14
770.5	25329.72
770.836	25263.95
771.171	25209.94
771.507	25052.43
771.842	24973.57
772.178	25015.83
772.513	24809.05
772.849	24767.02
773.184	24659.45
773.519	24625.55
773.855	24647.7
774.19	24458.55
774.525	24456.07
774.86	24310.99
775.195	24294.26
775.53	24128.62
775.865	24188.95
776.2	24009.52
776.535	23867.83
776.87	23754.62
777.205	23592.59
777.539	23516.88
777.874	23639.36
778.209	23441.63
778.543	23476.88
778.878	23272.14
779.212	23325.93
779.547	23118.02
779.881	23239.15
780.215	22987.18
780.55	23111.69
780.884	22972.72
781.218	22753.06
781.552	22980.62
781.886	22595.78
782.22	22607.53
782.554	22513.74
782.888	22393.07
783.222	22322.34
783.556	22171.83
783.889	22215.67
784.223	21912.86
784.557	21916.7
784.89	21964.15
785.224	21842.35
785.557	21672.41
785.891	21623.82
786.224	21615.69
786.558	21661.56
786.891	21441.91
787.224	21418.86
787.557	21221.57
787.891	21249.82
788.224	21193.55
788.557	21181.58
788.89	21085.76
789.223	21038.3
789.556	20812.32
789.888	20890.96
790.221	20806.67
790.554	20618.43
790.887	20647.13
791.219	20536.4
791.552	20368.04
791.884	20386.79
792.217	20241.26
792.549	20258.66
792.882	20096.63
793.214	20050.31
793.546	20087.14
793.879	19931.89
794.211	19882.85
794.543	19957.88
794.875	19803.31
795.207	19865
795.539	19643.76
795.871	19667.27
796.203	19556.76
796.535	19521.28
796.867	19434.28
797.198	19413.49
797.53	19335.07
797.862	19192.48
798.193	19292.59
798.525	19132.82
798.856	19057.34
799.188	19013.5
799.519	18917.23
799.85	18874.74
800.182	18792.49
800.513	18777.8
800.844	18691.47
801.175	18703.67
801.506	18674.75
801.837	18593.17
802.168	18522.44
802.499	18600.63
802.83	18449.9
803.161	18331.03
803.491	18253.29
803.822	18382.55
804.153	18080.87
804.483	18105.05
804.814	18003.81
805.145	17963.58
805.475	17960.64
805.805	17894.2
806.136	17903.02
806.466	17880.65
806.796	17789.12
807.126	17617.83
807.457	17588.45
807.787	17638.39
808.117	17526.76
808.447	17575.12
808.777	17532.86
809.107	17383.03
809.436	17330.38
809.766	17449.24
810.096	17256.26
810.426	17295.8
810.755	17283.15
811.085	17164.96
811.414	17093.32
811.744	17087.67
812.073	17070.95
812.403	16971.74
812.732	16795.02
813.061	16961.35
813.39	16793.44
813.719	16739.66
814.049	16869.6
814.378	16745.53
814.707	16648.59
815.036	16622.37
815.365	16537.4
815.693	16532.88
816.022	16474.13
816.351	16369.95
816.68	16369.27
817.008	16368.14
817.337	16210.63
817.665	16229.62
817.994	16275.26
818.322	16248.37
818.651	16126.34
818.979	16077.76
819.307	16181.48
819.636	16011.09
819.964	15940.36
820.292	16038.89
820.62	16010.41
820.948	15996.85
821.276	16016.51
821.604	15957.31
821.932	16077.76
822.259	15924.31
822.587	16003.63
822.915	15923.86
823.243	15955.5
823.57	15821.49
823.898	15924.76
824.225	15762.28
824.553	15760.02
824.88	15936.52
825.207	15905.1
825.535	15852.22
825.862	15935.84
826.189	15656.75
826.516	15828.04
826.843	15884.09
827.17	15901.26
827.497	15889.29
827.824	15761.38
828.151	15867.37
828.478	15865.78
828.805	15876.18
829.131	15727.26
829.458	15833.02
829.785	15760.93
830.111	15801.6
830.438	15831.21
830.764	15865.11
831.09	15771.1
831.417	15732.45
831.743	15830.3
832.069	15763.87
832.395	15753.92
832.722	15787.82
833.048	15682.29
833.374	15796.18
833.7	15711.66
834.026	15698.56
834.351	15750.76
834.677	15664.66
835.003	15824.2
835.329	15655.85
835.654	15694.26
835.98	15552.35
836.306	15595.73
836.631	15463.99
836.956	15590.76
837.282	15533.14
837.607	15435.29
837.932	15476.19
838.258	15468.96
838.583	15416.08
838.908	15345.8
839.233	15487.26
839.558	15400.26
839.883	15235.97
840.208	15215.41
840.533	15277.32
840.858	15208.63
841.182	15259.02
841.507	15223.54
841.832	15163.2
842.156	15075.07
842.481	15130.21
842.805	15093.83
843.13	15060.83
843.454	15046.14
843.778	14869.2
844.103	14927.73
844.427	14893.61
844.751	14950.1
845.075	14826.26
845.399	14802.53
845.723	14767.51
846.047	14761.63
846.371	14541.07
846.695	14608.19
847.019	14586.95
847.343	14478.25
847.666	14343.34
847.99	14280.74
848.313	14298.37
848.637	14177.01
848.96	14116.22
849.284	14040.52
849.607	14031.26
849.931	13981.99
850.254	13898.38
850.577	13867.87
850.9	13836.68
851.223	13715.78
851.546	13719.4
851.869	13626.07
852.192	13653.86
852.515	13632.17
852.838	13527.99
853.161	13505.85
853.483	13406.19
853.806	13437.82
854.129	13404.38
854.451	13243.71
854.774	13206.64
855.096	13235.34
855.419	13191.28
855.741	13148.34
856.063	13042.13
856.385	13119.19
856.708	13025.18
857.03	12941.79
857.352	12975.46
857.674	12906.31
857.996	12852.08
858.318	12761.91
858.64	12775.24
858.961	12761.01
859.283	12735.7
859.605	12689.14
859.926	12688.24
860.248	12644.17
860.57	12573.89
860.891	12476.95
861.212	12448.92
861.534	12442.14
861.855	12419.09
862.176	12448.25
862.498	12449.15
862.819	12411.18
863.14	12362.6
863.461	12312.88
863.782	12293.9
864.103	12266.1
864.424	12211.42
864.745	12280.57
865.065	12182.72
865.386	12191.76
865.707	12145.43
866.027	12225.2
866.348	12105.66
866.668	12086
866.989	12013.46
867.309	11923.29
867.63	12031.08
867.95	12021.82
868.27	11952.89
868.59	11975.72
868.91	11972.78
869.23	11939.56
869.55	11862.72
869.87	11843.29
870.19	11835.15
870.51	11892.1
870.83	11912.44
871.15	11796.74
871.469	11825.66
871.789	11818.88
872.109	11714.48
872.428	11668.38
872.748	11669.51
873.067	11663.63
873.386	11597.42
873.706	11651.2
874.025	11569.4
874.344	11546.8
874.663	11610.98
874.982	11574.37
875.301	11589.29
875.62	11493.02
875.939	11536.86
876.258	11530.98
876.577	11466.58
876.896	11451.89
877.214	11424.09
877.533	11434.49
877.852	11441.72
878.17	11397.88
878.489	11409.63
878.807	11376.18
879.125	11430.42
879.444	11373.02
879.762	11308.62
880.08	11388.61
880.398	11256.41
880.716	11313.59
881.034	11255.74
881.352	11231.55
881.67	11229.75
881.988	11256.87
882.306	11258.67
882.624	11189.52
882.941	11088.73
883.259	11075.17
883.577	11026.59
883.894	11015.06
884.212	10928.06
884.529	10943.65
884.846	10923.54
885.164	10937.33
885.481	10877.67
885.798	10798.57
886.115	10810.32
886.432	10766.93
886.75	10831.79
887.067	10740.04
887.383	10747.95
887.7	10734.39
888.017	10639.48
888.334	10689.65
888.651	10609.42
888.967	10593.15
889.284	10573.04
889.6	10550.89
889.917	10564.45
890.233	10450.56
890.55	10343.22
890.866	10382.31
891.182	10349.54
891.498	10290.79
891.815	10353.61
892.131	10176.44
892.447	10276.55
892.763	10181.87
893.079	10192.03
893.395	10238.59
893.71	10140.74
894.026	10157.01
894.342	10117.01
894.657	10049.89
894.973	10033.17
895.289	9961.08
895.604	9950.46
895.92	9871.82
896.235	9865.72
896.55	9873.17
896.865	9838.37
897.181	9789.78
897.496	9772.38
897.811	9703.91
898.126	9707.75
898.441	9715.66
898.756	9613.74
899.071	9525.84
899.386	9583.01
899.7	9476.57
900.015	9460.53
900.33	9401.55
900.644	9348.67
900.959	9452.39
901.273	9335.56
901.588	9332.85
901.902	9263.7
902.216	9235.68
902.531	9207.2
902.845	9228.9
903.159	9125.4
903.473	9181.44
903.787	9112.74
904.101	9046.3
904.415	9064.83
904.729	8997.26
905.042	9003.14
905.356	8940.77
905.67	8872.97
905.984	8902.8
906.297	8858.06
906.611	8786.65
906.924	8763.6
907.237	8704.39
907.551	8700.55
907.864	8655.8
908.177	8649.48
908.491	8636.37
908.804	8547.56
909.117	8504.85
909.43	8532.42
909.743	8390.5
910.056	8442.02
910.368	8404.51
910.681	8361.57
910.994	8329.94
911.307	8301.01
911.619	8292.65
911.932	8232.99
912.244	8177.4
912.557	8176.27
912.869	8126.1
913.181	8078.19
913.494	8090.39
913.806	8028.48
914.118	7964.75
914.43	7896.28
914.742	7906.22
915.054	7812.21
915.366	7849.95
915.678	7769.27
915.99	7737.41
916.302	7762.27
916.613	7740.35
916.925	7654.7
917.236	7644.3
917.548	7553.01
917.859	7623.06
918.171	7554.36
918.482	7515.72
918.794	7497.19
919.105	7508.94
919.416	7437.08
919.727	7452.45
920.038	7365.22
920.349	7363.63
920.66	7318.44
920.971	7324.31
921.282	7325.44
921.593	7182.17
921.903	7140.59
922.214	7111.66
922.525	7139.46
922.835	7073.25
923.146	7065.34
923.456	6989.86
923.767	6987.15
924.077	6950.54
924.387	6948.96
924.697	6914.83
925.008	6894.04
925.318	6823.31
925.628	6832.35
925.938	6818.34
926.248	6739.92
926.558	6736.76
926.867	6739.02
927.177	6698.57
927.487	6631.68
927.796	6609.98
928.106	6609.08
928.416	6558.46
928.725	6533.6
929.034	6546.93
929.344	6577.44
929.653	6499.48
929.962	6455.41
930.271	6396.43
930.581	6364.11
930.89	6386.03
931.199	6288.18
931.508	6250.89
931.817	6269.43
932.125	6247.28
932.434	6227.62
932.743	6204.12
933.051	6096.55
933.36	6131.8
933.669	6011.13
933.977	6082.54
934.286	6120.95
934.594	6027.85
934.902	5996.89
935.21	5956.67
935.519	5934.97
935.827	5948.3
936.135	5900.62
936.443	5861.53
936.751	5792.83
937.059	5798.25
937.367	5786.5
937.674	5746.28
937.982	5780.62
938.29	5729.1
938.597	5774.98
938.905	5658.14
939.213	5668.09
939.52	5586.73
939.827	5615.21
940.135	5529.11
940.442	5485.72
940.749	5513.74
941.056	5528.65
941.363	5473.51
941.67	5514.87
941.977	5418.6
942.284	5370.24
942.591	5326.4
942.898	5331.15
943.205	5346.29
943.511	5313.97
943.818	5317.81
944.125	5294.08
944.431	5251.15
944.738	5251.15
945.044	5217.7
945.35	5174.99
945.657	5119.63
945.963	5148.55
946.269	5113.98
946.575	5123.24
946.881	5057.48
947.187	5096.35
947.493	5014.09
947.799	5012.06
948.105	4993.07
948.41	4939.97
948.716	4980.65
949.022	4915.11
949.327	4919.86
949.633	4848.67
949.938	4914.88
950.244	4889.35
950.549	4790.82
950.854	4795.79
951.16	4782.91
951.465	4739.3
951.77	4728.68
952.075	4691.39
952.38	4678.51
952.685	4664.95
952.99	4594.44
953.294	4593.09
953.599	4580.2
953.904	4572.75
954.209	4537.72
954.513	4563.03
954.818	4546.31
955.122	4468.79
955.426	4447.78
955.731	4479.42
956.035	4435.12
956.339	4454.78
956.643	4394.9
956.948	4394.9
957.252	4391.06
957.556	4384.5
957.86	4297.73
958.163	4302.47
958.467	4306.77
958.771	4256.15
959.075	4255.24
959.378	4206.65
959.682	4226.32
959.985	4214.34
960.289	4196.94
960.592	4132.53
960.896	4129.14
961.199	4113.55
961.502	4101.12
961.805	4090.27
962.108	4085.53
962.411	4048.92
962.714	4045.98
963.017	3979.54
963.32	4035.36
963.623	3968.92
963.926	3972.54
964.228	3958.98
964.531	3907
964.833	3930.96
965.136	3863.61
965.438	3903.84
965.741	3872.88
966.043	3815.93
966.345	3807.12
966.648	3840.79
966.95	3756.72
967.252	3767.12
967.554	3789.72
967.856	3753.56
968.158	3695.26
968.46	3702.26
968.761	3701.36
969.063	3680.79
969.365	3673.34
969.666	3670.85
969.968	3606.44
970.269	3638.31
970.571	3617.52
970.872	3587.91
971.174	3555.82
971.475	3510.18
971.776	3499.78
972.077	3521.93
972.378	3533
972.679	3504.53
972.98	3483.51
973.281	3504.75
973.582	3461.36
973.883	3437.64
974.183	3427.01
974.484	3389.05
974.785	3380.91
975.085	3395.15
975.386	3368.94
975.686	3352.89
975.986	3334.36
976.287	3336.85
976.587	3293.46
976.887	3279.9
977.187	3244.87
977.487	3286.91
977.787	3256.85
978.087	3206.68
978.387	3222.73
978.687	3195.16
978.987	3203.97
979.286	3139.34
979.586	3162.61
979.885	3138.43
980.185	3120.36
980.484	3057.53
980.784	3064.54
981.083	3058.21
981.382	3057.53
981.682	3062.5
981.981	3016.4
982.28	3021.6
982.579	2998.33
982.878	2998.55
983.177	2958.55
983.475	2981.15
983.774	2938.67
984.073	2947.7
984.372	2915.84
984.67	2911.1
984.969	2929.85
985.267	2873.13
985.566	2904.54
985.864	2851.89
986.162	2858.44
986.461	2863.87
986.759	2796.52
987.057	2799.46
987.355	2801.27
987.653	2772.34
987.951	2765.34
988.249	2765.56
988.547	2750.65
988.844	2732.12
989.142	2697.54
989.44	2701.38
989.737	2696.41
990.035	2703.42
990.332	2687.82
990.63	2654.61
990.927	2649.86
991.224	2610.31
991.521	2632.23
991.819	2661.61
992.116	2616.41
992.413	2573.48
992.71	2562.63
993.006	2582.29
993.303	2573.03
993.6	2551.33
993.897	2543.2
994.193	2538.22
994.49	2496.19
994.787	2526.7
995.083	2471.11
995.379	2446.02
995.676	2462.29
995.972	2446.7
996.268	2431.33
996.565	2410.09
996.861	2382.07
997.157	2409.87
997.453	2401.73
997.749	2369.64
998.044	2380.94
998.34	2347.72
998.636	2337.55
998.932	2321.51
999.227	2326.48
999.523	2302.75
999.818	2305.69
1000.114	2281.28
1000.409	2279.7
1000.704	2251
1001	2245.58
1001.295	2223.2
1001.59	2231.79
1001.885	2196.76
1002.18	2201.51
1002.475	2204.9
1002.77	2182.08
1003.065	2156.77
1003.359	2130.33
1003.654	2113.83
1003.949	2124.22
1004.243	2095.3
1004.538	2113.15
1004.832	2082.64
1005.127	2088.29
1005.421	2060.95
1005.715	2055.3
1006.009	2048.52
1006.304	2042.19
1006.598	2024.57
1006.892	1989.76
1007.186	1987.5
1007.48	1981.18
1007.773	1995.64
1008.067	1966.04
1008.361	1942.76
1008.655	1925.58
1008.948	1916.77
1009.242	1928.52
1009.535	1863.67
1009.829	1896.66
1010.122	1880.39
1010.415	1860.05
1010.708	1846.27
1011.001	1876.09
1011.295	1863.67
1011.588	1823.67
1011.881	1796.1
1012.173	1826.38
1012.466	1796.32
1012.759	1799.26
1013.052	1796.32
1013.344	1742.54
1013.637	1744.35
1013.93	1760.62
1014.222	1752.03
1014.514	1725.59
1014.807	1736.21
1015.099	1673.84
1015.391	1721.3
1015.683	1669.09
1015.976	1666.16
1016.268	1654.63
1016.56	1654.63
1016.851	1657.57
1017.143	1661.41
1017.435	1625.25
1017.727	1629.1
1018.018	1622.32
1018.31	1599.72
1018.602	1589.55
1018.893	1563.33
1019.185	1554.07
1019.476	1566.05
1019.767	1520.17
1020.058	1547.97
1020.35	1516.56
1020.641	1494.86
1020.932	1515.43
1021.223	1496.22
1021.514	1488.99
1021.804	1474.75
1022.095	1462.55
1022.386	1441.53
1022.677	1444.92
1022.967	1441.53
1023.258	1420.29
1023.548	1415.77
1023.839	1387.29
1024.129	1403.56
1024.419	1378.48
1024.709	1364.02
1025	1379.84
1025.29	1347.75
1025.58	1344.81
1025.87	1322.21
1026.16	1343.68
1026.449	1337.8
1026.739	1312.49
1027.029	1302.78
1027.319	1319.05
1027.608	1304.58
1027.898	1266.62
1028.187	1265.72
1028.477	1264.59
1028.766	1250.8
1029.055	1248.99
1029.344	1228.88
1029.634	1215.1
1029.923	1206.73
1030.212	1223.23
1030.501	1192.5
1030.79	1208.09
1031.078	1180.52
1031.367	1207.19
1031.656	1172.16
1031.945	1165.15
1032.233	1160.18
1032.522	1154.53
1032.81	1138.49
1033.099	1131.71
1033.387	1148.88
1033.675	1116.79
1033.963	1111.82
1034.251	1123.35
1034.54	1102.56
1034.828	1072.95
1035.116	1089
1035.403	1059.62
1035.691	1059.62
1035.979	1056
1036.267	1063.46
1036.554	1041.77
1036.842	1038.38
1037.129	1042.9
1037.417	1037.25
1037.704	999.28
1037.992	1017.36
1038.279	987.76
1038.566	1003.12
1038.853	1003.12
1039.14	1003.12
