Data from red_shiny_book_FLMS001491_00082.txt Node
Date: Wed Feb 08 15:25:29 GMT 2017
User: dcchb
Spectrometer: FLMS00149
Trigger mode: 0
Integration Time (sec): 2.000000E-2
Scans to average: 10
Electric dark correction enabled: true
Nonlinearity correction enabled: false
Boxcar width: 0
XAxis mode: Wavelengths
Number of Pixels in Spectrum: 2048
>>>>>Begin Spectral Data<<<<<
341.393	-10.89
341.776	-10.89
342.16	-10.89
342.543	-58.57
342.927	-68.74
343.31	-70.55
343.693	-61.74
344.077	-73.94
344.46	-54.28
344.843	-42.08
345.226	-41.17
345.61	-28.29
345.993	-49.76
346.376	4.48
346.759	16.45
347.142	30.24
347.525	46.51
347.908	49
348.291	76.11
348.674	94.42
349.057	104.59
349.44	124.47
349.823	151.82
350.206	169.9
350.588	190.46
350.971	210.35
351.354	227.97
351.737	268.88
352.119	264.36
352.502	272.27
352.884	285.15
353.267	302.1
353.65	297.58
354.032	298.03
354.414	312.27
354.797	328.54
355.179	346.16
355.562	339.38
355.944	316.33
356.326	323.56
356.709	356.33
357.091	348.88
357.473	357.01
357.855	338.48
358.238	333.06
358.62	343.23
359.002	341.64
359.384	348.65
359.766	354.07
360.148	371.25
360.53	354.52
360.912	340.74
361.294	335.32
361.676	329.21
362.057	346.62
362.439	316.56
362.821	340.51
363.203	331.02
363.584	314.75
363.966	316.79
364.348	323.56
364.729	328.54
365.111	345.03
365.493	322.66
365.874	312.27
366.256	325.6
366.637	332.15
367.019	318.37
367.4	316.33
367.781	326.05
368.163	285.6
368.544	298.93
368.925	319.5
369.306	332.38
369.688	335.09
370.069	324.92
370.45	319.5
370.831	341.42
371.212	328.54
371.593	289.89
371.974	309.55
372.355	327.86
372.736	324.24
373.117	325.6
373.498	325.6
373.879	330.34
374.26	337.12
374.641	315.88
375.021	329.44
375.402	340.06
375.783	309.33
376.163	350.46
376.544	337.35
376.925	343.23
377.305	336.9
377.686	346.39
378.066	348.42
378.447	331.25
378.827	330.12
379.208	338.48
379.588	338.03
379.968	325.15
380.349	352.72
380.729	357.24
381.109	343.9
381.489	345.49
381.87	356.56
382.25	363.11
382.63	354.07
383.01	356.33
383.39	363.34
383.77	349.55
384.15	342.32
384.53	359.5
384.91	340.74
385.29	355.65
385.67	339.84
386.049	351.59
386.429	368.99
386.809	355.88
387.189	373.28
387.568	353.39
387.948	376.44
388.328	361.53
388.707	366.28
389.087	356.33
389.466	361.76
389.846	365.15
390.225	399.72
390.605	369.89
390.984	399.5
391.363	370.34
391.743	379.38
392.122	373.28
392.501	374.19
392.881	386.61
393.26	378.48
393.639	394.3
394.018	372.15
394.397	398.59
394.776	381.64
395.155	386.61
395.534	406.73
395.913	399.72
396.292	378.93
396.671	374.64
397.05	380.74
397.429	401.53
397.808	378.48
398.186	406.95
398.565	393.62
398.944	410.34
399.323	418.48
399.701	396.78
400.08	416.67
400.458	408.53
400.837	405.6
401.215	412.6
401.594	431.81
401.972	398.82
402.351	416.22
402.729	437.69
403.107	403.11
403.486	421.64
403.864	429.32
404.242	422.55
404.62	417.57
404.999	438.82
405.377	427.07
405.755	466.84
406.133	443.11
406.511	456.89
406.889	436.78
407.267	468.42
407.645	457.57
408.023	438.36
408.401	460.96
408.779	458.25
409.156	447.63
409.534	455.99
409.912	475.65
410.29	479.04
410.667	466.84
411.045	486.27
411.422	467.52
411.8	474.07
412.178	485.14
412.555	502.54
412.933	471.36
413.31	507.97
413.687	494.41
414.065	519.72
414.442	520.4
414.819	507.51
415.197	509.55
415.574	486.27
415.951	511.36
416.328	509.1
416.705	501.41
417.082	531.24
417.46	539.83
417.837	546.38
418.214	524.46
418.591	554.75
418.967	542.32
419.344	553.84
419.721	569.21
420.098	552.26
420.475	560.62
420.852	561.07
421.228	559.49
421.605	558.36
421.982	576.67
422.358	582.99
422.735	592.71
423.111	592.94
423.488	604.01
423.864	588.19
424.241	590.9
424.617	577.57
424.994	593.61
425.37	582.54
425.746	603.33
426.123	594.52
426.499	619.15
426.875	597.46
427.251	662.99
427.627	630.9
428.003	633.61
428.379	623.22
428.756	620.05
429.132	648.98
429.507	639.49
429.883	652.14
430.259	662.31
430.635	665.7
431.011	643.1
431.387	668.41
431.763	684.46
432.138	704.12
432.514	713.39
432.89	701.63
433.265	673.39
433.641	693.05
434.016	679.71
434.392	693.72
434.767	691.01
435.143	718.58
435.518	716.55
435.894	751.58
436.269	754.74
436.644	766.49
437.02	769.2
437.395	774.63
437.77	736.66
438.145	745.25
438.52	728.3
438.895	730.79
439.271	744.8
439.646	768.52
440.021	782.99
440.395	785.47
440.77	801.97
441.145	852.36
441.52	836.09
441.895	799.03
442.27	817.79
442.645	817.11
443.019	781.18
443.394	802.65
443.769	778.92
444.143	806.72
444.518	822.08
444.892	822.76
445.267	849.65
445.641	847.39
446.016	869.09
446.39	879.03
446.764	867.96
447.139	845.13
447.513	843.33
447.887	859.6
448.262	813.27
448.636	815.76
449.01	852.82
449.384	861.18
449.758	867.28
450.132	891.46
450.506	904.57
450.88	891.69
451.254	895.98
451.628	908.18
452.002	899.14
452.376	884.68
452.75	896.21
453.123	879.93
453.497	863.21
453.871	883.55
454.244	928.52
454.618	894.85
454.992	932.14
455.365	946.83
455.739	951.35
456.112	975.53
456.486	989.99
456.859	991.12
457.232	954.96
457.606	952.7
457.979	912.48
458.352	950.67
458.725	950.44
459.099	949.99
459.472	985.69
459.845	989.31
460.218	997.67
460.591	1038.57
460.964	1047.84
461.337	1048.74
461.71	1044.68
462.083	1056.65
462.456	1044.22
462.829	1025.92
463.201	1033.38
463.574	1004
463.947	1019.14
464.32	1039.93
464.692	1068.18
465.065	1063.43
465.438	1099.36
465.81	1126.03
466.183	1137.55
466.555	1139.14
466.928	1131.68
467.3	1140.72
467.672	1143.66
468.045	1116.31
468.417	1110.66
468.789	1123.54
469.161	1101.17
469.534	1127.16
469.906	1138.68
470.278	1167.61
470.65	1213.94
471.022	1253.94
471.394	1276.99
471.766	1296.19
472.138	1306.14
472.51	1322.63
472.882	1299.36
473.253	1265.01
473.625	1281.51
473.997	1304.33
474.369	1264.11
474.74	1258.23
475.112	1295.06
475.484	1343.65
475.855	1364.44
476.227	1391.56
476.598	1444.21
476.97	1502.07
477.341	1502.07
477.713	1522.4
478.084	1555.85
478.455	1534.38
478.827	1505
479.198	1531.22
479.569	1507.71
479.94	1471.56
480.311	1501.61
480.682	1539.35
481.053	1584.1
481.424	1615.73
481.795	1678.11
482.166	1728.27
482.537	1758.56
482.908	1827.03
483.279	1839.68
483.65	1897.76
484.021	1889.63
484.391	1842.85
484.762	1832.9
485.133	1826.58
485.503	1815.73
485.874	1847.14
486.244	1801.49
486.615	1869.96
486.985	1912
487.356	1986.57
487.726	2031.99
488.097	2085.78
488.467	2140.69
488.837	2205.1
489.207	2237.19
489.578	2241.03
489.948	2251.65
490.318	2219.11
490.688	2206
491.058	2181.82
491.428	2153.8
491.798	2161.71
492.168	2209.39
492.538	2223.18
492.908	2311.08
493.278	2350.4
493.648	2401.7
494.017	2485.99
494.387	2529.38
494.757	2571.64
495.126	2584.97
495.496	2609.83
495.866	2632.43
496.235	2583.62
496.605	2549.04
496.974	2518.31
497.344	2492.1
497.713	2440.12
498.082	2443.28
498.452	2504.3
498.821	2509.95
499.19	2556.95
499.559	2624.3
499.928	2689.6
500.298	2767.79
500.667	2840.33
501.036	2811.41
501.405	2877.17
501.774	2858.19
502.143	2862.71
502.512	2797.62
502.88	2789.49
503.249	2737.96
503.618	2676.95
503.987	2647.8
504.356	2640.34
504.724	2683.95
505.093	2652.77
505.462	2720.11
505.83	2816.61
506.199	2899.77
506.567	2963.04
506.936	3009.82
507.304	3092.08
507.672	3052.31
508.041	3061.35
508.409	3047.34
508.777	3019.54
509.145	2963.72
509.514	2892.08
509.882	2845.31
510.25	2804.63
510.618	2814.8
510.986	2814.35
511.354	2838.3
511.722	2868.13
512.09	2961.91
512.458	3030.84
512.826	3041.91
513.193	3146.54
513.561	3157.61
513.929	3225.86
514.297	3234.9
514.664	3238.97
515.032	3191.51
515.4	3144.06
515.767	3118.75
516.135	3038.97
516.502	2969.37
516.869	2982.7
517.237	2956.72
517.604	2897.73
517.972	2958.75
518.339	2992.87
518.706	3058.86
519.073	3142.7
519.44	3255.24
519.808	3287.55
520.175	3331.17
520.542	3405.07
520.909	3431.51
521.276	3380.89
521.643	3413.88
522.009	3339.08
522.376	3290.94
522.743	3241
523.11	3208.91
523.477	3132.08
523.843	3115.36
524.21	3096.6
524.577	3138.18
524.943	3153.77
525.31	3250.95
525.676	3338.4
526.043	3422.69
526.409	3526.19
526.776	3604.61
527.142	3709.69
527.508	3732.06
527.874	3790.14
528.241	3783.81
528.607	3747.88
528.973	3705.85
529.339	3627.43
529.705	3586.53
530.071	3549.47
530.437	3441.22
530.803	3490.71
531.169	3453.43
531.535	3445.06
531.901	3504.5
532.267	3589.24
532.632	3702.69
532.998	3804.6
533.364	3921.44
533.73	4026.97
534.095	4129.11
534.461	4109.23
534.826	4196.91
535.192	4189.68
535.557	4200.75
535.923	4132.05
536.288	4099.74
536.653	4017.03
537.019	3943.13
537.384	3856.13
537.749	3800.54
538.114	3823.13
538.479	3794.21
538.845	3866.97
539.21	3911.04
539.575	3984.26
539.94	4149.68
540.305	4238.72
540.67	4350.13
541.034	4432.38
541.399	4545.83
541.764	4635.99
542.129	4667.86
542.494	4645.94
542.858	4618.59
543.223	4557.13
543.587	4477.81
543.952	4447.98
544.316	4350.13
544.681	4252.28
545.045	4196.46
545.41	4216.8
545.774	4190.58
546.138	4203.46
546.503	4299.51
546.867	4332.95
547.231	4461.99
547.595	4526.17
547.959	4682.09
548.324	4782.2
548.688	4819.04
549.052	4878.25
549.416	4943.78
549.779	4942.88
550.143	4939.94
550.507	4928.42
550.871	4845.71
551.235	4759.15
551.599	4701.75
551.962	4636.45
552.326	4491.14
552.689	4483.91
553.053	4396
553.417	4387.19
553.78	4410.46
554.143	4435.32
554.507	4560.74
554.87	4600.06
555.234	4778.14
555.597	4854.75
555.96	4972.71
556.323	5052.25
556.686	5144.23
557.05	5265.81
557.413	5282.76
557.776	5245.47
558.139	5200.05
558.502	5142.87
558.865	5065.14
559.228	4934.07
559.59	4897.68
559.953	4794.86
560.316	4732.49
560.679	4632.15
561.041	4656.56
561.404	4676.9
561.767	4683.45
562.129	4712.6
562.492	4884.35
562.854	4931.13
563.217	5006.15
563.579	5199.14
563.941	5312.59
564.304	5456.76
564.666	5534.5
565.028	5595.06
565.39	5626.02
565.753	5604.33
566.115	5594.61
566.477	5491.11
566.839	5427.61
567.201	5361.85
567.563	5227.62
567.925	5144.68
568.287	5110.78
568.648	4957.79
569.01	5005.48
569.372	4973.39
569.734	4982.2
570.095	5062.42
570.457	5154.62
570.819	5260.38
571.18	5376.31
571.542	5572.47
571.903	5716.87
572.265	5853.36
572.626	5927.49
572.987	6069.85
573.349	6105.33
573.71	6162.28
574.071	6201.83
574.432	6119.34
574.794	6135.84
575.155	6058.56
575.516	5965.45
575.877	5876.87
576.238	5820.14
576.599	5790.54
576.96	5770.2
577.32	5766.13
577.681	5854.27
578.042	5946.47
578.403	6083.87
578.763	6188.5
579.124	6364.76
579.485	6594.81
579.845	6821.47
580.206	7040.9
580.566	7366.32
580.927	7542.36
581.287	7810.15
581.648	7965.62
582.008	8163.81
582.368	8442.22
582.728	8587.08
583.089	8613.52
583.449	8715.89
583.809	8891.93
584.169	9018.25
584.529	9095.76
584.889	9345.7
585.249	9502.76
585.609	9652.13
585.969	9932.8
586.329	10175.51
586.688	10590.64
587.048	10963.06
587.408	11313.33
587.768	11768.46
588.127	12278.05
588.487	12839.39
588.846	13367.74
589.206	13732.93
589.565	14199.36
589.925	14728.61
590.284	15160.91
590.643	15635.7
591.003	16046.99
591.362	16414.22
591.721	16867.54
592.08	17135.1
592.44	17489.89
592.799	17746.38
593.158	18137.79
593.517	18460.49
593.876	18761.05
594.235	19060.02
594.593	19464.53
594.952	19926.44
595.311	20311.06
595.67	20837.83
596.029	21462.22
596.387	21984.69
596.746	22631
597.104	22974.72
597.463	23522.95
597.822	24197.29
598.18	24646.77
598.538	25172.63
598.897	25775.1
599.255	25996.56
599.613	26846.48
599.972	27132.13
600.33	27645.78
600.688	27760.81
601.046	28285.09
601.404	28584.74
601.762	28817.73
602.12	29250.49
602.478	29452.06
602.836	29797.82
603.194	29916.01
603.552	30161.2
603.91	30351.7
604.268	31007.5
604.625	31194.39
604.983	31628.28
605.341	31843.41
605.698	32452.66
606.056	32921.35
606.413	33238.41
606.771	33628.45
607.128	34226.18
607.485	34506.85
607.843	35055.99
608.2	35462.08
608.557	35870.65
608.914	36070.87
609.272	36449.39
609.629	36768.03
609.986	37077.85
610.343	36982.49
610.7	37429.26
611.057	37314.91
611.414	37481.46
611.771	37756.93
612.127	37781.56
612.484	37874.67
612.841	38222.91
613.198	38078.73
613.554	38163.93
613.911	38605.04
614.267	38714.65
614.624	38938.82
614.98	39226.95
615.337	39568.41
615.693	39694.06
616.05	40018.57
616.406	40633.24
616.762	40623.75
617.118	40859.22
617.475	41088.82
617.831	41405.87
618.187	41644.29
618.543	41817.62
618.899	42034.78
619.255	42091.51
619.611	42009.25
619.967	42257.15
620.323	42259.64
620.678	42162.92
621.034	41992.3
621.39	42121.79
621.746	42035.24
622.101	42444.04
622.457	42004.5
622.812	42097.38
623.168	42180.09
623.523	42281.33
623.879	42569.46
624.234	42342.35
624.589	42581.44
624.945	42646.52
625.3	43006.74
625.655	43081.54
626.01	43272.94
626.365	43458.93
626.72	43513.16
627.075	43710.67
627.43	43847.39
627.785	43760.16
628.14	44010.1
628.495	44197.21
628.85	44042.19
629.205	43925.58
629.559	44380.03
629.914	43847.17
630.269	44018.91
630.623	43775.3
630.978	43579.83
631.332	43694.4
631.687	43639.26
632.041	43386.84
632.396	43438.82
632.75	43111.82
633.104	43310.46
633.459	43115.89
633.813	43079.05
634.167	43054.87
634.521	43270.23
634.875	43352.26
635.229	43401.98
635.583	43167.41
635.937	43487.4
636.291	43574.41
636.645	43669.32
636.999	43643.56
637.352	43741.86
637.706	43628.41
638.06	43935.3
638.413	43866.37
638.767	43772.14
639.121	43827.05
639.474	43579.38
639.828	43682.88
640.181	43485.59
640.534	43545.03
640.888	43376.44
641.241	43071.14
641.594	43018.26
641.947	43047.19
642.301	42828.89
642.654	42731.26
643.007	42824.59
643.36	42685.61
643.713	42533.98
644.066	42700.08
644.419	42468.22
644.771	42314.55
645.124	41863.49
645.477	41806.99
645.83	41792.98
646.182	41657.85
646.535	41620.56
646.888	41888.35
647.24	41823.49
647.593	42071.39
647.945	42098.06
648.298	41960.89
648.65	41930.61
649.002	41900.32
649.355	42150.49
649.707	41905.52
650.059	41959.98
650.411	42328.34
650.763	42377.37
651.115	42681.77
651.467	42424.38
651.819	42314.1
652.171	42195.01
652.523	41937.16
652.875	41873.66
653.227	41516.15
653.578	41660.33
653.93	41749.37
654.282	41487
654.633	41470.51
654.985	41413.78
655.337	41515.48
655.688	41563.61
656.039	41678.86
656.391	41491.52
656.742	41658.75
657.094	41899.65
657.445	41940.32
657.796	41973.54
658.147	41958.85
658.498	42129.92
658.849	42259.19
659.2	42192.07
659.551	42088.79
659.902	42235.68
660.253	42166.53
660.604	42289.69
660.955	42137.61
661.306	42110.26
661.656	41935.58
662.007	41800.21
662.358	41863.26
662.708	41640.67
663.059	41504.86
663.409	41153.68
663.76	41351.86
664.11	41268.93
664.461	41304.86
664.811	41188.25
665.161	41116.16
665.511	40986.22
665.862	40977.86
666.212	41067.13
666.562	41140.57
666.912	41054.25
667.262	41011.76
667.612	41101.25
667.962	41321.58
668.312	41173.34
668.662	41425.31
669.011	41444.07
669.361	41463.05
669.711	41590.95
670.06	41625.3
670.41	41453.56
670.76	41501.47
671.109	41648.13
671.459	41665.75
671.808	41534.23
672.157	41714.34
672.507	41452.43
672.856	41368.81
673.205	41389.15
673.554	41288.59
673.904	41161.59
674.253	41201.36
674.602	40915.49
674.951	40372
675.3	40056.31
675.649	40441.61
675.998	40286.13
676.346	40381.72
676.695	40523.64
677.044	40063.99
677.393	40221.5
677.741	40306.69
678.09	40159.35
678.438	40301.72
678.787	40452.91
679.135	40361.16
679.484	40215.17
679.832	40434.83
680.181	40176.53
680.529	40378.1
680.877	40357.09
681.225	40478.22
681.573	40523.41
681.922	40481.83
682.27	40469.63
682.618	40617.19
682.966	40464.66
683.314	40649.06
683.661	40381.27
684.009	40184.66
684.357	40106.7
684.705	39976.08
685.053	39925.01
685.4	39827.16
685.748	39521.18
686.095	39513.72
686.443	39154.41
686.79	38967.75
687.138	39148.98
687.485	38811.14
687.832	38749
688.18	38585.84
688.527	38511.94
688.874	38402.34
689.221	38369.8
689.568	38211.83
689.915	38088.45
690.262	38179.07
690.609	38196.92
690.956	38121.44
691.303	38169.35
691.65	37993.76
691.997	38216.81
692.344	37903.37
692.69	38126.19
693.037	38020.88
693.383	37916.02
693.73	38034.66
694.077	37818.4
694.423	37911.05
694.769	37870.6
695.116	37717.16
695.462	37682.58
695.808	37668.57
696.155	37732.3
696.501	37287.11
696.847	37081.92
697.193	36877.63
697.539	36951.08
697.885	36718.09
698.231	36430.64
698.577	36443.29
698.923	36262.28
699.269	35973.93
699.614	35876.53
699.96	35578.01
700.306	35648.74
700.651	35376.88
700.997	35323.32
701.342	35184.34
701.688	35224.34
702.033	35207.62
702.379	35163.78
702.724	34962.65
703.069	35130.11
703.415	34753.85
703.76	34900.06
704.105	34941.41
704.45	34906.61
704.795	34841.08
705.14	34810.57
705.485	34696.9
705.83	34759.72
706.175	34802.88
706.52	34695.32
706.865	34712.49
707.209	34640.85
707.554	34573.06
707.899	34583.68
708.243	34440.41
708.588	34408.77
708.932	34149.79
709.277	33923.36
709.621	33949.35
709.966	33876.81
710.31	33671.84
710.654	33325.41
710.998	33352.75
711.342	33329.02
711.687	33144.62
712.031	32963.61
712.375	32737.4
712.719	32865.76
713.063	32687.91
713.407	32618.76
713.75	32528.82
714.094	32433.68
714.438	32331.08
714.782	32273.69
715.125	32256.96
715.469	32353.91
715.812	32190.52
716.156	32012.9
716.499	32094.48
716.843	32232.33
717.186	32118.21
717.53	32270.75
717.873	32283.63
718.216	32285.44
718.559	32251.54
718.902	32042.73
719.246	32175.83
719.589	32145.55
719.932	31952.11
720.275	32040.7
720.617	31983.3
720.96	32006.57
721.303	31941.49
721.646	31948.72
721.989	31781.04
722.331	31815.39
722.674	31631.67
723.016	31526.59
723.359	31432.8
723.701	31428.74
724.044	31073.94
724.386	30954.4
724.729	30950.1
725.071	30764.8
725.413	30694.52
725.755	30584.92
726.097	30395.32
726.439	30283.46
726.782	30271.03
727.124	30396.22
727.465	30179.73
727.807	30158.26
728.149	30033.97
728.491	30005.72
728.833	30134.08
729.175	30012.95
729.516	30019.06
729.858	30000.98
730.199	30060.86
730.541	30029
730.882	30037.81
731.224	30287.52
731.565	29982.22
731.906	30069.9
732.248	30341.31
732.589	30207.98
732.93	30047.53
733.271	30112.16
733.612	30162.1
733.953	30180.18
734.294	30039.62
734.635	29955.78
734.976	30022.45
735.317	29748.1
735.658	29820.42
735.999	29697.71
736.339	29638.27
736.68	29670.36
737.021	29516.7
737.361	29232.86
737.702	29386.3
738.042	29166.65
738.383	29049.36
738.723	29139.76
739.063	28846.43
739.404	28897.28
739.744	28752.65
740.084	28643.05
740.424	28688.69
740.764	28503.16
741.104	28628.58
741.444	28500.23
741.784	28265.66
742.124	28415.26
742.464	28283.51
742.804	28271.3
743.143	28240.35
743.483	28370.06
743.823	28225.66
744.162	28250.97
744.502	28383.62
744.841	28245.99
745.181	28458.64
745.52	28449.15
745.86	28399.21
746.199	28301.81
746.538	28463.16
746.877	28480.34
747.216	28450.96
747.556	28363.51
747.895	28351.53
748.234	28246.9
748.573	28295.26
748.911	28211.65
749.25	28156.73
749.589	27974.36
749.928	27918.55
750.267	27989.05
750.605	27737.53
750.944	27734.14
751.283	27569.4
751.621	27650.98
751.96	27389.07
752.298	27250.31
752.636	27213.93
752.975	26990.89
753.313	26889.19
753.651	27003.99
753.989	26899.59
754.327	26700.5
754.666	26611.69
755.004	26567.17
755.342	26478.36
755.679	26431.58
756.017	26249.21
756.355	26361.98
756.693	26386.83
757.031	26283.56
757.368	26125.6
757.706	26138.03
758.044	26048.54
758.381	26152.04
758.719	25985.04
759.056	26004.02
759.394	26010.35
759.731	25845.61
760.068	26012.38
760.405	25865.04
760.743	25881.76
761.08	25989.1
761.417	25812.16
761.754	25832.72
762.091	25903.01
762.428	25769.9
762.765	25520.87
763.102	25698.49
763.438	25545.73
763.775	25408.33
764.112	25319.07
764.449	25354.77
764.785	25231.38
765.122	24981.67
765.458	24799.31
765.795	24938.74
766.131	24897.61
766.467	24582.59
766.804	24491.29
767.14	24346.66
767.476	24315.48
767.812	24111.64
768.148	24076.61
768.485	23953.9
768.821	23758.43
769.157	23753.68
769.492	23526.34
769.828	23540.36
770.164	23414.94
770.5	23303.98
770.836	23214.26
771.171	23070.99
771.507	23007.94
771.842	22924.33
772.178	23006.13
772.513	22918.9
772.849	22856.31
773.184	22913.93
773.519	22817.44
773.855	22724.11
774.19	22680.49
774.525	22681.85
774.86	22666.48
775.195	22614.5
775.53	22522.08
775.865	22456.77
776.2	22310.56
776.535	22315.98
776.87	22223.55
777.205	22180.39
777.539	22127.06
777.874	22132.71
778.209	21987.85
778.543	21861.53
778.878	21759.84
779.212	21828.76
779.547	21720.74
779.881	21710.57
780.215	21589.67
780.55	21503.12
780.884	21385.84
781.218	21147.65
781.552	21082.57
781.886	21065.17
782.22	20827.21
782.554	20809.35
782.888	20534.78
783.222	20501.11
783.556	20374.34
783.889	20284.62
784.223	20134.12
784.557	20067.23
784.89	20130.05
785.224	19876.95
785.557	19852.99
785.891	19728.03
786.224	19764.41
786.558	19612.1
786.891	19396.74
787.224	19383.85
787.557	19420.92
787.891	19365.1
788.224	19381.37
788.557	19307.47
788.89	19320.35
789.223	19327.59
789.556	19214.82
789.888	19149.96
790.221	19190.64
790.554	19102.51
790.887	19174.37
791.219	19067.7
791.552	19092.34
791.884	18959.69
792.217	19016.86
792.549	18903.42
792.882	18699.13
793.214	18711.56
793.546	18718.56
793.879	18674.72
794.211	18520.6
794.543	18555.85
794.875	18440.15
795.207	18559.02
795.539	18426.37
795.871	18423.43
796.203	18243.55
796.535	18018.47
796.867	17920.39
797.198	17956.55
797.53	17880.62
797.862	17718.14
798.193	17721.53
798.525	17583.22
798.856	17715.88
799.188	17314.76
799.519	17344.81
799.85	17193.18
800.182	17169.9
800.513	17138.26
800.844	16966.74
801.175	17128.09
801.506	16984.14
801.837	16866.41
802.168	16783.7
802.499	16750.7
802.83	16696.24
803.161	16625.96
803.491	16604.27
803.822	16643.81
804.153	16536.92
804.483	16437.49
804.814	16451.5
805.145	16388.45
805.475	16472.74
805.805	16276.59
806.136	16368.79
806.466	16310.49
806.796	16359.53
807.126	16285.41
807.457	16285.86
807.787	16301.9
808.117	16244.05
808.447	16248.8
808.777	16216.03
809.107	16085.86
809.436	16173.09
809.766	16155.24
810.096	16066.65
810.426	16024.4
810.755	16121.12
811.085	16002.7
811.414	15905.53
811.744	15823.72
812.073	15761.58
812.403	15783.27
812.732	15706.66
813.061	15586.89
813.39	15541.47
813.719	15474.35
814.049	15586.67
814.378	15421.25
814.707	15311.87
815.036	15254.02
815.365	15204.76
815.693	15111.88
816.022	15068.49
816.351	14927.47
816.68	14947.14
817.008	14952.11
817.337	14774.48
817.665	14817.65
817.994	14806.12
818.322	14653.81
818.651	14581.27
818.979	14513.47
819.307	14600.48
819.636	14541.72
819.964	14434.38
820.292	14502.4
820.62	14455.62
820.948	14390.09
821.276	14497.43
821.604	14425.34
821.932	14500.14
822.259	14483.64
822.587	14539.69
822.915	14475.28
823.243	14623.53
823.57	14502.85
823.898	14647.03
824.225	14597.77
824.553	14547.6
824.88	14592.34
825.207	14654.04
825.535	14611.55
825.862	14684.77
826.189	14769.96
826.516	14712.79
826.843	14685.45
827.17	14724.54
827.497	14772
827.824	14782.17
828.151	14819.91
828.478	14775.61
828.805	14808.16
829.131	14654.26
829.458	14661.94
829.785	14588.5
830.111	14613.36
830.438	14675.96
830.764	14645.67
831.09	14650.42
831.417	14560.03
831.743	14548.73
832.069	14546.02
832.395	14412.91
832.722	14462.18
833.048	14345.57
833.374	14379.47
833.7	14287.94
834.026	14285.01
834.351	14256.98
834.677	14227.38
835.003	14230.54
835.329	14283.42
835.654	14162.75
835.98	14084.33
836.306	14051.34
836.631	14016.99
836.956	14051.57
837.282	14053.15
837.607	13942.19
837.932	13935.64
838.258	13957.56
838.583	13932.92
838.908	13883.66
839.233	13963.43
839.558	13969.08
839.883	13801.4
840.208	13851.12
840.533	13878.91
840.858	13921.63
841.182	13896.09
841.507	13905.58
841.832	13823.32
842.156	13800.05
842.481	13842.53
842.805	13874.4
843.13	13819.03
843.454	13904.45
843.778	13725.02
844.103	13824.45
844.427	13738.81
844.751	13830.33
845.075	13708.3
845.399	13692.48
845.723	13684.34
846.047	13641.18
846.371	13543.56
846.695	13604.57
847.019	13434.63
847.343	13471.47
847.666	13340.85
847.99	13319.38
848.313	13293.39
848.637	13126.84
848.96	13063.79
849.284	13063.79
849.607	12875.33
849.931	12973.63
850.254	12704.26
850.577	12642.34
850.9	12612.28
851.223	12581.32
851.546	12514.2
851.869	12360.76
852.192	12424.94
852.515	12233.53
852.838	12160.99
853.161	12187.43
853.483	12086.65
853.806	12088
854.129	12050.71
854.451	11965.52
854.774	11876.93
855.096	11837.84
855.419	11841
855.741	11846.65
856.063	11814.11
856.385	11703.15
856.708	11710.61
857.03	11619.77
857.352	11668.13
857.674	11594
857.996	11618.41
858.318	11497.51
858.64	11572.76
858.961	11553.33
859.283	11544.06
859.605	11480.79
859.926	11498.86
860.248	11506.77
860.57	11435.59
860.891	11503.16
861.212	11534.34
861.534	11385.42
861.855	11419.77
862.176	11423.84
862.498	11463.84
862.819	11436.49
863.14	11400.56
863.461	11342.48
863.782	11347
864.103	11388.13
864.424	11350.85
864.745	11337.06
865.065	11305.88
865.386	11273.56
865.707	11234.46
866.027	11141.36
866.348	11118.31
866.668	11202.15
866.989	11199.89
867.309	11117.18
867.63	11021.59
867.95	11056.62
868.27	10946.11
868.59	11008.48
868.91	10933.68
869.23	10934.59
869.55	10789.5
869.87	10818.2
870.19	10813.46
870.51	10788.6
870.83	10784.31
871.15	10710.41
871.469	10630.86
871.789	10705.21
872.109	10635.61
872.428	10488.72
872.748	10652.78
873.067	10575.5
873.386	10599.68
873.706	10569.85
874.025	10469.51
874.344	10410.76
874.663	10507.03
874.982	10421.38
875.301	10417.08
875.62	10396.52
875.939	10405.56
876.258	10319.46
876.577	10364.66
876.896	10303.64
877.214	10349.52
877.533	10262.74
877.852	10325.11
878.17	10353.13
878.489	10285.34
878.807	10262.74
879.125	10293.25
879.444	10355.62
879.762	10389.74
880.08	10325.56
880.398	10314.49
880.716	10276.07
881.034	10164.44
881.352	10351.32
881.67	10222.97
881.988	10218.22
882.306	10238.78
882.624	10197.88
882.941	10133.93
883.259	10136.19
883.577	10197.43
883.894	10173.02
884.212	10102.52
884.529	10123.76
884.846	10117.88
885.164	10002.86
885.481	9979.81
885.798	10059.81
886.115	9922.63
886.432	9941.62
886.75	9855.97
887.067	9926.25
887.383	9831.56
887.7	9852.13
888.017	9818.68
888.334	9777.55
888.651	9717.44
888.967	9756.09
889.284	9644
889.6	9625.24
889.917	9527.16
890.233	9546.83
890.55	9465.92
890.866	9474.74
891.182	9453.95
891.498	9331.69
891.815	9316.77
892.131	9273.61
892.447	9270
892.763	9206.27
893.079	9131.69
893.395	9165.59
893.71	9131.92
894.026	9087.18
894.342	9164.69
894.657	9033.62
894.973	8959.72
895.289	8947.29
895.604	8947.97
895.92	8891.25
896.235	8815.32
896.55	8933.96
896.865	8899.84
897.181	8819.61
897.496	8841.53
897.811	8740.97
898.126	8736.68
898.441	8722.89
898.756	8753.85
899.071	8664.14
899.386	8707.3
899.7	8697.81
900.015	8652.84
900.33	8616.68
900.644	8542.78
900.959	8643.57
901.273	8628.43
901.588	8474.54
901.902	8424.14
902.216	8505.5
902.531	8497.59
902.845	8466.4
903.159	8360.87
903.473	8371.71
903.787	8344.6
904.101	8322.68
904.415	8322.68
904.729	8214.66
905.042	8220.08
905.356	8209.23
905.67	8188.44
905.984	8204.71
906.297	8214.2
906.611	8109.57
906.924	8123.13
907.237	8012.63
907.551	8020.54
907.864	7946.19
908.177	7946.87
908.491	7915.68
908.804	7891.5
909.117	7798.62
909.43	7778.28
909.743	7738.74
910.056	7728.57
910.368	7671.85
910.681	7665.52
910.994	7615.8
911.307	7476.6
911.619	7498.29
911.932	7445.64
912.244	7428.46
912.557	7353.89
912.869	7345.3
913.181	7286.55
913.494	7231.63
913.806	7166.55
914.118	7152.31
914.43	7115.25
914.742	7151.18
915.054	7077.51
915.366	7063.73
915.678	6980.11
915.99	6970.62
916.302	6901.92
916.613	6938.08
916.925	6876.16
917.236	6898.99
917.548	6891.98
917.859	6872.77
918.171	6756.84
918.482	6759.1
918.794	6746.22
919.105	6723.62
919.416	6723.62
919.727	6661.93
920.038	6705.32
920.349	6706.9
920.66	6647.69
920.971	6646.11
921.282	6607.47
921.593	6564.3
921.903	6529.28
922.214	6535.38
922.525	6533.8
922.835	6518.88
923.146	6458.54
923.456	6461.71
923.767	6439.56
924.077	6377.87
924.387	6427.81
924.697	6336.74
925.008	6326.8
925.318	6289.96
925.628	6287.25
925.938	6270.3
926.248	6268.04
926.558	6188.04
926.867	6206.12
927.177	6168.83
927.487	6160.02
927.796	6129.51
928.106	6094.26
928.416	6044.32
928.725	6033.92
929.034	5972.46
929.344	6022.17
929.653	5951.44
929.962	5867.83
930.271	5889.29
930.581	5897.43
930.89	5835.06
931.199	5753.93
931.508	5765.91
931.817	5739.92
932.125	5728.17
932.434	5692.24
932.743	5649.53
933.051	5638.45
933.36	5571.11
933.669	5539.25
933.977	5502.41
934.286	5531.56
934.594	5473.94
934.902	5410.89
935.21	5381.96
935.519	5393.04
935.827	5351.91
936.135	5282.08
936.443	5242.98
936.751	5277.33
937.059	5249.09
937.367	5211.8
937.674	5249.31
937.982	5117.34
938.29	5109.88
938.597	5155.75
938.905	5092.71
939.213	5022.65
939.52	5026.27
939.827	5041.86
940.135	5009.54
940.442	4967.06
940.749	5027.17
941.056	5012.93
941.363	4954.63
941.67	4979.94
941.977	4952.14
942.284	4895.65
942.591	4886.38
942.898	4889.77
943.205	4898.81
943.511	4814.75
943.818	4840.06
944.125	4827.85
944.431	4779.04
944.738	4826.72
945.044	4815.42
945.35	4774.52
945.657	4745.82
945.963	4705.37
946.269	4706.95
946.575	4675.31
946.881	4708.53
947.187	4673.28
947.493	4631.47
947.799	4620.18
948.105	4616.56
948.41	4598.93
948.716	4597.12
949.022	4556.45
949.327	4512.83
949.633	4506.05
949.938	4485.26
950.244	4501.31
950.549	4443.23
950.854	4443.68
951.16	4383.57
951.465	4407.3
951.77	4369.79
952.075	4368.66
952.38	4332.05
952.685	4296.57
952.99	4246.85
953.294	4241.65
953.599	4243.46
953.904	4198.04
954.209	4207.3
954.513	4201.2
954.818	4145.16
955.122	4114.2
955.426	4111.49
955.731	4089.34
956.035	4052.51
956.339	4061.09
956.643	4031.26
956.948	4010.47
957.252	3976.8
957.556	3959.63
957.86	3920.08
958.163	3917.37
958.467	3891.15
958.771	3876.92
959.075	3878.05
959.378	3819.97
959.682	3820.65
959.985	3811.38
960.289	3759.63
960.592	3787.88
960.896	3764.83
961.199	3723.02
961.502	3727.32
961.805	3744.04
962.108	3678.73
962.411	3608.68
962.714	3651.16
963.017	3628.56
963.32	3638.05
963.623	3621.56
963.926	3577.94
964.228	3614.55
964.531	3624.72
964.833	3624.5
965.136	3554.89
965.438	3536.81
965.741	3534.78
966.043	3510.6
966.345	3507.89
966.648	3535.01
966.95	3506.53
967.252	3479.41
967.554	3476.02
967.856	3424.95
968.158	3471.5
968.46	3402.81
968.761	3405.52
969.063	3429.7
969.365	3370.49
969.666	3427.21
969.968	3367.55
970.269	3349.25
970.571	3373.43
970.872	3343.6
971.174	3297.05
971.475	3303.83
971.776	3306.99
972.077	3276.03
972.378	3320.32
972.679	3229.25
972.98	3246.43
973.281	3250.27
973.582	3223.38
973.883	3188.57
974.183	3198.29
974.484	3150.84
974.785	3146.77
975.085	3166.43
975.386	3123.49
975.686	3147.67
975.986	3116.49
976.287	3087.33
976.587	3046.88
976.887	3026.77
977.187	3012.76
977.487	2982.03
977.787	2991.29
978.087	3001.46
978.387	2971.18
978.687	2980.9
978.987	2930.73
979.286	2921.46
979.586	2893.21
979.885	2884.85
980.185	2855.93
980.484	2849.6
980.784	2888.02
981.083	2810.05
981.382	2842.14
981.682	2804.18
981.981	2746.78
982.28	2767.79
982.579	2714.69
982.878	2775.93
983.177	2714.91
983.475	2765.76
983.774	2730.28
984.073	2701.58
984.372	2648.7
984.67	2658.42
984.969	2657.06
985.267	2621.36
985.566	2623.84
985.864	2580.23
986.162	2622.26
986.461	2596.73
986.759	2602.83
987.057	2550.63
987.355	2558.08
987.653	2525.77
987.951	2537.97
988.249	2519.44
988.547	2499.78
988.844	2511.76
989.142	2490.74
989.44	2487.8
989.737	2488.93
990.035	2476.73
990.332	2488.48
990.63	2435.37
990.927	2435.6
991.224	2437.86
991.521	2400.57
991.819	2396.5
992.116	2428.59
992.413	2431.53
992.71	2386.79
993.006	2372.78
993.303	2329.39
993.6	2375.26
993.897	2335.94
994.193	2364.87
994.49	2316.73
994.787	2359.9
995.083	2297.07
995.379	2295.94
995.676	2302.5
995.972	2268.6
996.268	2268.15
996.565	2243.97
996.861	2285.77
997.157	2242.84
997.453	2239.9
997.749	2221.37
998.044	2213.23
998.34	2184.53
998.636	2189.96
998.932	2160.58
999.227	2180.47
999.523	2161.93
999.818	2159.9
1000.114	2123.07
1000.409	2144.76
1000.704	2081.03
1001	2094.14
1001.295	2073.58
1001.59	2080.35
1001.885	2068.6
1002.18	2093.01
1002.475	2041.49
1002.77	2027.25
1003.065	2013.69
1003.359	1988.61
1003.654	1982.28
1003.949	1987.25
1004.243	1964.88
1004.538	1935.5
1004.832	1948.61
1005.127	1912.9
1005.421	1913.35
1005.715	1910.87
1006.009	1896.86
1006.304	1901.6
1006.598	1867.48
1006.892	1834.94
1007.186	1845.56
1007.48	1839.91
1007.773	1830.64
1008.067	1839.23
1008.361	1787.71
1008.655	1782.51
1008.948	1774.37
1009.242	1737.09
1009.535	1761.04
1009.829	1741.38
1010.122	1715.39
1010.415	1742.96
1010.708	1701.83
1011.001	1705.9
1011.295	1734.38
1011.588	1672.68
1011.881	1673.59
1012.173	1648.05
1012.466	1659.8
1012.759	1650.99
1013.052	1638.33
1013.344	1644.66
1013.637	1608.95
1013.93	1616.64
1014.222	1628.16
1014.514	1586.81
1014.807	1624.1
1015.099	1588.84
1015.391	1546.81
1015.683	1575.06
1015.976	1554.94
1016.268	1552.46
1016.56	1593.14
1016.851	1519.47
1017.143	1522.4
1017.435	1528.96
1017.727	1490.99
1018.018	1499.81
1018.31	1460.94
1018.602	1478.34
1018.893	1477.21
1019.185	1431.33
1019.476	1461.39
1019.767	1483.53
1020.058	1438.11
1020.35	1426.36
1020.641	1414.84
1020.932	1402.41
1021.223	1399.02
1021.514	1426.81
1021.804	1366.48
1022.095	1389.07
1022.386	1381.16
1022.677	1374.16
1022.967	1369.41
1023.258	1340.26
1023.548	1338
1023.839	1332.35
1024.129	1348.62
1024.419	1315.63
1024.709	1300.49
1025	1282.18
1025.29	1305.69
1025.58	1255.74
1025.87	1265.24
1026.16	1269.53
1026.449	1260.94
1026.739	1257.1
1027.029	1252.81
1027.319	1232.92
1027.608	1228.63
1027.898	1245.8
1028.187	1232.24
1028.477	1190.89
1028.766	1207.61
1029.055	1173.71
1029.344	1160.38
1029.634	1160.38
1029.923	1143.43
1030.212	1153.37
1030.501	1123.77
1030.79	1137.33
1031.078	1111.11
1031.367	1106.82
1031.656	1097.78
1031.945	1095.07
1032.233	1118.8
1032.522	1104.11
1032.81	1085.8
1033.099	1088.29
1033.387	1053.49
1033.675	1066.14
1033.963	1032.7
1034.251	1048.29
1034.54	1058.23
1034.828	1033.38
1035.116	1009.87
1035.403	1023.89
1035.691	1012.59
1035.979	1017.56
1036.267	1010.55
1036.554	999.48
1036.842	954.96
1037.129	980.5
1037.417	974.62
1037.704	968.75
1037.992	950.67
1038.279	964.68
1038.566	944.34
1038.853	944.34
1039.14	944.34
