Data from red_shiny_book_FLMS001491_00073.txt Node
Date: Wed Feb 08 15:25:21 GMT 2017
User: dcchb
Spectrometer: FLMS00149
Trigger mode: 0
Integration Time (sec): 2.000000E-2
Scans to average: 10
Electric dark correction enabled: true
Nonlinearity correction enabled: false
Boxcar width: 0
XAxis mode: Wavelengths
Number of Pixels in Spectrum: 2048
>>>>>Begin Spectral Data<<<<<
341.393	-9.43
341.776	-9.43
342.16	-9.43
342.543	-61.86
342.927	-57.12
343.31	-80.39
343.693	-75.2
344.077	-54.86
344.46	-56.21
344.843	-51.02
345.226	-54.18
345.61	-28.87
345.993	-3.56
346.376	-12.82
346.759	-6.72
347.142	19.72
347.525	44.35
347.908	71.69
348.291	64.01
348.674	107.4
349.057	116.66
349.44	120.73
349.823	144.69
350.206	175.87
350.588	188.3
350.971	212.03
351.354	228.07
351.737	237.56
352.119	255.19
352.502	281.63
352.884	289.54
353.267	294.06
353.65	307.62
354.032	302.65
354.414	302.87
354.797	320.73
355.179	292.93
355.562	333.38
355.944	318.92
356.326	325.25
356.709	313.72
357.091	343.32
357.473	344.68
357.855	337
358.238	345.13
358.62	352.59
359.002	345.13
359.384	353.95
359.766	330.67
360.148	338.13
360.53	355.08
360.912	335.64
361.294	320.05
361.676	335.87
362.057	313.49
362.439	333.16
362.821	315.3
363.203	333.16
363.584	330.22
363.966	333.38
364.348	325.02
364.729	321.63
365.111	316.21
365.493	325.47
365.874	342.65
366.256	334.28
366.637	302.87
367.019	313.04
367.4	335.87
367.781	295.87
368.163	318.47
368.544	313.95
368.925	326.6
369.306	315.98
369.688	301.97
370.069	301.29
370.45	334.06
370.831	345.36
371.212	313.49
371.593	335.19
371.974	323.44
372.355	330.44
372.736	318.69
373.117	344.45
373.498	307.85
373.879	309.2
374.26	318.47
374.641	308.3
375.021	311.01
375.402	321.18
375.783	323.44
376.163	332.03
376.544	327.28
376.925	314.4
377.305	314.62
377.686	328.86
378.066	330.22
378.447	337.22
378.827	348.52
379.208	306.49
379.588	337.67
379.968	330.22
380.349	359.14
380.729	345.13
381.109	327.96
381.489	333.38
381.87	334.51
382.25	319.14
382.63	332.48
383.01	346.26
383.39	325.47
383.77	351.23
384.15	367.73
384.53	342.87
384.91	361.85
385.29	356.21
385.67	355.98
386.049	364.57
386.429	358.92
386.809	376.54
387.189	351.91
387.568	366.83
387.948	343.55
388.328	380.39
388.707	390.33
389.087	375.41
389.466	374.74
389.846	382.87
390.225	369.99
390.605	400.27
390.984	353.49
391.363	354.85
391.743	392.36
392.122	380.84
392.501	381.74
392.881	364.57
393.26	363.66
393.639	389.88
394.018	381.52
394.397	378.8
394.776	379.26
395.155	374.51
395.534	392.81
395.913	398.92
396.292	395.98
396.671	394.17
397.05	385.58
397.429	392.59
397.808	392.59
398.186	399.82
398.565	402.31
398.944	408.41
399.323	414.96
399.701	397.56
400.08	409.76
400.458	429.2
400.837	410.22
401.215	395.75
401.594	401.4
401.972	387.39
402.351	407.5
402.729	398.92
403.107	419.25
403.486	426.94
403.864	421.29
404.242	419.71
404.62	426.94
404.999	433.04
405.377	433.27
405.755	438.24
406.133	425.58
406.511	414.28
406.889	436.88
407.267	436.2
407.645	440.04
408.023	439.14
408.401	447.5
408.779	431.91
409.156	447.05
409.534	451.12
409.912	456.77
410.29	450.44
410.667	449.76
411.045	454.96
411.422	478.91
411.8	480.04
412.178	471.23
412.555	508.97
412.933	473.72
413.31	475.52
413.687	505.35
414.065	500.38
414.442	487.05
414.819	489.99
415.197	515.3
415.574	519.14
415.951	515.3
416.328	496.31
416.705	525.24
417.082	521.62
417.46	535.41
417.837	532.92
418.214	515.3
418.591	542.19
418.967	536.09
419.344	547.39
419.721	527.95
420.098	541.06
420.475	554.17
420.852	584.67
421.228	554.17
421.605	572.47
421.982	572.7
422.358	560.04
422.735	556.65
423.111	576.31
423.488	603.43
423.864	575.86
424.241	589.87
424.617	601.62
424.994	583.77
425.37	607.05
425.746	614.05
426.123	610.66
426.499	613.83
426.875	598.01
427.251	599.81
427.627	586.26
428.003	626.25
428.379	617.89
428.756	647.27
429.132	640.72
429.507	671.68
429.883	661.51
430.259	666.48
430.635	631
431.011	646.82
431.387	666.71
431.763	670.32
432.138	680.49
432.514	674.84
432.89	684.33
433.265	708.96
433.641	705.57
434.016	721.62
434.392	713.03
434.767	740.83
435.143	719.81
435.518	731.34
435.894	698.8
436.269	743.77
436.644	723.65
437.02	733.6
437.395	749.42
437.77	768.85
438.145	798
438.52	795.52
438.895	780.15
439.271	784.44
439.646	783.99
440.021	764.78
440.395	775.4
440.77	753.93
441.145	768.4
441.52	812.24
441.895	801.39
442.27	816.08
442.645	820.83
443.019	823.99
443.394	819.47
443.769	823.76
444.143	823.09
444.518	851.11
444.892	832.13
445.267	836.19
445.641	846.36
446.016	825.35
446.39	822.41
446.764	832.13
447.139	855.18
447.513	860.6
447.887	891.56
448.262	905.8
448.636	875.51
449.01	873.48
449.384	887.72
449.758	877.55
450.132	866.93
450.506	855.4
450.88	875.97
451.254	890.88
451.628	915.06
452.002	905.57
452.376	915.74
452.75	940.6
453.123	936.76
453.497	953.7
453.871	957.55
454.244	947.38
454.618	925
454.992	935.85
455.365	935.63
455.739	956.19
456.112	932.24
456.486	919.81
456.859	969.52
457.232	985.79
457.606	1000.26
457.979	1019.92
458.352	1021.72
458.725	1020.37
459.099	1042.51
459.472	1041.84
459.845	1012.01
460.218	1004.1
460.591	995.28
460.964	1002.29
461.337	1025.57
461.71	1034.15
462.083	1052.91
462.456	1066.47
462.829	1103.98
463.201	1086.58
463.574	1102.4
463.947	1115.06
464.32	1107.82
464.692	1130.42
465.065	1126.58
465.438	1112.57
465.81	1115.96
466.183	1110.31
466.555	1135.17
466.928	1131.1
467.3	1124.09
467.672	1147.82
468.045	1202.51
468.417	1195.51
468.789	1206.8
469.161	1230.98
469.534	1250.42
469.906	1232.11
470.278	1234.37
470.65	1249.97
471.022	1234.6
471.394	1244.54
471.766	1237.76
472.138	1267.59
472.51	1279.12
472.882	1310.3
473.253	1353.47
473.625	1381.94
473.997	1416.52
474.369	1430.98
474.74	1433.24
475.112	1431.21
475.484	1430.3
475.855	1487.48
476.227	1427.36
476.598	1451.77
476.97	1479.57
477.341	1463.97
477.713	1499
478.084	1507.36
478.455	1570.86
478.827	1573.8
479.198	1620.13
479.569	1628.71
479.94	1677.3
480.311	1726.11
480.682	1748.03
481.053	1777.41
481.424	1756.39
481.795	1737.64
482.166	1762.72
482.537	1753
482.908	1805.88
483.279	1779.67
483.65	1814.47
484.021	1863.96
484.391	1894.47
484.762	1963.62
485.133	1993.45
485.503	2006.78
485.874	2082.04
486.244	2063.96
486.615	2124.07
486.985	2125.42
487.356	2142.15
487.726	2115.26
488.097	2161.81
488.467	2139.44
488.837	2155.48
489.207	2227.57
489.578	2210.17
489.948	2267.57
490.318	2341.92
490.688	2349.6
491.058	2442.03
491.428	2494.23
491.798	2469.6
492.168	2570.61
492.538	2537.84
492.908	2587.11
493.278	2578.29
493.648	2523.15
494.017	2536.94
494.387	2532.87
494.757	2532.19
495.126	2555.92
495.496	2597.95
495.866	2627.11
496.235	2667.78
496.605	2668.91
496.974	2741.23
497.344	2787.55
497.713	2835.46
498.082	2852.41
498.452	2894.44
498.821	2902.81
499.19	2904.39
499.559	2897.16
499.928	2881.56
500.298	2831.39
500.667	2802.92
501.036	2828.91
501.405	2830.72
501.774	2814.22
502.143	2878.62
502.512	2913.65
502.88	2957.72
503.249	2980.32
503.618	3024.16
503.987	3113.65
504.356	3154.1
504.724	3160.2
505.093	3125.62
505.462	3098.28
505.83	3095.79
506.199	3057.15
506.567	3094.89
506.936	3011.5
507.304	3025.51
507.672	3013.31
508.041	3035.46
508.409	3074.1
508.777	3085.4
509.145	3142.8
509.514	3133.31
509.882	3242.01
510.25	3259.18
510.618	3320.87
510.986	3307.31
511.354	3357.26
511.722	3357.03
512.09	3315.68
512.458	3275.68
512.826	3266.41
513.193	3208.79
513.561	3215.57
513.929	3175.79
514.297	3204.72
514.664	3222.8
515.032	3268.9
515.4	3244.72
515.767	3323.58
516.135	3365.39
516.502	3409.01
516.869	3479.96
517.237	3463.24
517.604	3497.37
517.972	3530.59
518.339	3538.27
518.706	3499.17
519.073	3466.86
519.44	3437.25
519.808	3381.66
520.175	3380.53
520.542	3384.6
520.909	3380.98
521.276	3346.18
521.643	3357.71
522.009	3403.58
522.376	3495.56
522.743	3522.68
523.11	3595.89
523.477	3674.31
523.843	3723.35
524.21	3771.48
524.577	3792.27
524.943	3792.5
525.31	3783.69
525.676	3841.99
526.043	3757.25
526.409	3743.69
526.776	3719.73
527.142	3666.4
527.508	3643.58
527.874	3703.46
528.241	3706.63
528.607	3715.89
528.973	3752.95
529.339	3812.84
529.705	3938.26
530.071	4026.17
530.437	4064.36
530.803	4124.69
531.169	4177.35
531.535	4232.49
531.901	4211.92
532.267	4232.49
532.632	4241.3
532.998	4220.51
533.364	4176.22
533.73	4137.8
534.095	4149.1
534.461	4099.61
534.826	4082.89
535.192	4079.95
535.557	4124.02
535.923	4176.22
536.288	4244.46
536.653	4295.08
537.019	4364.46
537.384	4450.11
537.749	4546.38
538.114	4629.77
538.479	4658.69
538.845	4694.4
539.21	4688.07
539.575	4683.78
539.94	4654.85
540.305	4653.04
540.67	4625.7
541.034	4622.76
541.399	4547.06
541.764	4535.53
542.129	4505.25
542.494	4541.63
542.858	4535.76
543.223	4549.54
543.587	4635.41
543.952	4775.3
544.316	4794.51
544.681	4858.46
545.045	4914.5
545.41	5033.6
545.774	5112.24
546.138	5120.83
546.503	5093.48
546.867	5130.09
547.231	5151.56
547.595	5087.61
547.959	5054.16
548.324	4984.11
548.688	4901.85
549.052	4862.3
549.416	4820.95
549.779	4794.28
550.143	4816.2
550.507	4838.35
550.871	4865.69
551.235	4907.5
551.599	4959.25
551.962	5080.15
552.326	5111.79
552.689	5192.91
553.053	5266.81
553.417	5343.19
553.78	5447.37
554.143	5392.23
554.507	5381.38
554.87	5391.78
555.234	5340.93
555.597	5266.36
555.96	5260.94
556.323	5173.03
556.686	5093.26
557.05	5048.74
557.413	5041.73
557.776	5004.67
558.139	5062.07
558.502	5073.6
558.865	5086.93
559.228	5183.65
559.59	5234.95
559.953	5337.54
560.316	5435.85
560.679	5514.04
561.041	5650.98
561.404	5712.45
561.767	5702.05
562.129	5681.94
562.492	5731.66
562.854	5671.77
563.217	5632.22
563.579	5650.76
563.941	5487.6
564.304	5492.12
564.666	5466.13
565.028	5410.76
565.39	5346.13
565.753	5330.54
566.115	5380.48
566.477	5382.29
566.839	5431.78
567.201	5501.83
567.563	5587.25
567.925	5704.09
568.287	5792.45
568.648	5925.1
569.01	5963.52
569.372	6076.28
569.734	6074.93
570.095	6186.33
570.457	6178.2
570.819	6146.34
571.18	6116.05
571.542	6127.35
571.903	6022.72
572.265	6040.12
572.626	5945.89
572.987	5916.29
573.349	5890.52
573.71	5910.86
574.071	5872.44
574.432	5889.62
574.794	6014.36
575.155	6091.87
575.516	6091.87
575.877	6264.07
576.238	6374.13
576.599	6579.09
576.96	6743.38
577.32	6849.14
577.681	6955.13
578.042	7099.08
578.403	7233.99
578.763	7320.54
579.124	7371.39
579.485	7506.53
579.845	7564.38
580.206	7556.47
580.566	7619.52
580.927	7754.65
581.287	7778.38
581.648	7879.4
582.008	8078.94
582.368	8155.32
582.728	8360.51
583.089	8639.15
583.449	8816.32
583.809	9072.59
584.169	9450.43
584.529	9720.03
584.889	10201.14
585.249	10548.93
585.609	10938.07
585.969	11278.4
586.329	11667.77
586.688	11995.9
587.048	12554.53
587.408	12893.73
587.768	13146.15
588.127	13509.08
588.487	13837.88
588.846	14163.3
589.206	14465.66
589.565	14699.33
589.925	15105.42
590.284	15422.48
590.643	15785.18
591.003	16158.95
591.362	16643.91
591.721	17022.66
592.08	17417
592.44	18131.33
592.799	18559.12
593.158	19044.75
593.517	19692.65
593.876	20111.39
594.235	20649.23
594.593	21205.6
594.952	21871.8
595.311	22175.52
595.67	22784.99
596.029	23295.72
596.387	23862.93
596.746	24187.67
597.104	24621.56
597.463	24972.96
597.822	25353.29
598.18	25578.59
598.538	25906.04
598.897	26412.92
599.255	26522.52
599.613	27316.85
599.972	27412.9
600.33	27829.38
600.688	28089.04
601.046	28687.44
601.404	29331.04
601.762	29507.76
602.12	30211.69
602.478	30636.31
602.836	31076.75
603.194	31329.4
603.552	31922.61
603.91	32111.98
604.268	32728.46
604.625	33101.78
604.983	33593.98
605.341	33717.59
605.698	34172.27
606.056	34650.22
606.413	34754.62
606.771	35061.51
607.128	35356.64
607.485	35418.56
607.843	35590.76
608.2	35966.79
608.557	36192.33
608.914	36326.78
609.272	36731.07
609.629	36934.23
609.986	37164.95
610.343	37250.6
610.7	37745.28
611.057	38098.94
611.414	38243.57
611.771	38533.96
612.127	38964.68
612.484	39242.87
612.841	39523.09
613.198	39694.15
613.554	39981.6
613.911	40340.24
614.267	40476.96
614.624	40652.77
614.98	40980.22
615.337	41310.61
615.693	41388.35
616.05	41432.19
616.406	41764.83
616.762	41517.83
617.118	41650.49
617.475	41602.8
617.831	41678.73
618.187	41841.44
618.543	41826.98
618.899	42092.74
619.255	41994.43
619.611	42203.24
619.967	42376.12
620.323	42562.55
620.678	42486.4
621.034	42581.54
621.39	42699.72
621.746	42895.2
622.101	43532.92
622.457	43331.35
622.812	43596.65
623.168	43727.04
623.523	43913.25
623.879	44333.35
624.234	44073.93
624.589	44186.24
624.945	44317.54
625.3	44317.76
625.655	44433.24
626.01	44299.23
626.365	44411.09
626.72	44322.05
627.075	44186.24
627.43	44198.44
627.785	43919.81
628.14	44093.36
628.495	44189.4
628.85	43839.58
629.205	43874.84
629.559	44069.63
629.914	43937.43
630.269	44159.12
630.623	44110.99
630.978	43994.61
631.332	44360.7
631.687	44434.14
632.041	44353.92
632.396	44610.41
632.75	44485.21
633.104	44605.66
633.459	44644.98
633.813	44677.07
634.167	44698.77
634.521	44805.66
634.875	44943.96
635.229	44762.04
635.583	44524.08
635.937	44671.2
636.291	44552.11
636.645	44478.21
636.999	44360.25
637.352	44356.86
637.706	44103.08
638.06	44176.07
638.413	43865.34
638.767	43760.49
639.121	43767.49
639.474	43637.78
639.828	43760.26
640.181	43605.92
640.534	43791.9
640.888	43598.46
641.241	43632.58
641.594	43706.25
641.947	43729.08
642.301	43757.32
642.654	43955.74
643.007	43984.89
643.36	43943.31
643.713	43874.38
644.066	44175.84
644.419	43936.75
644.771	43691.56
645.124	43287.96
645.477	43224.68
645.83	43106.49
646.182	42874.18
646.535	42746.5
646.888	42894.75
647.24	42440.75
647.593	42745.37
647.945	42568.2
648.298	42394.87
648.65	42135.9
649.002	41964.15
649.355	42037.6
649.707	41746.76
650.059	41814.1
650.411	42411.14
650.763	42388.09
651.115	42845.71
651.467	42664.25
651.819	42738.14
652.171	42673.96
652.523	42627.41
652.875	42854.75
653.227	42535.21
653.578	43040.51
653.93	42951.02
654.282	42753.73
654.633	42932.03
654.985	43014.07
655.337	43015.65
655.688	43108.75
656.039	43235.3
656.391	43060.39
656.742	42945.14
657.094	43033.28
657.445	43065.14
657.796	42876.22
658.147	42606.17
658.498	42645.71
658.849	42562.33
659.2	42452.27
659.551	42351.71
659.902	42248.44
660.253	42221.55
660.604	42215.9
660.955	41851.61
661.306	41998.95
661.656	42036.92
662.007	41848.67
662.358	41980.42
662.708	42011.38
663.059	41891.16
663.409	41841.67
663.76	42229.23
664.11	42169.34
664.461	42246.63
664.811	42350.58
665.161	42328.21
665.511	42319.62
665.862	42400.75
666.212	42570.69
666.562	42621.53
666.912	42520.29
667.262	42560.07
667.612	42486.4
667.962	42462.44
668.312	42492.72
668.662	42486.62
669.011	42315.55
669.361	42270.58
669.711	42005.51
670.06	41988.11
670.41	41734.78
670.76	41720.54
671.109	41799.18
671.459	41464.28
671.808	41479.87
672.157	41661.33
672.507	41237.62
672.856	41039.2
673.205	41158.97
673.554	41324.62
673.904	41188.8
674.253	41626.08
674.602	41304.96
674.951	40869.26
675.3	40632.21
675.649	41351.29
675.998	41473.32
676.346	41559.87
676.695	41623.82
677.044	41414.79
677.393	41593.77
677.741	41797.6
678.09	41607.32
678.438	41697.27
678.787	41702.91
679.135	41713.08
679.484	41338.86
679.832	41517.61
680.181	41205.07
680.529	41220.67
680.877	41147.22
681.225	40922.14
681.573	41203.49
681.922	40786.1
682.27	40547.92
682.618	40592.89
682.966	40497.97
683.314	40598.09
683.661	40269.51
684.009	40066.57
684.357	39857.99
684.705	39892.57
685.053	39941.61
685.4	39897.09
685.748	39624.78
686.095	39585.91
686.443	39659.8
686.79	39703.87
687.138	39754.94
687.485	39727.83
687.832	39662.29
688.18	39688.73
688.527	39690.09
688.874	39715.17
689.221	39601.28
689.568	39581.84
689.915	39794.26
690.262	39583.65
690.609	39626.81
690.956	39447.61
691.303	39503.88
691.65	39213.26
691.997	39106.6
692.344	38930.56
692.69	38910.45
693.037	38919.94
693.383	38482.89
693.73	38517.91
694.077	38171.26
694.423	38072.28
694.769	37956.12
695.116	37824.82
695.462	37668.67
695.808	37531.95
696.155	37423.93
696.501	37196.82
696.847	37239.98
697.193	36963.38
697.539	37119.98
697.885	36805.87
698.231	36598.19
698.577	36782.82
698.923	36647.91
699.269	36590.73
699.614	36494.69
699.96	36634.8
700.306	36474.13
700.651	36443.84
700.997	36571.98
701.342	36562.48
701.688	36489.72
702.033	36362.72
702.379	36316.39
702.724	36487.91
703.069	36394.58
703.415	35934.7
703.76	36020.35
704.105	35987.81
704.45	35880.69
704.795	35567.93
705.14	35544.43
705.485	35499.46
705.83	35388.05
706.175	35266.93
706.52	35111.22
706.865	34910.55
707.209	34799.37
707.554	34638.69
707.899	34549.2
708.243	34308.53
708.588	34315.09
708.932	33992.16
709.277	34054.08
709.621	33861.31
709.966	33688.44
710.31	33820.64
710.654	33533.41
710.998	33496.35
711.342	33709.23
711.687	33636.23
712.031	33456.58
712.375	33329.35
712.719	33544.03
713.063	33469.23
713.407	33668.78
713.75	33443.24
714.094	33444.15
714.438	33501.32
714.782	33467.43
715.125	33366.64
715.469	33442.57
715.812	33287.32
716.156	33114.21
716.499	33257.26
716.843	33278.73
717.186	33134.55
717.53	33246.64
717.873	33082.35
718.216	33041.22
718.559	32838.97
718.902	32513.78
719.246	32658.41
719.589	32427.68
719.932	32191.53
720.275	32172.77
720.617	32013.68
720.96	31990.18
721.303	31911.53
721.646	31858.43
721.989	31612.56
722.331	31725.55
722.674	31560.58
723.016	31475.39
723.359	31443.07
723.701	31636.06
724.044	31335.28
724.386	31209.63
724.729	31373.69
725.071	31229.29
725.413	31361.72
725.755	31234.26
726.097	31181.16
726.439	31084.89
726.782	31163.53
727.124	31305.45
727.465	31140.03
727.807	31103.19
728.149	31151.33
728.491	31039.47
728.833	31158.56
729.175	31195.85
729.516	31027.72
729.858	31106.36
730.199	31062.74
730.541	31074.72
730.882	30944.33
731.224	30947.04
731.565	30698.91
731.906	30746.14
732.248	30858.23
732.589	30487.62
732.93	30490.33
733.271	30424.79
733.612	30299.6
733.953	30165.37
734.294	30068.19
734.635	29719.05
734.976	29860.97
735.317	29698.48
735.658	29747.52
735.999	29622.55
736.339	29568.32
736.68	29696.22
737.021	29458.72
737.361	29348.66
737.702	29358.61
738.042	29308.21
738.383	29378.49
738.723	29414.42
739.063	29298.5
739.404	29308.44
739.744	29462.11
740.084	29320.19
740.424	29412.16
740.764	29343.92
741.104	29691.93
741.444	29404.48
741.784	29366.97
742.124	29347.76
742.464	29313.41
742.804	29492.61
743.143	29354.76
743.483	29337.36
743.823	29343.92
744.162	29315.22
744.502	29216.69
744.841	29289.23
745.181	29137.82
745.52	29104.83
745.86	29100.76
746.199	28828.45
746.538	28797.27
746.877	28830.03
747.216	28724.5
747.556	28546.65
747.895	28521.57
748.234	28384.62
748.573	28214.23
748.911	28160.22
749.25	28104.63
749.589	27879.32
749.928	27928.14
750.267	27972.2
750.605	27820.12
750.944	27712.77
751.283	27541.03
751.621	27638.88
751.96	27500.8
752.298	27521.14
752.636	27496.96
752.975	27320.24
753.313	27277.53
753.651	27445.89
753.989	27313.01
754.327	27397.3
754.666	27285.21
755.004	27314.37
755.342	27299
755.679	27311.43
756.017	27155.27
756.355	27382.61
756.693	27228.95
757.031	27224.2
757.368	27087.93
757.706	26991.44
758.044	26984.66
758.381	27050.87
758.719	26847.71
759.056	26874.38
759.394	26772.23
759.731	26540.38
760.068	26720.71
760.405	26480.04
760.743	26360.49
761.08	26327.95
761.417	26170.22
761.754	26110.1
762.091	25904.23
762.428	25844.35
762.765	25633.96
763.102	25670.34
763.438	25554.19
763.775	25390.12
764.112	25274.19
764.449	25327.98
764.785	25151.94
765.122	24937.93
765.458	24737.94
765.795	24817.48
766.131	24771.38
766.467	24656.58
766.804	24521.22
767.14	24561.22
767.476	24572.52
767.812	24352.64
768.148	24445.97
768.485	24261.11
768.821	24209.82
769.157	24170.27
769.492	24264.96
769.828	24224.5
770.164	23990.16
770.5	24073.32
770.836	24079.88
771.171	23875.81
771.507	23812.99
771.842	23737.06
772.178	23837.17
772.513	23771.63
772.849	23605.99
773.184	23596.27
773.519	23733.44
773.855	23363.96
774.19	23297.75
774.525	23296.62
774.86	23309.73
775.195	23212.1
775.53	22972.11
775.865	22866.8
776.2	22729.85
776.535	22522.4
776.87	22524.44
777.205	22427.72
777.539	22312.46
777.874	22239.02
778.209	22012.59
778.543	21898.69
778.878	21784.79
779.212	21700.05
779.547	21529.66
779.881	21514.75
780.215	21430
780.55	21400.17
780.884	21254.41
781.218	21217.35
781.552	21206.96
781.886	21107.52
782.22	20893.97
782.554	20921.31
782.888	20683.35
783.222	20572.17
783.556	20680.64
783.889	20640.42
784.223	20484.72
784.557	20508.22
784.89	20589.57
785.224	20421.89
785.557	20361.78
785.891	20414.21
786.224	20234.55
786.558	20332.86
786.891	20127.66
787.224	20152.07
787.557	20063.94
787.891	20190.03
788.224	20129.24
788.557	20097.83
788.89	20008.34
789.223	20024.39
789.556	19938.74
789.888	19865.3
790.221	19785.52
790.554	19492.88
790.887	19660.78
791.219	19525.42
791.552	19383.73
791.884	19339.43
792.217	19252.21
792.549	19151.19
792.882	18977.64
793.214	18866
793.546	18903.29
793.879	18755.72
794.211	18570.87
794.543	18486.12
794.875	18452.9
795.207	18517.08
795.539	18254.27
795.871	18353.92
796.203	18210.2
796.535	18000.94
796.867	17949.87
797.198	17906.7
797.53	17888.17
797.862	17796.88
798.193	17685.24
798.525	17673.94
798.856	17744.45
799.188	17561.18
799.519	17615.64
799.85	17410.45
800.182	17444.34
800.513	17515.75
800.844	17340.39
801.175	17536.77
801.506	17375.42
801.837	17373.16
802.168	17328.87
802.499	17457.68
802.83	17264.24
803.161	17142.2
803.491	17181.53
803.822	17118.02
804.153	17086.61
804.483	16982.89
804.814	17044.81
805.145	17046.61
805.475	17041.87
805.805	16978.59
806.136	16902.21
806.466	16985.15
806.796	16841.2
807.126	16717.36
807.457	16651.14
807.787	16720.97
808.117	16578.6
808.447	16431.94
808.777	16547.19
809.107	16461.32
809.436	16335.45
809.766	16255.9
810.096	16251.83
810.426	16135.68
810.755	16015.45
811.085	15949.24
811.414	15951.28
811.744	15797.83
812.073	15831.96
812.403	15806.42
812.732	15653.66
813.061	15658.63
813.39	15461.57
813.719	15452.08
814.049	15490.27
814.378	15466.77
814.707	15434.23
815.036	15378.64
815.365	15230.39
815.693	15199.66
816.022	15217.96
816.351	15123.05
816.68	15029.04
817.008	15098.64
817.337	15038.98
817.665	15041.47
817.994	15113.78
818.322	15105.42
818.651	14995.37
818.979	14944.07
819.307	15007.8
819.636	15049.38
819.964	14909.95
820.292	15095.93
820.62	15027.46
820.948	14976.84
821.276	15081.92
821.604	14850.97
821.932	15118.53
822.259	14961.02
822.587	15003.96
822.915	14977.29
823.243	15038.53
823.57	15018.64
823.898	14992.43
824.225	15022.49
824.553	14981.36
824.88	14981.58
825.207	14986.1
825.535	14922.6
825.862	14953.79
826.189	14754.24
826.516	14919.89
826.843	14952.21
827.17	14869.5
827.497	14838.99
827.824	14839.21
828.151	14771.65
828.478	14729.16
828.805	14812.1
829.131	14702.27
829.458	14687.81
829.785	14500.69
830.111	14594.25
830.438	14602.38
830.764	14510.18
831.09	14617.75
831.417	14530.97
831.743	14581.14
832.069	14550.63
832.395	14464.99
832.722	14483.29
833.048	14457.76
833.374	14490.97
833.7	14396.51
834.026	14453.24
834.351	14451.2
834.677	14433.12
835.003	14463.86
835.329	14540.01
835.654	14469.73
835.98	14412.78
836.306	14460.02
836.631	14369.62
836.956	14460.69
837.282	14473.35
837.607	14481.03
837.932	14429.51
838.258	14459.34
838.583	14396.97
838.908	14373.46
839.233	14460.47
839.558	14455.72
839.883	14283.75
840.208	14365.1
840.533	14358.77
840.858	14304.77
841.182	14256.86
841.507	14365.33
841.832	14175.05
842.156	14233.13
842.481	14147.26
842.805	14209.4
843.13	14141.61
843.454	14063.87
843.778	13976.86
844.103	13960.37
844.427	13931.67
844.751	13921.72
845.075	13848.73
845.399	13808.96
845.723	13707.27
846.047	13648.96
846.371	13570.1
846.695	13490.78
847.019	13395.18
847.343	13371
847.666	13305.7
847.99	13171.91
848.313	13182.76
848.637	13048.98
848.96	13004.01
849.284	12973.95
849.607	12931.47
849.931	12846.27
850.254	12695.09
850.577	12655.32
850.9	12638.59
851.223	12648.76
851.546	12496.68
851.869	12503.23
852.192	12539.39
852.515	12432.05
852.838	12313.18
853.161	12373.52
853.483	12281.09
853.806	12326.06
854.129	12314.08
854.451	12317.7
854.774	12291.03
855.096	12145.27
855.419	12144.14
855.741	12205.39
856.063	12144.14
856.385	12158.38
856.708	12164.26
857.03	12110.47
857.352	12122.68
857.674	12066.18
857.996	12009.91
858.318	11952.06
858.64	12025.05
858.961	11954.77
859.283	11877.71
859.605	11873.19
859.926	11882.91
860.248	11857.82
860.57	11761.1
860.891	11851.27
861.212	11700.31
861.534	11733.08
861.855	11599.98
862.176	11647.89
862.498	11634.1
862.819	11539.87
863.14	11449.02
863.461	11491.51
863.782	11434.33
864.103	11453.99
864.424	11396.82
864.745	11366.54
865.065	11284.05
865.386	11254.22
865.707	11230.95
866.027	11122.93
866.348	11127.67
866.668	11117.05
866.989	11035.25
867.309	10922.26
867.63	11000.9
867.95	10978.3
868.27	10955.93
868.59	10938.07
868.91	10965.64
869.23	10851.3
869.55	10816.95
869.87	10847.68
870.19	10836.83
870.51	10818.08
870.83	10835.7
871.15	10710.28
871.469	10845.65
871.789	10769.49
872.109	10837.74
872.428	10760.23
872.748	10768.13
873.067	10727.23
873.386	10754.58
873.706	10771.3
874.025	10724.75
874.344	10698.76
874.663	10747.34
874.982	10665.54
875.301	10805.42
875.62	10721.13
875.939	10686.33
876.258	10683.84
876.577	10615.37
876.896	10684.97
877.214	10667.35
877.533	10708.7
877.852	10681.13
878.17	10633.9
878.489	10657.4
878.807	10668.93
879.125	10594.58
879.444	10624.41
879.762	10511.87
880.08	10625.09
880.398	10469.61
880.716	10555.71
881.034	10487.69
881.352	10509.84
881.67	10446.34
881.988	10395.72
882.306	10326.11
882.624	10382.61
882.941	10306.68
883.259	10228.94
883.577	10158.89
883.894	10086.12
884.212	10164.53
884.529	10141.03
884.846	10117.53
885.164	10073.92
885.481	10014.93
885.798	9997.99
886.115	9929.74
886.432	9872.79
886.75	9853.58
887.067	9815.62
887.383	9783.08
887.7	9868.72
888.017	9741.27
888.334	9730.87
888.651	9675.28
888.967	9690.88
889.284	9555.29
889.6	9608.39
889.917	9559.13
890.233	9506.25
890.55	9522.97
890.866	9579.01
891.182	9483.87
891.498	9484.33
891.815	9425.12
892.131	9451.79
892.447	9349.87
892.763	9372.24
893.079	9347.16
893.395	9350.09
893.71	9342.41
894.026	9313.03
894.342	9269.19
894.657	9294.5
894.973	9288.63
895.289	9205.92
895.604	9242.3
895.92	9191
896.235	9214.5
896.55	9163.66
896.865	9174.73
897.181	9089.31
897.496	9087.73
897.811	9138.35
898.126	9093.83
898.441	9078.46
898.756	9055.86
899.071	9014.06
899.386	9046.37
899.7	8873.95
900.015	8841.18
900.33	8809.54
900.644	8850.9
900.959	8806.38
901.273	8799.83
901.588	8728.41
901.902	8713.05
902.216	8706.72
902.531	8645.03
902.845	8546.27
903.159	8597.34
903.473	8406.16
903.787	8488.87
904.101	8387.18
904.415	8379.5
904.729	8336.33
905.042	8214.98
905.356	8229.22
905.67	8168.2
905.984	8207.52
906.297	8164.36
906.611	8048.43
906.924	8018.6
907.237	8060.86
907.551	7937.93
907.864	7895.89
908.177	7878.04
908.491	7837.59
908.804	7851.38
909.117	7783.81
909.43	7709.91
909.743	7699.29
910.056	7715.11
910.368	7629.46
910.681	7589.01
910.994	7583.13
911.307	7528.45
911.619	7469.92
911.932	7506.75
912.244	7441.44
912.557	7454.32
912.869	7436.92
913.181	7397.6
913.494	7330.94
913.806	7320.99
914.118	7266.31
914.43	7277.83
914.742	7298.62
915.054	7257.49
915.366	7194.9
915.678	7193.77
915.99	7202.35
916.302	7155.35
916.613	7149.02
916.925	7138.4
917.236	7058.4
917.548	7071.06
917.859	7090.49
918.171	6987.67
918.482	6955.58
918.794	6968.46
919.105	6993.54
919.416	6979.99
919.727	6965.07
920.038	6930.04
920.349	6869.48
920.66	6893.21
920.971	6863.38
921.282	6791.52
921.593	6664.06
921.903	6711.07
922.214	6749.94
922.525	6641.24
922.835	6692.76
923.146	6550.17
923.456	6595.59
923.767	6589.94
924.077	6543.39
924.387	6523.05
924.697	6411.64
925.008	6421.81
925.318	6405.54
925.628	6368.25
925.938	6314.92
926.248	6244.86
926.558	6233.79
926.867	6204.41
927.177	6163.74
927.487	6128.26
927.796	6103.17
928.106	6072.89
928.416	6040.12
928.725	5998.09
929.034	5960.58
929.344	5962.61
929.653	5963.52
929.962	5870.18
930.271	5846.23
930.581	5848.72
930.89	5781.6
931.199	5733.47
931.508	5789.96
931.817	5724.2
932.125	5693.92
932.434	5679.46
932.743	5630.87
933.051	5578.44
933.36	5603.75
933.669	5581.15
933.977	5585.67
934.286	5536.86
934.594	5501.83
934.902	5468.84
935.21	5457.09
935.519	5441.95
935.827	5450.99
936.135	5414.83
936.443	5370.99
936.751	5337.77
937.059	5374.15
937.367	5321.95
937.674	5334.15
937.982	5319.01
938.29	5303.87
938.597	5284.89
938.905	5234.5
939.213	5256.64
939.52	5217.77
939.827	5229.52
940.135	5192.46
940.442	5174.61
940.749	5141.62
941.056	5154.72
941.363	5116.53
941.67	5124.67
941.977	5089.87
942.284	5063.2
942.591	5074.5
942.898	5032.47
943.205	4984.33
943.511	4982.75
943.818	5001.51
944.125	4981.85
944.431	4931.9
944.738	4943.66
945.044	4925.12
945.35	4841.06
945.657	4874.5
945.963	4869.76
946.269	4824.56
946.575	4780.5
946.881	4791.79
947.187	4700.27
947.493	4713.83
947.799	4690.78
948.105	4660.05
948.41	4643.78
948.716	4575.98
949.022	4559.48
949.327	4585.7
949.633	4488.53
949.938	4476.55
950.244	4518.36
950.549	4388.42
950.854	4423.67
951.16	4443.56
951.465	4381.86
951.77	4366.27
952.075	4293.73
952.38	4310.45
952.685	4317.91
952.99	4258.7
953.294	4229.55
953.599	4212.15
953.904	4219.15
954.209	4179.61
954.513	4152.94
954.818	4163.11
955.122	4128.76
955.426	4101.19
955.731	4054.87
956.035	4088.31
956.339	4044.47
956.643	4072.04
956.948	3999.95
957.252	4063.9
957.556	4017.58
957.86	3969.44
958.163	3978.48
958.467	3922.67
958.771	3957.69
959.075	3959.27
959.378	3915.43
959.682	3887.64
959.985	3860.29
960.289	3878.82
960.592	3858.71
960.896	3837.02
961.199	3832.72
961.502	3816.45
961.805	3748.88
962.108	3779.17
962.411	3781.43
962.714	3766.51
963.017	3775.55
963.32	3759.51
963.623	3720.41
963.926	3755.89
964.228	3708.66
964.531	3681.09
964.833	3716.57
965.136	3622.56
965.438	3645.61
965.741	3632.28
966.043	3641.99
966.345	3625.72
966.648	3590.47
966.95	3600.41
967.252	3579.17
967.554	3510.25
967.856	3541.21
968.158	3551.83
968.46	3491.94
968.761	3490.81
969.063	3506.63
969.365	3480.19
969.666	3440.87
969.968	3378.72
970.269	3379.85
970.571	3413.07
970.872	3415.79
971.174	3325.62
971.475	3373.08
971.776	3267.09
972.077	3286.52
972.378	3287.88
972.679	3280.87
972.98	3292.63
973.281	3269.35
973.582	3226.64
973.883	3223.47
974.183	3167.66
974.484	3163.82
974.785	3127.88
975.085	3079.98
975.386	3124.72
975.686	3113.65
975.986	3109.13
976.287	3067.32
976.587	3075.68
976.887	3024.16
977.187	3045.17
977.487	2983.03
977.787	2990.26
978.087	3006.76
978.387	2986.64
978.687	2949.36
978.987	2929.02
979.286	2897.38
979.586	2915.91
979.885	2909.81
980.185	2908
980.484	2895.8
980.784	2835.69
981.083	2876.82
981.382	2848.57
981.682	2822.58
981.981	2808.34
982.28	2810.6
982.579	2777.16
982.878	2793.2
983.177	2799.53
983.475	2781
983.774	2720.89
984.073	2762.02
984.372	2732.19
984.67	2715.92
984.969	2701.45
985.267	2720.66
985.566	2666.65
985.864	2681.34
986.162	2665.75
986.461	2640.67
986.759	2690.83
987.057	2651.06
987.355	2649.93
987.653	2644.51
987.951	2647.44
988.249	2606.09
988.547	2586.88
988.844	2599.31
989.142	2576.03
989.44	2581.01
989.737	2538.52
990.035	2515.92
990.332	2522.02
990.63	2530.61
990.927	2482.25
991.224	2502.14
991.521	2503.04
991.819	2502.82
992.116	2427.11
992.413	2466.66
992.71	2460.33
993.006	2429.6
993.303	2423.5
993.6	2414.68
993.897	2394.8
994.193	2391.63
994.49	2391.86
994.787	2370.62
995.083	2347.79
995.379	2300.79
995.676	2298.53
995.972	2322.71
996.268	2254.23
996.565	2254.91
996.861	2245.2
997.157	2240.68
997.453	2231.18
997.749	2265.76
998.044	2214.69
998.34	2206.33
998.636	2207.91
998.932	2155.25
999.227	2177.17
999.523	2195.03
999.818	2124.52
1000.114	2116.16
1000.409	2092.66
1000.704	2082.04
1001	2077.97
1001.295	2065.31
1001.59	2060.57
1001.885	2040
1002.18	2039.55
1002.475	2035.03
1002.77	2028.03
1003.065	2008.82
1003.359	2001.13
1003.654	1966.56
1003.949	1966.33
1004.243	1939.67
1004.538	1946.45
1004.832	1945.77
1005.127	1922.27
1005.421	1930.63
1005.715	1920.68
1006.009	1937.86
1006.304	1883.4
1006.598	1882.49
1006.892	1853.34
1007.186	1821.03
1007.48	1856.05
1007.773	1839.78
1008.067	1832.55
1008.361	1828.26
1008.655	1797.52
1008.948	1797.75
1009.242	1783.29
1009.535	1770.41
1009.829	1788.03
1010.122	1773.12
1010.415	1770.86
1010.708	1765.43
1011.001	1713.23
1011.295	1726.79
1011.588	1728.6
1011.881	1703.06
1012.173	1682.95
1012.466	1678.88
1012.759	1683.85
1013.052	1670.75
1013.344	1697.19
1013.637	1678.66
1013.93	1641.37
1014.222	1644.31
1014.514	1630.52
1014.807	1630.07
1015.099	1614.7
1015.391	1605.89
1015.683	1576.29
1015.976	1619
1016.268	1597.08
1016.56	1568.15
1016.851	1564.76
1017.143	1575.61
1017.435	1581.26
1017.727	1531.54
1018.018	1517.98
1018.31	1508.49
1018.602	1520.47
1018.893	1478.89
1019.185	1489.51
1019.476	1470.75
1019.767	1484.09
1020.058	1449.74
1020.35	1444.54
1020.641	1458.1
1020.932	1437.08
1021.223	1462.62
1021.514	1428.49
1021.804	1392.34
1022.095	1421.04
1022.386	1370.64
1022.677	1384.65
1022.967	1368.16
1023.258	1350.08
1023.548	1371.55
1023.839	1350.53
1024.129	1343.07
1024.419	1307.37
1024.709	1321.6
1025	1299.68
1025.29	1301.94
1025.58	1284.99
1025.87	1283.64
1026.16	1265.79
1026.449	1239.35
1026.739	1261.49
1027.029	1225.56
1027.319	1224.43
1027.608	1228.95
1027.898	1210.65
1028.187	1192.34
1028.477	1185.11
1028.766	1182.4
1029.055	1161.16
1029.344	1165.68
1029.634	1183.98
1029.923	1151.66
1030.212	1141.72
1030.501	1113.47
1030.79	1127.26
1031.078	1114.6
1031.367	1109.63
1031.656	1099.69
1031.945	1110.99
1032.233	1093.59
1032.522	1084.32
1032.81	1063.53
1033.099	1087.49
1033.387	1069.86
1033.675	1058.11
1033.963	1042.29
1034.251	1051.78
1034.54	1046.36
1034.828	1033.25
1035.116	1033.48
1035.403	1010.2
1035.691	1027.83
1035.979	1013.14
1036.267	964.55
1036.554	1016.53
1036.842	1003.87
1037.129	985.34
1037.417	958.22
1037.704	953.93
1037.992	969.52
1038.279	944.66
1038.566	958
1038.853	958
1039.14	958
