Data from red_shiny_book_FLMS001491_00056.txt Node
Date: Wed Feb 08 15:25:03 GMT 2017
User: dcchb
Spectrometer: FLMS00149
Trigger mode: 0
Integration Time (sec): 2.000000E-2
Scans to average: 10
Electric dark correction enabled: true
Nonlinearity correction enabled: false
Boxcar width: 0
XAxis mode: Wavelengths
Number of Pixels in Spectrum: 2048
>>>>>Begin Spectral Data<<<<<
341.393	-10.56
341.776	-10.56
342.16	-10.56
342.543	-53.95
342.927	-76.78
343.31	-68.19
343.693	-69.77
344.077	-55.08
344.46	-53.05
344.843	-46.72
345.226	-40.39
345.61	-30.68
345.993	-32.03
346.376	-1.3
346.759	6.16
347.142	37.57
347.525	40.06
347.908	45.93
348.291	67.63
348.674	85.48
349.057	114.4
349.44	137.68
349.823	123.44
350.206	177
350.588	214.29
350.971	228.07
351.354	233.04
351.737	247.73
352.119	258.81
352.502	260.61
352.884	279.82
353.267	290.9
353.65	299.26
354.032	324.57
354.414	322.31
354.797	324.57
355.179	328.18
355.562	332.93
355.944	344.91
356.326	332.03
356.709	343.55
357.091	372.48
357.473	360.27
357.855	359.14
358.238	363.21
358.62	362.98
359.002	365.24
359.384	358.01
359.766	351.01
360.148	363.21
360.53	353.27
360.912	368.63
361.294	351.91
361.676	346.49
362.057	368.41
362.439	340.61
362.821	351.69
363.203	351.01
363.584	359.14
363.966	358.01
364.348	341.06
364.729	334.51
365.111	344
365.493	356.43
365.874	336.32
366.256	335.41
366.637	357.56
367.019	340.16
367.4	334.51
367.781	319.6
368.163	347.17
368.544	347.62
368.925	336.32
369.306	359.14
369.688	339.26
370.069	339.26
370.45	328.18
370.831	350.1
371.212	328.18
371.593	339.48
371.974	339.26
372.355	350.1
372.736	330.67
373.117	341.29
373.498	341.52
373.879	346.04
374.26	338.35
374.641	347.84
375.021	327.73
375.402	329.99
375.783	346.04
376.163	358.24
376.544	365.24
376.925	348.3
377.305	351.01
377.686	348.52
378.066	356.66
378.447	358.47
378.827	349.88
379.208	355.53
379.588	353.49
379.968	372.7
380.349	386.71
380.729	389.65
381.109	377.9
381.489	358.01
381.87	380.84
382.25	379.93
382.63	392.36
383.01	360.95
383.39	365.7
383.77	376.54
384.15	372.25
384.53	383.78
384.91	380.84
385.29	389.88
385.67	383.55
386.049	412.48
386.429	386.94
386.809	374.74
387.189	394.4
387.568	399.59
387.948	391.23
388.328	387.84
388.707	402.53
389.087	407.96
389.466	402.76
389.846	400.05
390.225	400.95
390.605	383.32
390.984	410.67
391.363	405.24
391.743	432.59
392.122	400.72
392.501	431.01
392.881	418.35
393.26	429.42
393.639	439.59
394.018	427.16
394.397	439.14
394.776	405.92
395.155	430.78
395.534	441.4
395.913	456.32
396.292	421.29
396.671	452.02
397.05	449.31
397.429	468.07
397.808	442.3
398.186	450.67
398.565	437.56
398.944	445.92
399.323	446.6
399.701	454.28
400.08	454.96
400.458	458.12
400.837	448.63
401.215	474.17
401.594	465.58
401.972	488.41
402.351	461.06
402.729	458.8
403.107	483.21
403.486	479.82
403.864	483.89
404.242	504.45
404.62	506.94
404.999	499.03
405.377	499.03
405.755	495.41
406.133	475.98
406.511	509.65
406.889	520.72
407.267	521.85
407.645	532.25
408.023	534.05
408.401	526.37
408.779	532.47
409.156	535.64
409.534	550.1
409.912	549.65
410.29	538.57
410.667	536.31
411.045	568.86
411.422	582.19
411.8	567.73
412.178	588.06
412.555	581.51
412.933	588.29
413.31	601.17
413.687	605.92
414.065	586.71
414.442	581.51
414.819	594.39
415.197	637.55
415.574	621.06
415.951	621.74
416.328	640.49
416.705	661.06
417.082	642.75
417.46	667.61
417.837	636.88
418.214	643.43
418.591	650.89
418.967	673.03
419.344	661.73
419.721	669.42
420.098	696.08
420.475	717.33
420.852	685.69
421.228	683.88
421.605	678.68
421.982	690.43
422.358	730.43
422.735	720.49
423.111	711.9
423.488	725.91
423.864	759.36
424.241	743.99
424.617	758.45
424.994	766.59
425.37	746.25
425.746	752.35
426.123	761.62
426.499	750.32
426.875	744.22
427.251	787.61
427.627	776.53
428.003	798.91
428.379	812.92
428.756	839.13
429.132	867.6
429.507	840.03
429.883	837.55
430.259	841.62
430.635	820.15
431.011	813.14
431.387	854.27
431.763	849.53
432.138	870.77
432.514	915.06
432.89	898.79
433.265	936.3
433.641	948.51
434.016	937.88
434.392	921.84
434.767	946.25
435.143	932.69
435.518	917.55
435.894	936.3
436.269	940.37
436.644	987.83
437.02	983.53
437.395	1022.63
437.77	1033.48
438.145	1032.35
438.52	1085.68
438.895	1039.35
439.271	1025.34
439.646	1020.37
440.021	1012.69
440.395	1034.61
440.77	998
441.145	1050.65
441.52	1071.44
441.895	1075.51
442.27	1108.73
442.645	1122.51
443.019	1120.7
443.394	1101.95
443.769	1120.48
444.143	1082.74
444.518	1085.45
444.892	1092.01
445.267	1083.42
445.641	1104.89
446.016	1116.64
446.39	1167.26
446.764	1186.92
447.139	1183.53
447.513	1205.45
447.887	1191.44
448.262	1158.67
448.636	1138.11
449.01	1147.14
449.384	1140.59
449.758	1132.23
450.132	1143.08
450.506	1167.94
450.88	1207.93
451.254	1214.71
451.628	1258.55
452.002	1256.52
452.376	1296.97
452.75	1267.82
453.123	1244.09
453.497	1244.77
453.871	1231.44
454.244	1229.85
454.618	1243.41
454.992	1240.7
455.365	1250.87
455.739	1302.62
456.112	1354.37
456.486	1363.86
456.859	1384.2
457.232	1425.33
457.606	1421.26
457.979	1389.62
458.352	1368.83
458.725	1355.95
459.099	1340.13
459.472	1396.63
459.845	1378.55
460.218	1394.37
460.591	1411.77
460.964	1432.79
461.337	1504.2
461.71	1546.68
462.083	1539.45
462.456	1543.07
462.829	1544.65
463.201	1533.12
463.574	1501.03
463.947	1506.68
464.32	1516.4
464.692	1505.33
465.065	1495.16
465.438	1550.98
465.81	1588.04
466.183	1631.88
466.555	1674.81
466.928	1706.23
467.3	1715.72
467.672	1756.85
468.045	1772.89
468.417	1731.76
468.789	1715.72
469.161	1662.16
469.534	1674.36
469.906	1679.11
470.278	1725.89
470.65	1758.43
471.022	1815.6
471.394	1877.3
471.766	1867.8
472.138	1951.87
472.51	2019.21
472.882	2050.62
473.253	2058.76
473.625	2022.15
473.997	2062.15
474.369	1988.7
474.74	1989.83
475.112	1968.37
475.484	1992.77
475.855	2026.22
476.227	2073.22
476.598	2152.77
476.97	2225.31
477.341	2290.84
477.713	2376.27
478.084	2364.06
478.455	2454
478.827	2440.44
479.198	2469.37
479.569	2418.75
479.94	2415.59
480.311	2416.26
480.682	2428.69
481.053	2488.58
481.424	2509.82
481.795	2550.5
482.166	2601.57
482.537	2736.03
482.908	2865.97
483.279	2901.22
483.65	2992.29
484.021	3072.52
484.391	3109.81
484.762	3046.08
485.133	2969.47
485.503	2955.91
485.874	2954.56
486.244	2954.33
486.615	2980.54
486.985	3026.19
487.356	3121.56
487.726	3195.68
488.097	3369.69
488.467	3414.2
488.837	3532.39
489.207	3638.38
489.578	3714.54
489.948	3717.02
490.318	3674.76
490.688	3658.72
491.058	3587.08
491.428	3532.84
491.798	3521.55
492.168	3586.63
492.538	3600.87
492.908	3656.68
493.278	3727.64
493.648	3858.03
494.017	3967.86
494.387	4120.63
494.757	4216.89
495.126	4317.68
495.496	4295.76
495.866	4328.3
496.235	4280.4
496.605	4304.12
496.974	4185.94
497.344	4124.69
497.713	4070.46
498.082	4065.49
498.452	4116.56
498.821	4111.13
499.19	4164.92
499.559	4311.58
499.928	4440.62
500.298	4589.09
500.667	4726.71
501.036	4726.03
501.405	4788.41
501.774	4794.28
502.143	4751.57
502.512	4695.07
502.88	4616.21
503.249	4528.07
503.618	4459.6
503.987	4416.66
504.356	4436.55
504.724	4460.96
505.093	4484.23
505.462	4578.92
505.83	4731.46
506.199	4886.71
506.567	5008.06
506.936	5109.3
507.304	5189.75
507.672	5261.39
508.041	5245.34
508.409	5159.24
508.777	5081.96
509.145	4999.7
509.514	4877.44
509.882	4828.86
510.25	4744.79
510.618	4722.19
510.986	4765.35
511.354	4846.03
511.722	4988.63
512.09	5136.19
512.458	5224.33
512.826	5352.46
513.193	5459.8
513.561	5588.38
513.929	5565.11
514.297	5636.07
514.664	5570.08
515.032	5516.52
515.4	5437.2
515.767	5287.6
516.135	5198.79
516.502	5029.98
516.869	5057.32
517.237	5055.74
517.604	5070.66
517.972	5221.39
518.339	5342.51
518.706	5510.87
519.073	5641.04
519.44	5871.31
519.808	5938.88
520.175	6011.2
520.542	6036.28
520.909	6035.38
521.276	5990.18
521.643	5905.89
522.009	5813.24
522.376	5724.43
522.743	5616.63
523.11	5546.58
523.477	5509.74
523.843	5496.18
524.21	5591.55
524.577	5699.12
524.943	5871.54
525.31	6078.99
525.676	6249.61
526.043	6422.71
526.409	6627.23
526.776	6701.12
527.142	6803.49
527.508	6764.4
527.874	6784.74
528.241	6641.92
528.607	6519.89
528.973	6357.86
529.339	6286.44
529.705	6219.1
530.071	6198.76
530.437	6120.8
530.803	6170.52
531.169	6321.47
531.535	6386.56
531.901	6542.71
532.267	6803.04
532.632	7013.43
532.998	7226.53
533.364	7372.52
533.73	7445.51
534.095	7608.44
534.461	7596.01
534.826	7622.68
535.192	7451.16
535.557	7317.38
535.923	7082.58
536.288	7082.81
536.653	6907.67
537.019	6822.02
537.384	6768.24
537.749	6851.85
538.114	6930.72
538.479	7048.01
538.845	7260.43
539.21	7421.33
539.575	7659.29
539.94	7928.89
540.305	8106.06
540.67	8234.64
541.034	8280.29
541.399	8337.69
541.764	8334.07
542.129	8247.75
542.494	8149.45
542.858	7986.51
543.223	7828.78
543.587	7661.78
543.952	7554.89
544.316	7501.1
544.681	7465.17
545.045	7436.7
545.41	7608.22
545.774	7778.84
546.138	7939.73
546.503	8177.24
546.867	8326.84
547.231	8691.35
547.595	8810.22
547.959	8885.92
548.324	8990.78
548.688	8993.49
549.052	8958.47
549.416	8855.42
549.779	8729.09
550.143	8537.91
550.507	8496.1
550.871	8217.02
551.235	8142.89
551.599	7892.05
551.962	7937.7
552.326	7930.92
552.689	7997.81
553.053	8060.41
553.417	8237.81
553.78	8539.27
554.143	8776.1
554.507	9042.3
554.87	9263.54
555.234	9398.91
555.597	9455.18
555.96	9401.62
556.323	9484.1
556.686	9375.63
557.05	9340.83
557.413	9194.39
557.776	9011.12
558.139	8818.36
558.502	8679.83
558.865	8491.81
559.228	8413.62
559.59	8355.99
559.953	8395.54
560.316	8515.76
560.679	8648.19
561.041	8846.83
561.404	9087.05
561.767	9315.74
562.129	9499.47
562.492	9838.22
562.854	9966.35
563.217	10069.17
563.579	10184.65
563.941	10195.49
564.304	10160.69
564.666	10103.52
565.028	9891.32
565.39	9692.23
565.753	9603.42
566.115	9456.31
566.477	9198.91
566.839	9048.18
567.201	9003.21
567.563	8987.39
567.925	9066.26
568.287	9215.86
568.648	9404.1
569.01	9598.9
569.372	9890.64
569.734	10065.55
570.095	10354.81
570.457	10559.1
570.819	10822.37
571.18	10952.08
571.542	11035.25
571.903	11002.03
572.265	10958.86
572.626	10958.41
572.987	10784.18
573.349	10584.18
573.71	10419.22
574.071	10233.91
574.432	10094.25
574.794	10022.39
575.155	9895.39
575.516	9934.03
575.877	9993.69
576.238	10139
576.599	10414.92
576.96	10694.92
577.32	10974.01
577.681	11309.14
578.042	11703.25
578.403	12017.14
578.763	12357.7
579.124	12701.64
579.485	12905.93
579.845	13074.97
580.206	13123.55
580.566	13095.08
580.927	13199.03
581.287	13208.97
581.648	13152.93
582.008	13264.79
582.368	13168.3
582.728	13260.95
583.089	13270.44
583.449	13498.46
583.809	13781.84
584.169	14116.52
584.529	14436.51
584.889	15042.82
585.249	15432.87
585.609	15996.92
585.969	16757.81
586.329	17354.85
586.688	18101.5
587.048	18736.96
587.408	19296.72
587.768	19852.87
588.127	20321.33
588.487	20761.09
588.846	21213.96
589.206	21501.19
589.565	21844.68
589.925	22155.41
590.284	22304.33
590.643	22647.37
591.003	22916.97
591.362	23348.6
591.721	23639.66
592.08	24068.35
592.44	24597.83
592.799	25214.08
593.158	25927.06
593.517	26507.83
593.876	27216.97
594.235	27972.65
594.593	28750.94
594.952	29684.47
595.311	30325.13
595.67	31234.26
596.029	31948.14
596.387	32601.46
596.746	33386.75
597.104	33514.66
597.463	34022.66
597.822	34669.65
598.18	34830.55
598.538	35159.58
598.897	35493.13
599.255	35526.81
599.613	36409.04
599.972	36349.84
600.33	36806.09
600.688	37040.89
601.046	37580.09
601.404	38102.33
601.762	38531.92
602.12	39163.55
602.478	39794.49
602.836	40395.38
603.194	40883.28
603.552	41547.89
603.91	41941.1
604.268	42883
604.625	43332.25
604.983	43879.81
605.341	44129.07
605.698	44953.45
606.056	45244.06
606.413	45285.19
606.771	45602.25
607.128	45854.22
607.485	45908
607.843	46015.12
608.2	46332.4
608.557	46466.41
608.914	46232.29
609.272	46720.41
609.629	46812.61
609.986	47144.58
610.343	47213.05
610.7	47702.08
611.057	47847.16
611.414	48086.02
611.771	48493.92
612.127	48932.56
612.484	49279.44
612.841	49674.68
613.198	49932.98
613.554	50099.3
613.911	50631.04
614.267	50845.5
614.624	51067.19
614.98	51142.44
615.337	51439.83
615.693	51418.82
616.05	51457.91
616.406	51738.81
616.762	51458.59
617.118	51430.12
617.475	51589.89
617.831	51403
618.187	51433.05
618.543	51404.13
618.899	51557.12
619.255	51443.22
619.611	51445.26
619.967	51699.04
620.323	51861.74
620.678	51912.82
621.034	52020.38
621.39	52307.61
621.746	52302.64
622.101	52881.15
622.457	52804.09
622.812	52987.59
623.168	53214.7
623.523	53386.9
623.879	53538.31
624.234	53418.76
624.589	53599.33
624.945	53604.07
625.3	53665.99
625.655	53535.15
626.01	53585.09
626.365	53508.48
626.72	53368.82
627.075	53293.57
627.43	53235.94
627.785	53056.06
628.14	53056.97
628.495	52981.71
628.85	52883.86
629.205	52803.64
629.559	53126.8
629.914	52909.85
630.269	53052.67
630.623	53074.37
630.978	53210.18
631.332	53381.25
631.687	53528.14
632.041	53569.72
632.396	53740.34
632.75	53713.9
633.104	53880.45
633.459	53821.24
633.813	53973.55
634.167	53966.55
634.521	54037.73
634.875	54058.07
635.229	53879.54
635.583	53634.58
635.937	53599.1
636.291	53437.75
636.645	53368.37
636.999	53218.09
637.352	53224.19
637.706	52884.99
638.06	52912.34
638.413	52808.39
638.767	52592.57
639.121	52679.58
639.474	52453.59
639.828	52566.36
640.181	52668.95
640.534	52731.1
640.888	52741.72
641.241	52708.05
641.594	52853.36
641.947	53141.26
642.301	53065.1
642.654	53232.78
643.007	53334.7
643.36	53390.07
643.713	53384.87
644.066	53613.11
644.419	53307.36
644.771	53211.09
645.124	52828.95
645.477	52680.71
645.83	52461.5
646.182	52261.96
646.535	52133.15
646.888	52049.99
647.24	51826.26
647.593	51793.27
647.945	51647.96
648.298	51327.75
648.65	51235.55
649.002	51104.25
649.355	51242.55
649.707	51032.61
650.059	51190.8
650.411	51573.39
650.763	51637.34
651.115	52121.85
651.467	52036.2
651.819	52235.29
652.171	52234.39
652.523	52286.14
652.875	52376.31
653.227	52256.76
653.578	52589.41
653.93	52660.37
654.282	52616.53
654.633	52531.56
654.985	52649.29
655.337	52523.65
655.688	52574.49
656.039	52614.49
656.391	52218.12
656.742	52224.9
657.094	52199.81
657.445	52190.55
657.796	51838.24
658.147	51786.04
658.498	51592.15
658.849	51520.28
659.2	51516.67
659.551	51252.72
659.902	51431.25
660.253	51368.88
660.604	51325.49
660.955	51243
661.306	51447.07
661.656	51302.21
662.007	51591.69
662.358	51636.89
662.708	51721.18
663.059	51753.27
663.409	51692.03
663.76	52026.03
664.11	52095.64
664.461	52240.49
664.811	52252.69
665.161	52245.24
665.511	52185.35
665.862	52242.75
666.212	52238.91
666.562	52239.59
666.912	52100.61
667.262	51991.68
667.612	51745.36
667.962	51724.12
668.312	51596.67
668.662	51580.62
669.011	51328.2
669.361	51213.17
669.711	51022.44
670.06	50918.72
670.41	50868.55
670.76	50699.74
671.109	50736.12
671.459	50690.25
671.808	50711.04
672.157	50914.88
672.507	50711.94
672.856	50704.49
673.205	50902.9
673.554	51031.26
673.904	51081.43
674.253	51456.56
674.602	51351.02
674.951	50970.24
675.3	50896.35
675.649	51592.6
675.998	51527.52
676.346	51622.2
676.695	51788.75
677.044	51356.45
677.393	51483.22
677.741	51565.48
678.09	51385.37
678.438	51208.88
678.787	51194.42
679.135	51047.3
679.484	50794.43
679.832	50787.42
680.181	50420.65
680.529	50385.17
680.877	50113.99
681.225	50014.11
681.573	50271.5
681.922	49816.37
682.27	49647.11
682.618	49737.28
682.966	49588.36
683.314	49744.74
683.661	49678.52
684.009	49623.38
684.357	49651.41
684.705	49724.85
685.053	49752.42
685.4	49810.95
685.748	49925.75
686.095	49980.44
686.443	49968.23
686.79	49930.27
687.138	50152.64
687.485	50166.42
687.832	50073.32
688.18	50179.08
688.527	49987.22
688.874	49979.76
689.221	49882.59
689.568	49655.7
689.915	49543.84
690.262	49456.61
690.609	49300.91
690.956	48994.25
691.303	48875.38
691.65	48423.19
691.997	48539.8
692.344	48122.63
692.69	47990.66
693.037	47833.15
693.383	47437.91
693.73	47509.32
694.077	47220.28
694.423	47211.24
694.769	47042.66
695.116	46980.52
695.462	46950.23
695.808	46960.63
696.155	47237.23
696.501	46886.28
696.847	47124.02
697.193	47006.28
697.539	47205.59
697.885	46985.04
698.231	47059.38
698.577	47078.37
698.923	47105.03
699.269	47039.05
699.614	46932.16
699.96	46986.39
700.306	47027.29
700.651	46759.96
700.997	46642.22
701.342	46560.87
701.688	46505.73
702.033	46198.16
702.379	46016.02
702.724	45893.09
703.069	45801.79
703.415	45127.91
703.76	45139.43
704.105	45033.9
704.45	44750.97
704.795	44426.68
705.14	44196.86
705.485	44099.69
705.83	43712.81
706.175	43804.55
706.52	43644.56
706.865	43528.63
707.209	43557.78
707.554	43401.85
707.899	43528.18
708.243	43376.77
708.588	43482.3
708.932	43240.28
709.277	43353.49
709.621	43576.31
709.966	43511.23
710.31	43653.6
710.654	43387.16
710.998	43656.08
711.342	43709.64
711.687	43629.87
712.031	43582.87
712.375	43476.65
712.719	43361.4
713.063	43444.56
713.407	43435.75
713.75	43235.3
714.094	43183.78
714.438	42960.73
714.782	42910.34
715.125	42621.08
715.469	42587.64
715.812	42143.13
716.156	41881.22
716.499	41862.23
716.843	41575.91
717.186	41398.52
717.53	41371.17
717.873	41277.84
718.216	41068.36
718.559	40937.29
718.902	40571.87
719.246	40640.12
719.589	40436.28
719.932	40255.27
720.275	40341.82
720.617	40452.55
720.96	40519.22
721.303	40343.18
721.646	40562.38
721.989	40474.7
722.331	40937.96
722.674	40757.63
723.016	40818.42
723.359	40737.52
723.701	40784.29
724.044	40697.97
724.386	40702.94
724.729	41022.93
725.071	40802.6
725.413	40741.13
725.755	40709.49
726.097	40635.6
726.439	40458.88
726.782	40352.89
727.124	40478.09
727.465	40135.95
727.807	39938.22
728.149	39879.01
728.491	39654.83
728.833	39562.63
729.175	39328.97
729.516	39095.53
729.858	38921.74
730.199	38891.46
730.541	38703.22
730.882	38367.41
731.224	38533.05
731.565	38170.35
731.906	38271.59
732.248	38247.86
732.589	38133.74
732.93	38045.61
733.271	37968.78
733.612	38073.63
733.953	38186.17
734.294	37941.43
734.635	37925.39
734.976	38195.21
735.317	38247.19
735.658	38111.14
735.999	38337.58
736.339	38324.25
736.68	38549.78
737.021	38361.08
737.361	38330.57
737.702	38555.2
738.042	38496.45
738.383	38555.43
738.723	38694.86
739.063	38509.55
739.404	38550.68
739.744	38344.13
740.084	38194.53
740.424	38241.99
740.764	38168.09
741.104	38049
741.444	37780.53
741.784	37577.83
742.124	37498.51
742.464	37464.61
742.804	37126.31
743.143	36979.2
743.483	36980.1
743.823	36560.9
744.162	36527.91
744.502	36550.28
744.841	36300.8
745.181	36300.34
745.52	36047.92
745.86	36150.07
746.199	35976.74
746.538	35889.06
746.877	36042.95
747.216	36092.44
747.556	36060.8
747.895	35988.94
748.234	35927.25
748.573	35896.29
748.911	36097.86
749.25	36155.72
749.589	36010.64
749.928	36123.17
750.267	36270.97
750.605	36238.43
750.944	36174.25
751.283	36262.38
751.621	36208.82
751.96	36070.29
752.298	36087.24
752.636	36103.97
752.975	36007.25
753.313	35783.97
753.651	35903.97
753.989	35607.26
754.327	35635.5
754.666	35508.5
755.004	35424.44
755.342	35188.28
755.679	35186.93
756.017	34797.11
756.355	34809.31
756.693	34543.78
757.031	34584.68
757.368	34120.97
757.706	34067.18
758.044	33820.41
758.381	33843.46
758.719	33631.94
759.056	33607.76
759.394	33386.07
759.731	33238.05
760.068	33097.72
760.405	32962.35
760.743	32885.75
761.08	32955.57
761.417	32831.96
761.754	32824.96
762.091	32753.77
762.428	32650.05
762.765	32680.33
763.102	32784.28
763.438	32730.27
763.775	32585.41
764.112	32831.06
764.449	32852.3
764.785	32755.58
765.122	32834.9
765.458	32600.56
765.795	32629.03
766.131	32522.82
766.467	32637.39
766.804	32402.14
767.14	32483.27
767.476	32368.02
767.812	32193.11
768.148	32226.55
768.485	31931.87
768.821	31803.06
769.157	31749.73
769.492	31588.38
769.828	31521.94
770.164	31081.05
770.5	30960.15
770.836	30818.23
771.171	30530.1
771.507	30491.01
771.842	30099.38
772.178	30096.44
772.513	29949.55
772.849	29734.19
773.184	29599.5
773.519	29458.26
773.855	29148.67
774.19	29078.39
774.525	29022.12
774.86	28968.11
775.195	28845.85
775.53	28814.44
775.865	28693.77
776.2	28532.87
776.535	28264.4
776.87	28330.84
777.205	28244.96
777.539	28250.16
777.874	28321.8
778.209	28120.67
778.543	28231.4
778.878	28007.68
779.212	28105.08
779.547	28089.71
779.881	28196.6
780.215	28080.9
780.55	28170.16
780.884	27999.55
781.218	27965.42
781.552	28055.14
781.886	27887.01
782.22	27805.43
782.554	27598.88
782.888	27430.3
783.222	27303.52
783.556	27216.97
783.889	27176.07
784.223	26917.09
784.557	26856.53
784.89	26814.27
785.224	26586.7
785.557	26353.94
785.891	26299.48
786.224	26066.49
786.558	25972.71
786.891	25708.76
787.224	25623.11
787.557	25395.09
787.891	25378.15
788.224	25309.9
788.557	25114.88
788.89	25011.83
789.223	24864.26
789.556	24708.33
789.888	24662.91
790.221	24516.47
790.554	24358.29
790.887	24331.85
791.219	24365.07
791.552	24452.97
791.884	24119.65
792.217	24135.92
792.549	24180.44
792.882	24017.73
793.214	23985.19
793.546	23969.37
793.879	23988.58
794.211	23916.94
794.543	23976.15
794.875	23774.12
795.207	23947.9
795.539	23762.82
795.871	23940.44
796.203	23789.26
796.535	23615.03
796.867	23777.51
797.198	23641.69
797.53	23687.12
797.862	23490.06
798.193	23761.69
798.525	23464.98
798.856	23426.79
799.188	23246.9
799.519	23142.27
799.85	23023.86
800.182	22981.15
800.513	22812.56
800.844	22674.49
801.175	22681.95
801.506	22603.08
801.837	22443.08
802.168	22363.76
802.499	22150.89
802.83	21944.11
803.161	21767.39
803.491	21766.49
803.822	21863.66
804.153	21610.79
804.483	21454.86
804.814	21280.4
805.145	21201.08
805.475	21190.01
805.805	21058.94
806.136	21041.99
806.466	20994.08
806.796	20987.3
807.126	20843.35
807.457	20901.88
807.787	20754.31
808.117	20808.77
808.447	20720.64
808.777	20841.09
809.107	20773.97
809.436	20693.52
809.766	20789.57
810.096	20685.39
810.426	20678.83
810.755	20779.62
811.085	20758.15
811.414	20713.64
811.744	20640.87
812.073	20593.87
812.403	20649.01
812.732	20676.35
813.061	20585.96
813.39	20576.01
813.719	20421.67
814.049	20589.8
814.378	20601.55
814.707	20469.8
815.036	20392.29
815.365	20307.32
815.693	20165.18
816.022	20139.87
816.351	19965.41
816.68	19894.9
817.008	19954.56
817.337	19601.57
817.665	19636.15
817.994	19609.26
818.322	19559.54
818.651	19378.3
818.979	19229.16
819.307	19165.2
819.636	19080.01
819.964	18931.08
820.292	18917.53
820.62	18953.23
820.948	18870.52
821.276	18918.88
821.604	18746.23
821.932	18721.82
822.259	18666.91
822.587	18730.64
822.915	18606.8
823.243	18684.31
823.57	18649.96
823.898	18693.58
824.225	18615.39
824.553	18697.64
824.88	18752.11
825.207	18744.65
825.535	18688.6
825.862	18832.1
826.189	18869.84
826.516	18952.78
826.843	18983.29
827.17	19071.65
827.497	19143.73
827.824	19073.45
828.151	19214.24
828.478	19130.63
828.805	19283.39
829.131	19114.81
829.458	19256.05
829.785	19171.98
830.111	19303.5
830.438	19412.88
830.764	19358.64
831.09	19243.17
831.417	19160.68
831.743	19285.88
832.069	19255.14
832.395	19208.82
832.722	19244.07
833.048	19101.25
833.374	19200.68
833.7	19085.66
834.026	19178.76
834.351	18940.12
834.677	18938.32
835.003	18858.32
835.329	18880.92
835.654	18757.76
835.98	18535.61
836.306	18530.87
836.631	18510.76
836.956	18483.64
837.282	18332.23
837.607	18310.31
837.932	18125.91
838.258	18223.31
838.583	18087.49
838.908	17925.23
839.233	17969.3
839.558	18014.05
839.883	17931.79
840.208	17795.29
840.533	17788.74
840.858	17711.23
841.182	17734.73
841.507	17817.44
841.832	17757.56
842.156	17798.23
842.481	17782.41
842.805	17774.05
843.13	17740.83
843.454	17745.13
843.778	17693.6
844.103	17818.12
844.427	17798.01
844.751	17818.35
845.075	17802.07
845.399	17682.08
845.723	17781.96
846.047	17757.56
846.371	17648.63
846.695	17732.92
847.019	17561.18
847.343	17545.13
847.666	17518.69
847.99	17459.26
848.313	17395.08
848.637	17385.36
848.96	17372.71
849.284	17240.73
849.607	17108.31
849.931	17041.87
850.254	16942.21
850.577	16818.6
850.9	16726.62
851.223	16661.99
851.546	16552.16
851.869	16479.4
852.192	16463.8
852.515	16234.66
852.838	16105.85
853.161	16075.11
853.483	16014.78
853.806	15908.79
854.129	15917.38
854.451	15796.48
854.774	15706.08
855.096	15591.06
855.419	15506.77
855.741	15403.72
856.063	15281.46
856.385	15167.12
856.708	15197.17
857.03	15148.81
857.352	15143.16
857.674	15071.98
857.996	14966.89
858.318	14989.72
858.64	14894.13
858.961	14760.57
859.283	14760.35
859.605	14744.53
859.926	14735.04
860.248	14699.11
860.57	14713.34
860.891	14761.93
861.212	14656.62
861.534	14673.79
861.855	14695.26
862.176	14675.15
862.498	14693.68
862.819	14731.65
863.14	14661.59
863.461	14672.67
863.782	14630.41
864.103	14780.68
864.424	14618.66
864.745	14761.48
865.065	14584.08
865.386	14616.17
865.707	14619.33
866.027	14655.94
866.348	14622.95
866.668	14559.9
866.989	14545.21
867.309	14499.11
867.63	14681.93
867.95	14595.38
868.27	14511.99
868.59	14492.78
868.91	14424.99
869.23	14476.74
869.55	14265.22
869.87	14425.89
870.19	14315.84
870.51	14332.79
870.83	14341.15
871.15	14121.72
871.469	14130.76
871.789	14134.15
872.109	14018.9
872.428	13956.3
872.748	13903.87
873.067	13914.04
873.386	13864.78
873.706	13725.35
874.025	13743.65
874.344	13633.37
874.663	13702.52
874.982	13548.4
875.301	13601.96
875.62	13442.41
875.939	13370.78
876.258	13428.63
876.577	13362.87
876.896	13223.44
877.214	13175.08
877.533	13299.14
877.852	13248.07
878.17	13276.54
878.489	13274.06
878.807	13324.68
879.125	13264.34
879.444	13258.69
879.762	13268.86
880.08	13284
880.398	13178.02
880.716	13190.44
881.034	13204.91
881.352	13242.42
881.67	13146.38
881.988	13275.41
882.306	13206.94
882.624	13226.38
882.941	13205.81
883.259	13205.13
883.577	13184.12
883.894	13144.34
884.212	13079.71
884.529	13119.49
884.846	13147.28
885.164	13117.45
885.481	12972.82
885.798	13169.88
886.115	12982.54
886.432	13079.71
886.75	13044.69
887.067	13003.56
887.383	12927.63
887.7	12955.65
888.017	12919.72
888.334	12882.43
888.651	12852.6
888.967	12781.87
889.284	12705.26
889.6	12609.22
889.917	12613.74
890.233	12616
890.55	12458.94
890.866	12407.19
891.182	12404.7
891.498	12251.71
891.815	12208.55
892.131	12168.32
892.447	12148.44
892.763	12046.07
893.079	12006.52
893.395	12023.24
893.71	11827.32
894.026	11756.13
894.342	11755.68
894.657	11670.94
894.973	11634.55
895.289	11656.02
895.604	11603.14
895.92	11468.46
896.235	11496.93
896.55	11461.9
896.865	11388.01
897.181	11357.5
897.496	11384.62
897.811	11309.82
898.126	11278.4
898.441	11284.28
898.756	11215.58
899.071	11126.77
899.386	11149.14
899.7	11029.37
900.015	11049.48
900.33	11038.18
900.644	11044.96
900.959	11025.08
901.273	10997.06
901.588	11080.22
901.902	10989.82
902.216	10985.08
902.531	10918.41
902.845	10952.08
903.159	10814.01
903.473	10822.37
903.787	10814.46
904.101	10794.35
904.415	10738.08
904.729	10770.17
905.042	10679.78
905.356	10680.68
905.67	10729.72
905.984	10680
906.297	10635.48
906.611	10560
906.924	10605.65
907.237	10504.19
907.551	10432.32
907.864	10490.85
908.177	10498.54
908.491	10396.85
908.804	10319.56
909.117	10251.99
909.43	10175.83
909.743	10127.25
910.056	10161.6
910.368	10024.65
910.681	10029.62
910.994	9920.7
911.307	9889.51
911.619	9816.07
911.932	9770.2
912.244	9652.46
912.557	9651.78
912.869	9615.62
913.181	9508.73
913.494	9462.41
913.806	9368.85
914.118	9324.56
914.43	9304.22
914.742	9254.28
915.054	9159.14
915.366	9162.75
915.678	9012.02
915.99	9037.56
916.302	8946.94
916.613	8890.22
916.925	8937.9
917.236	8862.2
917.548	8801.86
917.859	8801.86
918.171	8726.83
918.482	8691.35
918.794	8678.02
919.105	8671.92
919.416	8651.13
919.727	8629.21
920.038	8624.69
920.349	8545.59
920.66	8499.49
920.971	8520.51
921.282	8482.77
921.593	8426.95
921.903	8391.47
922.214	8443.9
922.525	8395.54
922.835	8360.74
923.146	8291.82
923.456	8336.11
923.767	8278.71
924.077	8344.7
924.387	8263.79
924.697	8182.21
925.008	8272.38
925.318	8211.82
925.628	8230.57
925.938	8153.51
926.248	8094.98
926.558	8072.39
926.867	8079.84
927.177	8003.91
927.487	8055.21
927.796	7954.65
928.106	7942.22
928.416	7831.26
928.725	7907.65
929.034	7821.09
929.344	7848.89
929.653	7769.57
929.962	7724.15
930.271	7656.8
930.581	7650.48
930.89	7549.46
931.199	7564.38
931.508	7561.44
931.817	7459.52
932.125	7414.78
932.434	7421.56
932.743	7379.07
933.051	7310.6
933.36	7247.55
933.669	7202.35
933.977	7188.12
934.286	7114.22
934.594	7100.66
934.902	7029.48
935.21	6981.12
935.519	6947.44
935.827	6881.91
936.135	6840.33
936.443	6782.25
936.751	6715.81
937.059	6728.24
937.367	6662.93
937.674	6657.06
937.982	6607.79
938.29	6614.8
938.597	6552.43
938.905	6482.37
939.213	6475.82
939.52	6448.02
939.827	6461.81
940.135	6464.75
940.442	6396.5
940.749	6429.94
941.056	6354.01
941.363	6314.24
941.67	6296.16
941.977	6330.29
942.284	6245.99
942.591	6256.16
942.898	6255.71
943.205	6245.32
943.511	6235.82
943.818	6201.7
944.125	6152.89
944.431	6190.85
944.738	6116.96
945.044	6167.58
945.35	6125.55
945.657	6129.16
945.963	6055.49
946.269	6030.86
946.575	6129.61
946.881	6045.1
947.187	5997.86
947.493	5984.53
947.799	6011.88
948.105	5995.15
948.41	5955.38
948.716	5868.83
949.022	5834.71
949.327	5847.13
949.633	5801.26
949.938	5775.27
950.244	5784.99
950.549	5725.1
950.854	5722.84
951.16	5726.46
951.465	5643.3
951.77	5694.82
952.075	5686.23
952.38	5574.83
952.685	5639
952.99	5554.26
953.294	5506.13
953.599	5521.04
953.904	5464.09
954.209	5370.99
954.513	5396.98
954.818	5381.84
955.122	5356.75
955.426	5338.67
955.731	5256.64
956.035	5280.82
956.339	5185.46
956.643	5166.93
956.948	5123.09
957.252	5146.59
957.556	5110.2
957.86	5072.01
958.163	5013.48
958.467	4974.16
958.771	4978.68
959.075	4921.06
959.378	4878.57
959.682	4867.05
959.985	4865.24
960.289	4819.59
960.592	4781.4
960.896	4797.44
961.199	4737.11
961.502	4730.1
961.805	4712.7
962.108	4672.7
962.411	4643.78
962.714	4679.03
963.017	4675.87
963.32	4636.77
963.623	4609.88
963.926	4624.79
964.228	4541.41
964.531	4555.19
964.833	4598.35
965.136	4490.56
965.438	4517.9
965.741	4488.07
966.043	4473.16
966.345	4485.59
966.648	4450.11
966.95	4457.34
967.252	4407.17
967.554	4415.99
967.856	4408.53
968.158	4367.85
968.46	4361.07
968.761	4333.95
969.063	4345.48
969.365	4319.04
969.666	4284.01
969.968	4287.4
970.269	4261.41
970.571	4297.57
970.872	4278.14
971.174	4245.14
971.475	4216.44
971.776	4218.7
972.077	4166.73
972.378	4188.65
972.679	4166.27
972.98	4164.01
973.281	4107.75
973.582	4093.28
973.883	4126.05
974.183	4107.52
974.484	4104.58
974.785	4100.06
975.085	3997.24
975.386	4035.43
975.686	4013.06
975.986	3937.81
976.287	3936.68
976.587	3902.78
976.887	3881.99
977.187	3876.79
977.487	3825.04
977.787	3819.84
978.087	3792.5
978.387	3781.2
978.687	3774.42
978.987	3753.18
979.286	3686.51
979.586	3705.95
979.885	3691.03
980.185	3623.46
980.484	3663.46
980.784	3610.36
981.083	3598.38
981.382	3596.8
981.682	3554.54
981.981	3543.69
982.28	3446.75
982.579	3476.58
982.878	3474.77
983.177	3485.39
983.475	3446.75
983.774	3382.57
984.073	3433.86
984.372	3392.51
984.67	3348.22
984.969	3301.89
985.267	3304.83
985.566	3310.48
985.864	3296.24
986.162	3265.96
986.461	3241.55
986.759	3240.2
987.057	3224.6
987.355	3197.26
987.653	3178.28
987.951	3217.15
988.249	3186.87
988.547	3163.59
988.844	3170.37
989.142	3127.66
989.44	3110.94
989.737	3138.05
990.035	3117.04
990.332	3100.31
990.63	3076.36
990.927	3081.78
991.224	3052.41
991.521	3042.91
991.819	3069.13
992.116	3041.78
992.413	3067.55
992.71	3032.97
993.006	3040.88
993.303	2960.2
993.6	3004.27
993.897	2997.72
994.193	2959.3
994.49	2944.61
994.787	2956.59
995.083	2902.58
995.379	2920.21
995.676	2924.5
995.972	2875.91
996.268	2859.64
996.565	2875.46
996.861	2832.07
997.157	2795.92
997.453	2827.33
997.749	2825.07
998.044	2761.79
998.34	2781.23
998.636	2787.33
998.932	2756.14
999.227	2743.26
999.523	2731.51
999.818	2686.09
1000.114	2705.97
1000.409	2729.93
1000.704	2699.42
1001	2694.9
1001.295	2632.98
1001.59	2624.62
1001.885	2602.25
1002.18	2576.03
1002.475	2560.22
1002.77	2572.87
1003.065	2510.27
1003.359	2520.44
1003.654	2500.56
1003.949	2500.78
1004.243	2474.57
1004.538	2466.88
1004.832	2458.97
1005.127	2398.64
1005.421	2397.73
1005.715	2364.97
1006.009	2372.88
1006.304	2309.37
1006.598	2298.3
1006.892	2329.94
1007.186	2276.15
1007.48	2312.76
1007.773	2273.44
1008.067	2232.77
1008.361	2225.31
1008.655	2254.23
1008.948	2214.24
1009.242	2194.12
1009.535	2183.95
1009.829	2196.38
1010.122	2188.7
1010.415	2120
1010.708	2122.49
1011.001	2118.42
1011.295	2109.83
1011.588	2064.41
1011.881	2063.96
1012.173	2072.54
1012.466	2054.01
1012.759	2050.62
1013.052	2046.1
1013.344	2050.4
1013.637	2006.78
1013.93	1972.21
1014.222	1958.2
1014.514	1969.5
1014.807	1920.46
1015.099	1975.15
1015.391	1926.56
1015.683	1947.8
1015.976	1942.15
1016.268	1911.42
1016.56	1907.12
1016.851	1905.09
1017.143	1877.97
1017.435	1875.26
1017.727	1877.07
1018.018	1887.01
1018.31	1882.04
1018.602	1846.34
1018.893	1837.97
1019.185	1812.89
1019.476	1792.55
1019.767	1793.23
1020.058	1767.92
1020.35	1762.72
1020.641	1751.65
1020.932	1746
1021.223	1729.73
1021.514	1713.46
1021.804	1729.95
1022.095	1715.72
1022.386	1696.06
1022.677	1700.8
1022.967	1663.06
1023.258	1658.54
1023.548	1659.45
1023.839	1645.21
1024.129	1659.45
1024.419	1643.63
1024.709	1607.92
1025	1606.57
1025.29	1568.38
1025.58	1560.92
1025.87	1550.52
1026.16	1536.06
1026.449	1581.03
1026.739	1521.15
1027.029	1532.9
1027.319	1519.11
1027.608	1491.77
1027.898	1502.39
1028.187	1485.67
1028.477	1473.24
1028.766	1475.72
1029.055	1450.41
1029.344	1456.74
1029.634	1429.85
1029.923	1400.25
1030.212	1397.99
1030.501	1385.1
1030.79	1365.67
1031.078	1382.17
1031.367	1354.82
1031.656	1338.33
1031.945	1341.72
1032.233	1319.57
1032.522	1316.63
1032.81	1285.45
1033.099	1293.36
1033.387	1269.85
1033.675	1249.52
1033.963	1240.48
1034.251	1247.03
1034.54	1231.89
1034.828	1207.48
1035.116	1197.09
1035.403	1232.79
1035.691	1186.92
1035.979	1186.47
1036.267	1192.57
1036.554	1189.86
1036.842	1171.78
1037.129	1176.52
1037.417	1170.42
1037.704	1136.98
1037.992	1131.78
1038.279	1109.18
1038.566	1116.19
1038.853	1116.19
1039.14	1116.19
