Data from red_shiny_book_FLMS001491_00090.txt Node
Date: Wed Feb 08 15:25:30 GMT 2017
User: dcchb
Spectrometer: FLMS00149
Trigger mode: 0
Integration Time (sec): 2.000000E-2
Scans to average: 10
Electric dark correction enabled: true
Nonlinearity correction enabled: false
Boxcar width: 0
XAxis mode: Wavelengths
Number of Pixels in Spectrum: 2048
>>>>>Begin Spectral Data<<<<<
341.393	-28.09
341.776	-28.09
342.16	-28.09
342.543	-45.49
342.927	-74.19
343.31	-73.06
343.693	-78.94
344.077	-61.76
344.46	-64.02
344.843	-57.47
345.226	-29
345.61	-42.78
345.993	-19.05
346.376	-14.31
346.759	13.71
347.142	44.9
347.525	42.41
347.908	44
348.291	93.26
348.674	89.87
349.057	112.24
349.44	145.24
349.823	156.08
350.206	157.89
350.588	194.27
350.971	203.99
351.354	230.21
351.737	232.69
352.119	260.26
352.502	257.32
352.884	265.69
353.267	278.57
353.65	318.34
354.032	300.94
354.414	303.65
354.797	302.97
355.179	316.76
355.562	338.68
355.944	339.13
356.326	329.86
356.709	346.59
357.091	334.38
357.473	333.03
357.855	337.1
358.238	344.1
358.62	330.32
359.002	333.71
359.384	345.23
359.766	351.56
360.148	338.45
360.53	344.1
360.912	334.84
361.294	344.78
361.676	325.57
362.057	366.47
362.439	342.97
362.821	319.69
363.203	341.16
363.584	333.48
363.966	325.57
364.348	313.59
364.729	328.06
365.111	327.38
365.493	310.2
365.874	319.92
366.256	336.64
366.637	340.94
367.019	312.24
367.4	316.53
367.781	315.63
368.163	330.77
368.544	321.95
368.925	327.83
369.306	321.28
369.688	329.41
370.069	323.99
370.45	315.85
370.831	344.33
371.212	309.53
371.593	338
371.974	322.63
372.355	338.9
372.736	338.45
373.117	319.02
373.498	313.59
373.879	339.58
374.26	310.88
374.641	323.76
375.021	338.45
375.402	349.3
375.783	329.64
376.163	338.45
376.544	324.89
376.925	328.06
377.305	345.23
377.686	341.16
378.066	343.2
378.447	349.07
378.827	353.37
379.208	346.59
379.588	341.16
379.968	329.41
380.349	319.92
380.729	334.38
381.109	343.88
381.489	332.58
381.87	349.75
382.25	358.11
382.63	342.97
383.01	367.6
383.39	358.11
383.77	360.15
384.15	333.48
384.53	347.49
384.91	347.04
385.29	354.95
385.67	380.03
386.049	356.53
386.429	340.94
386.809	387.49
387.189	366.02
387.568	359.47
387.948	356.3
388.328	358.34
388.707	349.3
389.087	342.52
389.466	368.28
389.846	367.83
390.225	364.67
390.605	378
390.984	366.47
391.363	370.77
391.743	374.16
392.122	383.2
392.501	373.93
392.881	373.93
393.26	394.04
393.639	394.72
394.018	382.29
394.397	376.87
394.776	395.4
395.155	403.76
395.534	415.74
395.913	384.1
396.292	366.02
396.671	408.96
397.05	403.31
397.429	394.72
397.808	394.95
398.186	375.06
398.565	412.12
398.944	410.09
399.323	411.67
399.701	419.58
400.08	401.5
400.458	409.86
400.837	413.93
401.215	420.48
401.594	406.25
401.972	417.09
402.351	416.42
402.729	410.77
403.107	410.54
403.486	434.95
403.864	406.25
404.242	406.25
404.62	413.7
404.999	437.88
405.377	438.56
405.755	433.59
406.133	437.43
406.511	430.43
406.889	443.99
407.267	436.75
407.645	437.43
408.023	443.53
408.401	445.12
408.779	460.93
409.156	470.2
409.534	469.52
409.912	466.81
410.29	469.97
410.667	464.55
411.045	468.17
411.422	472.01
411.8	480.37
412.178	485.34
412.555	470.2
412.933	483.08
413.31	494.38
413.687	500.93
414.065	519.24
414.442	519.24
414.819	521.95
415.197	532.34
415.574	500.48
415.951	525.34
416.328	506.13
416.705	491.44
417.082	532.34
417.46	531.44
417.837	555.4
418.214	554.94
418.591	549.29
418.967	565.79
419.344	558.56
419.721	563.76
420.098	537.77
420.475	548.62
420.852	552.23
421.228	547.26
421.605	587.03
421.982	578.45
422.358	588.39
422.735	585.22
423.111	589.07
423.488	582.06
423.864	587.71
424.241	574.6
424.617	603.76
424.994	578.45
425.37	578.22
425.746	598.78
426.123	599.91
426.499	625.9
426.875	617.09
427.251	624.55
427.627	645.34
428.003	634.94
428.379	634.94
428.756	626.81
429.132	644.21
429.507	636.75
429.883	630.42
430.259	651.66
430.635	667.03
431.011	682.85
431.387	710.19
431.763	686.01
432.138	700.25
432.514	722.62
432.89	688.72
433.265	711.55
433.641	683.3
434.016	696.41
434.392	697.99
434.767	712
435.143	705.22
435.518	741.83
435.894	756.97
436.269	768.5
436.644	769.63
437.02	742.51
437.395	749.97
437.77	766.91
438.145	759.23
438.52	765.78
438.895	780.02
439.271	733.47
439.646	799.23
440.021	801.72
440.395	795.61
440.77	799.23
441.145	815.28
441.52	803.98
441.895	803.52
442.27	818.89
442.645	813.02
443.019	804.2
443.394	812.34
443.769	777.31
444.143	803.3
444.518	794.48
444.892	839.91
445.267	851.43
445.641	848.27
446.016	886.23
446.39	853.69
446.764	851.88
447.139	848.72
447.513	850.98
447.887	830.19
448.262	823.41
448.636	796.97
449.01	833.81
449.384	860.47
449.758	855.73
450.132	888.72
450.506	898.44
450.88	890.75
451.254	875.61
451.628	906.35
452.002	888.04
452.376	900.7
452.75	872
453.123	900.02
453.497	891.43
453.871	893.92
454.244	901.37
454.618	915.61
454.992	923.29
455.365	929.62
455.739	961.71
456.112	993.8
456.486	965.33
456.859	995.84
457.232	920.58
457.606	962.62
457.979	947.7
458.352	920.81
458.725	916.52
459.099	940.7
459.472	979.79
459.845	1009.39
460.218	1001.94
460.591	1027.92
460.964	1058.43
461.337	1074.93
461.71	1060.92
462.083	1071.77
462.456	1039
462.829	1023.86
463.201	1028.15
463.574	1014.37
463.947	1039.9
464.32	1040.81
464.692	1048.49
465.065	1052.78
465.438	1115.83
465.81	1149.73
466.183	1116.96
466.555	1168.49
466.928	1147.92
467.3	1150.41
467.672	1106.57
468.045	1165.32
468.417	1137.75
468.789	1117.87
469.161	1140.46
469.534	1112.89
469.906	1167.81
470.278	1186.11
470.65	1191.99
471.022	1207.58
471.394	1261.14
471.766	1271.53
472.138	1327.13
472.51	1315.15
472.882	1303.17
473.253	1298.65
473.625	1279.9
473.997	1278.99
474.369	1298.43
474.74	1265.66
475.112	1307.92
475.484	1316.96
475.855	1358.09
476.227	1397.18
476.598	1452.09
476.97	1482.83
477.341	1513.11
477.713	1537.06
478.084	1538.19
478.455	1528.93
478.827	1506.78
479.198	1522.15
479.569	1497.74
479.94	1501.36
480.311	1521.92
480.682	1547.69
481.053	1585.88
481.424	1637.4
481.795	1681.24
482.166	1728.47
482.537	1762.37
482.908	1821.12
483.279	1836.27
483.65	1887.34
484.021	1868.58
484.391	1893.89
484.762	1827.68
485.133	1822.71
485.503	1810.28
485.874	1838.07
486.244	1823.84
486.615	1876.04
486.985	1901.8
487.356	1984.28
487.726	2017.96
488.097	2071.29
488.467	2129.36
488.837	2195.8
489.207	2251.17
489.578	2244.16
489.948	2251.85
490.318	2229.7
490.688	2200.78
491.058	2182.7
491.428	2214.33
491.798	2171.85
492.168	2255.69
492.538	2218.85
492.908	2306.76
493.278	2368.45
493.648	2418.85
494.017	2490.26
494.387	2532.97
494.757	2575.91
495.126	2623.14
495.496	2621.33
495.866	2586.98
496.235	2560.77
496.605	2584.72
496.974	2519.86
497.344	2473.99
497.713	2478.51
498.082	2473.99
498.452	2528.9
498.821	2558.05
499.19	2572.97
499.559	2679.18
499.928	2720.31
500.298	2799.63
500.667	2820.19
501.036	2849.8
501.405	2892.28
501.774	2907.65
502.143	2834.21
502.512	2803.47
502.88	2751.72
503.249	2713.53
503.618	2667.2
503.987	2650.48
504.356	2652.06
504.724	2699.07
505.093	2715.11
505.462	2750.59
505.83	2836.46
506.199	2879.18
506.567	2965.95
506.936	2988.78
507.304	3065.16
507.672	3096.12
508.041	3103.12
508.409	3020.19
508.777	3035.78
509.145	2946.52
509.514	2913.75
509.882	2891.38
510.25	2805.05
510.618	2828.1
510.986	2817.48
511.354	2844.15
511.722	2881.89
512.09	2967.08
512.458	3040.3
512.826	3097.02
513.193	3168.66
513.561	3242.33
513.929	3247.3
514.297	3252.73
514.664	3242.1
515.032	3225.61
515.4	3158.49
515.767	3098.6
516.135	3043.01
516.502	2983.58
516.869	2958.27
517.237	2934.77
517.604	2925.73
517.972	2997.59
518.339	3042.56
518.706	3075.33
519.073	3148.1
519.44	3222.67
519.808	3272.16
520.175	3357.13
520.542	3386.96
520.909	3400.52
521.276	3386.96
521.643	3424.47
522.009	3373.17
522.376	3300.18
522.743	3226.74
523.11	3193.97
523.477	3125.04
523.843	3130.47
524.21	3124.37
524.577	3122.56
524.943	3196.46
525.31	3220.86
525.676	3342.67
526.043	3471.93
526.409	3518.71
526.776	3615.65
527.142	3673.05
527.508	3747.85
527.874	3793.5
528.241	3812.48
528.607	3736.55
528.973	3704.24
529.339	3644.13
529.705	3613.39
530.071	3542.66
530.437	3493.62
530.803	3472.15
531.169	3464.47
531.535	3492.49
531.901	3544.24
532.267	3616.11
532.632	3746.05
532.998	3840.73
533.364	3927.28
533.73	4022.87
534.095	4116.66
534.461	4185.58
534.826	4224.9
535.192	4228.07
535.557	4207.73
535.923	4121.18
536.288	4104
536.653	4060.39
537.019	3953.95
537.384	3871.24
537.749	3795.76
538.114	3827.4
538.479	3826.27
538.845	3859.49
539.21	3939.26
539.575	4038.47
539.94	4137.9
540.305	4256.31
540.67	4348.74
541.034	4448.17
541.399	4537.89
541.764	4577.21
542.129	4658.11
542.494	4697.88
542.858	4626.7
543.223	4588.51
543.587	4472.13
543.952	4445.24
544.316	4327.27
544.681	4284.56
545.045	4228.52
545.41	4241.17
545.774	4221.51
546.138	4225.81
546.503	4272.13
546.867	4338.35
547.231	4489.53
547.595	4538.79
547.959	4685
548.324	4735.4
548.688	4887.26
549.052	4968.16
549.416	4966.58
549.779	5009.29
550.143	4951.89
550.507	4945.79
550.871	4915.73
551.235	4795.74
551.599	4704.21
551.962	4592.13
552.326	4534.5
552.689	4499.7
553.053	4384.67
553.417	4414.05
553.78	4410.43
554.143	4450.89
554.507	4587.15
554.87	4631.9
555.234	4727.71
555.597	4879.35
555.96	4988.72
556.323	5109.85
556.686	5142.39
557.05	5216.74
557.413	5224.88
557.776	5276.63
558.139	5224.2
558.502	5128.38
558.865	5094.48
559.228	5018.78
559.59	4880.03
559.953	4773.59
560.316	4739.24
560.679	4685.68
561.041	4654.27
561.404	4663.54
561.767	4700.14
562.129	4757.54
562.492	4875.73
562.854	4958.44
563.217	5052.23
563.579	5153.01
563.941	5352.33
564.304	5421.93
564.666	5521.59
565.028	5576.51
565.39	5665.54
565.753	5610.63
566.115	5586.45
566.477	5541.25
566.839	5479.56
567.201	5369.51
567.563	5254.71
567.925	5146.01
568.287	5087.03
568.648	5048.38
569.01	4981.95
569.372	4988.5
569.734	5005
570.095	5055.39
570.457	5190.08
570.819	5283.18
571.18	5425.78
571.542	5530.41
571.903	5704.86
572.265	5797.29
572.626	5982.82
572.987	6030.96
573.349	6106.89
573.71	6197.73
574.071	6134.91
574.432	6162.48
574.794	6144.4
575.155	6082.93
575.516	6048.13
575.877	5875.48
576.238	5860.57
576.599	5886.55
576.96	5812.21
577.32	5776.05
577.681	5850.62
578.042	5948.02
578.403	6063.5
578.763	6254
579.124	6395.92
579.485	6638.85
579.845	6864.83
580.206	7083.13
580.566	7346.18
580.927	7594.08
581.287	7821.19
581.648	7923.11
582.008	8232.48
582.368	8434.51
582.728	8590.44
583.089	8709.3
583.449	8762.64
583.809	8928.51
584.169	9065
584.529	9139.8
584.889	9394.94
585.249	9512.9
585.609	9742.27
585.969	10002.6
586.329	10297.51
586.688	10620.89
587.048	10983.6
587.408	11394.43
587.768	11871.93
588.127	12312.15
588.487	12780.16
588.846	13408.62
589.206	13796.63
589.565	14285.88
589.925	14813.78
590.284	15213.99
590.643	15694.21
591.003	16092.61
591.362	16603.33
591.721	16863.67
592.08	17213.49
592.44	17613.7
592.799	17857.09
593.158	18154.03
593.517	18526.9
593.876	18812.32
594.235	19208.46
594.593	19611.17
594.952	20076.01
595.311	20388.09
595.67	20903.79
596.029	21543.54
596.387	22064.43
596.746	22664.64
597.104	23022.37
597.463	23691.74
597.822	24298.95
598.18	24669.56
598.538	25241.3
598.897	25848.52
599.255	26072.46
599.613	26968.49
599.972	27220.91
600.33	27692.08
600.688	27948.12
601.046	28452.97
601.404	28752.39
601.762	28806.18
602.12	29346.05
602.478	29507.85
602.836	29812.48
603.194	30079.59
603.552	30350.77
603.91	30489.98
604.268	31042.28
604.625	31278.65
604.983	31633.9
605.341	31900.33
605.698	32545.51
606.056	32948.89
606.413	33472.72
606.771	33982.09
607.128	34454.62
607.485	34688.96
607.843	35119.23
608.2	35477.64
608.557	35916.95
608.914	36135.93
609.272	36464.51
609.629	36850.71
609.986	37095.9
610.343	37133.19
610.7	37532.73
611.057	37602.1
611.414	37696.11
611.771	37785.15
612.127	38038.7
612.484	37988.08
612.841	38278.7
613.198	38266.27
613.554	38345.14
613.911	38683.88
614.267	38860.38
614.624	39036.42
614.98	39477.99
615.337	39759.34
615.693	39968.14
616.05	40156.39
616.406	40710.72
616.762	40748.01
617.118	40949.59
617.475	41166.76
617.831	41615.56
618.187	41802.45
618.543	41880.86
618.899	42166.96
619.255	42303.68
619.611	42212.83
619.967	42402.88
620.323	42527.62
620.678	42275.88
621.034	42160.4
621.39	42227.52
621.746	42222.77
622.101	42669.32
622.457	42091.25
622.812	42300.74
623.168	42328.76
623.523	42405.37
623.879	42600.39
624.234	42494.63
624.589	42706.83
624.945	42970.55
625.3	43137.33
625.655	43203.99
626.01	43483.98
626.365	43782.28
626.72	43704.54
627.075	43679.68
627.43	43930.3
627.785	44088.71
628.14	44186.11
628.495	44122.39
628.85	44210.07
629.205	44195.38
629.559	44389.5
629.914	44185.43
630.269	44036.51
630.623	43956.06
630.978	43757.65
631.332	43861.83
631.687	43821.15
632.041	43554.04
632.396	43652.57
632.75	43371.44
633.104	43421.61
633.459	43328.51
633.813	43396.3
634.167	43319.02
634.521	43246.02
634.875	43479.46
635.229	43559.24
635.583	43512.46
635.937	43615.28
636.291	43643.53
636.645	43786.57
636.999	43824.09
637.352	44066.12
637.706	43901.37
638.06	44246.68
638.413	44069.28
638.767	43970.07
639.121	44039.22
639.474	43710.19
639.828	43762.17
640.181	43723.07
640.534	43773.69
640.888	43527.82
641.241	43342.97
641.594	43239.47
641.947	43270.66
642.301	43116.31
642.654	43001.28
643.007	42829.31
643.36	42801.29
643.713	42693.27
644.066	42890.78
644.419	42590.22
644.771	42407.4
645.124	42029.11
645.477	42122.21
645.83	41804.03
646.182	41954.08
646.535	41802.22
646.888	42062.1
647.24	41933.97
647.593	42255.99
647.945	42397.23
648.298	42194.3
648.65	42119.73
649.002	41958.15
649.355	42236.11
649.707	42043.57
650.059	42021.2
650.411	42502.31
650.763	42490.34
651.115	42798.35
651.467	42629.54
651.819	42512.71
652.171	42335.99
652.523	42134.64
652.875	41941.65
653.227	41805.16
653.578	42012.38
653.93	41721.77
654.282	41721.32
654.633	41615.56
654.985	41622.56
655.337	41686.06
655.688	41815.55
656.039	41972.16
656.391	41639.29
656.742	41804.25
657.094	41907.3
657.445	42097.13
657.796	42096.68
658.147	42201.76
658.498	42227.75
658.849	42324.92
659.2	42409.89
659.551	42432.03
659.902	42421.86
660.253	42425.03
660.604	42421.19
660.955	42201.08
661.306	42281.08
661.656	42164.92
662.007	42083.12
662.358	41979.39
662.708	41934.42
663.059	41559.51
663.409	41432.74
663.76	41493.75
664.11	41467.09
664.461	41483.13
664.811	41374.43
665.161	41287.88
665.511	41130.6
665.862	41141.22
666.212	41244.04
666.562	41205.17
666.912	41222.12
667.262	41219.64
667.612	41320.2
667.962	41427.31
668.312	41436.13
668.662	41652.85
669.011	41609.46
669.361	41630.93
669.711	41711.83
670.06	41759.96
670.41	41733.97
670.76	41574.2
671.109	41822.33
671.459	41885.38
671.808	41684.03
672.157	41772.62
672.507	41470.93
672.856	41517.71
673.205	41413.08
673.554	41453.3
673.904	41133.31
674.253	41277.49
674.602	41031.62
674.951	40446.78
675.3	40120.68
675.649	40753.66
675.998	40658.75
676.346	40557.96
676.695	40691.29
677.044	40405.65
677.393	40415.82
677.741	40473.89
678.09	40488.81
678.438	40290.17
678.787	40478.87
679.135	40581.01
679.484	40274.12
679.832	40588.24
680.181	40536.72
680.529	40531.29
680.877	40614.23
681.225	40667.33
681.573	40832.08
681.922	40642.48
682.27	40630.27
682.618	40724.73
682.966	40590.27
683.314	40623.04
683.661	40419.66
684.009	40312.32
684.357	40285.42
684.705	40070.29
685.053	40127.91
685.4	39941.48
685.748	39725.44
686.095	39567.25
686.443	39370.65
686.79	39135.62
687.138	39200.48
687.485	39308.73
687.832	38931.34
688.18	38890.21
688.527	38621.96
688.874	38663.77
689.221	38569.08
689.568	38433.5
689.915	38242.99
690.262	38302.43
690.609	38317.79
690.956	38249.77
691.303	38252.48
691.65	38173.39
691.997	38255.65
692.344	38170.23
692.69	38211.81
693.037	38271.92
693.383	38036.44
693.73	38286.15
694.077	38148.08
694.423	38172.49
694.769	38013.17
695.116	37920.74
695.462	37858.82
695.808	37714.87
696.155	37629.45
696.501	37578.6
696.847	37365.95
697.193	37043.02
697.539	37146.52
697.885	36738.4
698.231	36694.56
698.577	36557.16
698.923	36447.56
699.269	36200.33
699.614	35999.43
699.96	35798.76
700.306	35843.05
700.651	35646.45
700.997	35405.1
701.342	35367.36
701.688	35280.81
702.033	35294.82
702.379	35200.81
702.724	35158.78
703.069	35204.88
703.415	34910.2
703.76	34892.8
704.105	35096.86
704.45	34975.73
704.795	34888.28
705.14	34828.84
705.485	35014.83
705.83	35008.73
706.175	35004.21
706.52	34775.74
706.865	34782.97
707.209	34817.09
707.554	34669.53
707.899	34759.92
708.243	34616.42
708.588	34521.06
708.932	34199.03
709.277	34147.73
709.621	34209.65
709.966	33919.26
710.31	33881.98
710.654	33417.36
710.998	33580.06
711.342	33500.74
711.687	33254.2
712.031	33059.4
712.375	32876.35
712.719	32875.45
713.063	32812.4
713.407	32793.87
713.75	32624.16
714.094	32523.37
714.438	32424.61
714.782	32419.42
715.125	32303.26
715.469	32507.1
715.812	32258.97
716.156	32093.77
716.499	32364.73
716.843	32360.66
717.186	32206.09
717.53	32526.53
717.873	32501.67
718.216	32418.96
718.559	32273.66
718.902	32149.37
719.246	32385.52
719.589	32228.23
719.932	32206.31
720.275	32223.26
720.617	32100.55
720.96	32134.45
721.303	32088.13
721.646	32049.03
721.989	31940.78
722.331	32003.16
722.674	31844.06
723.016	31699.66
723.359	31524.52
723.701	31482.27
724.044	31275.49
724.386	31134.48
724.729	31083.63
725.071	30954.14
725.413	30948.72
725.755	30729.97
726.097	30590.09
726.439	30483.42
726.782	30405.01
727.124	30555.28
727.465	30193.94
727.807	30230.55
728.149	30251.11
728.491	30086.82
728.833	30058.35
729.175	30112.13
729.516	30064
729.858	30123.88
730.199	30244.78
730.541	30036.88
730.882	30135.18
731.224	30401.16
731.565	30181.51
731.906	30226.03
732.248	30347.15
732.589	30168.63
732.93	30158.68
733.271	30164.79
733.612	30152.13
733.953	30178.34
734.294	30130.21
734.635	30024
734.976	30197.33
735.317	29921.85
735.658	29925.47
735.999	29940.84
736.339	29806.6
736.68	29817.68
737.021	29600.28
737.361	29356.45
737.702	29516.67
738.042	29409.33
738.383	29292.72
738.723	29209.1
739.063	29146.28
739.404	29001.2
739.744	28872.62
740.084	28745.61
740.424	28620.65
740.764	28685.95
741.104	28746.52
741.444	28682.34
741.784	28525.51
742.124	28547.65
742.464	28483.25
742.804	28390.14
743.143	28499.07
743.483	28414.32
743.823	28268.11
744.162	28349.69
744.502	28474.89
744.841	28430.82
745.181	28648.22
745.52	28475.79
745.86	28479.63
746.199	28453.19
746.538	28410.48
746.877	28561.44
747.216	28522.34
747.556	28408.9
747.895	28457.03
748.234	28335.46
748.573	28402.35
748.911	28309.92
749.25	28178.62
749.589	28054.33
749.928	28030.15
750.267	28081.68
750.605	27853.89
750.944	27999.87
751.283	27717.62
751.621	27777.5
751.96	27429.72
752.298	27418.42
752.636	27285.77
752.975	27194.24
753.313	27011.65
753.651	27039.9
753.989	26841.48
754.327	26830.41
754.666	26637.87
755.004	26586.57
755.342	26577.31
755.679	26464.09
756.017	26262.06
756.355	26367.37
756.693	26384.32
757.031	26335.51
757.368	26250.54
757.706	26295.51
758.044	26178
758.381	26104.55
758.719	26101.16
759.056	26237.43
759.394	26135.51
759.731	26022.75
760.068	25987.95
760.405	25987.95
760.743	25947.27
761.08	25951.79
761.417	25980.49
761.754	25949.98
762.091	25916.31
762.428	25862.3
762.765	25748.86
763.102	25756.77
763.438	25578.01
763.775	25436.32
764.112	25453.95
764.449	25531.24
764.785	25364.46
765.122	25108.65
765.458	25034.53
765.795	24993.62
766.131	24873.4
766.467	24714.53
766.804	24573.97
767.14	24355.67
767.476	24504.6
767.812	24228.67
768.148	24261.89
768.485	24063.48
768.821	23865.74
769.157	23841.11
769.492	23670.04
769.828	23651.96
770.164	23434.34
770.5	23342.14
770.836	23440.67
771.171	23188.7
771.507	23216.04
771.842	23125.42
772.178	23040.68
772.513	22928.59
772.849	22953.9
773.184	22919.78
773.519	22795.04
773.855	22854.02
774.19	22823.51
774.525	22698.32
774.86	22801.36
775.195	22684.08
775.53	22654.47
775.865	22557.08
776.2	22433.69
776.535	22361.38
776.87	22441.15
777.205	22248.38
777.539	22252
777.874	22239.57
778.209	22029.86
778.543	22028.5
778.878	21860.6
779.212	21909.64
779.547	21751
779.881	21685.23
780.215	21592.81
780.55	21609.08
780.884	21395.3
781.218	21192.59
781.552	21247.73
781.886	21109.88
782.22	20911.7
782.554	20868.31
782.888	20624.47
783.222	20619.27
783.556	20456.34
783.889	20317.81
784.223	20294.76
784.557	20110.59
784.89	20197.82
785.224	20042.79
785.557	19871.27
785.891	19871.72
786.224	19725.29
786.558	19833.53
786.891	19601.22
787.224	19514.44
787.557	19469.25
787.891	19438.51
788.224	19412.07
788.557	19416.14
788.89	19412.98
789.223	19371.4
789.556	19330.72
789.888	19303.15
790.221	19249.14
790.554	19132.53
790.887	19202.81
791.219	19173.44
791.552	19126.66
791.884	19071.97
792.217	19022.03
792.549	19091.18
792.882	18862.48
793.214	18812.77
793.546	18835.82
793.879	18774.8
794.211	18613.45
794.543	18717.4
794.875	18536.84
795.207	18594.24
795.539	18487.8
795.871	18386.56
796.203	18191.32
796.535	18187.02
796.867	18145.89
797.198	18099.79
797.53	17971.66
797.862	17826.58
798.193	17879.23
798.525	17700.03
798.856	17735.51
799.188	17498.9
799.519	17483.31
799.85	17305.01
800.182	17234.5
800.513	17146.15
800.844	17044.45
801.175	17172.81
801.506	16945.02
801.837	16944.12
802.168	16821.41
802.499	16820.96
802.83	16670.68
803.161	16664.58
803.491	16621.64
803.822	16714.29
804.153	16630.23
804.483	16420.51
804.814	16461.19
805.145	16481.53
805.475	16433.85
805.805	16420.29
806.136	16496.9
806.466	16478.37
806.796	16518.14
807.126	16321.08
807.457	16387.3
807.787	16411.25
808.117	16224.81
808.447	16289.44
808.777	16391.81
809.107	16342.55
809.436	16246.51
809.766	16201.76
810.096	16241.76
810.426	16119.73
810.755	16105.72
811.085	16069.79
811.414	16031.15
811.744	15915.9
812.073	15899.17
812.403	15851.26
812.732	15741.21
813.061	15744.37
813.39	15685.39
813.719	15635.9
814.049	15731.27
814.378	15538.96
814.707	15493.99
815.036	15342.58
815.365	15272.75
815.693	15098.52
816.022	15152.07
816.351	15006.77
816.68	14978.52
817.008	14971.51
817.337	14874.57
817.665	14782.59
817.994	14842.25
818.322	14850.39
818.651	14634.57
818.979	14658.53
819.307	14655.59
819.636	14595.7
819.964	14482.03
820.292	14590.96
820.62	14506.67
820.948	14520.23
821.276	14645.42
821.604	14552.32
821.932	14590.28
822.259	14566.78
822.587	14565.42
822.915	14557.29
823.243	14619.88
823.57	14646.55
823.898	14644.29
824.225	14616.72
824.553	14629.38
824.88	14654.69
825.207	14763.38
825.535	14696.27
825.862	14786.66
826.189	14691.75
826.516	14802.25
826.843	14840.22
827.17	14809.26
827.497	14821.23
827.824	14823.95
828.151	14752.76
828.478	14690.84
828.805	14854.23
829.131	14740.33
829.458	14745.76
829.785	14673.89
830.111	14747.11
830.438	14748.24
830.764	14667.79
831.09	14709.83
831.417	14588.47
831.743	14691.97
832.069	14532.43
832.395	14510.96
832.722	14509.38
833.048	14414.01
833.374	14375.82
833.7	14357.29
834.026	14290.4
834.351	14390.06
834.677	14231.42
835.003	14385.54
835.329	14315.94
835.654	14215.83
835.98	14182.16
836.306	14162.49
836.631	14070.75
836.956	14106.23
837.282	14130.18
837.607	13979.9
837.932	14019.22
838.258	14064.42
838.583	14016.06
838.908	13940.58
839.233	14025.1
839.558	13923.86
839.883	13919.56
840.208	13834.59
840.533	13881.15
840.858	13917.53
841.182	13946.91
841.507	13959.56
841.832	13900.81
842.156	13909.85
842.481	13982.84
842.805	13914.82
843.13	13955.27
843.454	13941.94
843.778	13840.02
844.103	13841.83
844.427	13936.51
844.751	13875.27
845.075	13887.7
845.399	13804.99
845.723	13654.26
846.047	13693.58
846.371	13575.17
846.695	13521.38
847.019	13442.97
847.343	13512.12
847.666	13354.83
847.99	13351.67
848.313	13278.9
848.637	13139.7
848.96	13166.14
849.284	13113.71
849.607	12929.53
849.931	12882.3
850.254	12798.46
850.577	12761.4
850.9	12655.64
851.223	12596.21
851.546	12539.71
851.869	12459.26
852.192	12512.82
852.515	12316.89
852.838	12213.85
853.161	12196.44
853.483	12209.1
853.806	12153.28
854.129	12063.57
854.451	11987.64
854.774	11965.94
855.096	11880.75
855.419	11872.16
855.741	11837.81
856.063	11685.72
856.385	11711.03
856.708	11803.01
857.03	11691.37
857.352	11748.1
857.674	11676.91
857.996	11642.79
858.318	11682.11
858.64	11590.36
858.961	11664.93
859.283	11495.45
859.605	11491.15
859.926	11554.43
860.248	11512.85
860.57	11465.62
860.891	11540.87
861.212	11518.27
861.534	11448.22
861.855	11480.98
862.176	11499.51
862.498	11466.52
862.819	11510.81
863.14	11505.39
863.461	11449.8
863.782	11417.03
864.103	11368.9
864.424	11352.4
864.745	11373.64
865.065	11276.7
865.386	11263.36
865.707	11250.48
866.027	11189.69
866.348	11167.55
866.668	11215.68
866.989	11176.36
867.309	11101.33
867.63	11205.28
867.95	11082.12
868.27	11039.19
868.59	11056.14
868.91	10956.25
869.23	10929.59
869.55	10845.52
869.87	10998.06
870.19	10791.96
870.51	10848.46
870.83	10842.36
871.15	10698.41
871.469	10758.74
871.789	10757.61
872.109	10663.15
872.428	10666.32
872.748	10684.17
873.067	10605.98
873.386	10622.02
873.706	10604.85
874.025	10395.36
874.344	10455.93
874.663	10491.4
874.982	10421.58
875.301	10445.98
875.62	10459.77
875.939	10361.46
876.258	10437.85
876.577	10389.71
876.896	10321.24
877.214	10310.84
877.533	10367.34
877.852	10379.54
878.17	10384.74
878.489	10359.66
878.807	10400.33
879.125	10330.96
879.444	10369.15
879.762	10349.71
880.08	10295.03
880.398	10235.59
880.716	10264.29
881.034	10248.25
881.352	10276.5
881.67	10283.95
881.988	10311.97
882.306	10318.3
882.624	10304.74
882.941	10269.94
883.259	10225.65
883.577	10155.14
883.894	10223.39
884.212	10174.58
884.529	10147.69
884.846	10097.74
885.164	10081.25
885.481	10072.43
885.798	10076.05
886.115	9992.44
886.432	10042.6
886.75	9984.75
887.067	9916.73
887.383	9899.56
887.7	9907.01
888.017	9824.08
888.334	9852.1
888.651	9831.76
888.967	9735.27
889.284	9698.88
889.6	9695.95
889.917	9563.07
890.233	9641.26
890.55	9534.59
890.866	9529.17
891.182	9474.48
891.498	9459.34
891.815	9369.17
892.131	9349.51
892.447	9367.14
892.763	9289.63
893.079	9250.08
893.395	9179.35
893.71	9224.09
894.026	9167.82
894.342	9149.75
894.657	9056.41
894.973	9071.78
895.289	9002.18
895.604	9005.57
895.92	8956.3
896.235	8968.73
896.55	8856.42
896.865	8898.68
897.181	8862.3
897.496	8900.03
897.811	8830.88
898.126	8862.07
898.441	8791.79
898.756	8774.39
899.071	8716.76
899.386	8712.47
899.7	8713.82
900.015	8641.06
900.33	8573.49
900.644	8632.92
900.959	8674.96
901.273	8668.85
901.588	8567.84
901.902	8585.69
902.216	8526.48
902.531	8500.27
902.845	8524.68
903.159	8402.87
903.473	8436.32
903.787	8423.89
904.101	8328.98
904.415	8338.02
904.729	8361.74
905.042	8232.26
905.356	8226.38
905.67	8251.92
905.984	8209.66
906.297	8185.7
906.611	8184.57
906.924	8067.29
907.237	8118.81
907.551	8050.79
907.864	8029.55
908.177	7980.74
908.491	7904.35
908.804	7874.3
909.117	7785.04
909.43	7835.88
909.743	7747.97
910.056	7745.49
910.368	7653.74
910.681	7686.96
910.994	7611.71
911.307	7605.83
911.619	7460.3
911.932	7437.02
912.244	7432.95
912.557	7404.48
912.869	7362.9
913.181	7345.72
913.494	7282.45
913.806	7238.16
914.118	7217.82
914.43	7178.05
914.742	7142.57
915.054	7109.57
915.366	7084.04
915.678	6991.61
915.99	7013.53
916.302	6926.98
916.613	6954.1
916.925	6970.37
917.236	6937.15
917.548	6890.14
917.859	6926.75
918.171	6831.84
918.482	6762.92
918.794	6774.67
919.105	6793.2
919.416	6737.61
919.727	6686.31
920.038	6731.05
920.349	6733.31
920.66	6660.09
920.971	6664.16
921.282	6635.24
921.593	6622.81
921.903	6519.31
922.214	6600.43
922.525	6556.14
922.835	6520.66
923.146	6461
923.456	6452.19
923.767	6443.38
924.077	6461
924.387	6453.77
924.697	6411.29
925.008	6364.96
925.318	6323.6
925.628	6357.05
925.938	6296.94
926.248	6239.77
926.558	6215.59
926.867	6281.57
927.177	6236.38
927.487	6156.15
927.796	6096.94
928.106	6105.53
928.416	6028.92
928.725	6057.85
929.034	6001.13
929.344	6030.28
929.653	5962.71
929.962	5950.73
930.271	5869.15
930.581	5874.58
930.89	5869.15
931.199	5802.49
931.508	5780.12
931.817	5745.54
932.125	5712.32
932.434	5763.39
932.743	5652.44
933.051	5683.62
933.36	5607.01
933.669	5575.83
933.977	5550.29
934.286	5498.77
934.594	5465.32
934.902	5456.74
935.21	5409.28
935.519	5381.26
935.827	5369.73
936.135	5327.25
936.443	5330.18
936.751	5299.45
937.059	5261.03
937.367	5211.09
937.674	5212.67
937.982	5195.95
938.29	5209.74
938.597	5128.16
938.905	5120.47
939.213	5076.86
939.52	5074.6
939.827	5110.08
940.135	5039.8
940.442	5008.84
940.749	5019.46
941.056	5042.28
941.363	4969.06
941.67	4986.92
941.977	4926.35
942.284	4904.66
942.591	4879.58
942.898	4918.9
943.205	4882.51
943.511	4810.88
943.818	4907.14
944.125	4845.23
944.431	4874.38
944.738	4853.14
945.044	4804.32
945.35	4797.09
945.657	4785.34
945.963	4730.2
946.269	4705.12
946.575	4682.74
946.881	4713.03
947.187	4695.17
947.493	4635.51
947.799	4638.23
948.105	4597.77
948.41	4601.39
948.716	4582.63
949.022	4574.05
949.327	4521.17
949.633	4496.76
949.938	4510.55
950.244	4568.4
950.549	4471.22
950.854	4454.73
951.16	4470.09
951.465	4420.83
951.77	4376.09
952.075	4357.33
952.38	4366.82
952.685	4313.49
952.99	4254.51
953.294	4272.36
953.599	4285.47
953.904	4211.8
954.209	4239.59
954.513	4241.85
954.818	4163.21
955.122	4153.72
955.426	4129.54
955.731	4090.44
956.035	4088.18
956.339	4060.84
956.643	4093.61
956.948	4014.97
957.252	3979.71
957.556	3976.1
957.86	3955.31
958.163	3931.8
958.467	3921.63
958.771	3918.7
959.075	3886.15
959.378	3864.91
959.682	3881.18
959.985	3825.37
960.289	3847.51
960.592	3789.89
960.896	3788.08
961.199	3750.57
961.502	3767.29
961.805	3711.47
962.108	3670.12
962.411	3693.84
962.714	3676.22
963.017	3668.08
963.32	3644.58
963.623	3651.81
963.926	3587.41
964.228	3609.33
964.531	3614.3
964.833	3603.9
965.136	3560.74
965.438	3578.59
965.741	3553.73
966.043	3535.88
966.345	3521.64
966.648	3533.62
966.95	3492.94
967.252	3494.98
967.554	3485.71
967.856	3457.24
968.158	3432.16
968.46	3442.32
968.761	3430.35
969.063	3408.43
969.365	3400.97
969.666	3415.66
969.968	3397.35
970.269	3363
970.571	3393.06
970.872	3361.65
971.174	3385.6
971.475	3290.46
971.776	3308.54
972.077	3281.2
972.378	3277.13
972.679	3281.2
972.98	3265.83
973.281	3250.69
973.582	3265.83
973.883	3211.6
974.183	3214.76
974.484	3189
974.785	3160.07
975.085	3149.68
975.386	3150.81
975.686	3143.12
975.986	3149.45
976.287	3144.03
976.587	3079.85
976.887	3085.95
977.187	3087.31
977.487	3050.24
977.787	3050.7
978.087	2999.62
978.387	2980.42
978.687	2981.55
978.987	2916.24
979.286	2920.76
979.586	2894.32
979.885	2898.16
980.185	2892.51
980.484	2897.03
980.784	2878.27
981.083	2820.19
981.382	2828.33
981.682	2830.59
981.981	2823.13
982.28	2789.69
982.579	2760.76
982.878	2775
983.177	2748.33
983.475	2739.97
983.774	2716.47
984.073	2699.29
984.372	2709.01
984.67	2670.59
984.969	2671.27
985.267	2671.5
985.566	2672.63
985.864	2623.59
986.162	2619.52
986.461	2591.05
986.759	2586.3
987.057	2574.78
987.355	2592.86
987.653	2548.56
987.951	2560.31
988.249	2490.49
988.547	2531.61
988.844	2515.34
989.142	2503.14
989.44	2470.6
989.737	2482.35
990.035	2483.93
990.332	2472.41
990.63	2448.9
990.927	2470.6
991.224	2448
991.521	2442.35
991.819	2409.81
992.116	2425.4
992.413	2454.78
992.71	2402.13
993.006	2386.08
993.303	2392.41
993.6	2392.63
993.897	2390.83
994.193	2376.14
994.49	2326.65
994.787	2339.98
995.083	2335.01
995.379	2349.47
995.676	2323.48
995.972	2302.69
996.268	2301.79
996.565	2264.95
996.861	2273.32
997.157	2244.84
997.453	2230.15
997.749	2222.7
998.044	2255.92
998.34	2186.76
998.636	2205.07
998.932	2179.08
999.227	2162.13
999.523	2214.56
999.818	2159.87
1000.114	2115.58
1000.409	2098.18
1000.704	2128.24
1001	2130.04
1001.295	2099.08
1001.59	2098.41
1001.885	2061.57
1002.18	2040.33
1002.475	2046.66
1002.77	2041.23
1003.065	2035.81
1003.359	2023.38
1003.654	1992.19
1003.949	1981.35
1004.243	1985.87
1004.538	1968.92
1004.832	1982.25
1005.127	1956.94
1005.421	1942.93
1005.715	1907
1006.009	1882.37
1006.304	1867.68
1006.598	1878.75
1006.892	1883.04
1007.186	1855.25
1007.48	1852.54
1007.773	1852.54
1008.067	1802.37
1008.361	1821.58
1008.655	1794.23
1008.948	1792.65
1009.242	1804.63
1009.535	1754.46
1009.829	1737.96
1010.122	1739.77
1010.415	1727.57
1010.708	1707.46
1011.001	1711.3
1011.295	1712.88
1011.588	1679.43
1011.881	1687.79
1012.173	1670.17
1012.466	1674.01
1012.759	1663.39
1013.052	1631.3
1013.344	1657.51
1013.637	1637.63
1013.93	1609.38
1014.222	1619.1
1014.514	1587.68
1014.807	1588.36
1015.099	1567.35
1015.391	1577.97
1015.683	1535.93
1015.976	1598.08
1016.268	1563.73
1016.56	1549.95
1016.851	1533.67
1017.143	1531.41
1017.435	1528.93
1017.727	1508.36
1018.018	1484.18
1018.31	1520.34
1018.602	1512.88
1018.893	1476.05
1019.185	1470.17
1019.476	1479.21
1019.767	1470.4
1020.058	1447.12
1020.35	1428.82
1020.641	1406.9
1020.932	1422.94
1021.223	1403.06
1021.514	1410.74
1021.804	1391.76
1022.095	1407.8
1022.386	1369.38
1022.677	1405.77
1022.967	1386.56
1023.258	1368.71
1023.548	1350.63
1023.839	1326.67
1024.129	1355.37
1024.419	1339.33
1024.709	1311.53
1025	1293
1025.29	1272.21
1025.58	1287.58
1025.87	1260.24
1026.16	1258.43
1026.449	1260.46
1026.739	1268.37
1027.029	1240.35
1027.319	1281.48
1027.608	1234.25
1027.898	1240.35
1028.187	1211.2
1028.477	1210.07
1028.766	1190.63
1029.055	1175.94
1029.344	1180.46
1029.634	1149.05
1029.923	1166.9
1030.212	1145.89
1030.501	1146.79
1030.79	1125.32
1031.078	1140.01
1031.367	1147.02
1031.656	1117.87
1031.945	1133.91
1032.233	1100.24
1032.522	1102.5
1032.81	1052.56
1033.099	1102.27
1033.387	1094.59
1033.675	1066.34
1033.963	1044.2
1034.251	1034.03
1034.54	1040.58
1034.828	1013.46
1035.116	1020.02
1035.403	1021.82
1035.691	1012.11
1035.979	1010.98
1036.267	1008.26
1036.554	980.02
1036.842	987.47
1037.129	970.3
1037.417	964.88
1037.704	952.45
1037.992	962.39
1038.279	937.98
1038.566	950.64
1038.853	950.64
1039.14	950.64
