Data from red_shiny_book_FLMS001491_00089.txt Node
Date: Wed Feb 08 15:25:30 GMT 2017
User: dcchb
Spectrometer: FLMS00149
Trigger mode: 0
Integration Time (sec): 2.000000E-2
Scans to average: 10
Electric dark correction enabled: true
Nonlinearity correction enabled: false
Boxcar width: 0
XAxis mode: Wavelengths
Number of Pixels in Spectrum: 2048
>>>>>Begin Spectral Data<<<<<
341.393	-8.64
341.776	-8.64
342.16	-8.64
342.543	-58.81
342.927	-68.3
343.31	-71.92
343.693	-82.77
344.077	-65.37
344.46	-52.94
344.843	-42.09
345.226	-47.96
345.61	-48.19
345.993	3.11
346.376	-10
346.759	-6.84
347.142	34.74
347.525	46.04
347.908	61.18
348.291	68.19
348.674	98.25
349.057	116.55
349.44	131.69
349.823	173.72
350.206	157.23
350.588	194.51
350.971	204.91
351.354	218.02
351.737	254.4
352.119	259.6
352.502	276.09
352.884	276.77
353.267	270.9
353.65	288.75
354.032	306.83
354.414	301.18
354.797	294.4
355.179	329.43
355.562	327.39
355.944	345.47
356.326	338.47
356.709	357.22
357.091	337.56
357.473	342.53
357.855	357.9
358.238	341.4
358.62	343.21
359.002	327.84
359.384	350.89
359.766	354.28
360.148	357.45
360.53	349.09
360.912	332.59
361.294	336.66
361.676	331.91
362.057	349.54
362.439	342.99
362.821	355.87
363.203	338.92
363.584	336.43
363.966	336.43
364.348	332.82
364.729	350.44
365.111	345.02
365.493	335.75
365.874	329.65
366.256	337.11
366.637	314.06
367.019	338.01
367.4	322.65
367.781	333.27
368.163	336.21
368.544	310.44
368.925	333.72
369.306	330.1
369.688	321.52
370.069	302.99
370.45	322.65
370.831	318.35
371.212	333.72
371.593	327.17
371.974	329.88
372.355	321.07
372.736	321.74
373.117	331.91
373.498	309.31
373.879	335.75
374.26	325.13
374.641	316.32
375.021	309.77
375.402	338.92
375.783	331.01
376.163	336.21
376.544	345.47
376.925	329.65
377.305	341.4
377.686	360.61
378.066	363.78
378.447	345.92
378.827	362.87
379.208	341.86
379.588	359.03
379.968	338.69
380.349	350.22
380.729	361.29
381.109	341.86
381.489	338.01
381.87	365.36
382.25	329.65
382.63	348.18
383.01	340.73
383.39	367.84
383.77	356.54
384.15	346.6
384.53	365.13
384.91	361.52
385.29	339.14
385.67	367.84
386.049	358.8
386.429	378.24
386.809	358.13
387.189	364.45
387.568	361.52
387.948	376.66
388.328	360.61
388.707	374.62
389.087	368.07
389.466	362.19
389.846	362.19
390.225	377.56
390.605	377.11
390.984	400.38
391.363	392.7
391.743	381.85
392.122	392.7
392.501	360.84
392.881	386.15
393.26	389.31
393.639	389.09
394.018	381.63
394.397	404.23
394.776	400.38
395.155	395.87
395.534	403.55
395.913	403.77
396.292	407.39
396.671	401.29
397.05	379.82
397.429	397.9
397.808	391.35
398.186	409.88
398.565	400.16
398.944	413.72
399.323	409.88
399.701	411.23
400.08	394.51
400.458	404.23
400.837	430.21
401.215	400.84
401.594	412.59
401.972	401.74
402.351	419.14
402.729	420.5
403.107	420.05
403.486	423.44
403.864	423.89
404.242	423.89
404.62	445.13
404.999	421.4
405.377	417.33
405.755	433.15
406.133	428.63
406.511	429.31
406.889	452.14
407.267	444.23
407.645	444.9
408.023	444.23
408.401	432.47
408.779	432.47
409.156	449.88
409.534	467.5
409.912	491.68
410.29	473.38
410.667	468.63
411.045	490.78
411.422	486.71
411.8	483.55
412.178	469.08
412.555	484.9
412.933	493.72
413.31	504.34
413.687	481.74
414.065	502.53
414.442	513.6
414.819	512.47
415.197	519.93
415.574	539.59
415.951	499.37
416.328	503.43
416.705	496.43
417.082	538.23
417.46	527.84
417.837	527.39
418.214	539.82
418.591	544.79
418.967	568.52
419.344	542.98
419.721	551.34
420.098	528.07
420.475	585.46
420.852	520.38
421.228	557.22
421.605	561.96
421.982	567.39
422.358	579.36
422.735	587.5
423.111	583.66
423.488	626.37
423.864	613.71
424.241	586.37
424.617	590.21
424.994	587.5
425.37	585.46
425.746	592.7
426.123	589.76
426.499	617.78
426.875	624.56
427.251	629.76
427.627	640.15
428.003	646.25
428.379	629.98
428.756	620.72
429.132	625.01
429.507	635.41
429.883	653.26
430.259	641.51
430.635	673.6
431.011	646.25
431.387	693.03
431.763	706.59
432.138	714.28
432.514	685.8
432.89	706.59
433.265	699.81
433.641	688.51
434.016	688.74
434.392	698.91
434.767	723.99
435.143	747.04
435.518	735.29
435.894	760.6
436.269	754.95
436.644	783.2
437.02	779.81
437.395	755.4
437.77	727.83
438.145	725.12
438.52	743.43
438.895	743.88
439.271	759.7
439.646	778
440.021	771.22
440.395	797.66
440.77	781.17
441.145	814.16
441.52	825.46
441.895	818.68
442.27	808.51
442.645	804.22
443.019	788.17
443.394	778.91
443.769	807.15
444.143	797.89
444.518	800.37
444.892	844.44
445.267	831.56
445.641	847.6
446.016	875.85
446.39	849.86
446.764	849.19
447.139	827.94
447.513	858.68
447.887	832.01
448.262	838.34
448.636	832.24
449.01	834.95
449.384	867.94
449.758	858.68
450.132	890.54
450.506	908.85
450.88	883.76
451.254	903.42
451.628	906.59
452.002	891.22
452.376	898
452.75	856.87
453.123	902.07
453.497	911.56
453.871	884.44
454.244	925.12
454.618	914.27
454.992	954.04
455.365	938
455.739	955.4
456.112	978.67
456.486	1002.18
456.859	963.99
457.232	964.44
457.606	937.32
457.979	935.51
458.352	960.6
458.725	935.51
459.099	967.6
459.472	1001.05
459.845	1019.35
460.218	1003.31
460.591	1046.02
460.964	1052.35
461.337	1062.29
461.71	1070.88
462.083	1059.12
462.456	1053.25
462.829	1026.58
463.201	1021.61
463.574	1015.96
463.947	1015.28
464.32	1010.54
464.692	1047.37
465.065	1095.28
465.438	1092.34
465.81	1129.86
466.183	1140.93
466.555	1171.89
466.928	1162.17
467.3	1150.42
467.672	1148.39
468.045	1119.46
468.417	1110.65
468.789	1095.51
469.161	1118.78
469.534	1125.79
469.906	1165.79
470.278	1179.8
470.65	1222.74
471.022	1246.24
471.394	1273.81
471.766	1283.53
472.138	1281.94
472.51	1312.45
472.882	1318.33
473.253	1322.62
473.625	1273.36
473.997	1292.56
474.369	1288.27
474.74	1267.03
475.112	1299.34
475.484	1343.86
475.855	1376.4
476.227	1410.08
476.598	1490.75
476.97	1474.03
477.341	1511.32
477.713	1541.6
478.084	1523.97
478.455	1540.47
478.827	1547.47
479.198	1529.62
479.569	1509.73
479.94	1468.38
480.311	1527.36
480.682	1517.64
481.053	1587.02
481.424	1624.53
481.795	1654.59
482.166	1734.36
482.537	1786.79
482.908	1817.07
483.279	1820.23
483.65	1869.95
484.021	1866.34
484.391	1875.37
484.762	1841.93
485.133	1791.76
485.503	1811.2
485.874	1813.23
486.244	1825.43
486.615	1877.86
486.985	1903.85
487.356	1980
487.726	2032.66
488.097	2100.45
488.467	2140.23
488.837	2200.11
489.207	2260.68
489.578	2257.29
489.948	2245.53
490.318	2241.47
490.688	2208.92
491.058	2178.42
491.428	2194.91
491.798	2188.13
492.168	2229.26
492.538	2232.43
492.908	2298.41
493.278	2335.93
493.648	2382.93
494.017	2465.42
494.387	2502.93
494.757	2596.49
495.126	2615.02
495.496	2618.41
495.866	2616.37
496.235	2596.26
496.605	2558.07
496.974	2523.72
497.344	2477.17
497.713	2449.37
498.082	2456.38
498.452	2504.28
498.821	2531.63
499.19	2584.28
499.559	2654.56
499.928	2680.78
500.298	2771.85
500.667	2832.19
501.036	2835.8
501.405	2919.87
501.774	2876.48
502.143	2823.82
502.512	2785.41
502.88	2782.7
503.249	2734.56
503.618	2688.23
503.987	2642.36
504.356	2657.5
504.724	2699.08
505.093	2694.34
505.462	2769.59
505.83	2836.03
506.199	2883.26
506.567	2982.24
506.936	3017.49
507.304	3066.3
507.672	3092.29
508.041	3075.79
508.409	3052.29
508.777	3009.81
509.145	2986.76
509.514	2890.26
509.882	2871.51
510.25	2834.67
510.618	2812.98
510.986	2798.06
511.354	2836.93
511.722	2904.95
512.09	2910.6
512.458	3006.42
512.826	3088.9
513.193	3163.02
513.561	3186.98
513.929	3237.6
514.297	3256.13
514.664	3265.39
515.032	3228.33
515.4	3177.04
515.767	3142.46
516.135	3053.65
516.502	2983.14
516.869	2996.47
517.237	2950.15
517.604	2919.19
517.972	2972.75
518.339	3041.67
518.706	3105.62
519.073	3156.92
519.44	3271.95
519.808	3301.55
520.175	3356.01
520.542	3403.47
520.909	3412.06
521.276	3419.06
521.643	3444.82
522.009	3323.92
522.376	3304.94
522.743	3255
523.11	3188.56
523.477	3122.8
523.843	3119.18
524.21	3129.35
524.577	3125.96
524.943	3182.91
525.31	3263.36
525.676	3382.45
526.043	3475.56
526.409	3584.48
526.776	3663.58
527.142	3687.53
527.508	3739.96
527.874	3833.06
528.241	3751.71
528.607	3713.07
528.973	3735.89
529.339	3603.92
529.705	3570.02
530.071	3549.45
530.437	3461.55
530.803	3459.97
531.169	3444.37
531.535	3518.27
531.901	3551.94
532.267	3606.85
532.632	3722.11
532.998	3844.14
533.364	3954.19
533.73	4026.05
534.095	4115.99
534.461	4185.14
534.826	4297.01
535.192	4246.39
535.557	4205.26
535.923	4134.3
536.288	4078.25
536.653	4080.29
537.019	3997.35
537.384	3871.25
537.749	3863.34
538.114	3836.23
538.479	3895.66
538.845	3898.6
539.21	3970.91
539.575	4000.74
539.94	4151.7
540.305	4250.68
540.67	4330.9
541.034	4466.27
541.399	4548.07
541.764	4581.97
542.129	4660.61
542.494	4678.46
542.858	4641.63
543.223	4577
543.587	4496.1
543.952	4441.18
544.316	4396.89
544.681	4251.13
545.045	4259.49
545.41	4218.82
545.774	4168.65
546.138	4237.12
546.503	4275.31
546.867	4347.63
547.231	4459.71
547.595	4556.66
547.959	4673.94
548.324	4773.38
548.688	4839.14
549.052	4922.98
549.416	5030.09
549.779	4972.47
550.143	4964.11
550.507	5002.75
550.871	4921.17
551.235	4779.25
551.599	4711.68
551.962	4578.81
552.326	4509.2
552.689	4464.68
553.053	4396.89
553.417	4410
553.78	4469.88
554.143	4460.39
554.507	4577.68
554.87	4698.35
555.234	4778.12
555.597	4855.86
555.96	4975.86
556.323	5037.78
556.686	5161.62
557.05	5247.04
557.413	5241.61
557.776	5252.01
558.139	5235.74
558.502	5173.14
558.865	5059.25
559.228	4984.45
559.59	4897.22
559.953	4798.91
560.316	4765.47
560.679	4666.94
561.041	4665.58
561.404	4680.95
561.767	4663.32
562.129	4796.65
562.492	4929.31
562.854	4930.89
563.217	5037.78
563.579	5254.04
563.941	5311.67
564.304	5461.95
564.666	5537.43
565.028	5637.08
565.39	5624.43
565.753	5626.24
566.115	5597.31
566.477	5583.53
566.839	5447.03
567.201	5394.83
567.563	5219.69
567.925	5172.01
568.287	5096.31
568.648	5020.83
569.01	5023.77
569.372	5009.3
569.734	5061.73
570.095	5049.08
570.457	5177.21
570.819	5346.92
571.18	5447.03
571.542	5555.05
571.903	5728.61
572.265	5811.77
572.626	5915.49
572.987	6062.38
573.349	6129.5
573.71	6143.06
574.071	6146.9
574.432	6190.52
574.794	6124.08
575.155	6083.63
575.516	5971.99
575.877	5915.72
576.238	5877.3
576.599	5797.53
576.96	5844.99
577.32	5810.86
577.681	5848.38
578.042	5951.65
578.403	6060.35
578.763	6225.09
579.124	6426.89
579.485	6651.75
579.845	6893.32
580.206	7103.26
580.566	7352.97
580.927	7599.29
581.287	7822.79
581.648	8039.51
582.008	8242.21
582.368	8402.21
582.728	8512.49
583.089	8693.27
583.449	8771.69
583.809	8959.48
584.169	9072.25
584.529	9153.83
584.889	9379.58
585.249	9465.68
585.609	9639.46
585.969	10052.33
586.329	10244.42
586.688	10648.25
587.048	11019.77
587.408	11427.44
587.768	11858.16
588.127	12281.2
588.487	12798.7
588.846	13456.99
589.206	13828.96
589.565	14266.01
589.925	14790.52
590.284	15191.63
590.643	15724.28
591.003	16054.44
591.362	16487.19
591.721	16857.13
592.08	17229.77
592.44	17565.58
592.799	17907.27
593.158	18201.95
593.517	18469.51
593.876	18814.82
594.235	19219.55
594.593	19571.63
594.952	20073.09
595.311	20386.3
595.67	20905.38
596.029	21560.73
596.387	22056.09
596.746	22652
597.104	23019
597.463	23692.88
597.822	24307.1
598.18	24726.75
598.538	25196.12
598.897	25886.72
599.255	26166.49
599.613	27066.35
599.972	27267.48
600.33	27728.25
600.688	27921.02
601.046	28422.02
601.404	28685.52
601.762	28824.72
602.12	29417.93
602.478	29561.65
602.836	29838.93
603.194	29996.44
603.552	30224.46
603.91	30502.64
604.268	30997.55
604.625	31346.46
604.983	31807.02
605.341	31953.91
605.698	32552.08
606.056	33021.45
606.413	33391.38
606.771	33953.63
607.128	34326.72
607.485	34646.94
607.843	35153.6
608.2	35606.69
608.557	35916.06
608.914	36182.04
609.272	36540.68
609.629	36887.56
609.986	37255.46
610.343	37109.48
610.7	37599.18
611.057	37609.58
611.414	37675.79
611.771	37706.52
612.127	37886.18
612.484	38061.77
612.841	38210.69
613.198	38104.48
613.554	38343.79
613.911	38700.17
614.267	38868.07
614.624	39238.91
614.98	39517.32
615.337	39698.56
615.693	39970.64
616.05	40254.93
616.406	40619.21
616.762	40889.26
617.118	41150.95
617.475	41280.21
617.831	41659.64
618.187	41832.52
618.543	42015.11
618.899	42214.88
619.255	42220.08
619.611	42184.15
619.967	42216.46
620.323	42424.36
620.678	42328.32
621.034	42132.4
621.39	42349.79
621.746	42096.69
622.101	42495.55
622.457	42165.61
622.812	42294.65
623.168	42369.9
623.523	42433.4
623.879	42522.89
624.234	42619.16
624.589	42773.51
624.945	42807.41
625.3	43112.48
625.655	43179.83
626.01	43518.57
626.365	43653.71
626.72	43637.21
627.075	43806.25
627.43	44078.11
627.785	43888.06
628.14	44149.97
628.495	44226.8
628.85	44231.77
629.205	44098.9
629.559	44321.04
629.914	44007.83
630.269	43996.07
630.623	43967.38
630.978	43727.38
631.332	43850.09
631.687	43861.16
632.041	43582.53
632.396	43531.45
632.75	43389.09
633.104	43498.91
633.459	43274.51
633.813	43349.76
634.167	43214.63
634.521	43411.46
634.875	43593.37
635.229	43455.75
635.583	43387.96
635.937	43578.46
636.291	43757.66
636.645	43802.63
636.999	43811.9
637.352	44020.03
637.706	43826.14
638.06	44172.34
638.413	43968.05
638.767	43950.43
639.121	43931.67
639.474	43726.93
639.828	43839.24
640.181	43825.91
640.534	43721.28
640.888	43379.37
641.241	43303.66
641.594	43329.65
641.947	43290.78
642.301	42950.9
642.654	43024.12
643.007	42892.83
643.36	42702.32
643.713	42709.55
644.066	42770.12
644.419	42645.15
644.771	42288.55
645.124	42016.01
645.477	42037.48
645.83	41802.69
646.182	41855.34
646.535	41858.05
646.888	42053.53
647.24	42044.04
647.593	42154.09
647.945	42199.74
648.298	42159.74
648.65	42086.97
649.002	41991.61
649.355	42212.62
649.707	41937.6
650.059	42239.28
650.411	42584.81
650.763	42571.48
651.115	42931.47
651.467	42686.96
651.819	42436.79
652.171	42449
652.523	42241.09
652.875	42059.85
653.227	41683.82
653.578	41977.82
653.93	41719.98
654.282	41679.98
654.633	41540.32
654.985	41677.04
655.337	41659.64
655.688	41782.35
656.039	41873.42
656.391	41737.6
656.742	41801.33
657.094	42033.41
657.445	42194.99
657.796	42257.59
658.147	42110.47
658.498	42189.57
658.849	42334.2
659.2	42390.47
659.551	42247.65
659.902	42473.85
660.253	42446.74
660.604	42393.18
660.955	42332.62
661.306	42358.6
661.656	42223.24
662.007	42069.35
662.358	41999.07
662.708	41853.98
663.059	41740.99
663.409	41396.37
663.76	41564.05
664.11	41616.93
664.461	41416.48
664.811	41299.42
665.161	41319.31
665.511	41017.62
665.862	41084.06
666.212	41254.68
666.562	41300.1
666.912	41324.05
667.262	41172.19
667.612	41386.65
667.962	41331.74
668.312	41372.19
668.662	41718.17
669.011	41599.53
669.361	41713.87
669.711	41707.77
670.06	41847.88
670.41	41720.65
670.76	41750.71
671.109	41991.61
671.459	41892.18
671.808	41909.35
672.157	41778.28
672.507	41525.63
672.856	41460.55
673.205	41330.83
673.554	41435.24
673.904	41231.63
674.253	41490.15
674.602	41115.47
674.951	40456.73
675.3	40228.49
675.649	40821.7
675.998	40541.7
676.346	40552.1
676.695	40631.19
677.044	40344.87
677.393	40383.29
677.741	40621.25
678.09	40360.24
678.438	40228.72
678.787	40454.7
679.135	40466.68
679.484	40318.21
679.832	40473.68
680.181	40414.02
680.529	40462.83
680.877	40558.65
681.225	40621.02
681.573	40846.33
681.922	40760
682.27	40579.22
682.618	40634.81
682.966	40499.22
683.314	40643.17
683.661	40522.95
684.009	40310.52
684.357	40153.92
684.705	40118.21
685.053	40092.45
685.4	39790.31
685.748	39663.31
686.095	39576.08
686.443	39358.46
686.79	39105.81
687.138	39238.91
687.485	39090.22
687.832	38926.38
688.18	38929.32
688.527	38658.14
688.874	38516.67
689.221	38456.79
689.568	38352.38
689.915	38268.77
690.262	38424.02
690.609	38326.39
690.956	38260.18
691.303	38161.65
691.65	38264.25
691.997	38200.07
692.344	38169.79
692.69	38168.43
693.037	38421.53
693.383	38000.75
693.73	38222.22
694.077	38012.5
694.423	37958.72
694.769	37952.62
695.116	37889.12
695.462	37878.95
695.808	37763.7
696.155	37749.23
696.501	37567.77
696.847	37416.81
697.193	37151.96
697.539	37085.52
697.885	36752.88
698.231	36681.01
698.577	36531.19
698.923	36397.63
699.269	36288.25
699.614	35937.3
699.96	35888.49
700.306	35845.55
700.651	35527.37
700.997	35464.1
701.342	35419.8
701.688	35393.14
702.033	35319.47
702.379	35314.27
702.724	35152.69
703.069	35302.52
703.415	34765.81
703.76	35089.64
704.105	35071.11
704.45	35139.36
704.795	34891.68
705.14	34986.37
705.485	34950.66
705.83	34822.3
706.175	34955.41
706.52	34875.18
706.865	34884.68
707.209	34801.51
707.554	34712.25
707.899	34865.47
708.243	34577.79
708.588	34538.02
708.932	34218.48
709.277	34237.91
709.621	34130.35
709.966	33828.66
710.31	33830.24
710.654	33491.94
710.998	33592.28
711.342	33565.61
711.687	33351.61
712.031	33109.13
712.375	32939.87
712.719	32949.59
713.063	32733.09
713.407	32804.96
713.75	32649.93
714.094	32543.04
714.438	32374.91
714.782	32500.78
715.125	32322.71
715.469	32383.72
715.812	32280.45
716.156	32142.83
716.499	32255.37
716.843	32322.48
717.186	32290.85
717.53	32377.4
717.873	32484.29
718.216	32390.5
718.559	32332.43
718.902	32149.61
719.246	32188.02
719.589	32260.56
719.932	32117.97
720.275	32188.02
720.617	32246.1
720.96	32158.65
721.303	32058.54
721.646	32213.79
721.989	31800.24
722.331	32060.8
722.674	31741.03
723.016	31762.27
723.359	31528.61
723.701	31454.71
724.044	31272.12
724.386	31030.31
724.729	31070.76
725.071	30840.49
725.413	30830.09
725.755	30698.8
726.097	30563.66
726.439	30415.41
726.782	30305.81
727.124	30500.16
727.465	30339.71
727.807	30318.47
728.149	30194.18
728.491	30106.95
728.833	30289.77
729.175	30048.87
729.516	30184.23
729.858	30050.45
730.199	30263.78
730.541	30087.97
730.882	30121.19
731.224	30214.29
731.565	30248.64
731.906	30315.53
732.248	30359.82
732.589	30279.6
732.93	30164.35
733.271	30076.67
733.612	30276.21
733.953	30246.38
734.294	30065.14
734.635	30041.64
734.976	30146.5
735.317	29800.06
735.658	29947.4
735.999	29833.96
736.339	29686.85
736.68	29748.77
737.021	29624.25
737.361	29415.67
737.702	29521.43
738.042	29349.91
738.383	29162.11
738.723	29233.07
739.063	28982.68
739.404	29034.89
739.744	28918.28
740.084	28725.52
740.424	28704.73
740.764	28649.13
741.104	28776.59
741.444	28445.75
741.784	28452.08
742.124	28477.16
742.464	28511.51
742.804	28481.91
743.143	28481.45
743.483	28400.55
743.823	28282.14
744.162	28344.96
744.502	28387.67
744.841	28420.21
745.181	28534.56
745.52	28394.45
745.86	28492.98
746.199	28437.84
746.538	28366.66
746.877	28722.8
747.216	28500.44
747.556	28453.21
747.895	28442.13
748.234	28340.89
748.573	28317.17
748.911	28314
749.25	28287.79
749.589	28065.65
749.928	28122.14
750.267	28027.46
750.605	27961.24
750.944	27801.25
751.283	27680.8
751.621	27743.17
751.96	27597.86
752.298	27436.96
752.636	27403.52
752.975	27177.31
753.313	27004.21
753.651	27138.44
753.989	26783.87
754.327	26810.54
754.666	26612.13
755.004	26661.39
755.342	26588.4
755.679	26514.27
756.017	26466.37
756.355	26417.78
756.693	26293.04
757.031	26353.15
757.368	26144.79
757.706	26184.79
758.044	26205.58
758.381	26243.1
758.719	26138.24
759.056	26211.23
759.394	26086.72
759.731	25926.49
760.068	26110.9
760.405	25967.17
760.743	25930.56
761.08	26000.62
761.417	25918.81
761.754	25895.31
762.091	25846.5
762.428	25839.04
762.765	25690.12
763.102	25829.77
763.438	25625.94
763.775	25595.2
764.112	25546.84
764.449	25460.07
764.785	25350.92
765.122	25089.45
765.458	24985.95
765.795	24901.89
766.131	24874.54
766.467	24677.26
766.804	24542.35
767.14	24388
767.476	24376.93
767.812	24215.8
768.148	24233.66
768.485	23910.95
768.821	23900.11
769.157	23778.98
769.492	23741.92
769.828	23646.78
770.164	23398.42
770.5	23363.62
770.836	23322.72
771.171	23168.37
771.507	23231.2
771.842	22973.12
772.178	23111.2
772.513	22990.75
772.849	22973.58
773.184	22838.21
773.519	22820.13
773.855	22832.11
774.19	22762.73
774.525	22750.98
774.86	22779.91
775.195	22757.76
775.53	22584.21
775.865	22597.54
776.2	22506.47
776.535	22393.7
776.87	22252.24
777.205	22292.24
777.539	22225.57
777.874	22226.93
778.209	22046.6
778.543	22139.25
778.878	21912.36
779.212	21885.02
779.547	21745.81
779.881	21824.23
780.215	21518.7
780.55	21600.05
780.884	21428.98
781.218	21244.81
781.552	21362.77
781.886	21101.99
782.22	20921.43
782.554	20873.74
782.888	20541.1
783.222	20506.97
783.556	20358.5
783.889	20401.67
784.223	20137.04
784.557	20224.27
784.89	20116.25
785.224	20017.72
785.557	19869.7
785.891	19825.64
786.224	19681.46
786.558	19759.42
786.891	19451.18
787.224	19465.87
787.557	19429.04
787.891	19551.07
788.224	19484.18
788.557	19497.96
788.89	19457.29
789.223	19384.29
789.556	19287.12
789.888	19249.38
790.221	19210.06
790.554	19126.9
790.887	19281.02
791.219	19133.9
791.552	19189.5
791.884	19047.35
792.217	19037.18
792.549	18959.22
792.882	18763.74
793.214	18748.6
793.546	18829.5
793.879	18742.28
794.211	18604.2
794.543	18679.9
794.875	18572.34
795.207	18570.08
795.539	18476.29
795.871	18416.63
796.203	18347.03
796.535	18137.09
796.867	18138.68
797.198	18010.54
797.53	17941.62
797.862	17840.38
798.193	17833.37
798.525	17640.16
798.856	17702.53
799.188	17433.38
799.519	17366.94
799.85	17246.5
800.182	17244.69
800.513	17160.17
800.844	17045.15
801.175	17103.67
801.506	17069.33
801.837	16975.99
802.168	16933.06
802.499	16823
802.83	16712.72
803.161	16671.6
803.491	16634.99
803.822	16624.14
804.153	16601.77
804.483	16517.93
804.814	16451.94
805.145	16529.45
805.475	16471.15
805.805	16425.05
806.136	16481.54
806.466	16465.73
806.796	16504.37
807.126	16378.04
807.457	16385.95
807.787	16356.12
808.117	16300.53
808.447	16331.94
808.777	16445.84
809.107	16229.8
809.436	16263.47
809.766	16195.9
810.096	16164.49
810.426	16105.73
810.755	16139.86
811.085	16075.68
811.414	15993.2
811.744	15872.75
812.073	15781.9
812.403	15892.18
812.732	15723.82
813.061	15785.74
813.39	15625.52
813.719	15514.79
814.049	15632.53
814.378	15531.51
814.707	15360.44
815.036	15416.71
815.365	15277.28
815.693	15030.96
816.022	15127.68
816.351	15112.31
816.68	14901.7
817.008	14974.24
817.337	14879.55
817.665	14769.95
817.994	14781.25
818.322	14815.83
818.651	14744.64
818.979	14590.07
819.307	14647.92
819.636	14576.74
819.964	14527.92
820.292	14535.61
820.62	14611.31
820.948	14490.86
821.276	14548.49
821.604	14604.53
821.932	14565.44
822.259	14599.33
822.587	14663.51
822.915	14634.81
823.243	14698.31
823.57	14701.7
823.898	14706.68
824.225	14638.2
824.553	14572.89
824.88	14728.14
825.207	14692.66
825.535	14605.89
825.862	14698.09
826.189	14745.09
826.516	14783.74
826.843	14822.6
827.17	14875.48
827.497	14866.9
827.824	14878.2
828.151	14715.26
828.478	14800.91
828.805	14816.96
829.131	14801.14
829.458	14679.33
829.785	14694.25
830.111	14740.8
830.438	14721.14
830.764	14768.37
831.09	14722.04
831.417	14592.33
831.743	14593.68
832.069	14574.48
832.395	14474.14
832.722	14540.8
833.048	14449.28
833.374	14440.47
833.7	14377.87
834.026	14389.62
834.351	14386.91
834.677	14331.54
835.003	14323.86
835.329	14238.21
835.654	14223.98
835.98	14160.48
836.306	14161.61
836.631	14056.75
836.956	14085.45
837.282	14099.91
837.607	13967.49
837.932	13968.62
838.258	13948.96
838.583	14001.61
838.908	13918.22
839.233	13985.56
839.558	13923.19
839.883	13870.09
840.208	13932.01
840.533	13870.31
840.858	13878
841.182	13921.16
841.507	13944.89
841.832	13915.51
842.156	13981.04
842.481	13941.5
842.805	13870.99
843.13	13822.4
843.454	13922.74
843.778	13847.49
844.103	13865.57
844.427	13845
844.751	13901.05
845.075	13814.72
845.399	13748.06
845.723	13730.2
846.047	13718.45
846.371	13583.54
846.695	13549.87
847.019	13472.13
847.343	13412.47
847.666	13373.83
847.99	13317.11
848.313	13325.92
848.637	13151.91
848.96	13172.7
849.284	13059.94
849.607	12895.42
849.931	12902.66
850.254	12790.34
850.577	12767.07
850.9	12646.62
851.223	12635.54
851.546	12561.2
851.869	12406.85
852.192	12478.26
852.515	12371.14
852.838	12172.5
853.161	12255.21
853.483	12121.88
853.806	12102
854.129	12002.57
854.451	11990.14
854.774	11942.68
855.096	11969.12
855.419	11925.05
855.741	11862.46
856.063	11776.81
856.385	11723.03
856.708	11733.42
857.03	11678.73
857.352	11673.31
857.674	11680.31
857.996	11636.25
858.318	11619.98
858.64	11604.61
858.961	11545.4
859.283	11515.8
859.605	11520.09
859.926	11589.24
860.248	11534.1
860.57	11499.75
860.891	11517.61
861.212	11589.02
861.534	11432.41
861.855	11483.94
862.176	11500.88
862.498	11519.41
862.819	11432.86
863.14	11404.84
863.461	11401
863.782	11455.01
864.103	11429.02
864.424	11373.88
864.745	11327.56
865.065	11205.75
865.386	11362.58
865.707	11266.99
866.027	11247.78
866.348	11172.08
866.668	11179.08
866.989	11225.19
867.309	11135.92
867.63	11251.85
867.95	11121.91
868.27	11022.93
868.59	11015.47
868.91	11059.99
869.23	10929.6
869.55	10852.09
869.87	10957.62
870.19	10884.18
870.51	10903.39
870.83	10852.77
871.15	10764.86
871.469	10706.78
871.789	10762.82
872.109	10681.47
872.428	10579.33
872.748	10609.61
873.067	10645.31
873.386	10572.77
873.706	10510.85
874.025	10526.9
874.344	10509.72
874.663	10467.69
874.982	10454.36
875.301	10404.42
875.62	10473.11
875.939	10359.67
876.258	10413.68
876.577	10394.25
876.896	10352.67
877.214	10332.33
877.533	10343.63
877.852	10337.98
878.17	10388.6
878.489	10342.04
878.807	10351.99
879.125	10371.65
879.444	10327.58
879.762	10316.73
880.08	10398.09
880.398	10336.39
880.716	10305.21
881.034	10217.3
881.352	10320.12
881.67	10302.05
881.988	10252.78
882.306	10276.51
882.624	10247.13
882.941	10226.12
883.259	10221.6
883.577	10214.36
883.894	10173.24
884.212	10162.61
884.529	10234.93
884.846	10074.25
885.164	10080.58
885.481	10119.45
885.798	10093.92
886.115	9961.26
886.432	9992.22
886.75	9981.38
887.067	9944.99
887.383	9895.73
887.7	9881.27
888.017	9872.9
888.334	9837.2
888.651	9731.89
888.967	9755.17
889.284	9631.78
889.6	9661.16
889.917	9593.59
890.233	9540.48
890.55	9574.38
890.866	9571.9
891.182	9457.32
891.498	9503.42
891.815	9382.07
892.131	9361.96
892.447	9322.64
892.763	9174.84
893.079	9222.07
893.395	9222.3
893.71	9107.73
894.026	9144.34
894.342	9112.47
894.657	9102.53
894.973	9041.97
895.289	8981.4
895.604	9038.35
895.92	8916.77
896.235	8925.81
896.55	8984.11
896.865	8903.21
897.181	8824.34
897.496	8894.4
897.811	8811.24
898.126	8787.28
898.441	8794.51
898.756	8776.89
899.071	8687.4
899.386	8775.53
899.7	8656.44
900.015	8658.7
900.33	8584.35
900.644	8594.07
900.959	8578.93
901.273	8599.72
901.588	8650.56
901.902	8525.37
902.216	8478.59
902.531	8526.95
902.845	8520.62
903.159	8424.81
903.473	8368.31
903.787	8396.33
904.101	8358.14
904.415	8384.36
904.729	8344.58
905.042	8303.23
905.356	8211.03
905.67	8206.51
905.984	8231.37
906.297	8201.54
906.611	8166.51
906.924	8111.37
907.237	8094.87
907.551	8056
907.864	7983.46
908.177	7983.69
908.491	7987.76
908.804	7859.17
909.117	7864.82
909.43	7762.9
909.743	7757.93
910.056	7754.54
910.368	7683.13
910.681	7666.41
910.994	7596.13
911.307	7539.63
911.619	7456.02
911.932	7470.93
912.244	7366.53
912.557	7403.14
912.869	7308
913.181	7339.19
913.494	7269.81
913.806	7220.09
914.118	7221.22
914.43	7182.58
914.742	7155.24
915.054	7143.48
915.366	7095.58
915.678	7073.43
915.99	6993.88
916.302	6960.21
916.613	6928.35
916.925	6903.49
917.236	6897.84
917.548	6896.49
917.859	6877.5
918.171	6786.66
918.482	6783.95
918.794	6784.17
919.105	6796.83
919.416	6763.38
919.727	6753.21
920.038	6737.85
920.349	6676.6
920.66	6650.62
920.971	6694.23
921.282	6614.68
921.593	6581.01
921.903	6581.69
922.214	6515.48
922.525	6552.77
922.835	6495.37
923.146	6488.36
923.456	6476.84
923.767	6418.53
924.077	6502.15
924.387	6428.25
924.697	6422.83
925.008	6423.96
925.318	6338.53
925.628	6328.82
925.938	6316.16
926.248	6294.47
926.558	6216.73
926.867	6244.75
927.177	6234.13
927.487	6160.01
927.796	6129.5
928.106	6127.92
928.416	6038.88
928.725	6063.29
929.034	6014.25
929.344	5969.5
929.653	5987.36
929.962	5922.27
930.271	5852.67
930.581	5844.99
930.89	5785.55
931.199	5797.76
931.508	5765.67
931.817	5783.52
932.125	5711.88
932.434	5703.97
932.743	5665.33
933.051	5598.44
933.36	5590.53
933.669	5589.63
933.977	5560.02
934.286	5501.72
934.594	5507.82
934.902	5434.6
935.21	5352.35
935.519	5401.84
935.827	5395.96
936.135	5365.68
936.443	5319.35
936.751	5272.12
937.059	5256.3
937.367	5184.21
937.674	5195.74
937.982	5196.19
938.29	5128.85
938.597	5150.54
938.905	5082.52
939.213	5110.77
939.52	5053.82
939.827	5093.82
940.135	5038.23
940.442	5077.78
940.749	5021.05
941.056	5006.37
941.363	4953.71
941.67	4993.71
941.977	4932.7
942.284	4898.8
942.591	4936.76
942.898	4892.47
943.205	4853.6
943.511	4879.59
943.818	4861.06
944.125	4865.58
944.431	4803.21
944.738	4849.31
945.044	4762.76
945.35	4790.1
945.657	4769.99
945.963	4777.45
946.269	4738.12
946.575	4765.24
946.881	4657.9
947.187	4748.52
947.493	4666.71
947.799	4639.82
948.105	4622.19
948.41	4604.12
948.716	4609.31
949.022	4557.11
949.327	4518.47
949.633	4480.96
949.938	4501.29
950.244	4530.45
950.549	4487.06
950.854	4468.07
951.16	4439.37
951.465	4440.28
951.77	4414.29
952.075	4371.13
952.38	4346.95
952.685	4353.28
952.99	4309.21
953.294	4313.05
953.599	4209.55
953.904	4239.15
954.209	4207.52
954.513	4211.58
954.818	4192.83
955.122	4141.76
955.426	4154.41
955.731	4119.38
956.035	4076.67
956.339	4102.21
956.643	4076.22
956.948	4040.97
957.252	4015.66
957.556	4034.64
957.86	3944.25
958.163	3964.59
958.467	3937.69
958.771	3921.42
959.075	3855.66
959.378	3850.01
959.682	3873.51
959.985	3843.23
960.289	3804.36
960.592	3778.15
960.896	3734.53
961.199	3770.24
961.502	3756.68
961.805	3721.43
962.108	3704.25
962.411	3636.01
962.714	3680.07
963.017	3610.24
963.32	3667.64
963.623	3619.96
963.926	3613.41
964.228	3577.48
964.531	3614.09
964.833	3601.43
965.136	3580.87
965.438	3558.27
965.741	3527.31
966.043	3509.23
966.345	3502.45
966.648	3485.95
966.95	3504.71
967.252	3462.23
967.554	3448.89
967.856	3479.17
968.158	3416.8
968.46	3417.93
968.761	3394.43
969.063	3447.31
969.365	3409.57
969.666	3405.73
969.968	3345.17
970.269	3344.71
970.571	3360.08
970.872	3340.87
971.174	3338.84
971.475	3344.94
971.776	3287.54
972.077	3256.81
972.378	3275.11
972.679	3270.82
972.98	3221.55
973.281	3256.81
973.582	3226.3
973.883	3216.36
974.183	3196.02
974.484	3189.92
974.785	3143.36
975.085	3136.13
975.386	3135.23
975.686	3151.5
975.986	3134.78
976.287	3104.27
976.587	3057.26
976.887	3080.09
977.187	3034.21
977.487	3007.77
977.787	2982.24
978.087	2982.46
978.387	2967.32
978.687	2987.44
978.987	2937.72
979.286	2890.04
979.586	2925.29
979.885	2919.19
980.185	2890.26
980.484	2833.77
980.784	2844.61
981.083	2848.23
981.382	2800.77
981.682	2791.73
981.981	2794.67
982.28	2809.14
982.579	2777.95
982.878	2788.12
983.177	2726.65
983.475	2730.04
983.774	2708.8
984.073	2716.26
984.372	2693.21
984.67	2687.78
984.969	2636.71
985.267	2646.65
985.566	2652.3
985.864	2620.67
986.162	2579.76
986.461	2560.1
986.759	2596.94
987.057	2585.64
987.355	2561.46
987.653	2547.45
987.951	2517.17
988.249	2555.13
988.547	2554.9
988.844	2521.01
989.142	2496.6
989.44	2457.73
989.737	2473.55
990.035	2446.66
990.332	2448.69
990.63	2460.67
990.927	2482.59
991.224	2444.62
991.521	2430.84
991.819	2433.55
992.116	2414.34
992.413	2436.49
992.71	2399.65
993.006	2385.19
993.303	2409.82
993.6	2397.39
993.897	2388.81
994.193	2367.79
994.49	2370.5
994.787	2338.64
995.083	2315.81
995.379	2314.91
995.676	2318.53
995.972	2301.58
996.268	2299.32
996.565	2249.38
996.861	2269.94
997.157	2279.66
997.453	2236.72
997.749	2238.75
998.044	2235.59
998.34	2215.93
998.636	2206.21
998.932	2170.73
999.227	2178.64
999.523	2137.29
999.818	2171.86
1000.114	2178.64
1000.409	2148.36
1000.704	2129.83
1001	2117.4
1001.295	2085.99
1001.59	2092.77
1001.885	2076.5
1002.18	2056.84
1002.475	2061.81
1002.77	2056.39
1003.065	2026.33
1003.359	2011.87
1003.654	2000.79
1003.949	1978.42
1004.243	1997.86
1004.538	1964.64
1004.832	1973.45
1005.127	1911.08
1005.421	1937.07
1005.715	1936.62
1006.009	1900.46
1006.304	1890.06
1006.598	1882.15
1006.892	1875.6
1007.186	1866.79
1007.48	1869.72
1007.773	1855.94
1008.067	1835.15
1008.361	1812.33
1008.655	1778.43
1008.948	1769.84
1009.242	1757.64
1009.535	1765.77
1009.829	1763.51
1010.122	1736.17
1010.415	1728.49
1010.708	1721.71
1011.001	1677.41
1011.295	1704.08
1011.588	1672.44
1011.881	1692.33
1012.173	1691.65
1012.466	1663.63
1012.759	1659.79
1013.052	1680.35
1013.344	1647.13
1013.637	1618.88
1013.93	1637.41
1014.222	1586.34
1014.514	1591.99
1014.807	1581.14
1015.099	1556.06
1015.391	1591.77
1015.683	1554.48
1015.976	1554.03
1016.268	1540.02
1016.56	1530.75
1016.851	1524.88
1017.143	1514.03
1017.435	1523.75
1017.727	1509.73
1018.018	1496.18
1018.31	1526.01
1018.602	1489.17
1018.893	1497.31
1019.185	1461.83
1019.476	1462.28
1019.767	1462.5
1020.058	1441.26
1020.35	1430.19
1020.641	1419.12
1020.932	1410.08
1021.223	1413.69
1021.514	1414.82
1021.804	1382.96
1022.095	1404.88
1022.386	1385.22
1022.677	1357.65
1022.967	1367.59
1023.258	1352.22
1023.548	1315.62
1023.839	1329.17
1024.129	1321.94
1024.419	1293.02
1024.709	1291.43
1025	1282.62
1025.29	1301.6
1025.58	1295.95
1025.87	1278.55
1026.16	1264.77
1026.449	1277.2
1026.739	1261.61
1027.029	1244.88
1027.319	1238.56
1027.608	1237.43
1027.898	1236.07
1028.187	1232.23
1028.477	1201.72
1028.766	1188.61
1029.055	1184.32
1029.344	1185.9
1029.634	1180.7
1029.923	1159.46
1030.212	1158.11
1030.501	1139.57
1030.79	1161.72
1031.078	1148.84
1031.367	1127.82
1031.656	1125.11
1031.945	1119.24
1032.233	1095.28
1032.522	1089.63
1032.81	1055.73
1033.099	1048.5
1033.387	1062.29
1033.675	1055.28
1033.963	1057.99
1034.251	1059.8
1034.54	1050.09
1034.828	1011.22
1035.116	1020.71
1035.403	983.19
1035.691	1002.18
1035.979	995.62
1036.267	1017.54
1036.554	1001.05
1036.842	991.78
1037.129	979.13
1037.417	987.94
1037.704	951.56
1037.992	954.27
1038.279	946.36
1038.566	977.32
1038.853	977.32
1039.14	977.32
