Data from red_shiny_book_FLMS001491_00076.txt Node
Date: Wed Feb 08 15:25:21 GMT 2017
User: dcchb
Spectrometer: FLMS00149
Trigger mode: 0
Integration Time (sec): 2.000000E-2
Scans to average: 10
Electric dark correction enabled: true
Nonlinearity correction enabled: false
Boxcar width: 0
XAxis mode: Wavelengths
Number of Pixels in Spectrum: 2048
>>>>>Begin Spectral Data<<<<<
341.393	-12.74
341.776	-12.74
342.16	-12.74
342.543	-40.31
342.927	-62.46
343.31	-65.62
343.693	-88.44
344.077	-51.16
344.46	-62.68
344.843	-69.24
345.226	-10.71
345.61	-28.56
345.993	-37.6
346.376	-13.19
346.759	14.15
347.142	39.46
347.525	24.55
347.908	50.76
348.291	80.59
348.674	108.84
349.057	108.84
349.44	118.1
349.823	167.37
350.206	178.44
350.588	217.54
350.971	215.05
351.354	232.23
351.737	268.38
352.119	248.27
352.502	263.41
352.884	309.29
353.267	318.78
353.65	292.11
354.032	309.74
354.414	312.68
354.797	321.04
355.179	316.07
355.562	341.38
355.944	340.47
356.326	350.19
356.709	356.52
357.091	348.61
357.473	349.96
357.855	327.59
358.238	371.2
358.62	338.89
359.002	347.48
359.384	340.47
359.766	351.54
360.148	340.47
360.53	332.34
360.912	338.89
361.294	343.18
361.676	332.11
362.057	338.66
362.439	355.61
362.821	335.95
363.203	335.27
363.584	327.59
363.966	343.18
364.348	318.1
364.729	344.54
365.111	329.62
365.493	323.52
365.874	314.26
366.256	314.48
366.637	333.01
367.019	322.39
367.4	338.44
367.781	323.97
368.163	338.44
368.544	322.39
368.925	323.07
369.306	309.06
369.688	323.07
370.069	320.13
370.45	339.57
370.831	340.47
371.212	314.26
371.593	318.32
371.974	323.52
372.355	318.55
372.736	330.3
373.117	328.72
373.498	323.97
373.879	324.43
374.26	331.21
374.641	353.58
375.021	327.59
375.402	334.37
375.783	331.66
376.163	329.85
376.544	345.89
376.925	327.36
377.305	328.95
377.686	347.48
378.066	333.24
378.447	359
378.827	346.35
379.208	333.69
379.588	342.96
379.968	352
380.349	357.19
380.729	342.73
381.109	355.84
381.489	358.1
381.87	345.67
382.25	341.15
382.63	352.67
383.01	348.15
383.39	343.86
383.77	348.38
384.15	359
384.53	349.74
384.91	351.77
385.29	355.39
385.67	368.72
386.049	360.81
386.429	350.64
386.809	360.81
387.189	368.95
387.568	356.97
387.948	375.72
388.328	368.49
388.707	369.62
389.087	361.26
389.466	367.59
389.846	357.42
390.225	347.7
390.605	380.7
390.984	374.14
391.363	384.76
391.743	384.99
392.122	379.34
392.501	384.99
392.881	394.93
393.26	402.84
393.639	374.59
394.018	382.73
394.397	373.24
394.776	390.19
395.155	406.91
395.534	396.74
395.913	399.45
396.292	394.03
396.671	401.71
397.05	390.41
397.429	390.87
397.808	393.58
398.186	399.9
398.565	403.07
398.944	389.51
399.323	394.48
399.701	399
400.08	402.39
400.458	435.38
400.837	416.85
401.215	433.35
401.594	400.36
401.972	401.26
402.351	391.32
402.729	433.12
403.107	430.86
403.486	410.07
403.864	415.72
404.242	430.86
404.62	432.22
404.999	456.4
405.377	422.05
405.755	417.08
406.133	442.84
406.511	423.86
406.889	460.47
407.267	456.4
407.645	451.88
408.023	447.81
408.401	481.94
408.779	437.19
409.156	463.86
409.534	447.59
409.912	435.38
410.29	469.28
410.667	474.03
411.045	469.28
411.422	464.76
411.8	495.95
412.178	485.55
412.555	499.79
412.933	489.39
413.31	502.5
413.687	491.43
414.065	505.44
414.442	514.7
414.819	523.74
415.197	522.84
415.574	530.52
415.951	535.49
416.328	532.33
416.705	516.74
417.082	525.78
417.46	528.49
417.837	538.66
418.214	526.46
418.591	540.01
418.967	532.1
419.344	575.27
419.721	554.48
420.098	565.1
420.475	562.16
420.852	550.64
421.228	562.84
421.605	548.83
421.982	571.88
422.358	576.85
422.735	572.1
423.111	580.92
423.488	589.96
423.864	600.58
424.241	588.37
424.617	631.31
424.994	585.89
425.37	612.55
425.746	598.54
426.123	616.17
426.499	609.84
426.875	627.47
427.251	613.46
427.627	617.75
428.003	623.18
428.379	650.29
428.756	628.6
429.132	655.04
429.507	643.97
429.883	648.26
430.259	677.41
430.635	677.41
431.011	672.21
431.387	668.82
431.763	668.82
432.138	684.64
432.514	687.58
432.89	695.72
433.265	715.6
433.641	710.63
434.016	717.86
434.392	720.35
434.767	735.26
435.143	722.61
435.518	761.48
435.894	732.33
436.269	730.07
436.644	753.57
437.02	755.15
437.395	752.21
437.77	789.95
438.145	768.48
438.52	796.5
438.895	794.02
439.271	787.69
439.646	798.99
440.021	781.82
440.395	790.18
440.77	787.47
441.145	798.31
441.52	826.33
441.895	808.48
442.27	841.48
442.645	799.22
443.019	858.88
443.394	850.29
443.769	844.19
444.143	858.42
444.518	853
444.892	820.91
445.267	833.11
445.641	850.51
446.016	863.4
446.39	845.77
446.764	821.59
447.139	854.13
447.513	879.67
447.887	886.45
448.262	881.25
448.636	879.21
449.01	888.71
449.384	887.8
449.758	881.7
450.132	866.11
450.506	854.36
450.88	895.26
451.254	884.64
451.628	878.76
452.002	928.03
452.376	911.53
452.75	936.84
453.123	941.59
453.497	943.62
453.871	961.02
454.244	947.69
454.618	954.92
454.992	931.87
455.365	927.12
455.739	960.34
456.112	956.05
456.486	960.79
456.859	990.62
457.232	1003.73
457.606	1020.68
457.979	1047.35
458.352	1020.45
458.725	1003.73
459.099	1019.55
459.472	1039.89
459.845	1048.93
460.218	1038.76
460.591	1019.78
460.964	1028.81
461.337	1039.89
461.71	1050.74
462.083	1052.32
462.456	1078.08
462.829	1098.64
463.201	1084.41
463.574	1112.43
463.947	1125.31
464.32	1167.57
464.692	1111.52
465.065	1118.53
465.438	1118.3
465.81	1100.23
466.183	1111.07
466.555	1128.47
466.928	1127.34
467.3	1149.49
467.672	1167.79
468.045	1178.64
468.417	1220.9
468.789	1241.24
469.161	1243.05
469.534	1249.83
469.906	1261.58
470.278	1250.5
470.65	1244.4
471.022	1247.34
471.394	1256.38
471.766	1241.92
472.138	1279.43
472.51	1290.28
472.882	1346.32
473.253	1331.86
473.625	1388.35
473.997	1406.43
474.369	1404.4
474.74	1469.48
475.112	1439.43
475.484	1439.43
475.855	1468.35
476.227	1483.94
476.598	1461.12
476.97	1478.52
477.341	1474
477.713	1521.68
478.084	1529.37
478.455	1562.13
478.827	1574.56
479.198	1648.01
479.569	1639.65
479.94	1697.27
480.311	1749.93
480.682	1746.76
481.053	1778.85
481.424	1752.19
481.795	1760.32
482.166	1768
482.537	1740.21
482.908	1737.5
483.279	1801.45
483.65	1856.36
484.021	1893.42
484.391	1908.34
484.762	1942.92
485.133	2019.07
485.503	2010.71
485.874	2090.71
486.244	2105.85
486.615	2150.37
486.985	2121.44
487.356	2145.17
487.726	2155.11
488.097	2129.35
488.467	2152.4
488.837	2151.72
489.207	2192.17
489.578	2222.68
489.948	2258.39
490.318	2321.21
490.688	2379.29
491.058	2413.64
491.428	2469.91
491.798	2525.05
492.168	2557.14
492.538	2555.1
492.908	2569.11
493.278	2592.84
493.648	2558.72
494.017	2548.55
494.387	2507.42
494.757	2537.7
495.126	2588.32
495.496	2581.09
495.866	2631.94
496.235	2659.96
496.605	2732.95
496.974	2791.03
497.344	2842.78
497.713	2842.1
498.082	2901.08
498.452	2898.6
498.821	2926.62
499.19	2845.26
499.559	2870.35
499.928	2867.86
500.298	2836.68
500.667	2864.25
501.036	2828.09
501.405	2854.98
501.774	2882.55
502.143	2878.71
502.512	2917.8
502.88	2936.56
503.249	3031.25
503.618	3047.07
503.987	3083
504.356	3137.23
504.724	3144.24
505.093	3137.91
505.462	3101.98
505.83	3113.73
506.199	3092.04
506.567	3114.18
506.936	3039.38
507.304	3056.33
507.672	2993.51
508.041	3038.03
508.409	3084.13
508.777	3088.42
509.145	3149.66
509.514	3196.44
509.882	3240.73
510.25	3251.81
510.618	3341.75
510.986	3343.33
511.354	3313.95
511.722	3353.95
512.09	3312.82
512.458	3301.3
512.826	3266.72
513.193	3232.15
513.561	3129.32
513.929	3177.91
514.297	3212.26
514.664	3197.12
515.032	3230.34
515.4	3269.89
515.767	3337.23
516.135	3361.18
516.502	3388.98
516.869	3448.41
517.237	3479.6
517.604	3525.02
517.972	3559.14
518.339	3500.84
518.706	3473.04
519.073	3479.15
519.44	3428.75
519.808	3455.19
520.175	3393.95
520.542	3378.81
520.909	3351.69
521.276	3370.45
521.643	3412.93
522.009	3407.06
522.376	3522.08
522.743	3525.25
523.11	3587.17
523.477	3666.94
523.843	3749.42
524.21	3773.15
524.577	3791.23
524.943	3855.18
525.31	3810.89
525.676	3772.92
526.043	3755.75
526.409	3780.61
526.776	3727.27
527.142	3727.73
527.508	3664.68
527.874	3678.69
528.241	3662.87
528.607	3757.33
528.973	3769.76
529.339	3849.31
529.705	3926.82
530.071	4044.78
530.437	4062.41
530.803	4108.96
531.169	4226.92
531.535	4205.23
531.901	4223.53
532.267	4226.02
532.632	4259.24
532.998	4220.37
533.364	4168.17
533.73	4165.91
534.095	4107.83
534.461	4127.72
534.826	4107.83
535.192	4102.86
535.557	4141.95
535.923	4193.03
536.288	4280.25
536.653	4295.85
537.019	4443.41
537.384	4497.65
537.749	4543.52
538.114	4631.88
538.479	4697.42
538.845	4677.31
539.21	4659.23
539.575	4642.51
539.94	4677.98
540.305	4684.54
540.67	4648.61
541.034	4574.71
541.399	4556.63
541.764	4502.62
542.129	4529.06
542.494	4498.1
542.858	4570.42
543.223	4586.91
543.587	4650.41
543.952	4725.44
544.316	4787.81
544.681	4880.46
545.045	4931.31
545.41	5075.94
545.774	5070.06
546.138	5162.27
546.503	5157.29
546.867	5127.92
547.231	5130.85
547.595	5138.99
547.959	5069.84
548.324	4984.64
548.688	4962.27
549.052	4912.55
549.416	4841.37
549.779	4802.05
550.143	4788.04
550.507	4888.6
550.871	4938.99
551.235	4919.11
551.599	5051.99
551.962	5080.46
552.326	5192.77
552.689	5251.3
553.053	5291.3
553.417	5324.3
553.78	5406.1
554.143	5406.33
554.507	5349.38
554.87	5428.47
555.234	5331.98
555.597	5307.57
555.96	5228.03
556.323	5201.36
556.686	5096.73
557.05	5074.13
557.413	5066
557.776	5041.82
558.139	5028.26
558.502	5043.62
558.865	5142.38
559.228	5223.28
559.59	5294.47
559.953	5355.71
560.316	5469.83
560.679	5552.76
561.041	5684.96
561.404	5689.26
561.767	5799.76
562.129	5707.56
562.492	5753.66
562.854	5718.41
563.217	5698.97
563.579	5593.67
563.941	5569.26
564.304	5508.92
564.666	5452.65
565.028	5388.02
565.39	5363.62
565.753	5377.63
566.115	5367.68
566.477	5382.15
566.839	5441.81
567.201	5542.59
567.563	5578.98
567.925	5649.48
568.287	5826.88
568.648	5836.82
569.01	5982.36
569.372	6069.13
569.734	6132.86
570.095	6174.67
570.457	6150.94
570.819	6168.34
571.18	6143.03
571.542	6157.95
571.903	6064.84
572.265	6064.16
572.626	5954.11
572.987	5856.48
573.349	5876.14
573.71	5863.26
574.071	5838.86
574.432	5954.11
574.794	6023.71
575.155	6100.09
575.516	6139.19
575.877	6343.03
576.238	6421.44
576.599	6560.87
576.96	6749.34
577.32	6861.2
577.681	6997.25
578.042	7138.03
578.403	7218.26
578.763	7351.36
579.124	7400.85
579.485	7502.32
579.845	7583.9
580.206	7574.18
580.566	7625.93
580.927	7752.03
581.287	7787.73
581.648	7872.7
582.008	8049.42
582.368	8183.43
582.728	8389.3
583.089	8591.78
583.449	8817.54
583.809	9085.55
584.169	9439.22
584.529	9752.43
584.889	10179.99
585.249	10502.69
585.609	10870.82
585.969	11320.75
586.329	11704.92
586.688	12144.91
587.048	12452.7
587.408	12821.5
587.768	13137.87
588.127	13567.24
588.487	13856.95
588.846	14230.5
589.206	14429.14
589.565	14734.44
589.925	15146.64
590.284	15467.76
590.643	15831.36
591.003	16143.22
591.362	16673.38
591.721	17053.25
592.08	17469.29
592.44	18075.15
592.799	18607.56
593.158	19071.96
593.517	19600.98
593.876	20140.4
594.235	20647.06
594.593	21137.89
594.952	21904.65
595.311	22205.66
595.67	22811.97
596.029	23415.8
596.387	23764.26
596.746	24384.58
597.104	24560.63
597.463	25014.17
597.822	25369.19
598.18	25686.02
598.538	25986.12
598.897	26470.63
599.255	26549.95
599.613	27271.29
599.972	27384.05
600.33	27847.09
600.688	28128.89
601.046	28680.29
601.404	29095.2
601.762	29469.2
602.12	30156.41
602.478	30665.1
602.836	31027.57
603.194	31363.84
603.552	31972.86
603.91	32167.43
604.268	32903.68
604.625	33046.96
604.983	33543.89
605.341	33838.35
605.698	34386.58
606.056	34570.31
606.413	34777.53
606.771	35146.56
607.128	35475.82
607.485	35455.03
607.843	35684.85
608.2	35822.25
608.557	36320.99
608.914	36228.57
609.272	36703.36
609.629	36862
609.986	37110.35
610.343	37263.34
610.7	37782.88
611.057	37953.95
611.414	38256.76
611.771	38543.53
612.127	38850.87
612.484	39143.97
612.841	39473.45
613.198	39719.1
613.554	39976.27
613.911	40260.1
614.267	40556.14
614.624	40743.48
614.98	40973.98
615.337	41150.02
615.693	41341.2
616.05	41390.69
616.406	41568.09
616.762	41486.28
617.118	41684.02
617.475	41593.4
617.831	41721.3
618.187	41941.86
618.543	41869.32
618.899	42180.28
619.255	42097.34
619.611	42107.73
619.967	42457.78
620.323	42640.6
620.678	42648.06
621.034	42646.03
621.39	42808.51
621.746	43004.66
622.101	43480.35
622.457	43260.47
622.812	43537.53
623.168	43774.58
623.523	44029.72
623.879	44136.16
624.234	44039.89
624.589	44226.55
624.945	44311.52
625.3	44468.35
625.655	44437.16
626.01	44432.42
626.365	44385.41
626.72	44338.41
627.075	44233.78
627.43	44224.52
627.785	44065.65
628.14	44132.54
628.495	44090.73
628.85	44006.22
629.205	43946.1
629.559	44105.42
629.914	43854.13
630.269	44050.28
630.623	44069.26
630.978	44112.65
631.332	44381.12
631.687	44408.92
632.041	44396.94
632.396	44476.71
632.75	44457.96
633.104	44689.81
633.459	44545.18
633.813	44756.93
634.167	44670.15
634.521	44789.47
634.875	44875.8
635.229	44744.95
635.583	44510.61
635.937	44535.24
636.291	44621.57
636.645	44469.03
636.999	44463.15
637.352	44314.46
637.706	44084.86
638.06	44242.59
638.413	44044.41
638.767	43821.59
639.121	43813.9
639.474	43528.94
639.828	43436.51
640.181	43782.94
640.534	43688.48
640.888	43653.91
641.241	43497.75
641.594	43622.5
641.947	43790.18
642.301	43812.77
642.654	43898.42
643.007	43886.44
643.36	44032.66
643.713	43975.93
644.066	44186.78
644.419	44059.77
644.771	43795.6
645.124	43349.96
645.477	43327.59
645.83	42968.28
646.182	42864.1
646.535	42788.17
646.888	42851.9
647.24	42638.12
647.593	42765.34
647.945	42537.78
648.298	42349.99
648.65	42060.73
649.002	41842.43
649.355	42027.74
649.707	41861.64
650.059	41981.64
650.411	42262.53
650.763	42478.8
651.115	42756.08
651.467	42771.9
651.819	42699.13
652.171	42757.21
652.523	42511.79
652.875	42655.74
653.227	42638.34
653.578	43043.08
653.93	43078.56
654.282	42867.71
654.633	42907.94
654.985	43017.54
655.337	42988.84
655.688	43097.99
656.039	43267.25
656.391	42889.63
656.742	42943.19
657.094	43022.96
657.445	43151.1
657.796	42876.98
658.147	42737.1
658.498	42607.83
658.849	42679.7
659.2	42441.74
659.551	42241.74
659.902	42377.78
660.253	42215.98
660.604	42082.42
660.955	42016.44
661.306	41913.62
661.656	41870.68
662.007	41839.49
662.358	41909.32
662.708	41981.64
663.059	41907.97
663.409	41779.83
663.76	42113.38
664.11	42199.71
664.461	42309.54
664.811	42359.25
665.161	42286.94
665.511	42342.08
665.862	42437.44
666.212	42626.14
666.562	42582.98
666.912	42447.84
667.262	42455.75
667.612	42506.82
667.962	42422.98
668.312	42444.22
668.662	42622.3
669.011	42432.7
669.361	42198.81
669.711	42152.71
670.06	41957
670.41	41841.75
670.76	41662.32
671.109	41778.48
671.459	41638.37
671.808	41360.41
672.157	41572.61
672.507	41273.86
672.856	41318.15
673.205	41269.79
673.554	41460.07
673.904	41197.25
674.253	41433.4
674.602	41380.52
674.951	40886.98
675.3	40712.74
675.649	41490.8
675.998	41464.36
676.346	41525.83
676.695	41617.13
677.044	41465.49
677.393	41681.98
677.741	41751.81
678.09	41688.76
678.438	41583.91
678.787	41681.98
679.135	41777.8
679.484	41498.49
679.832	41459.84
680.181	41280.41
680.529	41344.14
680.877	41049.68
681.225	41101.21
681.573	41233.41
681.922	40923.58
682.27	40681.33
682.618	40710.03
682.966	40454.67
683.314	40505.52
683.661	40257.61
684.009	39963.61
684.357	39917.28
684.705	39851.3
685.053	40024.4
685.4	39984.4
685.748	39652.66
686.095	39768.81
686.443	39578.76
686.79	39734.46
687.138	39710.06
687.485	39725.65
687.832	39802.03
688.18	39866.66
688.527	39711.19
688.874	39686.78
689.221	39671.19
689.568	39712.32
689.915	39717.74
690.262	39613.34
690.609	39603.17
690.956	39466.9
691.303	39321.82
691.65	39182.39
691.997	39196.4
692.344	38964.77
692.69	38809.06
693.037	38804.54
693.383	38432.13
693.73	38555.96
694.077	38242.75
694.423	38185.13
694.769	37875.53
695.116	37765.25
695.462	37800.73
695.808	37618.59
696.155	37420.4
696.501	37248.2
696.847	37259.27
697.193	36929.34
697.539	37123.23
697.885	36743.81
698.231	36817.25
698.577	36744.71
698.923	36773.19
699.269	36629.46
699.614	36557.82
699.96	36436.47
700.306	36501.55
700.651	36428.34
700.997	36451.16
701.342	36397.6
701.688	36472.63
702.033	36345.4
702.379	36469.24
702.724	36376.59
703.069	36429.47
703.415	36023.6
703.76	36019.76
704.105	36037.61
704.45	35905.86
704.795	35698.64
705.14	35615.02
705.485	35481.24
705.83	35248.71
706.175	35238.08
706.52	35106.79
706.865	34939.79
707.209	34774.82
707.554	34437.43
707.899	34621.83
708.243	34319.69
708.588	34354.94
708.932	34043.31
709.277	33909.98
709.621	33910.89
709.966	33692.36
710.31	33801.29
710.654	33552.93
710.998	33616.21
711.342	33637.22
711.687	33572.82
712.031	33476.32
712.375	33425.7
712.719	33600.84
713.063	33517.9
713.407	33635.87
713.75	33419.6
714.094	33604.68
714.438	33430.22
714.782	33554.29
715.125	33484.23
715.469	33478.13
715.812	33365.37
716.156	33271.13
716.499	33255.99
716.843	33254.41
717.186	33070.46
717.53	33218.25
717.873	33193.84
718.216	33041.31
718.559	32864.36
718.902	32622.33
719.246	32429.35
719.589	32394.77
719.932	32338.5
720.275	32159.97
720.617	32094.44
720.96	31940.32
721.303	31877.95
721.646	31851.28
721.989	31556.6
722.331	31715.69
722.674	31549.14
723.016	31526.32
723.359	31432.31
723.701	31500.78
724.044	31211.98
724.386	31229.15
724.729	31308.02
725.071	31259.43
725.413	31201.81
725.755	31159.1
726.097	31255.59
726.439	31135.14
726.782	31157.51
727.124	31334.23
727.465	31249.72
727.807	31229.38
728.149	31126.55
728.491	31209.49
728.833	31340.56
729.175	31186.44
729.516	31132.66
729.858	31060.79
730.199	31116.61
730.541	31011.08
730.882	30917.52
731.224	30988.48
731.565	30703.51
731.906	30807.47
732.248	30685.44
732.589	30491.32
732.93	30256.07
733.271	30308.95
733.612	30247.48
733.953	30228.05
734.294	29996.64
734.635	29824.22
734.976	29947.38
735.317	29688.17
735.658	29791.45
735.999	29760.49
736.339	29567.95
736.68	29516.2
737.021	29503.77
737.361	29273.27
737.702	29516.65
738.042	29354.17
738.383	29358.69
738.723	29506.26
739.063	29331.35
739.404	29378.8
739.744	29455.19
740.084	29402.76
740.424	29463.55
740.764	29342.42
741.104	29577.67
741.444	29503.32
741.784	29375.87
742.124	29526.6
742.464	29346.94
742.804	29378.8
743.143	29348.07
743.483	29398.69
743.823	29208.19
744.162	29390.78
744.502	29377.22
744.841	29116.44
745.181	29245.7
745.52	29003.9
745.86	29022.43
746.199	28891.36
746.538	28837.8
746.877	28784.02
747.216	28744.02
747.556	28610.24
747.895	28559.39
748.234	28296.8
748.573	28226.07
748.911	28146.97
749.25	28151.49
749.589	27953.08
749.928	27851.39
750.267	27902.68
750.605	27819.75
750.944	27738.62
751.283	27566.87
751.621	27664.95
751.96	27454.79
752.298	27418.86
752.636	27470.83
752.975	27394
753.313	27407.1
753.651	27508.34
753.989	27169.6
754.327	27237.39
754.666	27251.18
755.004	27298.41
755.342	27431.06
755.679	27313.77
756.017	27139.54
756.355	27308.8
756.693	27249.59
757.031	27298.18
757.368	27165.75
757.706	27155.59
758.044	26991.75
758.381	27145.19
758.719	26821.81
759.056	26896.16
759.394	26810.96
759.731	26680.12
760.068	26697.74
760.405	26486.68
760.743	26356.74
761.08	26433.12
761.417	26255.72
761.754	26128.72
762.091	26000.59
762.428	25772.8
762.765	25645.57
763.102	25747.26
763.438	25484.67
763.775	25291.23
764.112	25284.22
764.449	25187.05
764.785	25048.07
765.122	24884.23
765.458	24995.87
765.795	24807.62
766.131	24745.71
766.467	24581.19
766.804	24634.52
767.14	24483.57
767.476	24513.62
767.812	24379.16
768.148	24475.43
768.485	24402.66
768.821	24218.49
769.157	24254.42
769.492	24158.83
769.828	24265.27
770.164	24086.06
770.5	24023.92
770.836	24113.86
771.171	23978.04
771.507	23966.97
771.842	23721.1
772.178	23836.58
772.513	23800.87
772.849	23739.4
773.184	23629.12
773.519	23600.88
773.855	23448.56
774.19	23384.16
774.525	23343.03
774.86	23307.1
775.195	23171.28
775.53	22933.55
775.865	23017.84
776.2	22710.05
776.535	22498.76
776.87	22490.85
777.205	22382.83
777.539	22234.58
777.874	22221.48
778.209	21934.71
778.543	21984.42
778.878	21785.11
779.212	21793.24
779.547	21599.35
779.881	21559.35
780.215	21450.88
780.55	21464.21
780.884	21346.92
781.218	21197.78
781.552	21197.1
781.886	20994.39
782.22	20897.9
782.554	20837.79
782.888	20703.55
783.222	20733.83
783.556	20632.82
783.889	20615.87
784.223	20488.87
784.557	20460.85
784.89	20517.57
785.224	20479.38
785.557	20443.9
785.891	20356.67
786.224	20344.47
786.558	20358.7
786.891	20181.08
787.224	20182.21
787.557	20148.31
787.891	20137.69
788.224	20133.62
788.557	20127.75
788.89	20063.12
789.223	19998.49
789.556	19810.24
789.888	19782.9
790.221	19806.17
790.554	19619.74
790.887	19570.7
791.219	19499.06
791.552	19423.59
791.884	19343.81
792.217	19295
792.549	19072.41
792.882	18957.83
793.214	18899.76
793.546	18844.39
793.879	18709.25
794.211	18492.31
794.543	18658.86
794.875	18598.07
795.207	18443.72
795.539	18419.09
795.871	18302.48
796.203	18088.93
796.535	18053.68
796.867	17936.39
797.198	17936.17
797.53	17958.54
797.862	17780.92
798.193	17802.61
798.525	17632.22
798.856	17676.29
799.188	17529.4
799.519	17517.87
799.85	17455.28
800.182	17571.88
800.513	17445.11
800.844	17365.11
801.175	17418.21
801.506	17435.16
801.837	17366.92
802.168	17307.03
802.499	17303.19
802.83	17186.13
803.161	17150.2
803.491	17206.69
803.822	17171.67
804.153	17177.32
804.483	17060.71
804.814	17046.02
805.145	17070.2
805.475	17003.99
805.805	16950.88
806.136	16919.92
806.466	16957.89
806.796	16927.38
807.126	16676.09
807.457	16714.05
807.787	16636.31
808.117	16487.39
808.447	16470.89
808.777	16470.89
809.107	16410.78
809.436	16304.12
809.766	16265.7
810.096	16147.29
810.426	16078.59
810.755	16131.24
811.085	16083.56
811.414	15943.45
811.744	15824.58
812.073	15774.42
812.403	15718.82
812.732	15615.1
813.061	15622.33
813.39	15442
813.719	15473.86
814.049	15546.63
814.378	15505.27
814.707	15355.67
815.036	15349.57
815.365	15313.64
815.693	15099.63
816.022	15149.8
816.351	15113.87
816.68	15015.11
817.008	15164.71
817.337	15029.58
817.665	14955.45
817.994	15087.2
818.322	15087.88
818.651	15031.38
818.979	15034.77
819.307	15047.2
819.636	15030.93
819.964	14987.32
820.292	14976.47
820.62	14989.13
820.948	15037.03
821.276	15061.89
821.604	15010.59
821.932	15014.44
822.259	15046.75
822.587	14982.57
822.915	14968.79
823.243	15054.89
823.57	14965.85
823.898	14926.98
824.225	14939.64
824.553	14899.18
824.88	14912.97
825.207	14978.28
825.535	15011.95
825.862	14943.7
826.189	14829.81
826.516	14896.25
826.843	14905.74
827.17	14889.92
827.497	14770.83
827.824	14847.21
828.151	14801.33
828.478	14683.82
828.805	14669.59
829.131	14683.37
829.458	14623.94
829.785	14508.01
830.111	14616.03
830.438	14624.16
830.764	14661.22
831.09	14573.77
831.417	14527.44
831.743	14538.52
832.069	14563.6
832.395	14493.77
832.722	14562.47
833.048	14437.05
833.374	14495.13
833.7	14409.03
834.026	14492.64
834.351	14439.31
834.677	14478.86
835.003	14518.63
835.329	14497.16
835.654	14505.07
835.98	14455.58
836.306	14475.01
836.631	14411.97
836.956	14471.63
837.282	14473.66
837.607	14446.32
837.932	14424.39
838.258	14487.44
838.583	14414.9
838.908	14419.65
839.233	14475.69
839.558	14380.33
839.883	14379.2
840.208	14319.99
840.533	14428.01
840.858	14316.6
841.182	14384.62
841.507	14238.86
841.832	14211.74
842.156	14194.57
842.481	14315.92
842.805	14176.27
843.13	14128.58
843.454	14063.27
843.778	13942.15
844.103	13965.42
844.427	13888.82
844.751	13969.27
845.075	13828.93
845.399	13709.61
845.723	13700.12
846.047	13649.05
846.371	13547.13
846.695	13566.34
847.019	13451.09
847.343	13329.51
847.666	13255.39
847.99	13169.51
848.313	13110.53
848.637	13067.37
848.96	13043.19
849.284	12906.47
849.607	12874.83
849.931	12779.01
850.254	12708.73
850.577	12700.6
850.9	12647.27
851.223	12568.17
851.546	12607.95
851.869	12434.84
852.192	12557.78
852.515	12425.58
852.838	12336.09
853.161	12399.14
853.483	12343.77
853.806	12340.83
854.129	12323.21
854.451	12275.07
854.774	12195.3
855.096	12160.5
855.419	12214.51
855.741	12198.92
856.063	12133.16
856.385	12093.83
856.708	12024.91
857.03	12092.48
857.352	12071.69
857.674	12057.23
857.996	12049.09
858.318	12031.24
858.64	12013.61
858.961	11871.24
859.283	11864.91
859.605	11891.81
859.926	11954.63
860.248	11911.01
860.57	11833.28
860.891	11808.19
861.212	11730.23
861.534	11669.66
861.855	11718.03
862.176	11630.8
862.498	11591.93
862.819	11552.15
863.14	11515.77
863.461	11463.12
863.782	11401.65
864.103	11392.16
864.424	11384.93
864.745	11331.37
865.065	11326.62
865.386	11235.1
865.707	11197.59
866.027	11245.95
866.348	11088.44
866.668	11165.5
866.989	11114.43
867.309	11029.68
867.63	11083.24
867.95	10932.06
868.27	10971.83
868.59	10959.18
868.91	10955.33
869.23	10895.9
869.55	10853.87
869.87	10879.18
870.19	10823.81
870.51	10878.73
870.83	10799.63
871.15	10863.13
871.469	10787.88
871.789	10821.55
872.109	10722.35
872.428	10736.58
872.748	10727.32
873.067	10773.19
873.386	10778.61
873.706	10819.52
874.025	10724.15
874.344	10738.16
874.663	10790.14
874.982	10760.08
875.301	10757.6
875.62	10707.2
875.939	10680.09
876.258	10746.3
876.577	10732.74
876.896	10709.46
877.214	10659.75
877.533	10677.15
877.852	10675.79
878.17	10659.97
878.489	10671.73
878.807	10660.2
879.125	10625.85
879.444	10647.54
879.762	10561.22
880.08	10567.55
880.398	10541.11
880.716	10533.88
881.034	10460.88
881.352	10568.45
881.67	10438.51
881.988	10476.25
882.306	10411.84
882.624	10393.09
882.941	10264.96
883.259	10193.09
883.577	10197.39
883.894	10151.96
884.212	10099.76
884.529	10089.14
884.846	10109.71
885.164	10083.49
885.481	9949.03
885.798	9972.31
886.115	9935.7
886.432	9966.88
886.75	9887.11
887.067	9853.22
887.383	9850.73
887.7	9848.02
888.017	9718.53
888.334	9818.64
888.651	9716.27
888.967	9752.43
889.284	9641.47
889.6	9645.99
889.917	9492.32
890.233	9519.21
890.55	9481.25
890.866	9575.26
891.182	9451.19
891.498	9415.94
891.815	9433.57
892.131	9433.79
892.447	9391.31
892.763	9370.97
893.079	9438.76
893.395	9421.81
893.71	9347.69
894.026	9355.83
894.342	9283.29
894.657	9315.15
894.973	9309.95
895.289	9336.62
895.604	9268.15
895.92	9209.62
896.235	9212.78
896.55	9166.45
896.865	9230.18
897.181	9168.26
897.496	9169.62
897.811	9172.33
898.126	9106.34
898.441	9065.67
898.756	9061.15
899.071	9027.7
899.386	9013.24
899.7	8888.5
900.015	8857.99
900.33	8889.4
900.644	8846.01
900.959	8834.26
901.273	8797.65
901.588	8746.8
901.902	8674.72
902.216	8683.08
902.531	8610.31
902.845	8636.07
903.159	8502.74
903.473	8486.02
903.787	8474.95
904.101	8412.58
904.415	8349.53
904.729	8331.45
905.042	8265.01
905.356	8246.03
905.67	8181.4
905.984	8232.92
906.297	8139.81
906.611	8097.33
906.924	8000.38
907.237	8036.31
907.551	7940.95
907.864	7877
908.177	7895.75
908.491	7905.47
908.804	7846.04
909.117	7767.62
909.43	7672.93
909.743	7733.72
910.056	7656.66
910.368	7657.12
910.681	7542.99
910.994	7576.44
911.307	7564.46
911.619	7458.93
911.932	7514.97
912.244	7443.79
912.557	7424.35
912.869	7409.89
913.181	7401.75
913.494	7347.97
913.806	7291.25
914.118	7362.43
914.43	7335.77
914.742	7250.35
915.054	7281.08
915.366	7218.48
915.678	7197.69
915.99	7175.09
916.302	7136.22
916.613	7112.27
916.925	7140.74
917.236	7165.83
917.548	7028.43
917.859	7068.88
918.171	7080.41
918.482	7038.83
918.794	6990.92
919.105	6965.61
919.416	6952.27
919.727	6993.86
920.038	6933.97
920.349	6769
920.66	6912.5
920.971	6857.14
921.282	6779.85
921.593	6748.89
921.903	6711.6
922.214	6731.72
922.525	6672.51
922.835	6658.05
923.146	6582.79
923.456	6611.27
923.767	6571.95
924.077	6538.27
924.387	6545.96
924.697	6458.95
925.008	6451.72
925.318	6378.05
925.628	6403.14
925.938	6374.89
926.248	6277.49
926.558	6226.87
926.867	6256.93
927.177	6209.7
927.487	6132.18
927.796	6070.72
928.106	6082.47
928.416	6117.27
928.725	6037.27
929.034	5987.33
929.344	5932.87
929.653	5976.48
929.962	5900.1
930.271	5883.38
930.581	5826.43
930.89	5846.32
931.199	5768.58
931.508	5740.78
931.817	5750.5
932.125	5713.44
932.434	5712.53
932.743	5636.38
933.051	5598.64
933.36	5586.66
933.669	5583.95
933.977	5561.35
934.286	5519.54
934.594	5522.48
934.902	5497.85
935.21	5409.49
935.519	5437.96
935.827	5431.41
936.135	5392.32
936.443	5354.12
936.751	5340.79
937.059	5412.43
937.367	5332.66
937.674	5324.52
937.982	5317.29
938.29	5284.07
938.597	5281.13
938.905	5207.46
939.213	5281.81
939.52	5222.6
939.827	5243.62
940.135	5247.91
940.442	5221.02
940.749	5167.01
941.056	5161.59
941.363	5127.01
941.67	5121.36
941.977	5080.23
942.284	5106.22
942.591	5074.13
942.898	5061.48
943.205	5040.91
943.511	4993.46
943.818	4984.87
944.125	4943.74
944.431	4938.54
944.738	4961.37
945.044	4909.39
945.35	4854.02
945.657	4850.41
945.963	4833.69
946.269	4748.94
946.575	4842.27
946.881	4769.06
947.187	4701.49
947.493	4727.25
947.799	4682.28
948.105	4657.87
948.41	4641.15
948.716	4606.8
949.022	4596.86
949.327	4560.02
949.633	4483.19
949.938	4528.38
950.244	4465.56
950.549	4455.62
950.854	4399.35
951.16	4437.54
951.465	4353.7
951.77	4358.67
952.075	4353.7
952.38	4347.6
952.685	4301.95
952.99	4295.62
953.294	4274.15
953.599	4207.26
953.904	4207.26
954.209	4155.96
954.513	4164.78
954.818	4136.08
955.122	4140.6
955.426	4110.54
955.731	4092.01
956.035	4105.34
956.339	4049.3
956.643	4053.82
956.948	4052.69
957.252	3980.83
957.556	3994.61
957.86	3986.7
958.163	3972.01
958.467	3989.87
958.771	3933.15
959.075	3939.47
959.378	3913.71
959.682	3886.59
959.985	3911.9
960.289	3873.49
960.592	3885.69
960.896	3821.51
961.199	3803.66
961.502	3826.03
961.805	3827.16
962.108	3823.54
962.411	3777.22
962.714	3775.64
963.017	3756.43
963.32	3790.32
963.623	3733.38
963.926	3732.02
964.228	3698.35
964.531	3719.59
964.833	3691.8
965.136	3713.94
965.438	3657.9
965.741	3641.85
966.043	3651.57
966.345	3659.93
966.648	3626.94
966.95	3577.67
967.252	3545.13
967.554	3573.15
967.856	3543.1
968.158	3512.59
968.46	3516.43
968.761	3525.25
969.063	3461.07
969.365	3488.64
969.666	3443.21
969.968	3466.04
970.269	3409.32
970.571	3388.75
970.872	3404.8
971.174	3389.88
971.475	3328.19
971.776	3302.65
972.077	3256.1
972.378	3318.02
972.679	3299.72
972.98	3296.33
973.281	3239.6
973.582	3201.86
973.883	3240.96
974.183	3218.36
974.484	3156.67
974.785	3141.98
975.085	3124.58
975.386	3135.88
975.686	3136.1
975.986	3108.76
976.287	3070.34
976.587	3039.38
976.887	3046.39
977.187	3048.65
977.487	3004.81
977.787	3015.43
978.087	2966.62
978.387	2953.06
978.687	2958.48
978.987	2958.26
979.286	2909.44
979.586	2901.99
979.885	2918.03
980.185	2918.48
980.484	2851.59
980.784	2854.98
981.083	2859.95
981.382	2845.94
981.682	2825.83
981.981	2808.88
982.28	2802.55
982.579	2806.17
982.878	2807.53
983.177	2781.76
983.475	2745.15
983.774	2724.36
984.073	2749.45
984.372	2706.06
984.67	2755.32
984.969	2698.83
985.267	2704.93
985.566	2704.25
985.864	2689.79
986.162	2657.02
986.461	2680.52
986.759	2649.79
987.057	2576.8
987.355	2626.96
987.653	2658.15
987.951	2614.76
988.249	2593.97
988.547	2627.64
988.844	2576.12
989.142	2574.99
989.44	2571.6
989.737	2565.27
990.035	2534.09
990.332	2504.71
990.63	2539.74
990.927	2545.61
991.224	2547.42
991.521	2523.24
991.819	2470.58
992.116	2449.57
992.413	2457.25
992.71	2472.17
993.006	2442.11
993.303	2427.65
993.6	2399.17
993.897	2412.73
994.193	2402.34
994.49	2376.8
994.787	2363.69
995.083	2361.66
995.379	2352.62
995.676	2306.75
995.972	2319.85
996.268	2271.95
996.565	2284.37
996.861	2252.96
997.157	2269.91
997.453	2260.42
997.749	2229.69
998.044	2220.2
998.34	2225.39
998.636	2240.99
998.932	2170.71
999.227	2161.89
999.523	2165.06
999.818	2158.73
1000.114	2149.69
1000.409	2121.44
1000.704	2117.83
1001	2083.7
1001.295	2069.24
1001.59	2087.54
1001.885	2088.22
1002.18	2040.09
1002.475	2066.53
1002.77	2030.37
1003.065	2019.98
1003.359	2030.6
1003.654	1987.43
1003.949	1985.85
1004.243	1977.04
1004.538	1968.68
1004.832	1968.45
1005.127	1945.17
1005.421	1885.74
1005.715	1953.08
1006.009	1881.9
1006.304	1911.96
1006.598	1857.04
1006.892	1888.91
1007.186	1849.58
1007.48	1851.17
1007.773	1825.18
1008.067	1823.6
1008.361	1813.65
1008.655	1793.99
1008.948	1826.08
1009.242	1814.56
1009.535	1795.35
1009.829	1749.25
1010.122	1797.83
1010.415	1781.34
1010.708	1728.91
1011.001	1747.44
1011.295	1738.85
1011.588	1719.42
1011.881	1681.45
1012.173	1707.44
1012.466	1692.53
1012.759	1721.45
1013.052	1689.59
1013.344	1691.85
1013.637	1669.02
1013.93	1669.93
1014.222	1639.65
1014.514	1657.95
1014.807	1633.32
1015.099	1626.54
1015.391	1615.01
1015.683	1631.51
1015.976	1635.13
1016.268	1627.9
1016.56	1568.24
1016.851	1568.24
1017.143	1562.81
1017.435	1585.18
1017.727	1539.31
1018.018	1537.5
1018.31	1524.85
1018.602	1529.59
1018.893	1506.54
1019.185	1482.59
1019.476	1484.85
1019.767	1483.94
1020.058	1469.26
1020.35	1442.82
1020.641	1460.44
1020.932	1443.72
1021.223	1429.03
1021.514	1442.14
1021.804	1392.87
1022.095	1420.89
1022.386	1387.9
1022.677	1373.21
1022.967	1370.27
1023.258	1342.7
1023.548	1355.36
1023.839	1351.07
1024.129	1338.64
1024.419	1339.09
1024.709	1319.43
1025	1304.06
1025.29	1322.14
1025.58	1289.6
1025.87	1279.43
1026.16	1291.63
1026.449	1272.88
1026.739	1234.23
1027.029	1258.19
1027.319	1227.23
1027.608	1221.35
1027.898	1217.28
1028.187	1214.57
1028.477	1198.98
1028.766	1183.61
1029.055	1177.51
1029.344	1164.63
1029.634	1152.88
1029.923	1142.26
1030.212	1182.93
1030.501	1121.24
1030.79	1122.15
1031.078	1123.5
1031.367	1127.8
1031.656	1108.81
1031.945	1117.17
1032.233	1125.08
1032.522	1101.13
1032.81	1085.54
1033.099	1062.49
1033.387	1059.77
1033.675	1082.37
1033.963	1047.35
1034.251	1057.29
1034.54	1050.28
1034.828	1035.59
1035.116	1020.68
1035.403	1026.33
1035.691	1028.59
1035.979	1001.92
1036.267	982.04
1036.554	1001.24
1036.842	991.53
1037.129	987.69
1037.417	994.47
1037.704	962.38
1037.992	955.14
1038.279	984.3
1038.566	940.46
1038.853	940.46
1039.14	940.46
