Data from red_cardboard_box_FLMS001491_00030.txt Node
Date: Wed Feb 08 11:31:47 GMT 2017
User: dcchb
Spectrometer: FLMS00149
Trigger mode: 0
Integration Time (sec): 2.000000E-2
Scans to average: 10
Electric dark correction enabled: true
Nonlinearity correction enabled: false
Boxcar width: 0
XAxis mode: Wavelengths
Number of Pixels in Spectrum: 2048
>>>>>Begin Spectral Data<<<<<
341.393	5.47
341.776	5.47
342.16	5.47
342.543	-54.87
342.927	-83.12
343.31	-63.91
343.693	-61.88
344.077	-80.86
344.46	-58.49
344.843	-65.49
345.226	-53.06
345.61	-34.31
345.993	-14.19
346.376	3.43
346.759	11.12
347.142	23.77
347.525	42.53
347.908	63.77
348.291	82.07
348.674	83.88
349.057	121.62
349.44	134.73
349.823	129.98
350.206	159.36
350.588	209.75
350.971	227.38
351.354	232.58
351.737	232.13
352.119	246.36
352.502	253.82
352.884	275.52
353.267	280.94
353.65	300.15
354.032	309.64
354.414	317.32
354.797	328.4
355.179	322.75
355.562	345.57
355.944	326.81
356.326	336.3
356.709	319.36
357.091	339.47
357.473	341.95
357.855	340.82
358.238	341.5
358.62	314.16
359.002	318.45
359.384	338.11
359.766	340.6
360.148	337.66
360.53	353.71
360.912	341.95
361.294	360.03
361.676	311.9
362.057	343.99
362.439	332.69
362.821	343.99
363.203	343.08
363.584	338.34
363.966	323.2
364.348	334.04
364.729	346.93
365.111	314.38
365.493	335.63
365.874	321.39
366.256	325.01
366.637	308.73
367.019	309.64
367.4	311.45
367.781	315.97
368.163	325.01
368.544	327.72
368.925	303.76
369.306	319.81
369.688	316.42
370.069	354.38
370.45	314.16
370.831	319.58
371.212	314.38
371.593	311.22
371.974	295.18
372.355	309.86
372.736	345.57
373.117	309.41
373.498	316.42
373.879	322.29
374.26	307.83
374.641	334.5
375.021	320.94
375.402	323.42
375.783	321.16
376.163	328.4
376.544	317.1
376.925	328.85
377.305	340.15
377.686	342.18
378.066	325.23
378.447	329.3
378.827	338.56
379.208	319.81
379.588	312.8
379.968	339.47
380.349	343.31
380.729	325.68
381.109	339.24
381.489	317.32
381.87	337.21
382.25	345.34
382.63	338.11
383.01	351.45
383.39	339.24
383.77	338.56
384.15	361.16
384.53	330.88
384.91	363.65
385.29	347.83
385.67	354.16
386.049	357.1
386.429	357.77
386.809	356.87
387.189	325.68
387.568	353.71
387.948	355.74
388.328	347.83
388.707	369.52
389.087	340.37
389.466	374.72
389.846	362.07
390.225	360.26
390.605	367.49
390.984	336.53
391.363	376.53
391.743	363.42
392.122	351.9
392.501	372.46
392.881	369.75
393.26	364.78
393.639	360.26
394.018	376.08
394.397	388.73
394.776	362.74
395.155	365.46
395.534	359.81
395.913	367.72
396.292	365.68
396.671	379.47
397.05	364.55
397.429	389.41
397.808	405.46
398.186	389.18
398.565	370.88
398.944	388.51
399.323	396.87
399.701	385.34
400.08	376.76
400.458	391.67
400.837	389.86
401.215	374.95
401.594	384.21
401.972	367.72
402.351	390.77
402.729	394.83
403.107	392.8
403.486	415.85
403.864	412.91
404.242	388.51
404.62	402.29
404.999	419.92
405.377	385.34
405.755	407.72
406.133	400.03
406.511	410.88
406.889	423.76
407.267	432.57
407.645	415.17
408.023	413.36
408.401	439.13
408.779	425.79
409.156	414.72
409.534	427.83
409.912	419.01
410.29	434.16
410.667	439.58
411.045	449.3
411.422	440.71
411.8	446.13
412.178	430.54
412.555	444.78
412.933	437.77
413.31	451.56
413.687	442.29
414.065	462.18
414.442	460.37
414.819	479.13
415.197	477.77
415.574	487.94
415.951	471.89
416.328	468.05
416.705	461.95
417.082	468.73
417.46	471.67
417.837	484.32
418.214	478
418.591	479.8
418.967	501.5
419.344	478.9
419.721	482.74
420.098	504.89
420.475	505.79
420.852	482.52
421.228	490.88
421.605	498.11
421.982	496.75
422.358	506.92
422.735	502.18
423.111	512.57
423.488	522.06
423.864	515.96
424.241	506.92
424.617	521.61
424.994	514.83
425.37	541.72
425.746	527.26
426.123	525.68
426.499	532.46
426.875	545.79
427.251	540.82
427.627	546.69
428.003	565.45
428.379	544.66
428.756	526.13
429.132	565
429.507	559.8
429.883	561.16
430.259	591.67
430.635	588.5
431.011	559.8
431.387	557.99
431.763	594.83
432.138	574.94
432.514	603.87
432.89	607.71
433.265	616.98
433.641	603.19
434.016	605.22
434.392	603.64
434.767	643.19
435.143	644.77
435.518	640.93
435.894	648.61
436.269	626.47
436.644	654.49
437.02	640.03
437.395	620.82
437.77	657.65
438.145	653.13
438.52	670.53
438.895	697.43
439.271	663.3
439.646	656.75
440.021	670.99
440.395	664.88
440.77	654.49
441.145	697.43
441.52	698.56
441.895	669.86
442.27	707.82
442.645	687.03
443.019	687.03
443.394	714.6
443.769	694.71
444.143	700.81
444.518	726.8
444.892	700.81
445.267	706.24
445.641	732.23
446.016	727.48
446.39	698.1
446.764	724.77
447.139	736.52
447.513	762.06
447.887	734.94
448.262	726.8
448.636	713.7
449.01	734.71
449.384	745.33
449.758	753.02
450.132	744.66
450.506	780.36
450.88	749.85
451.254	783.07
451.628	774.49
452.002	762.28
452.376	776.52
452.75	776.29
453.123	772.45
453.497	806.12
453.871	794.37
454.244	803.86
454.618	817.42
454.992	819.91
455.365	827.82
455.739	810.87
456.112	849.29
456.486	850.64
456.859	846.8
457.232	830.75
457.606	848.61
457.979	846.8
458.352	856.29
458.725	889.51
459.099	870.75
459.472	892
459.845	903.75
460.218	902.17
460.591	886.8
460.964	911.43
461.337	929.74
461.71	914.82
462.083	953.46
462.456	969.96
462.829	945.78
463.201	959.57
463.574	971.09
463.947	975.38
464.32	1003.18
464.692	988.49
465.065	994.82
465.438	994.59
465.81	988.94
466.183	1005.44
466.555	1023.74
466.928	1030.98
467.3	1045.66
467.672	1060.13
468.045	1052.67
468.417	1059.45
468.789	1066.23
469.161	1096.28
469.534	1122.5
469.906	1110.75
470.278	1113.46
470.65	1157.3
471.022	1155.72
471.394	1147.58
471.766	1172.44
472.138	1181.93
472.51	1208.15
472.882	1212.67
473.253	1238.2
473.625	1206.11
473.997	1247.24
474.369	1253.79
474.74	1270.52
475.112	1267.13
475.484	1294.25
475.855	1304.87
476.227	1325.88
476.598	1327.47
476.97	1328.82
477.341	1366.79
477.713	1376.73
478.084	1371.31
478.455	1451.98
478.827	1451.53
479.198	1488.82
479.569	1479.33
479.94	1493.79
480.311	1511.64
480.682	1540.57
481.053	1552.32
481.424	1590.51
481.795	1591.86
482.166	1585.99
482.537	1620.34
482.908	1644.74
483.279	1677.96
483.65	1685.87
484.021	1741.69
484.391	1720.9
484.762	1755.48
485.133	1756.61
485.503	1742.82
485.874	1811.75
486.244	1820.33
486.615	1884.74
486.985	1855.36
487.356	1932.42
487.726	1924.51
488.097	1964.74
488.467	1963.38
488.837	2026.2
489.207	2033.44
489.578	2052.42
489.948	2098.52
490.318	2059.2
490.688	2089.25
491.058	2131.29
491.428	2187.56
491.798	2164.73
492.168	2221
492.538	2203.6
492.908	2276.37
493.278	2263.71
493.648	2268.01
494.017	2318.17
494.387	2326.53
494.757	2350.04
495.126	2359.75
495.496	2385.29
495.866	2403.82
496.235	2413.76
496.605	2395.91
496.974	2470.26
497.344	2434.1
497.713	2500.09
498.082	2505.06
498.452	2508.68
498.821	2517.04
499.19	2555.91
499.559	2608.11
499.928	2594.55
500.298	2602.01
500.667	2596.58
501.036	2641.1
501.405	2661.67
501.774	2659.41
502.143	2663.48
502.512	2684.04
502.88	2725.39
503.249	2706.19
503.618	2767.65
503.987	2766.3
504.356	2768.33
504.724	2812.62
505.093	2785.28
505.462	2840.42
505.83	2851.04
506.199	2823.24
506.567	2910.93
506.936	2906.18
507.304	2958.16
507.672	2952.51
508.041	2935.56
508.409	2999.06
508.777	3023.24
509.145	3038.38
509.514	3037.02
509.882	3053.75
510.25	3082.9
510.618	3120.86
510.986	3144.59
511.354	3164.25
511.722	3141.88
512.09	3232.5
512.458	3201.77
512.826	3249.22
513.193	3279.28
513.561	3281.76
513.929	3286.06
514.297	3354.76
514.664	3391.37
515.032	3371.48
515.4	3421.87
515.767	3412.16
516.135	3432.04
516.502	3438.14
516.869	3486.5
517.237	3482.44
517.604	3514.75
517.972	3544.81
518.339	3552.94
518.706	3585.94
519.073	3620.06
519.44	3599.72
519.808	3628.42
520.175	3728.76
520.542	3710.45
520.909	3778.02
521.276	3750
521.643	3827.06
522.009	3834.07
522.376	3862.77
522.743	3915.87
523.11	3934.18
523.477	3990.9
523.843	3971.24
524.21	4045.36
524.577	4088.3
524.943	4060.5
525.31	4075.42
525.676	4097.11
526.043	4163.32
526.409	4139.82
526.776	4199.71
527.142	4272.02
527.508	4315.86
527.874	4310.66
528.241	4330.32
528.607	4318.35
528.973	4437.67
529.339	4414.62
529.705	4463.88
530.071	4488.74
530.437	4522.41
530.803	4560.37
531.169	4597.89
531.535	4577.1
531.901	4602.86
532.267	4603.99
532.632	4666.13
532.998	4662.52
533.364	4686.92
533.73	4705.91
534.095	4811.67
534.461	4865.9
534.826	4810.99
535.192	4833.81
535.557	4903.87
535.923	4891.21
536.288	4948.39
536.653	4971.66
537.019	4923.98
537.384	4990.19
537.749	5020.25
538.114	5021.15
538.479	4997.43
538.845	5066.58
539.21	5039.01
539.575	5130.08
539.94	5124.2
540.305	5158.32
540.67	5188.38
541.034	5234.48
541.399	5285.33
541.764	5305.89
542.129	5285.1
542.494	5342.95
542.858	5345.89
543.223	5333.91
543.587	5428.83
543.952	5426.34
544.316	5476.96
544.681	5430.63
545.045	5509.05
545.41	5521.71
545.774	5482.38
546.138	5582.04
546.503	5551.31
546.867	5565.09
547.231	5671.31
547.595	5618.88
547.959	5712.43
548.324	5719.89
548.688	5739.78
549.052	5773.22
549.416	5775.48
549.779	5798.99
550.143	5808.93
550.507	5922.6
550.871	5953.78
551.235	5931.86
551.599	5983.39
551.962	6006.44
552.326	6017.06
552.689	6090.05
553.053	6114.46
553.417	6104.06
553.78	6197.39
554.143	6187.9
554.507	6216.83
554.87	6313.77
555.234	6343.83
555.597	6347.45
555.96	6420.44
556.323	6432.87
556.686	6460.89
557.05	6516.93
557.413	6612.52
557.776	6636.03
558.139	6655.46
558.502	6677.83
558.865	6723.03
559.228	6834.44
559.59	6894.32
559.953	6892.06
560.316	6995.11
560.679	6960.09
561.041	7135.45
561.404	7148.33
561.767	7226.52
562.129	7193.53
562.492	7305.61
562.854	7376.12
563.217	7394.88
563.579	7478.94
563.941	7503.35
564.304	7585.61
564.666	7669.67
565.028	7760.29
565.39	7768.43
565.753	7948.76
566.115	7970.91
566.477	8010.23
566.839	8043.22
567.201	8093.16
567.563	8248.64
567.925	8293.38
568.287	8387.62
568.648	8398.92
569.01	8445.47
569.372	8645.46
569.734	8639.36
570.095	8726.59
570.457	8840.71
570.819	8957.32
571.18	9009.52
571.542	9008.17
571.903	9137.88
572.265	9228.95
572.626	9335.62
572.987	9440.25
573.349	9458.32
573.71	9622.84
574.071	9720.69
574.432	9740.58
574.794	9951.19
575.155	9979.44
575.516	10084.3
575.877	10224.86
576.238	10300.79
576.599	10482.93
576.96	10451.29
577.32	10607.22
577.681	10759.31
578.042	10917.5
578.403	10979.41
578.763	11105.74
579.124	11314.77
579.485	11435.67
579.845	11562.68
580.206	11680.64
580.566	11785.95
580.927	12002.21
581.287	12185.48
581.648	12287.63
582.008	12451.24
582.368	12623.44
582.728	12798.8
583.089	12994.95
583.449	13178.9
583.809	13279.69
584.169	13469.74
584.529	13688.5
584.889	14039.67
585.249	14144.08
585.609	14287.58
585.969	14585.42
586.329	14708.36
586.688	14980.44
587.048	15227.44
587.408	15483.93
587.768	15735.45
588.127	15992.84
588.487	16205.94
588.846	16659.49
589.206	16675.99
589.565	17083.21
589.925	17488.4
590.284	17772.91
590.643	18099.68
591.003	18331.09
591.362	18728.82
591.721	18996.83
592.08	19311.62
592.44	19747.32
592.799	19995
593.158	20306.63
593.517	20617.35
593.876	21122.2
594.235	21252.36
594.593	21748.85
594.952	22121.49
595.311	22410.07
595.67	22947.69
596.029	23358.98
596.387	23791.06
596.746	24117.37
597.104	24436.46
597.463	24706.51
597.822	25242.09
598.18	25585.13
598.538	25985.57
598.897	26523.19
599.255	26700.58
599.613	27382.15
599.972	27686.09
600.33	28136.25
600.688	28514.55
601.046	28924.48
601.404	29325.15
601.762	29799.26
602.12	30159.25
602.478	30539.8
602.836	30972.56
603.194	31207.81
603.552	31695.48
603.91	31857.06
604.268	32550.6
604.625	32762.8
604.983	33208.43
605.341	33439.16
605.698	34130.67
606.056	34435.3
606.413	34776.3
606.771	35238.89
607.128	35582.16
607.485	35678.43
607.843	36000.23
608.2	36519.76
608.557	36998.84
608.914	37140.08
609.272	37491.94
609.629	37835.43
609.986	38203.11
610.343	38353.84
610.7	38872.92
611.057	39134.15
611.414	39404.43
611.771	39587.02
612.127	40123.06
612.484	40163.51
612.841	40613.44
613.198	40667.67
613.554	40899.31
613.911	41305.62
614.267	41502.68
614.624	41733.86
614.98	41908.54
615.337	42320.96
615.693	42375.88
616.05	42539.49
616.406	43002.75
616.762	42947.39
617.118	43217.21
617.475	43347.83
617.831	43585.56
618.187	43785.78
618.543	43993.01
618.899	44361.59
619.255	44408.82
619.611	44499.44
619.967	44705.08
620.323	45058.29
620.678	45031.85
621.034	45074.34
621.39	45224.84
621.746	45250.83
622.101	45959.96
622.457	45588
622.812	45711.61
623.168	45893.07
623.523	46046.74
623.879	46230.47
624.234	46024.14
624.589	46305.72
624.945	46373.96
625.3	46494.19
625.655	46562.66
626.01	46731.69
626.365	46740.51
626.72	46788.64
627.075	46964.23
627.43	47073.15
627.785	46823.9
628.14	47205.81
628.495	47269.53
628.85	47158.8
629.205	47302.3
629.559	47385.01
629.914	47302.3
630.269	47532.35
630.623	47290.55
630.978	47399.7
631.332	47578.23
631.687	47662.74
632.041	47448.51
632.396	47679.01
632.75	47770.09
633.104	47686.7
633.459	47611.45
633.813	47560.83
634.167	47659.58
634.521	47734.61
634.875	47672.01
635.229	47825.45
635.583	47493.26
635.937	47614.61
636.291	47520.15
636.645	47700.26
636.999	47682.86
637.352	47816.19
637.706	47567.61
638.06	47679.92
638.413	47669.07
638.767	47635.85
639.121	47699.13
639.474	47583.88
639.828	47695.29
640.181	47693.48
640.534	47752.91
640.888	47679.47
641.241	47582.97
641.594	47685.79
641.947	47771.67
642.301	47696.42
642.654	47843.98
643.007	47837.2
643.36	47621.62
643.713	47729.18
644.066	47903.42
644.419	47571.45
644.771	47265.01
645.124	46900.73
645.477	46895.98
645.83	46688.98
646.182	46562.43
646.535	46559.04
646.888	46618.03
647.24	46442.21
647.593	46770.79
647.945	46565.6
648.298	46490.8
648.65	46451.02
649.002	46468.88
649.355	46532.15
649.707	46387.3
650.059	46503.45
650.411	47054.4
650.763	46989.77
651.115	47596.98
651.467	47398.8
651.819	47407.16
652.171	47307.5
652.523	47280.38
652.875	47247.61
653.227	47385.01
653.578	47572.58
653.93	47328.97
654.282	47198.8
654.633	47197.22
654.985	47367.61
655.337	47291.91
655.688	47328.74
656.039	47463.2
656.391	47120.16
656.742	47191.34
657.094	47258.91
657.445	47244.68
657.796	47290.1
658.147	47124.68
658.498	47151.57
658.849	47168.97
659.2	47191.34
659.551	47029.77
659.902	47196.54
660.253	47062.08
660.604	47154.28
660.955	47041.07
661.306	47172.14
661.656	47152.47
662.007	47223.89
662.358	47180.72
662.708	47123.78
663.059	47209.42
663.409	46954.06
663.76	47204.22
664.11	47179.59
664.461	47289.42
664.811	47212.13
665.161	47138.24
665.511	47034.29
665.862	47067.96
666.212	47138.92
666.562	47166.03
666.912	47055.53
667.262	47131.01
667.612	47010.56
667.962	47137.56
668.312	46943.44
668.662	47274.96
669.011	47203.32
669.361	47055.75
669.711	47122.87
670.06	46978.02
670.41	46886.04
670.76	46832.94
671.109	46918.58
671.459	46951.8
671.808	47010.56
672.157	47075.19
672.507	46704.8
672.856	46698.93
673.205	46768.08
673.554	46836.55
673.904	46775.31
674.253	47001.74
674.602	46877
674.951	46245.61
675.3	46197.47
675.649	46745.48
675.998	46752.94
676.346	46788.64
676.695	46663.67
677.044	46484.24
677.393	46679.49
677.741	46684.46
678.09	46576.44
678.438	46533.51
678.787	46483.79
679.135	46559.72
679.484	46293.29
679.832	46444.02
680.181	46231.6
680.529	46399.73
680.877	46257.36
681.225	46166.51
681.573	46351.59
681.922	46119.73
682.27	45976.23
682.618	45970.59
682.966	45894.88
683.314	46013.52
683.661	45803.58
684.009	45678.62
684.357	45562.91
684.705	45564.04
685.053	45655.79
685.4	45498.73
685.748	45324.73
686.095	45400.66
686.443	45227.1
686.79	45191.4
687.138	45172.64
687.485	45214.45
687.832	45101.91
688.18	45169.93
688.527	44823.5
688.874	44819.88
689.221	44651.98
689.568	44760.9
689.915	44454.24
690.262	44564.52
690.609	44461.7
690.956	44327.92
691.303	44088.37
691.65	44016.51
691.997	44050.64
692.344	43828.72
692.69	43857.87
693.037	43981.48
693.383	43582.17
693.73	43676.18
694.077	43438.22
694.423	43518.22
694.769	43225.12
695.116	43182.86
695.462	43138.12
695.808	42914.85
696.155	43251.11
696.501	42725.47
696.847	43014.73
697.193	42485.7
697.539	42636.44
697.885	42268.31
698.231	42299.72
698.577	42227.18
698.923	42110.57
699.269	42045.26
699.614	41935.66
699.96	41796.91
700.306	41840.07
700.651	41775.44
700.997	41473.75
701.342	41520.53
701.688	41273.76
702.033	41336.81
702.379	41378.16
702.724	41074.44
703.069	41128.23
703.415	40723.94
703.76	40679.42
704.105	40835.35
704.45	40696.6
704.795	40428.81
705.14	40335.93
705.485	40254.35
705.83	40097.07
706.175	40265.2
706.52	40230.62
706.865	40000.57
707.209	40083.28
707.554	39859.11
707.899	39828.83
708.243	39733.69
708.588	39679.23
708.932	39493.47
709.277	39455.5
709.621	39408.5
709.966	39130.54
710.31	39308.16
710.654	38968.51
710.998	39109.07
711.342	39076.76
711.687	38846.25
712.031	38791.34
712.375	38648.97
712.719	38643.77
713.063	38533.72
713.407	38781.17
713.75	38468.18
714.094	38498.92
714.438	38274.29
714.782	38310.45
715.125	38208.98
715.469	38276.78
715.812	38063.22
716.156	37860.06
716.499	37811.25
716.843	37881.08
717.186	37732.61
717.53	37937.35
717.873	37901.64
718.216	37597.25
718.559	37527.64
718.902	37377.36
719.246	37356.35
719.589	37337.59
719.932	37236.58
720.275	37142.34
720.617	37311.38
720.96	37091.95
721.303	37055.34
721.646	37073.64
721.989	36926.53
722.331	37019.86
722.674	36916.59
723.016	36977.15
723.359	36751.39
723.701	36851.73
724.044	36599.98
724.386	36365.41
724.729	36563.83
725.071	36482.02
725.413	36347.11
725.755	36376.49
726.097	36280.67
726.439	36057.17
726.782	36084.74
727.124	36164.06
727.465	36043.84
727.807	36009.94
728.149	35883.17
728.491	35898.53
728.833	35822.83
729.175	35749.38
729.516	35683.4
729.858	35697.18
730.199	35728.82
730.541	35674.81
730.882	35705.54
731.224	35670.97
731.565	35516.4
731.906	35362.5
732.248	35475.95
732.589	35225.1
732.93	35209.06
733.271	35205.9
733.612	35078.44
733.953	35099.68
734.294	35135.39
734.635	34975.62
734.976	35097.88
735.317	34833.93
735.658	34898.56
735.999	34845.68
736.339	34715.29
736.68	34802.07
737.021	34630.77
737.361	34575.18
737.702	34873.7
738.042	34532.69
738.383	34496.76
738.723	34572.47
739.063	34455.18
739.404	34457.67
739.744	34361.17
740.084	34265.36
740.424	34331.34
740.764	34219.71
741.104	34460.61
741.444	34007.06
741.784	33993.05
742.124	34005.48
742.464	34106.94
742.804	33933.84
743.143	33847.74
743.483	33886.83
743.823	33798.02
744.162	33754.64
744.502	33712.15
744.841	33609.33
745.181	33734.75
745.52	33593.06
745.86	33557.58
746.199	33376.34
746.538	33575.2
746.877	33578.37
747.216	33415.21
747.556	33455.66
747.895	33392.16
748.234	33393.29
748.573	33201.2
748.911	33213.18
749.25	33214.08
749.589	32981.1
749.928	33150.58
750.267	33006.41
750.605	32851.83
750.944	32924.6
751.283	32694.78
751.621	32725.74
751.96	32608
752.298	32711.05
752.636	32734.32
752.975	32505.85
753.313	32424.05
753.651	32529.58
753.989	32341.34
754.327	32364.16
754.666	32139.08
755.004	32212.98
755.342	32178.41
755.679	32164.17
756.017	32006.21
756.355	31934.8
756.693	31886.21
757.031	31822.71
757.368	31751.52
757.706	31681.47
758.044	31626.1
758.381	31576.39
758.719	31416.62
759.056	31494.13
759.394	31324.87
759.731	31084.2
760.068	31143.4
760.405	31033.12
760.743	30854.6
761.08	30924.2
761.417	30786.35
761.754	30768.95
762.091	30624.55
762.428	30579.8
762.765	30313.14
763.102	30499.13
763.438	30402.86
763.775	30210.55
764.112	30182.07
764.449	30247.61
764.785	30015.07
765.122	29864.79
765.458	29711.58
765.795	29739.37
766.131	29638.81
766.467	29514.97
766.804	29355.2
767.14	29265.71
767.476	29222.55
767.812	29182.1
768.148	29268.2
768.485	29079.73
768.821	28911.6
769.157	28796.57
769.492	28847.42
769.828	28711.83
770.164	28543.47
770.5	28424.61
770.836	28458.96
771.171	28325.4
771.507	28196.36
771.842	28086.08
772.178	28060.77
772.513	27953.43
772.849	27863.49
773.184	27773.1
773.519	27737.39
773.855	27614.01
774.19	27471.64
774.525	27367.01
774.86	27477.06
775.195	27355.93
775.53	27106.22
775.865	27038.2
776.2	26824.2
776.535	26839.56
776.87	26792.33
777.205	26638.21
777.539	26608.83
777.874	26595.95
778.209	26329.29
778.543	26293.14
778.878	26088.62
779.212	26138.79
779.547	25993.94
779.881	25946.48
780.215	25840.27
780.55	25829.87
780.884	25783.55
781.218	25597.79
781.552	25538.13
781.886	25524.79
782.22	25381.75
782.554	25285.48
782.888	24944.7
783.222	24997.58
783.556	24820.63
783.889	24697.02
784.223	24610.69
784.557	24549.45
784.89	24763.69
785.224	24423.81
785.557	24327.99
785.891	24342
786.224	24243.47
786.558	24204.6
786.891	23940.88
787.224	23885.97
787.557	23903.14
787.891	23833.31
788.224	23720.1
788.557	23683.49
788.89	23626.09
789.223	23626.09
789.556	23413.44
789.888	23300.45
790.221	23307
790.554	23060.45
790.887	23191.75
791.219	23023.84
791.552	22971.42
791.884	22857.52
792.217	22759.22
792.549	22702.27
792.882	22566.91
793.214	22498.66
793.546	22441.26
793.879	22345.44
794.211	22203.3
794.543	22280.81
794.875	22117.65
795.207	22262.73
795.539	22038.11
795.871	22143.87
796.203	21892.35
796.535	21873.14
796.867	21790.2
797.198	21820.49
797.53	21597.89
797.862	21491.23
798.193	21640.15
798.525	21439.03
798.856	21477.67
799.188	21211.24
799.519	21156.55
799.85	21115.87
800.182	21084.01
800.513	21005.14
800.844	20900.74
801.175	20859.83
801.506	20933.73
801.837	20847.18
802.168	20756.78
802.499	20739.84
802.83	20582.33
803.161	20467.53
803.491	20479.05
803.822	20502.33
804.153	20375.1
804.483	20307.53
804.814	20215.33
805.145	20103.92
805.475	20091.94
805.805	20092.17
806.136	19959.07
806.466	20095.56
806.796	19965.39
807.126	19861.67
807.457	19718.85
807.787	19708.22
808.117	19682.01
808.447	19566.76
808.777	19624.61
809.107	19525.4
809.436	19440.66
809.766	19505.29
810.096	19389.59
810.426	19298.29
810.755	19304.62
811.085	19211.51
811.414	19233.89
811.744	19080.67
812.073	19012.2
812.403	19166.32
812.732	18922.71
813.061	18929.26
813.39	18827.57
813.719	18704.86
814.049	18878.64
814.378	18748.02
814.707	18631.87
815.036	18650.63
815.365	18521.59
815.693	18468.71
816.022	18383.51
816.351	18324.08
816.68	18297.19
817.008	18330.63
817.337	18173.12
817.665	18134.03
817.994	18286.79
818.322	18137.64
818.651	18018.55
818.979	17996.41
819.307	18026.01
819.636	18026.69
819.964	17901.49
820.292	17963.86
820.62	17873.92
820.948	17845.22
821.276	17897.2
821.604	17911.66
821.932	17956.18
822.259	17893.36
822.587	17821.72
822.915	17871.89
823.243	17913.02
823.57	17844.77
823.898	17899.68
824.225	17782.85
824.553	17744.43
824.88	17741.72
825.207	17927.03
825.535	17763.64
825.862	17864.88
826.189	17741.95
826.516	17809.97
826.843	17778.33
827.17	17739.01
827.497	17768.61
827.824	17773.36
828.151	17870.31
828.478	17764.55
828.805	17802.96
829.131	17680.93
829.458	17629.86
829.785	17585.79
830.111	17666.47
830.438	17741.95
830.764	17819.91
831.09	17677.32
831.417	17600.26
831.743	17741.27
832.069	17720.25
832.395	17603.87
832.722	17706.24
833.048	17636.64
833.374	17628.96
833.7	17698.11
834.026	17599.13
834.351	17612.23
834.677	17603.2
835.003	17694.27
835.329	17583.31
835.654	17516.19
835.98	17488.85
836.306	17542.86
836.631	17373.82
836.956	17455.4
837.282	17418.57
837.607	17362.07
837.932	17337.67
838.258	17424.89
838.583	17367.27
838.908	17089.54
839.233	17340.38
839.558	17153.26
839.883	17128.18
840.208	17047.05
840.533	17111
840.858	17090.89
841.182	17061.51
841.507	17041.18
841.832	16947.17
842.156	16934.29
842.481	16959.82
842.805	16924.8
843.13	16745.82
843.454	16894.97
843.778	16768.64
844.103	16836.44
844.427	16721.64
844.751	16666.95
845.075	16562.32
845.399	16567.06
845.723	16403.23
846.047	16464.47
846.371	16352.83
846.695	16363
847.019	16155.1
847.343	16096.12
847.666	16100.41
847.99	16010.47
848.313	15948.32
848.637	15934.99
848.96	15849.8
849.284	15756.01
849.607	15742.23
849.931	15720.76
850.254	15532.52
850.577	15520.54
850.9	15320.32
851.223	15398.96
851.546	15301.79
851.869	15282.13
852.192	15203.26
852.515	15147.89
852.838	15031.51
853.161	15091.17
853.483	15057.5
853.806	14970.72
854.129	14911.74
854.451	14795.81
854.774	14802.59
855.096	14727.56
855.419	14767.34
855.741	14615.93
856.063	14579.55
856.385	14606.21
856.708	14511.75
857.03	14490.51
857.352	14425.88
857.674	14378.42
857.996	14309.95
858.318	14271.76
858.64	14226.79
858.961	14269.05
859.283	14186.56
859.605	14154.25
859.926	14158.31
860.248	14131.87
860.57	14099.33
860.891	14021.37
861.212	13976.4
861.534	13882.39
861.855	13856.63
862.176	13910.64
862.498	13884.2
862.819	13810.07
863.14	13798.1
863.461	13770.98
863.782	13664.77
864.103	13698.89
864.424	13687.59
864.745	13741.83
865.065	13634.03
865.386	13670.87
865.707	13628.16
866.027	13569.4
866.348	13556.75
866.668	13519.23
866.989	13477.43
867.309	13362.63
867.63	13487.15
867.95	13437.66
868.27	13370.76
868.59	13379.8
868.91	13403.53
869.23	13342.06
869.55	13279.47
869.87	13291.67
870.19	13172.8
870.51	13202.41
870.83	13307.26
871.15	13203.76
871.469	13170.32
871.789	13190.2
872.109	13202.86
872.428	13102.3
872.748	13063.65
873.067	12999.25
873.386	13075.86
873.706	12982.98
874.025	12987.72
874.344	12967.39
874.663	12977.1
874.982	12941.4
875.301	12966.26
875.62	12901.4
875.939	12881.96
876.258	12794.28
876.577	12836.09
876.896	12834.96
877.214	12741.4
877.533	12815.52
877.852	12779.82
878.17	12775.3
878.489	12785.47
878.807	12684.23
879.125	12682.87
879.444	12679.48
879.762	12594.74
880.08	12625.7
880.398	12575.53
880.716	12586.83
881.034	12450.34
881.352	12502.99
881.67	12411.69
881.988	12499.6
882.306	12488.3
882.624	12473.39
882.941	12483.78
883.259	12344.12
883.577	12240.17
883.894	12247.63
884.212	12267.97
884.529	12292.6
884.846	12247.18
885.164	12230
885.481	12077.01
885.798	12148.88
886.115	12035.88
886.432	11982.1
886.75	12012.61
887.067	12021.42
887.383	11929.45
887.7	11994.76
888.017	11811.03
888.334	11906.17
888.651	11858.71
888.967	11827.3
889.284	11824.82
889.6	11706.4
889.917	11651.04
890.233	11712.5
890.55	11640.19
890.866	11627.31
891.182	11574.43
891.498	11506.41
891.815	11453.53
892.131	11434.54
892.447	11421.44
892.763	11503.02
893.079	11441.1
893.395	11377.14
893.71	11406.75
894.026	11287.2
894.342	11251.72
894.657	11155
894.973	11128.34
895.289	11163.59
895.604	11093.76
895.92	11048.57
896.235	11058.51
896.55	11030.49
896.865	10928.34
897.181	10931.73
897.496	10888.34
897.811	10866.2
898.126	10849.47
898.441	10814.9
898.756	10762.7
899.071	10676.82
899.386	10715.47
899.7	10651.97
900.015	10542.59
900.33	10461.46
900.644	10542.36
900.959	10543.95
901.273	10404.29
901.588	10388.7
901.902	10349.6
902.216	10330.84
902.531	10285.42
902.845	10190.51
903.159	10189.15
903.473	10153.22
903.787	10076.84
904.101	10072.55
904.415	10076.16
904.729	10059.89
905.042	9910.52
905.356	9958.2
905.67	9905.54
905.984	9921.82
906.297	9822.38
906.611	9798.88
906.924	9797.07
907.237	9750.97
907.551	9648.6
907.864	9703.97
908.177	9598.43
908.491	9610.86
908.804	9625.78
909.117	9524.76
909.43	9461.49
909.743	9399.8
910.056	9383.3
910.368	9362.51
910.681	9276.63
910.994	9316.18
911.307	9283.41
911.619	9114.83
911.932	9210.2
912.244	9098.79
912.557	9049.75
912.869	9047.26
913.181	9008.17
913.494	9050.43
913.806	8938.34
914.118	8901.28
914.43	8859.47
914.742	8867.83
915.054	8755.52
915.366	8778.57
915.678	8672.13
915.99	8706.48
916.302	8633.04
916.613	8522.53
916.925	8543.77
917.236	8603.43
917.548	8522.76
917.859	8480.72
918.171	8429.43
918.482	8414.06
918.794	8371.35
919.105	8308.98
919.416	8263.1
919.727	8265.59
920.038	8173.39
920.349	8140.85
920.66	8174.97
920.971	8151.69
921.282	8091.58
921.593	8014.07
921.903	7944.24
922.214	7996.89
922.525	7910.12
922.835	7924.81
923.146	7868.08
923.456	7857.24
923.767	7833.28
924.077	7815.88
924.387	7696.56
924.697	7746.28
925.008	7667.86
925.318	7657.24
925.628	7606.4
925.938	7527.53
926.248	7426.97
926.558	7478.04
926.867	7452.73
927.177	7430.81
927.487	7331.38
927.796	7341.54
928.106	7369.57
928.416	7260.64
928.725	7266.97
929.034	7297.03
929.344	7263.35
929.653	7213.19
929.962	7165.28
930.271	7144.49
930.581	7032.63
930.89	7038.95
931.199	7028.11
931.508	6959.86
931.817	6989.24
932.125	6969.58
932.434	6921.44
932.743	6854.55
933.051	6821.11
933.36	6834.44
933.669	6765.97
933.977	6686.42
934.286	6729.36
934.594	6700.21
934.902	6633.54
935.21	6633.09
935.519	6622.02
935.827	6562.13
936.135	6508.57
936.443	6458.86
936.751	6463.15
937.059	6472.87
937.367	6438.29
937.674	6363.72
937.982	6338.41
938.29	6349.93
938.597	6331.4
938.905	6269.71
939.213	6278.07
939.52	6233.78
939.827	6164.4
940.135	6157.17
940.442	6117.62
940.749	6091.41
941.056	6133.21
941.363	6047.79
941.67	6059.32
941.977	5987.91
942.284	5939.55
942.591	5969.83
942.898	5930.73
943.205	5893.9
943.511	5899.77
943.818	5916.05
944.125	5853
944.431	5831.98
944.738	5820
945.044	5773
945.35	5722.38
945.657	5691.87
945.963	5657.97
946.269	5630.4
946.575	5605.54
946.881	5603.51
947.187	5638.09
947.493	5599.9
947.799	5540.46
948.105	5502.27
948.41	5443.29
948.716	5444.42
949.022	5384.31
949.327	5439.22
949.633	5338.66
949.938	5348.38
950.244	5389.51
950.549	5310.64
950.854	5293.46
951.16	5281.49
951.465	5282.62
951.77	5248.94
952.075	5184.54
952.38	5178.21
952.685	5190.87
952.99	5144.77
953.294	5125.56
953.599	5064.77
953.904	5088.04
954.209	5039.46
954.513	5042.17
954.818	5039.91
955.122	4987.03
955.426	4961.72
955.731	4938.9
956.035	4925.79
956.339	4866.58
956.643	4882.17
956.948	4886.92
957.252	4782.52
957.556	4800.37
957.86	4806.02
958.163	4815.96
958.467	4781.39
958.771	4761.5
959.075	4676.76
959.378	4700.94
959.682	4611.67
959.985	4651.67
960.289	4614.84
960.592	4618.68
960.896	4562.18
961.199	4549.75
961.502	4495.29
961.805	4509.98
962.108	4446.71
962.411	4473.6
962.714	4466.82
963.017	4451.45
963.32	4414.39
963.623	4439.93
963.926	4365.8
964.228	4377.55
964.531	4347.27
964.833	4301.17
965.136	4315.18
965.438	4288.29
965.741	4258.24
966.043	4235.64
966.345	4200.16
966.648	4197.45
966.95	4180.72
967.252	4173.04
967.554	4177.33
967.856	4099.14
968.158	4100.95
968.46	4080.39
968.761	4046.72
969.063	4064.79
969.365	4027.51
969.666	4059.6
969.968	3998.81
970.269	3974.63
970.571	3970.11
970.872	3938.47
971.174	3926.04
971.475	3936.89
971.776	3879.04
972.077	3865.7
972.378	3876.32
972.679	3901.63
972.98	3846.95
973.281	3806.95
973.582	3809.21
973.883	3801.3
974.183	3757.68
974.484	3778.93
974.785	3736.89
975.085	3705.71
975.386	3758.81
975.686	3696.89
975.986	3680.62
976.287	3650.12
976.587	3635.43
976.887	3640.4
977.187	3610.57
977.487	3571.02
977.787	3567.86
978.087	3590.46
978.387	3563.34
978.687	3553.85
978.987	3509.33
979.286	3488.09
979.586	3437.24
979.885	3439.95
980.185	3425.94
980.484	3423.91
980.784	3408.54
981.083	3414.87
981.382	3355.43
981.682	3378.26
981.981	3366.28
982.28	3349.11
982.579	3324.7
982.878	3331.48
983.177	3277.47
983.475	3293.74
983.774	3266.4
984.073	3232.5
984.372	3203.57
984.67	3218.04
984.969	3208.77
985.267	3195.21
985.566	3192.27
985.864	3170.58
986.162	3164.48
986.461	3107.31
986.759	3110.47
987.057	3086.06
987.355	3103.24
987.653	3056.23
987.951	3064.37
988.249	3048.32
988.547	3033.63
988.844	2985.95
989.142	3022.34
989.44	2990.02
989.737	3008.78
990.035	2946.86
990.332	2950.25
990.63	2929.23
990.927	2930.13
991.224	2872.96
991.521	2893.98
991.819	2856.46
992.116	2882.9
992.413	2831.61
992.71	2844.49
993.006	2839.06
993.303	2806.97
993.6	2767.88
993.897	2778.05
994.193	2803.36
994.49	2769.46
994.787	2749.8
995.083	2717.03
995.379	2685.62
995.676	2686.98
995.972	2684.72
996.268	2659.41
996.565	2659.63
996.861	2646.07
997.157	2656.02
997.453	2618.05
997.749	2599.52
998.044	2572.86
998.34	2601.78
998.636	2559.75
998.932	2586.87
999.227	2510.71
999.523	2522.69
999.818	2521.11
1000.114	2514.78
1000.409	2492.86
1000.704	2488.34
1001	2432.07
1001.295	2467.77
1001.59	2442.24
1001.885	2413.99
1002.18	2409.24
1002.475	2391.84
1002.77	2374.44
1003.065	2340.77
1003.359	2339.42
1003.654	2329.92
1003.949	2325.63
1004.243	2316.14
1004.538	2309.36
1004.832	2290.83
1005.127	2259.19
1005.421	2272.75
1005.715	2265.75
1006.009	2258.29
1006.304	2259.42
1006.598	2218.52
1006.892	2201.79
1007.186	2183.04
1007.48	2148.46
1007.773	2182.13
1008.067	2127.22
1008.361	2121.79
1008.655	2146.88
1008.948	2129.25
1009.242	2087.67
1009.535	2101.23
1009.829	2077.95
1010.122	2056.94
1010.415	2041.57
1010.708	2061.46
1011.001	2045.64
1011.295	2031.85
1011.588	1990.27
1011.881	1979.43
1012.173	1958.86
1012.466	1983.49
1012.759	1961.12
1013.052	1948.47
1013.344	1964.51
1013.637	1933.78
1013.93	1941.46
1014.222	1900.56
1014.514	1906.88
1014.807	1885.42
1015.099	1856.94
1015.391	1878.86
1015.683	1845.87
1015.976	1823.95
1016.268	1799.77
1016.56	1783.27
1016.851	1770.17
1017.143	1787.11
1017.435	1796.83
1017.727	1753.67
1018.018	1772.65
1018.31	1740.56
1018.602	1744.18
1018.893	1724.52
1019.185	1706.66
1019.476	1698.75
1019.767	1670.73
1020.058	1659.21
1020.35	1664.18
1020.641	1676.38
1020.932	1650.62
1021.223	1633.22
1021.514	1614.46
1021.804	1612.43
1022.095	1574.24
1022.386	1577.63
1022.677	1546.44
1022.967	1548.93
1023.258	1548.25
1023.548	1535.6
1023.839	1534.24
1024.129	1540.79
1024.419	1520.68
1024.709	1503.73
1025	1450.63
1025.29	1474.35
1025.58	1479.1
1025.87	1450.85
1026.16	1426.67
1026.449	1427.58
1026.739	1405.66
1027.029	1416.95
1027.319	1400.91
1027.608	1406.56
1027.898	1383.28
1028.187	1404.75
1028.477	1358.65
1028.766	1362.27
1029.055	1347.13
1029.344	1336.73
1029.634	1329.05
1029.923	1338.99
1030.212	1313.91
1030.501	1296.73
1030.79	1287.92
1031.078	1300.8
1031.367	1271.42
1031.656	1296.28
1031.945	1280.91
1032.233	1241.59
1032.522	1265.55
1032.81	1204.3
1033.099	1181.71
1033.387	1216.28
1033.675	1208.37
1033.963	1211.08
1034.251	1183.29
1034.54	1170.18
1034.828	1174.02
1035.116	1154.36
1035.403	1162.95
1035.691	1146.68
1035.979	1150.75
1036.267	1145.55
1036.554	1113.23
1036.842	1137.19
1037.129	1123.4
1037.417	1115.72
1037.704	1117.53
1037.992	1099.22
1038.279	1105.78
1038.566	1065.1
1038.853	1065.1
1039.14	1065.1
