Data from red_shiny_book_FLMS001491_00014.txt Node
Date: Wed Feb 08 15:23:42 GMT 2017
User: dcchb
Spectrometer: FLMS00149
Trigger mode: 0
Integration Time (sec): 2.000000E-2
Scans to average: 10
Electric dark correction enabled: true
Nonlinearity correction enabled: false
Boxcar width: 0
XAxis mode: Wavelengths
Number of Pixels in Spectrum: 2048
>>>>>Begin Spectral Data<<<<<
341.393	-12.15
341.776	-12.15
342.16	-12.15
342.543	-70
342.927	-68.87
343.31	-92.82
343.693	-76.55
344.077	-76.33
344.46	-80.85
344.843	-55.99
345.226	-41.07
345.61	-29.32
345.993	10.68
346.376	9.32
346.759	17.91
347.142	28.3
347.525	51.81
347.908	54.52
348.291	85.7
348.674	94.74
349.057	99.94
349.44	118.47
349.823	139.26
350.206	167.06
350.588	218.58
350.971	232.14
351.354	246.6
351.737	241.63
352.119	267.62
352.502	281.18
352.884	295.19
353.267	271.24
353.65	295.87
354.032	330.22
354.414	327.28
354.797	344.45
355.179	358.92
355.562	330.22
355.944	327.96
356.326	347.84
356.709	365.02
357.091	365.92
357.473	367.05
357.855	362.98
358.238	364.79
358.62	359.82
359.002	380.61
359.384	381.97
359.766	369.54
360.148	365.47
360.53	347.17
360.912	358.47
361.294	347.62
361.676	355.53
362.057	339.03
362.439	348.52
362.821	347.84
363.203	342.65
363.584	339.03
363.966	335.87
364.348	353.49
364.729	350.33
365.111	345.13
365.493	346.04
365.874	339.48
366.256	337.22
366.637	352.59
367.019	346.04
367.4	336.09
367.781	326.6
368.163	358.01
368.544	330.44
368.925	347.39
369.306	354.4
369.688	339.93
370.069	334.96
370.45	335.64
370.831	335.64
371.212	346.04
371.593	351.46
371.974	352.36
372.355	350.78
372.736	343.78
373.117	339.26
373.498	345.36
373.879	327.73
374.26	332.03
374.641	339.03
375.021	354.85
375.402	344.91
375.783	330.9
376.163	378.8
376.544	334.06
376.925	334.51
377.305	361.4
377.686	337
378.066	352.36
378.447	391.91
378.827	369.31
379.208	377.9
379.588	363.44
379.968	375.41
380.349	355.98
380.729	348.07
381.109	371.35
381.489	354.62
381.87	362.76
382.25	369.31
382.63	393.94
383.01	378.13
383.39	372.25
383.77	372.48
384.15	390.33
384.53	393.94
384.91	389.42
385.29	383.1
385.67	388.29
386.049	386.04
386.429	405.47
386.809	391.46
387.189	381.06
387.568	390.1
387.948	414.73
388.328	394.62
388.707	394.62
389.087	394.4
389.466	407.5
389.846	412.02
390.225	417.67
390.605	400.05
390.984	394.4
391.363	417.9
391.743	436.2
392.122	418.58
392.501	417.45
392.881	412.48
393.26	404.11
393.639	411.57
394.018	442.98
394.397	422.19
394.776	419.03
395.155	441.4
395.534	432.81
395.913	423.32
396.292	427.16
396.671	431.01
397.05	469.87
397.429	462.19
397.808	425.81
398.186	454.73
398.565	458.8
398.944	453.38
399.323	470.78
399.701	468.74
400.08	440.5
400.458	451.57
400.837	456.77
401.215	446.6
401.594	456.32
401.972	473.49
402.351	468.29
402.729	457.67
403.107	474.62
403.486	480.5
403.864	478.24
404.242	471.46
404.62	469.2
404.999	479.37
405.377	509.2
405.755	490.89
406.133	501.74
406.511	502.64
406.889	502.19
407.267	513.72
407.645	511.23
408.023	534.96
408.401	492.25
408.779	520.27
409.156	506.26
409.534	514.39
409.912	506.26
410.29	531.79
410.667	545.35
411.045	553.49
411.422	569.53
411.8	544
412.178	553.71
412.555	547.61
412.933	558.01
413.31	564.11
413.687	595.3
414.065	596.88
414.442	593.94
414.819	623.77
415.197	606.82
415.574	629.64
415.951	603.66
416.328	631.9
416.705	592.58
417.082	623.54
417.46	632.81
417.837	642.07
418.214	631.23
418.591	637.78
418.967	648.63
419.344	648.63
419.721	674.39
420.098	661.96
420.475	666.71
420.852	703.31
421.228	658.34
421.605	682.75
421.982	704.67
422.358	680.94
422.735	693.6
423.111	703.09
423.488	721.17
423.864	705.8
424.241	702.86
424.617	717.33
424.994	703.99
425.37	718
425.746	713.94
426.123	748.96
426.499	732.47
426.875	728.85
427.251	738.57
427.627	797.32
428.003	799.36
428.379	776.53
428.756	774.05
429.132	807.49
429.507	779.47
429.883	789.64
430.259	787.61
430.635	807.94
431.011	772.69
431.387	828.06
431.763	851.33
432.138	838.68
432.514	857.89
432.89	859.69
433.265	872.12
433.641	851.11
434.016	865.12
434.392	864.21
434.767	907.83
435.143	881.62
435.518	913.25
435.894	892.69
436.269	901.5
436.644	947.15
437.02	947.38
437.395	927.72
437.77	927.04
438.145	956.87
438.52	952.57
438.895	948.51
439.271	940.6
439.646	961.39
440.021	979.69
440.395	970.2
440.77	1015.85
441.145	990.31
441.52	1041.61
441.895	1024.89
442.27	1025.79
442.645	988.96
443.019	1032.8
443.394	988.96
443.769	1024.66
444.143	1044.1
444.518	1024.89
444.892	1043.42
445.267	1029.41
445.641	1049.75
446.016	1090.65
446.39	1074.15
446.764	1082.29
447.139	1065.79
447.513	1067.37
447.887	1057.2
448.262	1056.07
448.636	1054.04
449.01	1063.98
449.384	1082.06
449.758	1094.94
450.132	1111.67
450.506	1131.33
450.88	1157.54
451.254	1136.75
451.628	1147.6
452.002	1151.44
452.376	1144.21
452.75	1143.53
453.123	1109.18
453.497	1129.07
453.871	1149.18
454.244	1165.22
454.618	1187.6
454.992	1198.9
455.365	1200.7
455.739	1246.35
456.112	1252.45
456.486	1229.85
456.859	1255.16
457.232	1230.08
457.606	1240.25
457.979	1207.71
458.352	1242.51
458.725	1255.84
459.099	1239.8
459.472	1282.28
459.845	1283.86
460.218	1344.65
460.591	1332.9
460.964	1339
461.337	1377.65
461.71	1375.39
462.083	1383.52
462.456	1359.34
462.829	1336.07
463.201	1333.58
463.574	1341.04
463.947	1358.44
464.32	1358.21
464.692	1401.15
465.065	1434.14
465.438	1460.36
465.81	1485.44
466.183	1519.34
466.555	1524.08
466.928	1523.63
467.3	1476.85
467.672	1480.02
468.045	1515.72
468.417	1499.9
468.789	1454.71
469.161	1511.2
469.534	1551.88
469.906	1571.31
470.278	1589.62
470.65	1625.78
471.022	1696.51
471.394	1702.16
471.766	1700.35
472.138	1736.96
472.51	1730.63
472.882	1731.76
473.253	1728.82
473.625	1701.48
473.997	1721.59
474.369	1729.73
474.74	1752.1
475.112	1780.8
475.484	1863.28
475.855	1908.71
476.227	1936.73
476.598	2017.4
476.97	2013.34
477.341	2082.49
477.713	2061.25
478.084	2060.34
478.455	2076.39
478.827	2032.09
479.198	2026.9
479.569	2027.35
479.94	2102.83
480.311	2114.8
480.682	2202.26
481.053	2260.34
481.424	2326.1
481.795	2379.2
482.166	2457.39
482.537	2450.39
482.908	2515.47
483.279	2482.03
483.65	2494
484.021	2500.78
484.391	2515.47
484.762	2489.71
485.133	2463.27
485.503	2492.19
485.874	2532.65
486.244	2626.2
486.615	2688.35
486.985	2761.11
487.356	2880.66
487.726	2930.6
488.097	2992.97
488.467	3006.98
488.837	3034.33
489.207	3042.69
489.578	3030.03
489.948	3010.6
490.318	2997.27
490.688	2965.18
491.058	3027.77
491.428	3037.26
491.798	3119.97
492.168	3174.66
492.538	3254.89
492.908	3342.79
493.278	3427.54
493.648	3508.66
494.017	3566.29
494.387	3590.47
494.757	3559.96
495.126	3582.34
495.496	3517.03
495.866	3461.89
496.235	3486.74
496.605	3438.61
496.974	3476.12
497.344	3469.57
497.713	3535.56
498.082	3582.79
498.452	3684.93
498.821	3773.52
499.19	3864.59
499.559	3958.82
499.928	3975.55
500.298	4046.73
500.667	4019.39
501.036	3999.27
501.405	3913.17
501.774	3836.34
502.143	3811.93
502.512	3757.7
502.88	3792.05
503.249	3773.52
503.618	3834.98
503.987	3855.55
504.356	3952.95
504.724	3989.56
505.093	4114.3
505.462	4144.81
505.83	4280.17
506.199	4303.9
506.567	4339.83
506.936	4296.89
507.304	4296.89
507.672	4191.36
508.041	4127.63
508.409	4100.97
508.777	4071.59
509.145	4005.83
509.514	3999.05
509.882	4040.85
510.25	4090.8
510.618	4212.6
510.986	4274.07
511.354	4373.05
511.722	4492.82
512.09	4541.86
512.458	4550.67
512.826	4571.01
513.193	4552.71
513.561	4519.71
513.929	4472.48
514.297	4395.87
514.664	4340.73
515.032	4279.49
515.4	4249.89
515.767	4257.12
516.135	4272.49
516.502	4302.32
516.869	4398.36
517.237	4479.49
517.604	4584.79
517.972	4649.65
518.339	4791.57
518.706	4877.22
519.073	4789.31
519.44	4849.19
519.808	4902.3
520.175	4794.51
520.542	4716.09
520.909	4598.13
521.276	4586.38
521.643	4529.2
522.009	4538.92
522.376	4518.58
522.743	4561.52
523.11	4599.48
523.477	4650.56
523.843	4817.78
524.21	4943.2
524.577	5043.31
524.943	5139.36
525.31	5240.82
525.676	5316.75
526.043	5326.7
526.409	5343.64
526.776	5281.5
527.142	5240.82
527.508	5143.88
527.874	5113.59
528.241	5068.85
528.607	4949.53
528.973	4998.12
529.339	4980.26
529.705	5053.48
530.071	5175.29
530.437	5261.16
530.803	5400.14
531.169	5558.55
531.535	5670.64
531.901	5792.67
532.267	5854.37
532.632	5926
532.998	5967.36
533.364	5957.41
533.73	5873.12
534.095	5853.91
534.461	5791.99
534.826	5700.02
535.192	5615.5
535.557	5549.97
535.923	5547.93
536.288	5600.36
536.653	5691.43
537.019	5716.52
537.384	5828.38
537.749	6036.73
538.114	6141.14
538.479	6313.56
538.845	6427.68
539.21	6494.12
539.575	6582.26
539.94	6618.19
540.305	6654.8
540.67	6530.73
541.034	6510.62
541.399	6415.48
541.764	6405.54
542.129	6266.78
542.494	6211.64
542.858	6184.98
543.223	6116.51
543.587	6149.5
543.952	6158.99
544.316	6335.71
544.681	6408.7
545.045	6542.03
545.41	6721.69
545.774	6894.56
546.138	7040.78
546.503	7089.14
546.867	7163.03
547.231	7252.52
547.595	7195.8
547.959	7122.13
548.324	7018.63
548.688	6936.15
549.052	6800.56
549.416	6764.62
549.779	6624.29
550.143	6581.58
550.507	6568.25
550.871	6579.09
551.235	6581.58
551.599	6688.24
551.962	6801.69
552.326	6942.92
552.689	7130.26
553.053	7181.34
553.417	7349.24
553.78	7525.06
554.143	7545.62
554.507	7641.66
554.87	7638.95
555.234	7584.49
555.597	7502.91
555.96	7365.29
556.323	7279.41
556.686	7140.21
557.05	7118.97
557.413	7002.13
557.776	6905.41
558.139	6950.38
558.502	6906.09
558.865	6960.1
559.228	7116.48
559.59	7201.22
559.953	7376.59
560.316	7622
560.679	7764.6
561.041	7913.75
561.404	8059.28
561.767	8151.25
562.129	8158.71
562.492	8184.47
562.854	8188.99
563.217	7994.2
563.579	7981.09
563.941	7792.85
564.304	7699.06
564.666	7632.4
565.028	7513.76
565.39	7444.83
565.753	7382.91
566.115	7410.26
566.477	7450.71
566.839	7518.28
567.201	7662.23
567.563	7764.6
567.925	7985.38
568.287	8151.25
568.648	8336.56
569.01	8505.6
569.372	8692.71
569.734	8731.13
570.095	8847.51
570.457	8859.26
570.819	8855.42
571.18	8809.99
571.542	8702.88
571.903	8543.11
572.265	8389.67
572.626	8281.87
572.987	8197.36
573.349	8140.86
573.71	8133.4
574.071	8172.72
574.432	8179.05
574.794	8370.46
575.155	8501.98
575.516	8592.37
575.877	8850.45
576.238	9074.85
576.599	9326.82
576.96	9609.07
577.32	9823.75
577.681	9979.68
578.042	10180.58
578.403	10274.14
578.763	10332.67
579.124	10368.37
579.485	10445.21
579.845	10476.39
580.206	10455.15
580.566	10420.57
580.927	10496.28
581.287	10588.25
581.648	10580.57
582.008	10819.21
582.368	10988.24
582.728	11300.1
583.089	11546.42
583.449	12001.1
583.809	12388.21
584.169	12872.03
584.529	13345.47
584.889	13978.9
585.249	14339.34
585.609	14864.75
585.969	15432.87
586.329	15847.32
586.688	16302.23
587.048	16756.23
587.408	17045.94
587.768	17459.26
588.127	17758.46
588.487	17995.52
588.846	18472.57
589.206	18633.24
589.565	19008.14
589.925	19405.65
590.284	19770.61
590.643	20269.13
591.003	20747.76
591.362	21376.9
591.721	21952.93
592.08	22508.62
592.44	23278.09
592.799	24098.86
593.158	24510.15
593.517	25412.27
593.876	26288.4
594.235	26735.17
594.593	27547.81
594.952	28102.59
595.311	28589.36
595.67	29171.49
596.029	29901.19
596.387	30171.24
596.746	30721.28
597.104	31105.23
597.463	31499.34
597.822	31914.7
598.18	31969.39
598.538	32452.76
598.897	33083.93
599.255	33211.61
599.613	34079.61
599.972	34397.57
600.33	34951.91
600.688	35385.11
601.046	36015.38
601.404	36956.15
601.762	37505.51
602.12	38083.35
602.478	38833.61
602.836	39498
603.194	39727.83
603.552	40417.98
603.91	40660.68
604.268	41261.12
604.625	41551.28
604.983	42062.45
605.341	42260.64
605.698	42567.98
606.056	42918.93
606.413	43021.3
606.771	43327.05
607.128	43461.06
607.485	43556.43
607.843	43824.44
608.2	44393.92
608.557	44571.09
608.914	44523.63
609.272	45123.84
609.629	45586.65
609.986	46023.25
610.343	46108
610.7	46890.12
611.057	47050.57
611.414	47386.38
611.771	47837.89
612.127	48170.09
612.484	48447.6
612.841	48726.91
613.198	48757.64
613.554	49134.13
613.911	49373.45
614.267	49471.07
614.624	49548.13
614.98	49639.88
615.337	49876.94
615.693	49788.58
616.05	49739.54
616.406	50007.56
616.762	49795.13
617.118	49878.74
617.475	49982.25
617.831	50039.19
618.187	50146.08
618.543	50247.1
618.899	50556.69
619.255	50698.84
619.611	50752.85
619.967	51037.58
620.323	51299.27
620.678	51388.31
621.034	51357.58
621.39	51574.97
621.746	51744.23
622.101	52272.13
622.457	52030.55
622.812	52165.46
623.168	52278.23
623.523	52236.2
623.879	52469.64
624.234	52175.63
624.589	52223.77
624.945	52256.99
625.3	52245.24
625.655	52126.37
626.01	52152.36
626.365	52145.35
626.72	52021.06
627.075	52004.79
627.43	51956.88
627.785	51869.2
628.14	52044.34
628.495	52125.92
628.85	52228.06
629.205	52068.07
629.559	52494.04
629.914	52410.43
630.269	52563.87
630.623	52621.27
630.978	52608.39
631.332	52850.42
631.687	52954.82
632.041	52944.43
632.396	52971.32
632.75	52918.44
633.104	52972
633.459	52815.39
633.813	52775.17
634.167	52754.15
634.521	52665.56
634.875	52686.58
635.229	52477.55
635.583	52289.08
635.937	52149.65
636.291	52126.82
636.645	52065.35
636.999	51898.35
637.352	51958.01
637.706	51815.19
638.06	51875.08
638.413	51863.1
638.767	51741.29
639.121	51930.67
639.474	51917.11
639.828	51933.15
640.181	52113.04
640.534	52273.94
640.888	52232.58
641.241	52197.78
641.594	52258.8
641.947	52421.05
642.301	52421.28
642.654	52485.23
643.007	52450.88
643.36	52401.16
643.713	52348.74
644.066	52393.93
644.419	52118.69
644.771	51814.51
645.124	51445.94
645.477	51257.47
645.83	50900.41
646.182	50703.58
646.535	50624.71
646.888	50579.29
647.24	50388.34
647.593	50549.69
647.945	50439.41
648.298	50335.46
648.65	50207.1
649.002	50283.48
649.355	50328.68
649.707	50467.2
650.059	50545.62
650.411	51002.33
650.763	51123.91
651.115	51552.6
651.467	51497.69
651.819	51581.3
652.171	51591.69
652.523	51481.87
652.875	51556.67
653.227	51389.44
653.578	51675.99
653.93	51497.91
654.282	51415.88
654.633	51317.58
654.985	51213.17
655.337	51209.78
655.688	51142.21
656.039	51197.58
656.391	50765.05
656.742	50752.39
657.094	50710.81
657.445	50702.45
657.796	50493.42
658.147	50428.11
658.498	50454.55
658.849	50502.01
659.2	50534.09
659.551	50371.84
659.902	50504.04
660.253	50556.24
660.604	50720.53
660.955	50740.42
661.306	50902.22
661.656	50813.86
662.007	50861.54
662.358	50999.62
662.708	51109.9
663.059	51205.72
663.409	50999.62
663.76	51217.24
664.11	51312.83
664.461	51250.23
664.811	51174.98
665.161	51120.07
665.511	50970.24
665.862	50907.19
666.212	50901.32
666.562	50869.45
666.912	50678.95
667.262	50623.58
667.612	50480.54
667.962	50266.98
668.312	50204.84
668.662	50246.19
669.011	50043.03
669.361	50083.71
669.711	49954.68
670.06	50026.31
670.41	49784.74
670.76	49898.41
671.109	50092.52
671.459	50010.49
671.808	50022.92
672.157	50198.51
672.507	50131.17
672.856	50203.03
673.205	50368.45
673.554	50516.24
673.904	50397.6
674.253	50703.58
674.602	50586.97
674.951	50062.47
675.3	49902.93
675.649	50548.78
675.998	50468.33
676.346	50356.7
676.695	50431.72
677.044	50052.3
677.393	50153.54
677.741	50042.36
678.09	49947.22
678.438	49796.71
678.787	49687.34
679.135	49660.67
679.484	49236.28
679.832	49357.4
680.181	49065.21
680.529	49164.41
680.877	48996.51
681.225	49026.79
681.573	49229.04
681.922	48914.93
682.27	48966.45
682.618	48913.12
682.966	49059.11
683.314	49035.6
683.661	49108.14
684.009	48967.13
684.357	49103.62
684.705	49112.44
685.053	49284.18
685.4	49233.11
685.748	49194.7
686.095	49210.51
686.443	49158.09
686.79	49103.62
687.138	49123.06
687.485	49100.01
687.832	48923.52
688.18	48836.06
688.527	48615.73
688.874	48398.56
689.221	48261.61
689.568	48007.38
689.915	47964.45
690.262	47733.26
690.609	47507.73
690.956	47494.63
691.303	47305.03
691.65	47001.76
691.997	47041.08
692.344	46755.44
692.69	46598.61
693.037	46722.9
693.383	46414.88
693.73	46606.97
694.077	46303.25
694.423	46383.92
694.769	46358.61
695.116	46348.22
695.462	46284.49
695.808	46286.52
696.155	46508.66
696.501	46288.56
696.847	46304.15
697.193	46224.15
697.539	46397.93
697.885	46023.03
698.231	46084.27
698.577	46143.48
698.923	45955.91
699.269	45800.89
699.614	45664.84
699.96	45611.29
700.306	45609.93
700.651	45193.22
700.997	45009.04
701.342	44870.74
701.688	44806.11
702.033	44624.42
702.379	44379.45
702.724	44119.57
703.069	44139.23
703.415	43593.94
703.76	43578.8
704.105	43515.07
704.45	43382.19
704.795	43094.52
705.14	42979.04
705.485	43106.95
705.83	42771.36
706.175	42983.56
706.52	42932.26
706.865	42791.93
707.209	42907.63
707.554	42791.25
707.899	42892.04
708.243	42774.98
708.588	42865.82
708.932	42675.09
709.277	42793.51
709.621	42885.48
709.966	42763
710.31	42873.28
710.654	42433.74
710.998	42604.81
711.342	42623.57
711.687	42497.7
712.031	42231.71
712.375	42030.59
712.719	42158.27
713.063	41859.97
713.407	41973.42
713.75	41629.47
714.094	41429.93
714.438	41248.24
714.782	41028.81
715.125	40930.73
715.469	40821.58
715.812	40552.21
716.156	40252.78
716.499	40314.7
716.843	40311.99
717.186	39970.08
717.53	40269.73
717.873	40182.05
718.216	40079.45
718.559	39945.45
718.902	39679.47
719.246	39987.25
719.589	39675.4
719.932	39739.35
720.275	39653.48
720.617	39760.82
720.96	39822.74
721.303	39817.54
721.646	40069.51
721.989	39805.11
722.331	40077.87
722.674	40105.22
723.016	39986.58
723.359	39994.03
723.701	39904.77
724.044	39735.06
724.386	39529.41
724.729	39790.2
725.071	39569.64
725.413	39371.22
725.755	39337.55
726.097	39140.27
726.439	38841.75
726.782	38901.41
727.124	38889.43
727.465	38580.29
727.807	38531.92
728.149	38315.21
728.491	38070.92
728.833	38056.68
729.175	37893.98
729.516	37714.09
729.858	37633.64
730.199	37635
730.541	37497.83
730.882	37405.17
731.224	37463.03
731.565	37358.62
731.906	37382.8
732.248	37482.46
732.589	37329.02
732.93	37387.32
733.271	37446.76
733.612	37498.96
733.953	37566.98
734.294	37316.82
734.635	37462.8
734.976	37626.64
735.317	37384.38
735.658	37551.16
735.999	37573.08
736.339	37604.49
736.68	37654.43
737.021	37542.57
737.361	37343.48
737.702	37441.11
738.042	37269.59
738.383	37251.96
738.723	37240.66
739.063	37149.59
739.404	37144.84
739.744	36879.31
740.084	36802.7
740.424	36612.2
740.764	36505.99
741.104	36529.49
741.444	36229.61
741.784	35935.83
742.124	36127.24
742.464	35970.86
742.804	35739.68
743.143	35619.46
743.483	35718.89
743.823	35326.36
744.162	35435.06
744.502	35556.18
744.841	35378.56
745.181	35510.76
745.52	35420.37
745.86	35423.76
746.199	35328.39
746.538	35404.32
746.877	35321.84
747.216	35532.68
747.556	35429.63
747.895	35435.06
748.234	35458.79
748.573	35479.35
748.911	35562.51
749.25	35509.18
749.589	35473.7
749.928	35394.38
750.267	35470.54
750.605	35461.72
750.944	35382.63
751.283	35318.9
751.621	35267.15
751.96	35002.75
752.298	35066.71
752.636	35016.54
752.975	34752.59
753.313	34584.23
753.651	34601.63
753.989	34413.61
754.327	34091.82
754.666	34080.29
755.004	34153.06
755.342	33844.59
755.679	33664.26
756.017	33489.12
756.355	33480.53
756.693	33276.47
757.031	33306.3
757.368	33040.77
757.706	32802.81
758.044	32828.57
758.381	32809.82
758.719	32659.99
759.056	32661.34
759.394	32485.98
759.731	32587.9
760.068	32443.95
760.405	32306.1
760.743	32301.13
761.08	32419.32
761.417	32168.48
761.754	32196.27
762.091	32317.4
762.428	32241.47
762.765	32061.81
763.102	32243.28
763.438	32236.27
763.775	32069.72
764.112	32180.68
764.449	32133
764.785	32034.69
765.122	31781.59
765.458	31712.89
765.795	31602.62
766.131	31644.2
766.467	31410.53
766.804	31407.59
767.14	31264.77
767.476	31187.26
767.812	31026.81
768.148	30981.39
768.485	30692.13
768.821	30471.12
769.157	30487.62
769.492	30307.96
769.828	30126.72
770.164	29861.87
770.5	29645.15
770.836	29667.98
771.171	29405.84
771.507	29267.08
771.842	29015.34
772.178	28952.52
772.513	28940.99
772.849	28868
773.184	28718.62
773.519	28666.65
773.855	28420.33
774.19	28332.42
774.525	28228.01
774.86	28366.99
775.195	28304.4
775.53	28089.04
775.865	28138.98
776.2	27944.63
776.535	27829.38
776.87	27913.67
777.205	27742.83
777.539	27665.32
777.874	27827.12
778.209	27647.47
778.543	27628.03
778.878	27585.77
779.212	27515.94
779.547	27446.34
779.881	27502.16
780.215	27363.18
780.55	27353.91
780.884	27142.17
781.218	27083.64
781.552	27154.14
781.886	26894.26
782.22	26705.57
782.554	26656.76
782.888	26436.42
783.222	26309.87
783.556	26115.75
783.889	26048.64
784.223	25849.77
784.557	25744.46
784.89	25748.31
785.224	25486.84
785.557	25371.37
785.891	25184.48
786.224	25081.2
786.558	25090.24
786.891	24778.39
787.224	24715.11
787.557	24604.38
787.891	24584.72
788.224	24460.43
788.557	24441.9
788.89	24297.5
789.223	24352.41
789.556	24122.81
789.888	24094.79
790.221	24010.5
790.554	23886.89
790.887	23964.85
791.219	23898.86
791.552	23975.7
791.884	23722.82
792.217	23785.65
792.549	23858.19
792.882	23618.42
793.214	23481.92
793.546	23571.87
793.879	23462.26
794.211	23408.25
794.543	23485.31
794.875	23340.69
795.207	23533.45
795.539	23308.37
795.871	23332.32
796.203	23226.11
796.535	23078.55
796.867	23001.71
797.198	23003.75
797.53	22952.67
797.862	22768.95
798.193	22699.12
798.525	22670.87
798.856	22568.95
799.188	22250.32
799.519	22196.99
799.85	22104.56
800.182	22026.82
800.513	21918.8
800.844	21668.64
801.175	21811.01
801.506	21676.1
801.837	21536.67
802.168	21404.01
802.499	21288.76
802.83	21148.43
803.161	21168.77
803.491	21081.76
803.822	21048.54
804.153	20932.84
804.483	20757.7
804.814	20721.77
805.145	20637.93
805.475	20623.02
805.805	20594.32
806.136	20617.82
806.466	20759.51
806.796	20588.89
807.126	20511.61
807.457	20481.33
807.787	20451.04
808.117	20453.76
808.447	20402.68
808.777	20420.99
809.107	20439.52
809.436	20378.73
809.766	20425.51
810.096	20373.53
810.426	20347.54
810.755	20336.92
811.085	20207.21
811.414	20202.24
811.744	20171.05
812.073	20044.5
812.403	19991.4
812.732	19968.12
813.061	20025.52
813.39	19886.99
813.719	19867.33
814.049	19876.82
814.378	19806.32
814.707	19676.38
815.036	19636.38
815.365	19482.26
815.693	19280.23
816.022	19334.69
816.351	19202.72
816.68	19154.58
817.008	19100.8
817.337	18863.52
817.665	18791.65
817.994	18930.41
818.322	18776.29
818.651	18670.75
818.979	18547.14
819.307	18538.1
819.636	18568.61
819.964	18476.63
820.292	18469.4
820.62	18474.82
820.948	18246.58
821.276	18369.97
821.604	18196.64
821.932	18325.45
822.259	18353.7
822.587	18280.93
822.915	18370.19
823.243	18475.05
823.57	18346.69
823.898	18418.78
824.225	18320.93
824.553	18439.8
824.88	18397.09
825.207	18430.98
825.535	18434.6
825.862	18585.78
826.189	18435.5
826.516	18623.07
826.843	18619
827.17	18709.4
827.497	18709.4
827.824	18771.09
828.151	18692.22
828.478	18741.48
828.805	18875.49
829.131	18777.87
829.458	18718.89
829.785	18717.3
830.111	18650.19
830.438	18773.35
830.764	18752.56
831.09	18742.16
831.417	18512.79
831.743	18566.57
832.069	18531.77
832.395	18435.28
832.722	18452.9
833.048	18494.03
833.374	18341.95
833.7	18266.92
834.026	18319.12
834.351	18261.95
834.677	18241.16
835.003	18138.79
835.329	18160.26
835.654	18081.61
835.98	17884.11
836.306	17889.3
836.631	17781.96
836.956	17819.93
837.282	17780.38
837.607	17758.69
837.932	17735.41
838.258	17731.57
838.583	17699.48
838.908	17596.88
839.233	17556.66
839.558	17515.53
839.883	17462.65
840.208	17400.28
840.533	17499.71
840.858	17537.22
841.182	17474.17
841.507	17529.31
841.832	17491.35
842.156	17441.18
842.481	17466.49
842.805	17517.56
843.13	17427.85
843.454	17564.79
843.778	17506.71
844.103	17423.1
844.427	17425.36
844.751	17454.96
845.075	17499.03
845.399	17421.29
845.723	17362.99
846.047	17284.12
846.371	17282.99
846.695	17175.88
847.019	17157.8
847.343	17049.78
847.666	16897.01
847.99	16923.68
848.313	16857.01
848.637	16690.69
848.96	16679.84
849.284	16581.09
849.607	16395.33
849.931	16517.36
850.254	16404.14
850.577	16265.39
850.9	15988.11
851.223	15947.66
851.546	15912.41
851.869	15855.46
852.192	15800.09
852.515	15637.84
852.838	15588.8
853.161	15490.27
853.483	15464.73
853.806	15311.07
854.129	15304.51
854.451	15173.67
854.774	15151.97
855.096	15053.9
855.419	14995.37
855.741	14930.74
856.063	14812.32
856.385	14718.31
856.708	14799.67
857.03	14774.81
857.352	14669.05
857.674	14670.86
857.996	14661.14
858.318	14485.33
858.64	14623.17
858.961	14663.17
859.283	14531.65
859.605	14469.28
859.926	14571.65
860.248	14496.85
860.57	14483.97
860.891	14523.06
861.212	14522.39
861.534	14460.92
861.855	14351.54
862.176	14503.18
862.498	14486.91
862.819	14471.54
863.14	14377.98
863.461	14419.34
863.782	14365.55
864.103	14455.04
864.424	14404.42
864.745	14416.63
865.065	14380.7
865.386	14203.98
865.707	14313.8
866.027	14253.24
866.348	14168.72
866.668	14190.87
866.989	14130.31
867.309	14108.84
867.63	14076.97
867.95	14109.06
868.27	14025
868.59	14025.68
868.91	13945
869.23	13894.38
869.55	13754.27
869.87	13819.35
870.19	13674.95
870.51	13781.84
870.83	13726.7
871.15	13628.62
871.469	13508.63
871.789	13548.4
872.109	13538.68
872.428	13375.98
872.748	13439.7
873.067	13407.39
873.386	13423.21
873.706	13357.67
874.025	13273.61
874.344	13289.65
874.663	13213.04
874.982	13170.11
875.301	13164.46
875.62	13154.06
875.939	13085.59
876.258	13109.09
876.577	13040.17
876.896	13047.17
877.214	12973.27
877.533	13030
877.852	13011.47
878.17	13019.38
878.489	13043.33
878.807	13058.7
879.125	13005.59
879.444	12967.4
879.762	13016.66
880.08	13039.26
880.398	13037
880.716	12999.49
881.034	13002.43
881.352	13008.98
881.67	12995.65
881.988	13003.78
882.306	12992.48
882.624	13041.07
882.941	12974.4
883.259	12827.29
883.577	12824.8
883.894	12872.26
884.212	12892.37
884.529	12888.31
884.846	12831.58
885.164	12755.65
885.481	12776.67
885.798	12667.29
886.115	12725.6
886.432	12644.92
886.75	12561.31
887.067	12572.38
887.383	12526.96
887.7	12602.89
888.017	12455.77
888.334	12471.82
888.651	12373.52
888.967	12335.78
889.284	12273.63
889.6	12182.79
889.917	12093.07
890.233	12084.71
890.55	12021.44
890.866	11990.93
891.182	11920.42
891.498	11813.98
891.815	11798.39
892.131	11736.25
892.447	11696.25
892.763	11645.85
893.079	11574.44
893.395	11493.54
893.71	11522.47
894.026	11516.36
894.342	11461.68
894.657	11406.99
894.973	11390.72
895.289	11341.45
895.604	11318.63
895.92	11240.44
896.235	11181.23
896.55	11252.42
896.865	11197.73
897.181	11104.62
897.496	11207.67
897.811	11119.99
898.126	11099.88
898.441	11069.82
898.756	11115.47
899.071	11024.4
899.386	11103.49
899.7	11022.14
900.015	10918.41
900.33	10818.3
900.644	10916.61
900.959	10952.54
901.273	10911.86
901.588	10832.77
901.902	10770.62
902.216	10757.51
902.531	10815.59
902.845	10678.19
903.159	10637.06
903.473	10651.53
903.787	10562.04
904.101	10495.15
904.415	10560.46
904.729	10514.81
905.042	10458.54
905.356	10411.31
905.67	10386.45
905.984	10404.53
906.297	10318.43
906.611	10236.62
906.924	10266
907.237	10155.5
907.551	10084.76
907.864	10049.96
908.177	10049.28
908.491	10025.1
908.804	9956.4
909.117	9876.41
909.43	9765.9
909.743	9725.9
910.056	9727.71
910.368	9684.1
910.681	9617.2
910.994	9613.59
911.307	9533.37
911.619	9456.98
911.932	9417.89
912.244	9275.97
912.557	9320.26
912.869	9157.78
913.181	9166.37
913.494	9125.69
913.806	9080.5
914.118	9059.71
914.43	8955.08
914.742	9021.97
915.054	8865.59
915.366	8860.16
915.678	8786.49
915.99	8782.2
916.302	8751.01
916.613	8694.29
916.925	8704.69
917.236	8725.93
917.548	8594.63
917.859	8667.85
918.171	8574.29
918.482	8581.07
918.794	8519.83
919.105	8591.92
919.416	8467.63
919.727	8470.79
920.038	8392.6
920.349	8430.12
920.66	8414.98
920.971	8501.75
921.282	8418.82
921.593	8252.04
921.903	8284.13
922.214	8274.87
922.525	8302.44
922.835	8227.18
923.146	8173.85
923.456	8144.7
923.767	8130.46
924.077	8104.7
924.387	8127.75
924.697	8009.79
925.008	8097.02
925.318	7992.84
925.628	8000.3
925.938	7927.31
926.248	7836.91
926.558	7796.91
926.867	7828.33
927.177	7805.73
927.487	7739.51
927.796	7712.85
928.106	7681.44
928.416	7655.45
928.725	7624.71
929.034	7540.65
929.344	7549.69
929.653	7528.22
929.962	7399.18
930.271	7356.02
930.581	7336.59
930.89	7257.94
931.199	7252.3
931.508	7189.7
931.817	7199.19
932.125	7167.78
932.434	7092.98
932.743	7048.46
933.051	6951.06
933.36	7015.69
933.669	6922.13
933.977	6890.04
934.286	6902.25
934.594	6839.65
934.902	6767.56
935.21	6720.11
935.519	6747.68
935.827	6717.17
936.135	6646.44
936.443	6549.49
936.751	6513.56
937.059	6545.42
937.367	6469.26
937.674	6503.39
937.982	6498.42
938.29	6421.81
938.597	6442.6
938.905	6358.99
939.213	6335.03
939.52	6306.33
939.827	6360.57
940.135	6310.63
940.442	6302.72
940.749	6258.2
941.056	6305.2
941.363	6215.49
941.67	6208.48
941.977	6209.38
942.284	6139.56
942.591	6149.95
942.898	6116.28
943.205	6189.27
943.511	6162.61
943.818	6129.16
944.125	6093.46
944.431	5998.54
944.738	6108.6
945.044	5936.85
945.35	6013.91
945.657	5936.62
945.963	5953.12
946.269	5954.7
946.575	5944.76
946.881	5894.82
947.187	5902.05
947.493	5836.29
947.799	5785.89
948.105	5840.58
948.41	5758.32
948.716	5757.87
949.022	5657.99
949.327	5710.19
949.633	5613.24
949.938	5659.34
950.244	5615.5
950.549	5555.62
950.854	5565.33
951.16	5537.31
951.465	5529.4
951.77	5455.28
952.075	5449.18
952.38	5438.11
952.685	5403.08
952.99	5361.5
953.294	5355.17
953.599	5265.23
953.904	5230.65
954.209	5247.15
954.513	5230.43
954.818	5143.2
955.122	5108.62
955.426	5113.82
955.731	5079.92
956.035	5065.23
956.339	5047.83
956.643	4999.02
956.948	4910.21
957.252	4926.48
957.556	4885.58
957.86	4855.75
958.163	4874.28
958.467	4852.81
958.771	4825.01
959.075	4830.89
959.378	4788.63
959.682	4763.55
959.985	4756.09
960.289	4657.79
960.592	4654.4
960.896	4646.94
961.199	4664.11
961.502	4613.27
961.805	4621.4
962.108	4591.35
962.411	4602.2
962.714	4511.35
963.017	4543.44
963.32	4589.09
963.623	4502.76
963.926	4534.63
964.228	4442.65
964.531	4451.01
964.833	4477.23
965.136	4451.46
965.438	4433.16
965.741	4397.91
966.043	4430.45
966.345	4392.94
966.648	4374.63
966.95	4347.06
967.252	4312.26
967.554	4275.2
967.856	4337.8
968.158	4273.62
968.46	4328.53
968.761	4238.82
969.063	4255.76
969.365	4244.46
969.666	4223.45
969.968	4165.6
970.269	4184.13
970.571	4189.32
970.872	4123.56
971.174	4148.2
971.475	4131.7
971.776	4114.75
972.077	4084.47
972.378	4090.8
972.679	4049.22
972.98	4008.31
973.281	3991.36
973.582	3994.08
973.883	4002.21
974.183	3964.47
974.484	3927.18
974.785	3886.96
975.085	3920.18
975.386	3874.98
975.686	3847.64
975.986	3866.4
976.287	3803.12
976.587	3776.23
976.887	3723.35
977.187	3713.41
977.487	3744.82
977.787	3722.9
978.087	3684.93
978.387	3691.71
978.687	3628.21
978.987	3581.43
979.286	3595.22
979.586	3573.3
979.885	3539.62
980.185	3527.87
980.484	3496.01
980.784	3482.9
981.083	3460.98
981.382	3452.4
981.682	3453.3
981.981	3423.7
982.28	3410.81
982.579	3383.24
982.878	3365.17
983.177	3376.92
983.475	3347.31
983.774	3323.81
984.073	3296.24
984.372	3276.13
984.67	3296.02
984.969	3285.39
985.267	3246.07
985.566	3238.16
985.864	3241.1
986.162	3237.03
986.461	3189.13
986.759	3203.81
987.057	3139.63
987.355	3142.57
987.653	3189.8
987.951	3138.96
988.249	3134.44
988.547	3129.47
988.844	3099.41
989.142	3078.62
989.44	3093.31
989.737	3027.55
990.035	3004.27
990.332	3042.24
990.63	3062.12
990.927	3037.72
991.224	3048.56
991.521	2989.13
991.819	3019.19
992.116	2978.28
992.413	2999.98
992.71	2971.96
993.006	2955.91
993.303	2938.74
993.6	2931.96
993.897	2940.32
994.193	2935.35
994.49	2877.27
994.787	2857.16
995.083	2850.6
995.379	2836.59
995.676	2845.63
995.972	2862.58
996.268	2784.39
996.565	2801.34
996.861	2769.93
997.157	2780.55
997.453	2736.03
997.749	2712.98
998.044	2709.14
998.34	2683.6
998.636	2696.48
998.932	2690.83
999.227	2660.33
999.523	2658.07
999.818	2636.82
1000.114	2588.46
1000.409	2592.53
1000.704	2559.54
1001	2578.29
1001.295	2548.46
1001.59	2555.02
1001.885	2541.68
1002.18	2517.05
1002.475	2488.58
1002.77	2434.34
1003.065	2449.94
1003.359	2430.95
1003.654	2434.34
1003.949	2403.61
1004.243	2378.53
1004.538	2359.54
1004.832	2332.88
1005.127	2340.79
1005.421	2336.72
1005.715	2306.44
1006.009	2275.48
1006.304	2240
1006.598	2257.4
1006.892	2250.62
1007.186	2251.97
1007.48	2218.76
1007.773	2187.12
1008.067	2212.2
1008.361	2168.81
1008.655	2183.95
1008.948	2162.94
1009.242	2145.08
1009.535	2128.81
1009.829	2134.69
1010.122	2092.43
1010.415	2083.62
1010.708	2071.64
1011.001	2064.63
1011.295	2030.74
1011.588	2031.64
1011.881	2013.11
1012.173	2032.55
1012.466	1999.1
1012.759	1983.51
1013.052	2025.31
1013.344	2008.82
1013.637	1983.73
1013.93	1955.71
1014.222	1962.49
1014.514	1946.9
1014.807	1920.46
1015.099	1926.56
1015.391	1902.61
1015.683	1914.58
1015.976	1904.41
1016.268	1845.88
1016.56	1869.84
1016.851	1858.31
1017.143	1886.56
1017.435	1875.26
1017.727	1858.76
1018.018	1805.66
1018.31	1844.3
1018.602	1817.64
1018.893	1802.72
1019.185	1792.55
1019.476	1767.47
1019.767	1763.63
1020.058	1743.29
1020.35	1747.58
1020.641	1775.38
1020.932	1706.23
1021.223	1709.62
1021.514	1687.24
1021.804	1681.59
1022.095	1679.79
1022.386	1665.78
1022.677	1623.52
1022.967	1626.45
1023.258	1616.06
1023.548	1617.42
1023.839	1599.34
1024.129	1585.78
1024.419	1558.21
1024.709	1567.02
1025	1538.77
1025.29	1543.52
1025.58	1525.89
1025.87	1512.56
1026.16	1514.59
1026.449	1490.86
1026.739	1490.41
1027.029	1486.8
1027.319	1447.02
1027.608	1457.87
1027.898	1423.97
1028.187	1439.57
1028.477	1441.15
1028.766	1401.6
1029.055	1385.33
1029.344	1378.33
1029.634	1360.25
1029.923	1403.41
1030.212	1343.07
1030.501	1352.11
1030.79	1324.54
1031.078	1363.18
1031.367	1295.16
1031.656	1290.42
1031.945	1288.84
1032.233	1303.75
1032.522	1300.14
1032.81	1265.56
1033.099	1266.24
1033.387	1252.45
1033.675	1259.91
1033.963	1240.48
1034.251	1240.02
1034.54	1222.62
1034.828	1206.13
1035.116	1206.35
1035.403	1202.06
1035.691	1199.8
1035.979	1182.85
1036.267	1165
1036.554	1176.75
1036.842	1117.54
1037.129	1169.29
1037.417	1138.11
1037.704	1125.22
1037.992	1132.23
1038.279	1126.35
1038.566	1101.27
1038.853	1101.27
1039.14	1101.27
