Data from red_shiny_book_FLMS001491_00098.txt Node
Date: Wed Feb 08 15:25:38 GMT 2017
User: dcchb
Spectrometer: FLMS00149
Trigger mode: 0
Integration Time (sec): 2.000000E-2
Scans to average: 10
Electric dark correction enabled: true
Nonlinearity correction enabled: false
Boxcar width: 0
XAxis mode: Wavelengths
Number of Pixels in Spectrum: 2048
>>>>>Begin Spectral Data<<<<<
341.393	0.89
341.776	0.89
342.16	0.89
342.543	-62.16
342.927	-77.98
343.31	-83.63
343.693	-55.61
344.077	-51.54
344.46	-87.02
344.843	-49.73
345.226	-37.08
345.61	-21.93
345.993	-22.84
346.376	-15.38
346.759	7.67
347.142	13.32
347.525	39.31
347.908	59.65
348.291	82.24
348.674	103.94
349.057	118.63
349.44	147.55
349.823	134.9
350.206	164.5
350.588	213.99
350.971	202.24
351.354	228
351.737	229.58
352.119	244.73
352.502	288.57
352.884	273.2
353.267	282.92
353.65	310.94
354.032	319.07
354.414	304.38
354.797	304.61
355.179	297.15
355.562	332.18
355.944	337.6
356.326	333.54
356.709	329.69
357.091	352.97
357.473	353.2
357.855	354.55
358.238	349.58
358.62	348.68
359.002	336.7
359.384	349.81
359.766	341.9
360.148	328.34
360.53	356.59
360.912	336.7
361.294	341.9
361.676	332.41
362.057	360.88
362.439	355.46
362.821	348.23
363.203	325.85
363.584	347.77
363.966	330.15
364.348	329.47
364.729	330.15
365.111	317.49
365.493	319.53
365.874	312.52
366.256	324.95
366.637	319.75
367.019	319.53
367.4	317.94
367.781	323.82
368.163	331.28
368.544	335.57
368.925	341.22
369.306	317.04
369.688	330.37
370.069	330.6
370.45	340.99
370.831	335.34
371.212	308.68
371.593	310.71
371.974	324.95
372.355	325.4
372.736	335.8
373.117	319.53
373.498	332.18
373.879	349.36
374.26	297.83
374.641	326.08
375.021	320.2
375.402	344.61
375.783	311.62
376.163	334.44
376.544	341.67
376.925	344.84
377.305	322.46
377.686	330.15
378.066	322.92
378.447	339.19
378.827	331.73
379.208	327.21
379.588	345.51
379.968	336.7
380.349	319.98
380.729	341.22
381.109	338.73
381.489	329.47
381.87	350.26
382.25	339.86
382.63	357.49
383.01	346.87
383.39	341.9
383.77	355
384.15	364.27
384.53	362.24
384.91	360.88
385.29	345.51
385.67	353.2
386.049	329.69
386.429	357.26
386.809	372.86
387.189	364.5
387.568	362.69
387.948	362.91
388.328	368.34
388.707	348.9
389.087	369.47
389.466	353.2
389.846	350.26
390.225	392.29
390.605	365.4
390.984	372.86
391.363	373.54
391.743	391.16
392.122	381.67
392.501	382.12
392.881	397.26
393.26	396.81
393.639	386.64
394.018	404.5
394.397	378.73
394.776	390.03
395.155	374.44
395.534	412.18
395.913	400.43
396.292	386.87
396.671	398.39
397.05	398.39
397.429	409.69
397.808	387.09
398.186	401.78
398.565	382.57
398.944	413.99
399.323	402.24
399.701	411.05
400.08	405.4
400.458	391.61
400.837	429.35
401.215	409.24
401.594	411.95
401.972	434.78
402.351	424.83
402.729	432.06
403.107	425.96
403.486	416.02
403.864	400.43
404.242	426.64
404.62	449.01
404.999	437.26
405.377	442.23
405.755	457.15
406.133	451.05
406.511	450.82
406.889	443.36
407.267	458.05
407.645	447.43
408.023	488.56
408.401	463.7
408.779	476.58
409.156	464.38
409.534	453.08
409.912	487.2
410.29	484.94
410.667	474.78
411.045	463.48
411.422	474.78
411.8	491.05
412.178	479.97
412.555	491.5
412.933	523.81
413.31	514.55
413.687	520.42
414.065	531.95
414.442	523.14
414.819	534.21
415.197	514.55
415.574	509.58
415.951	515.9
416.328	520.65
416.705	551.61
417.082	548.9
417.46	578.28
417.837	559.75
418.214	557.49
418.591	548.9
418.967	552.29
419.344	567.88
419.721	562.46
420.098	557.71
420.475	580.54
420.852	572.17
421.228	584.15
421.605	610.82
421.982	611.5
422.358	593.42
422.735	607.43
423.111	593.19
423.488	584.15
423.864	602.91
424.241	608.11
424.617	589.12
424.994	617.37
425.37	620.53
425.746	657.37
426.123	648.1
426.499	651.72
426.875	655.79
427.251	651.49
427.627	663.92
428.003	647.2
428.379	671.61
428.756	656.69
429.132	668.22
429.507	681.78
429.883	701.44
430.259	672.96
430.635	699.4
431.011	708.89
431.387	724.26
431.763	739.18
432.138	707.76
432.514	701.44
432.89	699.63
433.265	710.02
433.641	723.36
434.016	757.48
434.392	737.59
434.767	757.48
435.143	764.49
435.518	777.14
435.894	782.79
436.269	785.05
436.644	786.18
437.02	796.8
437.395	775.78
437.77	787.54
438.145	792.28
438.52	816.01
438.895	816.69
439.271	827.31
439.646	840.42
440.021	859.62
440.395	865.73
440.77	827.31
441.145	835.44
441.52	835.22
441.895	827.76
442.27	837.93
442.645	840.19
443.019	844.48
443.394	850.36
443.769	871.6
444.143	894.88
444.518	906.85
444.892	890.81
445.267	880.87
445.641	887.42
446.016	893.97
446.39	870.47
446.764	909.79
447.139	867.53
447.513	883.35
447.887	871.83
448.262	897.14
448.636	927.42
449.01	932.84
449.384	929
449.758	952.96
450.132	981.2
450.506	945.72
450.88	932.39
451.254	954.99
451.628	952.05
452.002	913.18
452.376	914.09
452.75	936.91
453.123	946.18
453.497	969.45
453.871	977.59
454.244	1020.07
454.618	1020.07
454.992	1012.16
455.365	1035.66
455.739	1025.72
456.112	1034.99
456.486	1023.91
456.859	1026.63
457.232	1017.36
457.606	1014.87
457.979	1009.45
458.352	1009.22
458.725	1049.45
459.099	1056
459.472	1091.93
459.845	1115.44
460.218	1111.14
460.591	1132.84
460.964	1101.65
461.337	1118.6
461.71	1096.23
462.083	1105.49
462.456	1079.51
462.829	1094.65
463.201	1098.94
463.574	1127.41
463.947	1128.77
464.32	1145.94
464.692	1196.79
465.065	1208.99
465.438	1218.48
465.81	1232.5
466.183	1250.12
466.555	1264.13
466.928	1256.22
467.3	1206.73
467.672	1234.3
468.045	1221.2
468.417	1228.88
468.789	1216.45
469.161	1249.9
469.534	1268.88
469.906	1322.44
470.278	1343.91
470.65	1368.31
471.022	1399.5
471.394	1398.14
471.766	1391.14
472.138	1393.62
472.51	1392.49
472.882	1431.59
473.253	1394.07
473.625	1392.27
473.997	1411.02
474.369	1444.92
474.74	1408.76
475.112	1493.05
475.484	1482.43
475.855	1550.23
476.227	1576.22
476.598	1638.81
476.97	1625.48
477.341	1658.47
477.713	1652.6
478.084	1621.41
478.455	1661.86
478.827	1626.61
479.198	1638.13
479.569	1678.13
479.94	1704.12
480.311	1712.94
480.682	1773.72
481.053	1816.66
481.424	1891.01
481.795	1915.19
482.166	1947.28
482.537	1997
482.908	1994.28
483.279	2009.2
483.65	2059.59
484.021	2040.61
484.391	2002.19
484.762	2025.7
485.133	1984.79
485.503	2017.11
485.874	2049.88
486.244	2102.98
486.615	2107.28
486.985	2209.42
487.356	2297.78
487.726	2320.83
488.097	2394.27
488.467	2414.61
488.837	2429.07
489.207	2467.72
489.578	2468.17
489.948	2470.43
490.318	2421.62
490.688	2411.45
491.058	2403.99
491.428	2428.4
491.798	2466.14
492.168	2524.44
492.538	2533.03
492.908	2637.66
493.278	2681.72
493.648	2735.28
494.017	2801.49
494.387	2862.06
494.757	2870.64
495.126	2906.12
495.496	2846.01
495.866	2862.96
496.235	2864.09
496.605	2799.23
496.974	2793.81
497.344	2782.96
497.713	2768.5
498.082	2812.79
498.452	2867.71
498.821	2918.1
499.19	2954.94
499.559	3058.89
499.928	3116.29
500.298	3187.47
500.667	3176.17
501.036	3187.02
501.405	3244.19
501.774	3162.16
502.143	3156.29
502.512	3088.72
502.88	3086.68
503.249	3042.84
503.618	3014.82
503.987	3033.58
504.356	3050.3
504.724	3088.94
505.093	3118.55
505.462	3140.92
505.83	3254.14
506.199	3313.8
506.567	3418.43
506.936	3421.36
507.304	3479.89
507.672	3449.84
508.041	3430.63
508.409	3413.46
508.777	3360.12
509.145	3321.25
509.514	3248.49
509.882	3283.06
510.25	3211.65
510.618	3234.25
510.986	3229.28
511.354	3293.01
511.722	3337.98
512.09	3402.61
512.458	3441.93
512.826	3523.06
513.193	3598.54
513.561	3613.22
513.929	3652.55
514.297	3655.03
514.664	3652.77
515.032	3627.91
515.4	3564.86
515.767	3536.84
516.135	3479.44
516.502	3446.67
516.869	3405.32
517.237	3360.8
517.604	3372.55
517.972	3449.61
518.339	3506.56
518.706	3566.67
519.073	3634.69
519.44	3686.22
519.808	3793.56
520.175	3802.6
520.542	3888.02
520.909	3926.89
521.276	3874.46
521.643	3888.7
522.009	3817.51
522.376	3819.55
522.743	3712.2
523.11	3703.62
523.477	3654.81
523.843	3635.82
524.21	3634.01
524.577	3659.78
524.943	3693
525.31	3818.87
525.676	3869.26
526.043	3994.01
526.409	4075.13
526.776	4155.58
527.142	4220.21
527.508	4271.74
527.874	4342.92
528.241	4294.34
528.607	4273.09
528.973	4271.51
529.339	4179.31
529.705	4176.37
530.071	4086.66
530.437	4036.26
530.803	4044.4
531.169	4068.13
531.535	4050.27
531.901	4090.73
532.267	4205.53
532.632	4321.23
532.998	4403.26
533.364	4473.54
533.73	4565.52
534.095	4722.12
534.461	4796.7
534.826	4828.56
535.192	4840.76
535.557	4852.74
535.923	4772.52
536.288	4747.43
536.653	4668.79
537.019	4571.62
537.384	4557.38
537.749	4549.02
538.114	4520.09
538.479	4492.3
538.845	4503.82
539.21	4568.45
539.575	4624.95
539.94	4727.77
540.305	4845.06
540.67	4965.05
541.034	5054.54
541.399	5134.77
541.764	5260.64
542.129	5298.6
542.494	5341.77
542.858	5341.77
543.223	5273.75
543.587	5248.21
543.952	5170.02
544.316	5108.33
544.681	5025.39
545.045	5014.77
545.41	4957.82
545.774	4935.9
546.138	4949.91
546.503	4963.92
546.867	5014.09
547.231	5118.04
547.595	5210.92
547.959	5271.94
548.324	5363.46
548.688	5520.52
549.052	5610.23
549.416	5686.16
549.779	5685.71
550.143	5692.04
550.507	5744.47
550.871	5652.04
551.235	5584.47
551.599	5503.57
551.962	5458.37
552.326	5353.07
552.689	5302.9
553.053	5221.77
553.417	5176.35
553.78	5207.53
554.143	5179.74
554.507	5246.63
554.87	5358.04
555.234	5410.01
555.597	5483.01
555.96	5626.73
556.323	5737.24
556.686	5857.01
557.05	5910.56
557.413	5984.01
557.776	5972.48
558.139	6044.57
558.502	6030.11
558.865	5937.23
559.228	5919.38
559.59	5780.62
559.953	5753.73
560.316	5709.67
560.679	5558.71
561.041	5553.06
561.404	5518.48
561.767	5480.52
562.129	5506.28
562.492	5561.65
562.854	5635.09
563.217	5734.75
563.579	5841.19
563.941	5966.61
564.304	6086.61
564.666	6239.14
565.028	6307.62
565.39	6353.27
565.753	6448.4
566.115	6454.73
566.477	6455.41
566.839	6449.08
567.201	6351.91
567.563	6310.33
567.925	6170.67
568.287	6118.7
568.648	6015.19
569.01	5950.56
569.372	5908.08
569.734	5887.74
570.095	5920.51
570.457	5964.35
570.819	6007.96
571.18	6071.92
571.542	6196.66
571.903	6372.02
572.265	6531.11
572.626	6634.61
572.987	6791.45
573.349	6949.86
573.71	7061.04
574.071	7146.69
574.432	7123.41
574.794	7202.73
575.155	7212.68
575.516	7153.7
575.877	7125.22
576.238	7046.13
576.599	6985.56
576.96	6962.97
577.32	6880.26
577.681	6904.21
578.042	6981.27
578.403	6927.94
578.763	7020.82
579.124	7195.28
579.485	7362.5
579.845	7572.89
580.206	7824.41
580.566	8083.84
580.927	8344.17
581.287	8714.56
581.648	8865.06
582.008	9215.56
582.368	9444.26
582.728	9741.42
583.089	9964.92
583.449	10123.56
583.809	10301.86
584.169	10448.3
584.529	10561.97
584.889	10728.74
585.249	10901.85
585.609	11043.31
585.969	11222.97
586.329	11477.42
586.688	11747.02
587.048	12096.62
587.408	12424.29
587.768	12788.12
588.127	13187.89
588.487	13696.8
588.846	14225.83
589.206	14563.44
589.565	15080.49
589.925	15692.68
590.284	16185.55
590.643	16717.29
591.003	17306.2
591.362	17790.7
591.721	18168.55
592.08	18640.17
592.44	19044.91
592.799	19398.12
593.158	19695.06
593.517	19978.22
593.876	20348.6
594.235	20716.96
594.593	21047.57
594.952	21305.19
595.311	21612.07
595.67	22034.43
596.029	22567.75
596.387	23000.74
596.746	23504.9
597.104	23863.99
597.463	24330.42
597.822	24993
598.18	25367.91
598.538	25868.91
598.897	26525.39
599.255	26975.77
599.613	27780.95
599.972	28196.98
600.33	28663.19
600.688	28966.68
601.046	29449.16
601.404	29957.16
601.762	30212.98
602.12	30685.28
602.478	30847.99
602.836	31238.71
603.194	31226.51
603.552	31543.79
603.91	31508.99
604.268	31911.69
604.625	32048.63
604.983	32527.49
605.341	32621.95
605.698	33152.79
606.056	33398.2
606.413	33720.68
606.771	34160.67
607.128	34658.28
607.485	34714.33
607.843	35181.21
608.2	35721.31
608.557	36249.2
608.914	36563.32
609.272	37129.86
609.629	37272.9
609.986	37702.95
610.343	37729.16
610.7	38363.5
611.057	38488.24
611.414	38491.86
611.771	38603.72
612.127	38838.29
612.484	38991.05
612.841	39046.87
613.198	38969.58
613.554	39093.65
613.911	39302.68
614.267	39289.35
614.624	39344.94
614.98	39524.37
615.337	39802.56
615.693	40026.96
616.05	40063.11
616.406	40374.07
616.762	40663.78
617.118	40873.26
617.475	41195.74
617.831	41444.09
618.187	41722.73
618.543	41928.37
618.899	42374.24
619.255	42350.28
619.611	42559.09
619.967	42871.4
620.323	43007.89
620.678	42802.25
621.034	42816.71
621.39	42733.33
621.746	42921.8
622.101	43358.62
622.457	42753.21
622.812	42981.68
623.168	42724.96
623.523	42941.23
623.879	42933.55
624.234	42563.61
624.589	42830.05
624.945	42887.22
625.3	42869.37
625.655	42924.73
626.01	43134.44
626.365	43271.16
626.72	43310.49
627.075	43485.62
627.43	43523.14
627.785	43696.92
628.14	43895.33
628.495	44112.72
628.85	44156.11
629.205	44132.84
629.559	44556.78
629.914	44250.57
630.269	44430
630.623	44421.19
630.978	44343.68
631.332	44379.38
631.687	44489.44
632.041	44086.51
632.396	44201.76
632.75	43813.3
633.104	43825.05
633.459	43609.46
633.813	43395
634.167	43344.38
634.521	43346.87
634.875	43374.21
635.229	43313.88
635.583	43100.32
635.937	43285.4
636.291	43291.28
636.645	43277.49
636.999	43304.38
637.352	43571.95
637.706	43355.23
638.06	43738.27
638.413	43724.94
638.767	43735.79
639.121	43881.77
639.474	43699.63
639.828	43842.9
640.181	43978.04
640.534	44026.4
640.888	43809.68
641.241	43616.69
641.594	43693.53
641.947	43615.34
642.301	43430.71
642.654	43423.93
643.007	43348.68
643.36	43185.07
643.713	42953.21
644.066	43079.53
644.419	42663.27
644.771	42503.28
645.124	41905.78
645.477	41828.49
645.83	41422.17
646.182	41470.76
646.535	41369.75
646.888	41502.85
647.24	41298.34
647.593	41722.73
647.945	41634.6
648.298	41570.87
648.65	41647.03
649.002	41626.24
649.355	41890.64
649.707	41744.88
650.059	42031.65
650.411	42568.13
650.763	42643.84
651.115	43182.81
651.467	42922.93
651.819	42976.71
652.171	42767.9
652.523	42524.74
652.875	42477.97
653.227	42317.97
653.578	42589.6
653.93	42184.41
654.282	42125.88
654.633	41767.7
654.985	41840.02
655.337	41854.7
655.688	41552.57
656.039	41751.2
656.391	41334.27
656.742	41312.57
657.094	41384.89
657.445	41641.6
657.796	41402.29
658.147	41299.69
658.498	41476.41
658.849	41783.29
659.2	41934.25
659.551	41894.25
659.902	42060.8
660.253	42028.26
660.604	42195.71
660.955	42129.27
661.306	42136.51
661.656	42290.63
662.007	42225.32
662.358	42206.11
662.708	42172.89
663.059	42211.76
663.409	41990.29
663.76	42081.82
664.11	41972.44
664.461	42075.26
664.811	41796.63
665.161	41715.95
665.511	41518.22
665.862	41465.79
666.212	41488.84
666.562	41334.94
666.912	41054.73
667.262	40999.81
667.612	40995.97
667.962	40956.2
668.312	40889.31
668.662	40997.1
669.011	40917.1
669.361	40987.38
669.711	41066.25
670.06	40951.23
670.41	41093.82
670.76	41069.19
671.109	41384.43
671.459	41256.53
671.808	41416.98
672.157	41541.94
672.507	41317.32
672.856	41473.92
673.205	41567.03
673.554	41740.36
673.904	41574.26
674.253	41788.04
674.602	41572.45
674.951	41013.6
675.3	40797.56
675.649	41279.35
675.998	41165.23
676.346	41159.81
676.695	41098.79
677.044	40604.12
677.393	40788.52
677.741	40666.71
678.09	40364.35
678.438	40281.64
678.787	40397.79
679.135	40180.17
679.484	39957.58
679.832	40099.95
680.181	39799.39
680.529	39947.41
680.877	39867.64
681.225	39865.15
681.573	40179.72
681.922	40022.89
682.27	39867.64
682.618	40093.62
682.966	40023.57
683.314	40253.16
683.661	40206.61
684.009	40131.13
684.357	40132.49
684.705	40161.42
685.053	40251.36
685.4	40163.45
685.748	40071.02
686.095	40013.62
686.443	39808.2
686.79	39736.57
687.138	39776.57
687.485	39591.71
687.832	39512.85
688.18	39434.2
688.527	39130.26
688.874	39059.98
689.221	38915.57
689.568	38757.61
689.915	38531.63
690.262	38418.64
690.609	38227.46
690.956	37963.28
691.303	38017.07
691.65	37732.33
691.997	37826.34
692.344	37600.35
692.69	37591.31
693.037	37667.02
693.383	37403.3
693.73	37521.26
694.077	37377.53
694.423	37392
694.769	37337.54
695.116	37440.36
695.462	37542.5
695.808	37385.44
696.155	37631.09
696.501	37232.91
696.847	37309.06
697.193	37203.3
697.539	37347.7
697.885	37126.02
698.231	37069.29
698.577	36962.4
698.923	37018.9
699.269	36809.64
699.614	36636.31
699.96	36489.87
700.306	36345.7
700.651	36219.37
700.997	35919.49
701.342	35853.51
701.688	35813.06
702.033	35595.89
702.379	35342.11
702.724	35214.43
703.069	35208.55
703.415	34719.07
703.76	34804.49
704.105	34681.11
704.45	34558.17
704.795	34340.55
705.14	34461.45
705.485	34288.35
705.83	34156.15
706.175	34267.79
706.52	34250.38
706.865	34186.88
707.209	34090.16
707.554	34114.57
707.899	34353.21
708.243	34148.01
708.588	34213.78
708.932	34022.59
709.277	34018.98
709.621	34168.58
709.966	34054.91
710.31	34092.87
710.654	33948.92
710.998	33927
711.342	33944.86
711.687	33886.55
712.031	33712.55
712.375	33543.74
712.719	33574.7
713.063	33349.17
713.407	33539.89
713.75	33240.92
714.094	33122.28
714.438	32874.6
714.782	32823.98
715.125	32557.1
715.469	32565.01
715.812	32243.66
716.156	32201.4
716.499	32026.04
716.843	32011.12
717.186	31832.82
717.53	31856.55
717.873	31865.14
718.216	31826.04
718.559	31725.25
718.902	31551.92
719.246	31649.78
719.589	31594.41
719.932	31572.26
720.275	31652.49
720.617	31483.45
720.96	31648.65
721.303	31692.49
721.646	31703.11
721.989	31598.7
722.331	31777.46
722.674	31708.3
723.016	31765.93
723.359	31710.34
723.701	31809.77
724.044	31584.92
724.386	31458.37
724.729	31598.93
725.071	31445.03
725.413	31423.79
725.755	31238.03
726.097	31276.68
726.439	31027.42
726.782	30867.42
727.124	31095.44
727.465	30768.89
727.807	30682.12
728.149	30507.43
728.491	30324.61
728.833	30450.94
729.175	30182.24
729.516	30097.05
729.858	30072.87
730.199	29912.19
730.541	29866.77
730.882	29734.57
731.224	29890.05
731.565	29640.11
731.906	29665.42
732.248	29746.32
732.589	29539.32
732.93	29491.87
733.271	29637.85
733.612	29518.08
733.953	29728.92
734.294	29557.63
734.635	29656.16
734.976	29686.44
735.317	29645.31
735.658	29732.54
735.999	29661.58
736.339	29629.26
736.68	29835.36
737.021	29734.57
737.361	29597.17
737.702	29843.95
738.042	29740.9
738.383	29745.87
738.723	29664.74
739.063	29740.45
739.404	29521.47
739.744	29548.14
740.084	29376.39
740.424	29271.08
740.764	29197.86
741.104	29324.86
741.444	29018.66
741.784	28884.88
742.124	28769.62
742.464	28702.06
742.804	28702.51
743.143	28402.85
743.483	28490.99
743.823	28290.09
744.162	28141.84
744.502	28246.25
744.841	28146.59
745.181	28045.35
745.52	27935.07
745.86	28056.2
746.199	27893.72
746.538	27880.83
746.877	28008.97
747.216	27910.21
747.556	27938.46
747.895	27964
748.234	27892.13
748.573	27839.71
748.911	27973.26
749.25	27990.89
749.589	27912.7
749.928	27904.56
750.267	28064.56
750.605	28012.13
750.944	27876.32
751.283	27747.28
751.621	27882.87
751.96	27786.6
752.298	27791.57
752.636	27729.65
752.975	27778.46
753.313	27634.06
753.651	27580.5
753.989	27458.25
754.327	27463.44
754.666	27224.35
755.004	27258.25
755.342	27157.01
755.679	27161.31
756.017	26898.94
756.355	26845.16
756.693	26701.43
757.031	26534.2
757.368	26489.23
757.706	26366.75
758.044	26245.62
758.381	26295.11
758.719	26072.97
759.056	26034.56
759.394	25819.65
759.731	25678.41
760.068	25682.47
760.405	25629.59
760.743	25467.56
761.08	25512.54
761.417	25440.45
761.754	25333.33
762.091	25461.01
762.428	25258.76
762.765	25151.41
763.102	25354.12
763.438	25194.35
763.775	25157.29
764.112	25239.77
764.449	25164.52
764.785	25160.23
765.122	24958.65
765.458	25021.02
765.795	24952.78
766.131	25100.34
766.467	25011.76
766.804	24913.68
767.14	24696.74
767.476	24830.07
767.812	24692.44
768.148	24775.61
768.485	24730.18
768.821	24366.12
769.157	24343.75
769.492	24355.05
769.828	24188.28
770.164	24000.03
770.5	23984.21
770.836	23860.83
771.171	23753.03
771.507	23551.01
771.842	23342.2
772.178	23320.73
772.513	23234.63
772.849	23080.28
773.184	22953.51
773.519	22900.4
773.855	22716.9
774.19	22545.61
774.525	22467.19
774.86	22529.56
775.195	22277.14
775.53	22240.98
775.865	22200.53
776.2	22037.82
776.535	21850.94
776.87	21860.2
777.205	21753.31
777.539	21685.52
777.874	21874.89
778.209	21773.2
778.543	21653.43
778.878	21506.99
779.212	21615.91
779.547	21437.84
779.881	21551.51
780.215	21530.49
780.55	21461.34
780.884	21401.68
781.218	21400.55
781.552	21319.88
781.886	21252.08
782.22	21207.79
782.554	21148.81
782.888	20975.03
783.222	20985.2
783.556	20900
783.889	20852.77
784.223	20734.36
784.557	20716.96
784.89	20720.35
785.224	20489.16
785.557	20375.04
785.891	20292.79
786.224	20262.05
786.558	20201.94
786.891	19997.65
787.224	19899.8
787.557	19765.79
787.891	19756.3
788.224	19690.99
788.557	19641.73
788.89	19463.88
789.223	19333.26
789.556	19239.48
789.888	19145.47
790.221	19112.25
790.554	18993.61
790.887	18941.18
791.219	18814.18
791.552	18784.12
791.884	18707.74
792.217	18585.71
792.549	18536.67
792.882	18474.75
793.214	18347.53
793.546	18385.27
793.879	18284.7
794.211	18142.79
794.543	18369.45
794.875	18266.17
795.207	18260.75
795.539	18269.34
795.871	18242.44
796.203	18171.71
796.535	18044.94
796.867	18103.46
797.198	18092.84
797.53	18086.74
797.862	17991.83
798.193	17981.43
798.525	17944.6
798.856	18011.49
799.188	17788.67
799.519	17729.92
799.85	17690.14
800.182	17723.14
800.513	17709.8
800.844	17437.27
801.175	17672.52
801.506	17584.16
801.837	17449.47
802.168	17252.87
802.499	17202.7
802.83	17094.45
803.161	17090.84
803.491	16945.98
803.822	17040.22
804.153	16819.66
804.483	16672.32
804.814	16590.96
805.145	16591.19
805.475	16504.64
805.805	16358.2
806.136	16447.69
806.466	16267.35
806.796	16334.47
807.126	16169.05
807.457	16095.38
807.787	16085.21
808.117	16024.2
808.447	15983.29
808.777	15984.65
809.107	15916.4
809.436	15884.99
809.766	15891.09
810.096	15786.01
810.426	15674.38
810.755	15763.19
811.085	15710.76
811.414	15771.32
811.744	15666.69
812.073	15702.17
812.403	15729.97
812.732	15583.3
813.061	15621.72
813.39	15609.74
813.719	15633.93
814.049	15668.95
814.378	15587.6
814.707	15585.79
815.036	15609.74
815.365	15524.32
815.693	15394.38
816.022	15433.48
816.351	15422.63
816.68	15265.35
817.008	15323.42
817.337	15219.7
817.665	15198.68
817.994	15207.72
818.322	15237.33
818.651	15076.43
818.979	15099.93
819.307	15035.52
819.636	14941.74
819.964	14886.6
820.292	14916.66
820.62	14824.45
820.948	14755.76
821.276	14753.72
821.604	14659.04
821.932	14678.24
822.259	14659.49
822.587	14631.92
822.915	14633.95
823.243	14644.57
823.57	14576.33
823.898	14499.72
824.225	14434.18
824.553	14405.48
824.88	14383.56
825.207	14478.7
825.535	14409.1
825.862	14511.02
826.189	14300.4
826.516	14460.85
826.843	14444.35
827.17	14466.5
827.497	14511.24
827.824	14460.85
828.151	14623.1
828.478	14544.01
828.805	14599.83
829.131	14436.89
829.458	14544.46
829.785	14427.63
830.111	14572.26
830.438	14628.75
830.764	14606.16
831.09	14696.55
831.417	14586.04
831.743	14733.16
832.069	14724.12
832.395	14626.27
832.722	14713.72
833.048	14625.14
833.374	14702.2
833.7	14660.17
834.026	14711.69
834.351	14789.88
834.677	14646.15
835.003	14732.93
835.329	14719.82
835.654	14705.36
835.98	14600.05
836.306	14607.51
836.631	14448.42
836.956	14502.66
837.282	14516.44
837.607	14366.39
837.932	14335.43
838.258	14240.06
838.583	14257.01
838.908	14152.83
839.233	14123.46
839.558	14087.75
839.883	14148.77
840.208	14011.37
840.533	13963.01
840.858	13915.33
841.182	13845.27
841.507	13817.93
841.832	13705.84
842.156	13742
842.481	13735.22
842.805	13636.24
843.13	13663.36
843.454	13589.01
843.778	13535.68
844.103	13578.61
844.427	13501.33
844.751	13400.09
845.075	13520.08
845.399	13380.65
845.723	13334.78
846.047	13348.34
846.371	13256.13
846.695	13359.86
847.019	13205.06
847.343	13192.86
847.666	13178.85
847.99	13218.4
848.313	13133.43
848.637	13067.21
848.96	13134.33
849.284	12964.39
849.607	12945.18
849.931	12991.73
850.254	12933.43
850.577	12826.99
850.9	12719.43
851.223	12835.13
851.546	12725.53
851.869	12667.22
852.192	12784.06
852.515	12565.08
852.838	12611.86
853.161	12629.71
853.483	12547.68
853.806	12430.62
854.129	12417.29
854.451	12372.99
854.774	12274.24
855.096	12220
855.419	12283.73
855.741	12189.04
856.063	12128.48
856.385	12080.57
856.708	11993.79
857.03	11880.58
857.352	11954.25
857.674	11880.13
857.996	11814.14
858.318	11674.48
858.64	11650.98
858.961	11692.56
859.283	11605.1
859.605	11585.67
859.926	11522.17
860.248	11505.9
860.57	11484.66
860.891	11446.92
861.212	11338.9
861.534	11271.33
861.855	11214.15
862.176	11182.29
862.498	11241.5
862.819	11213.02
863.14	11200.82
863.461	11156.98
863.782	11138.68
864.103	11058
864.424	11069.75
864.745	11099.58
865.065	11083.08
865.386	11018.91
865.707	11009.87
866.027	11101.61
866.348	10996.98
866.668	11069.3
866.989	11002.18
867.309	10991.56
867.63	11072.92
867.95	10957.21
868.27	11000.15
868.59	11028.85
868.91	10929.87
869.23	11013.26
869.55	10987.72
869.87	11070.2
870.19	11082.18
870.51	10998.57
870.83	11036.31
871.15	10973.26
871.469	11067.27
871.789	10973.03
872.109	10908.85
872.428	10889.87
872.748	11010.54
873.067	10930.77
873.386	10926.48
873.706	10868.17
874.025	10857.1
874.344	10807.39
874.663	10786.14
874.982	10837.44
875.301	10689.42
875.62	10724.9
875.939	10675.19
876.258	10688.07
876.577	10521.74
876.896	10605.13
877.214	10536.43
877.533	10502.31
877.852	10435.87
878.17	10485.13
878.489	10451.69
878.807	10392.03
879.125	10327.62
879.444	10312.26
879.762	10309.77
880.08	10267.06
880.398	10189.1
880.716	10218.02
881.034	10158.81
881.352	10094.41
881.67	10143.22
881.988	10065.03
882.306	10112.71
882.624	10006.28
882.941	9999.27
883.259	9948.65
883.577	9951.14
883.894	9888.09
884.212	9886.05
884.529	9898.03
884.846	9842.66
885.164	9831.82
885.481	9909.33
885.798	9947.75
886.115	9807.86
886.432	9879.27
886.75	9829.78
887.067	9839.28
887.383	9780.75
887.7	9785.94
888.017	9789.33
888.334	9767.64
888.651	9782.55
888.967	9843.57
889.284	9759.5
889.6	9764.7
889.917	9674.53
890.233	9702.78
890.55	9720.86
890.866	9690.13
891.182	9675.89
891.498	9698.04
891.815	9647.87
892.131	9592.5
892.447	9513.86
892.763	9539.4
893.079	9498.04
893.395	9497.36
893.71	9488.55
894.026	9418.27
894.342	9390.93
894.657	9333.53
894.973	9322.45
895.289	9323.58
895.604	9263.7
895.92	9172.17
896.235	9193.42
896.55	9146.19
896.865	9133.31
897.181	9045.85
897.496	9107.54
897.811	9013.76
898.126	8921.56
898.441	8906.19
898.756	8874.55
899.071	8808.12
899.386	8785.52
899.7	8662.81
900.015	8637.95
900.33	8524.73
900.644	8571.29
900.959	8552.76
901.273	8466.88
901.588	8492.87
901.902	8343.72
902.216	8358.64
902.531	8380.1
902.845	8310.05
903.159	8263.27
903.473	8208.58
903.787	8175.59
904.101	8183.5
904.415	8213.78
904.729	8124.29
905.042	8045.42
905.356	8076.84
905.67	8020.57
905.984	8038.19
906.297	7988.02
906.611	7985.54
906.924	7930.4
907.237	7957.29
907.551	7870.29
907.864	7894.24
908.177	7962.26
908.491	7898.31
908.804	7817.41
909.117	7845.88
909.43	7751.42
909.743	7789.84
910.056	7710.52
910.368	7735.15
910.681	7715.26
910.994	7672.33
911.307	7704.87
911.619	7714.36
911.932	7628.03
912.244	7604.31
912.557	7642.04
912.869	7569.96
913.181	7498.32
913.494	7537.64
913.806	7477.98
914.118	7390.53
914.43	7418.1
914.742	7400.02
915.054	7304.65
915.366	7296.97
915.678	7237.31
915.99	7211.32
916.302	7196.18
916.613	7119.35
916.925	7099.69
917.236	7087.26
917.548	7036.64
917.859	7003.87
918.171	6980.14
918.482	6945.34
918.794	6907.83
919.105	6877.32
919.416	6799.36
919.727	6846.13
920.038	6742.63
920.349	6763.65
920.66	6702.41
920.971	6691.56
921.282	6693.37
921.593	6581.73
921.903	6520.94
922.214	6454.51
922.525	6486.59
922.835	6442.53
923.146	6426.48
923.456	6370.89
923.767	6392.59
924.077	6304.9
924.387	6288.18
924.697	6273.72
925.008	6271.91
925.318	6247.96
925.628	6205.25
925.938	6158.69
926.248	6144.91
926.558	6070.11
926.867	6067.17
927.177	6084.35
927.487	6023.78
927.796	5974.97
928.106	5983.78
928.416	5935.65
928.725	5917.34
929.034	5925.03
929.344	5894.75
929.653	5918.7
929.962	5872.37
930.271	5846.61
930.581	5825.14
930.89	5829.44
931.199	5752.6
931.508	5792.38
931.817	5811.36
932.125	5804.13
932.434	5772.26
932.743	5729.33
933.051	5682.55
933.36	5750.8
933.669	5652.94
933.977	5674.86
934.286	5698.59
934.594	5622.89
934.902	5560.29
935.21	5577.69
935.519	5524.13
935.827	5586.28
936.135	5464.47
936.443	5463.8
936.751	5462.67
937.059	5499.28
937.367	5434.87
937.674	5405.95
937.982	5349.45
938.29	5311.26
938.597	5344.93
938.905	5266.74
939.213	5221.77
939.52	5228.1
939.827	5249.57
940.135	5181.09
940.442	5135.67
940.749	5083.24
941.056	5115.11
941.363	5072.17
941.67	5003.47
941.977	5038.72
942.284	5020.19
942.591	4964.15
942.898	4985.84
943.205	4951.95
943.511	4904.49
943.818	4919.63
944.125	4837.82
944.431	4835.34
944.738	4803.7
945.044	4771.16
945.35	4746.08
945.657	4722.12
945.963	4688.22
946.269	4664.95
946.575	4667.89
946.881	4631.73
947.187	4589.92
947.493	4638.51
947.799	4563.48
948.105	4577.27
948.41	4511.73
948.716	4520.54
949.022	4441
949.327	4473.54
949.633	4357.39
949.938	4403.03
950.244	4431.51
950.549	4361.23
950.854	4369.81
951.16	4329.82
951.465	4335.01
951.77	4319.19
952.075	4316.48
952.38	4314.67
952.685	4343.15
952.99	4196.71
953.294	4269.7
953.599	4240.33
953.904	4231.74
954.209	4191.06
954.513	4201.91
954.818	4146.77
955.122	4205.75
955.426	4137.73
955.731	4172.76
956.035	4139.76
956.339	4148.13
956.643	4120.56
956.948	4127.33
957.252	4091.86
957.556	4055.7
957.86	4058.18
958.163	4016.15
958.467	4003.95
958.771	4005.53
959.075	4010.28
959.378	3972.31
959.682	3972.31
959.985	3940.45
960.289	3915.59
960.592	3930.5
960.896	3890.96
961.199	3862.48
961.502	3892.76
961.805	3826.55
962.108	3833.11
962.411	3797.17
962.714	3751.75
963.017	3779.32
963.32	3751.07
963.623	3733.9
963.926	3700
964.228	3703.62
964.531	3684.86
964.833	3662.94
965.136	3630.85
965.438	3615.48
965.741	3595.82
966.043	3581.81
966.345	3538.2
966.648	3543.17
966.95	3529.16
967.252	3505.66
967.554	3464.98
967.856	3477.63
968.158	3461.82
968.46	3413
968.761	3432.21
969.063	3367.81
969.365	3360.58
969.666	3323.74
969.968	3342.27
970.269	3318.54
970.571	3294.59
970.872	3294.36
971.174	3293.23
971.475	3244.65
971.776	3235.16
972.077	3225.44
972.378	3224.53
972.679	3170.75
972.98	3173.24
973.281	3117.42
973.582	3111.54
973.883	3144.31
974.183	3116.74
974.484	3098.66
974.785	3121.26
975.085	3118.1
975.386	3108.83
975.686	3064.76
975.986	3086.91
976.287	3076.06
976.587	3012.11
976.887	3001.94
977.187	2994.03
977.487	3012.79
977.787	3040.36
978.087	2971.89
978.387	2940.02
978.687	2977.99
978.987	2968.27
979.286	2955.61
979.586	2934.37
979.885	2906.12
980.185	2888.95
980.484	2886.69
980.784	2922.17
981.083	2884.66
981.382	2905.67
981.682	2897.99
981.981	2879.23
982.28	2877.65
982.579	2875.39
982.878	2821.38
983.177	2849.85
983.475	2799.91
983.774	2774.38
984.073	2763.08
984.372	2789.97
984.67	2724.43
984.969	2733.47
985.267	2739.8
985.566	2742.06
985.864	2716.52
986.162	2710.2
986.461	2655.51
986.759	2658.22
987.057	2638.79
987.355	2629.75
987.653	2619.8
987.951	2622.29
988.249	2618.45
988.547	2584.78
988.844	2568.51
989.142	2551.78
989.44	2570.77
989.737	2540.26
990.035	2523.31
990.332	2519.24
990.63	2520.6
990.927	2488.96
991.224	2499.58
991.521	2454.84
991.819	2397.66
992.116	2419.36
992.413	2432.69
992.71	2395.18
993.006	2384.33
993.303	2386.36
993.6	2384.56
993.897	2348.85
994.193	2323.99
994.49	2339.13
994.787	2288.74
995.083	2280.83
995.379	2255.75
995.676	2278.57
995.972	2252.13
996.268	2234.73
996.565	2210.55
996.861	2255.29
997.157	2217.55
997.453	2174.84
997.749	2186.82
998.044	2183.66
998.34	2148.63
998.636	2141.62
998.932	2121.51
999.227	2133.04
999.523	2142.98
999.818	2116.31
1000.114	2131.68
1000.409	2077.9
1000.704	2105.24
1001	2071.57
1001.295	2078.12
1001.59	2052.14
1001.885	2046.71
1002.18	2029.54
1002.475	2048.07
1002.77	2029.54
1003.065	2000.61
1003.359	1998.58
1003.654	1990.44
1003.949	1964.68
1004.243	1951.8
1004.538	1967.39
1004.832	1964.68
1005.127	1945.7
1005.421	1951.8
1005.715	1942.76
1006.009	1916.77
1006.304	1920.61
1006.598	1942.08
1006.892	1898.69
1007.186	1882.2
1007.48	1882.87
1007.773	1845.59
1008.067	1858.69
1008.361	1850.78
1008.655	1821.18
1008.948	1830.45
1009.242	1811.92
1009.535	1812.82
1009.829	1783.67
1010.122	1793.16
1010.415	1796.77
1010.708	1753.39
1011.001	1750.9
1011.295	1759.49
1011.588	1759.26
1011.881	1738.02
1012.173	1686.04
1012.466	1702.54
1012.759	1690.34
1013.052	1697.79
1013.344	1668.19
1013.637	1686.72
1013.93	1655.99
1014.222	1636.33
1014.514	1656.89
1014.807	1625.25
1015.099	1612.6
1015.391	1617.8
1015.683	1605.37
1015.976	1590.23
1016.268	1582.09
1016.56	1569.89
1016.851	1552.26
1017.143	1564.24
1017.435	1532.83
1017.727	1531.47
1018.018	1524.92
1018.31	1492.6
1018.602	1500.29
1018.893	1477.24
1019.185	1446.05
1019.476	1477.46
1019.767	1461.19
1020.058	1456.67
1020.35	1403.56
1020.641	1424.36
1020.932	1404.69
1021.223	1384.36
1021.514	1371.48
1021.804	1399.5
1022.095	1345.94
1022.386	1349.78
1022.677	1359.5
1022.967	1308.2
1023.258	1332.83
1023.548	1319.5
1023.839	1294.87
1024.129	1312.49
1024.419	1293.51
1024.709	1268.65
1025	1280.86
1025.29	1269.33
1025.58	1251.93
1025.87	1261.65
1026.16	1262.55
1026.449	1231.37
1026.739	1246.73
1027.029	1207.86
1027.319	1221.2
1027.608	1220.97
1027.898	1191.37
1028.187	1183.46
1028.477	1189.56
1028.766	1176.9
1029.055	1169.45
1029.344	1194.76
1029.634	1160.86
1029.923	1140.52
1030.212	1136
1030.501	1158.83
1030.79	1145.49
1031.078	1127.64
1031.367	1118.15
1031.656	1101.2
1031.945	1116.34
1032.233	1082.67
1032.522	1106.4
1032.81	1094.42
1033.099	1067.98
1033.387	1058.04
1033.675	1057.36
1033.963	1081.09
1034.251	1074.99
1034.54	1027.08
1034.828	1044.7
1035.116	1019.17
1035.403	1021.43
1035.691	1029.79
1035.979	1028.43
1036.267	1015.55
1036.554	1007.42
1036.842	995.44
1037.129	1007.87
1037.417	966.97
1037.704	966.29
1037.992	996.12
1038.279	970.81
1038.566	960.19
1038.853	960.19
1039.14	960.19
