Data from red_cardboard_box_FLMS001491_00060.txt Node
Date: Wed Feb 08 11:32:47 GMT 2017
User: dcchb
Spectrometer: FLMS00149
Trigger mode: 0
Integration Time (sec): 2.000000E-2
Scans to average: 10
Electric dark correction enabled: true
Nonlinearity correction enabled: false
Boxcar width: 0
XAxis mode: Wavelengths
Number of Pixels in Spectrum: 2048
>>>>>Begin Spectral Data<<<<<
341.393	-10.54
341.776	-10.54
342.16	-10.54
342.543	-57.09
342.927	-71.33
343.31	-66.81
343.693	-84.43
344.077	-61.61
344.46	-55.06
344.843	-55.06
345.226	-50.31
345.61	-15.73
345.993	-21.61
346.376	-13.93
346.759	19.07
347.142	32.4
347.525	39.41
347.908	41.44
348.291	73.08
348.674	97.71
349.057	121.44
349.44	118.05
349.823	143.58
350.206	171.83
350.588	211.6
350.971	210.93
351.354	216.35
351.737	248.89
352.119	257.25
352.502	260.87
352.884	262.9
353.267	263.35
353.65	283.24
354.032	313.52
354.414	303.13
354.797	310.59
355.179	287.76
355.562	325.05
355.944	337.93
356.326	349.45
356.709	356.91
357.091	334.77
357.473	352.84
357.855	352.17
358.238	325.5
358.62	351.71
359.002	327.08
359.384	355.56
359.766	363.01
360.148	338.15
360.53	344.93
360.912	327.31
361.294	328.89
361.676	348.1
362.057	328.66
362.439	340.64
362.821	344.71
363.203	321.43
363.584	337.48
363.966	320.08
364.348	325.05
364.729	316.91
365.111	322.79
365.493	306.29
365.874	344.03
366.256	325.95
366.637	330.47
367.019	323.24
367.4	326.86
367.781	320.53
368.163	301.32
368.544	306.52
368.925	321.88
369.306	335.67
369.688	329.57
370.069	342.45
370.45	300.87
370.831	326.63
371.212	291.6
371.593	323.01
371.974	321.21
372.355	309.68
372.736	329.34
373.117	298.38
373.498	298.61
373.879	330.47
374.26	335.22
374.641	303.58
375.021	331.83
375.402	326.63
375.783	324.37
376.163	323.92
376.544	325.5
376.925	323.01
377.305	325.27
377.686	320.3
378.066	327.08
378.447	333.18
378.827	328.44
379.208	337.25
379.588	341.32
379.968	337.48
380.349	330.7
380.729	332.96
381.109	356.91
381.489	346.29
381.87	332.28
382.25	344.48
382.63	340.87
383.01	353.3
383.39	333.41
383.77	352.84
384.15	343.8
384.53	341.32
384.91	316.46
385.29	360.53
385.67	323.47
386.049	341.77
386.429	363.24
386.809	349.45
387.189	348.78
387.568	343.13
387.948	327.08
388.328	373.18
388.707	342.67
389.087	353.52
389.466	355.56
389.846	343.58
390.225	369.34
390.605	367.08
390.984	387.65
391.363	360.3
391.743	343.58
392.122	339.96
392.501	374.99
392.881	363.01
393.26	361.66
393.639	377.25
394.018	371.6
394.397	379.06
394.776	368.21
395.155	390.13
395.534	380.19
395.913	376.12
396.292	381.09
396.671	390.36
397.05	372.28
397.429	375.67
397.808	374.54
398.186	375.44
398.565	382.22
398.944	379.28
399.323	382
399.701	369.57
400.08	374.54
400.458	383.8
400.837	386.97
401.215	370.02
401.594	371.37
401.972	392.16
402.351	375.89
402.729	389.68
403.107	395.33
403.486	372.73
403.864	384.26
404.242	415.89
404.62	412.05
404.999	399.62
405.377	403.69
405.755	388.1
406.133	395.33
406.511	413.41
406.889	414.54
407.267	409.11
407.645	409.11
408.023	433.75
408.401	413.63
408.779	406.63
409.156	416.34
409.534	405.27
409.912	427.64
410.29	423.58
410.667	428.77
411.045	433.52
411.422	421.09
411.8	438.72
412.178	448.66
412.555	456.57
412.933	422.45
413.31	445.04
413.687	453.18
414.065	450.92
414.442	406.4
414.819	442.11
415.197	451.6
415.574	460.64
415.951	478.26
416.328	441.66
416.705	459.96
417.082	461.09
417.46	462.9
417.837	471.03
418.214	463.8
418.591	458.15
418.967	473.97
419.344	475.33
419.721	457.47
420.098	471.26
420.475	488.21
420.852	482.78
421.228	483.91
421.605	489.79
421.982	494.99
422.358	492.05
422.735	501.77
423.111	500.41
423.488	513.97
423.864	492.95
424.241	488.89
424.617	506.06
424.994	485.95
425.37	493.41
425.746	492.05
426.123	509.9
426.499	510.58
426.875	509.9
427.251	509.9
427.627	539.28
428.003	511.71
428.379	518.72
428.756	547.41
429.132	534.99
429.507	536.79
429.883	551.48
430.259	554.87
430.635	550.8
431.011	579.96
431.387	571.14
431.763	555.55
432.138	560.52
432.514	568.66
432.89	574.98
433.265	555.1
433.641	590.58
434.016	572.5
434.392	582.44
434.767	595.1
435.143	591.26
435.518	608.2
435.894	598.49
436.269	611.37
436.644	600.75
437.02	609.56
437.395	618.83
437.77	610.46
438.145	618.6
438.52	620.86
438.895	639.84
439.271	619.05
439.646	637.13
440.021	639.62
440.395	649.33
440.77	650.92
441.145	654.76
441.52	666.51
441.895	640.07
442.27	638.26
442.645	649.11
443.019	685.94
443.394	665.38
443.769	674.19
444.143	677.13
444.518	689.78
444.892	656.79
445.267	662.21
445.641	679.84
446.016	685.72
446.39	677.81
446.764	667.64
447.139	705.83
447.513	702.21
447.887	661.08
448.262	659.5
448.636	677.81
449.01	690.69
449.384	711.03
449.758	692.27
450.132	689.11
450.506	725.49
450.88	716.9
451.254	713.74
451.628	687.75
452.002	736.34
452.376	743.12
452.75	719.84
453.123	743.57
453.497	750.57
453.871	726.62
454.244	758.26
454.618	742.21
454.992	747.41
455.365	749.44
455.739	775.88
456.112	798.26
456.486	786.05
456.859	788.54
457.232	812.72
457.606	761.42
457.979	818.82
458.352	815.43
458.725	818.37
459.099	828.54
459.472	827.18
459.845	861.53
460.218	852.27
460.591	844.13
460.964	845.49
461.337	856.33
461.71	843
462.083	897.91
462.456	867.41
462.829	890
463.201	850.46
463.574	885.03
463.947	886.39
464.32	910.8
464.692	914.19
465.065	909.21
465.438	959.38
465.81	940.62
466.183	920.51
466.555	958.48
466.928	967.52
467.3	960.06
467.672	967.97
468.045	982.21
468.417	973.62
468.789	993.96
469.161	998.93
469.534	1006.39
469.906	1013.84
470.278	1029.89
470.65	1036.44
471.022	1056.1
471.394	1062.43
471.766	1071.47
472.138	1095.42
472.51	1098.36
472.882	1113.28
473.253	1121.41
473.625	1128.19
473.997	1139.04
474.369	1138.36
474.74	1135.65
475.112	1184.23
475.484	1200.96
475.855	1207.96
476.227	1188.3
476.598	1221.07
476.97	1244.8
477.341	1247.28
477.713	1250.22
478.084	1278.92
478.455	1317.56
478.827	1316.66
479.198	1367.73
479.569	1340.84
479.94	1361.4
480.311	1377
480.682	1424.23
481.053	1427.84
481.424	1466.26
481.795	1435.75
482.166	1467.39
482.537	1493.83
482.908	1504.68
483.279	1535.19
483.65	1553.49
484.021	1579.48
484.391	1584.9
484.762	1616.31
485.133	1591.91
485.503	1642.98
485.874	1666.03
486.244	1659.7
486.615	1699.93
486.985	1723.2
487.356	1731.56
487.726	1731.56
488.097	1764.33
488.467	1790.77
488.837	1820.15
489.207	1848.85
489.578	1858.57
489.948	1884.33
490.318	1911.45
490.688	1896.31
491.058	1941.73
491.428	1929.75
491.798	1996.19
492.168	1975.17
492.538	2028.28
492.908	2030.09
493.278	2026.7
493.648	2051.56
494.017	2107.37
494.387	2113.7
494.757	2099.24
495.126	2111.67
495.496	2157.54
495.866	2171.55
496.235	2200.03
496.605	2180.14
496.974	2210.87
497.344	2237.09
497.713	2262.4
498.082	2253.81
498.452	2277.99
498.821	2299.69
499.19	2290.42
499.559	2354.83
499.928	2313.92
500.298	2337.88
500.667	2394.37
501.036	2384.43
501.405	2393.47
501.774	2429.85
502.143	2425.11
502.512	2415.84
502.88	2435.73
503.249	2464.2
503.618	2478.89
503.987	2505.56
504.356	2504.43
504.724	2548.49
505.093	2550.3
505.462	2580.58
505.83	2594.59
506.199	2609.96
506.567	2617.42
506.936	2593.91
507.304	2664.2
507.672	2675.49
508.041	2670.3
508.409	2722.5
508.777	2758.88
509.145	2807.02
509.514	2751.88
509.882	2774.7
510.25	2783.51
510.618	2804.08
510.986	2800.24
511.354	2835.72
511.722	2896.28
512.09	2889.5
512.458	2859.44
512.826	2931.31
513.193	2920.91
513.561	2931.53
513.929	2970.63
514.297	2963.4
514.664	3052.66
515.032	3020.12
515.4	3053.79
515.767	3073.9
516.135	3107.57
516.502	3081.81
516.869	3152.09
517.237	3166.1
517.604	3149.61
517.972	3211.53
518.339	3198.42
518.706	3275.48
519.073	3231.64
519.44	3256.5
519.808	3325.42
520.175	3335.59
520.542	3355.48
520.909	3345.99
521.276	3400.22
521.643	3418.3
522.009	3450.16
522.376	3511.18
522.743	3462.37
523.11	3540.33
523.477	3544.17
523.843	3594.34
524.21	3630.72
524.577	3696.94
524.943	3662.14
525.31	3662.81
525.676	3751.17
526.043	3770.83
526.409	3766.77
526.776	3797.05
527.142	3812.41
527.508	3855.35
527.874	3863.03
528.241	3874.56
528.607	3924.28
528.973	3947.55
529.339	3956.36
529.705	4014.22
530.071	4018.96
530.437	4055.12
530.803	4089.92
531.169	4093.99
531.535	4095.12
531.901	4123.14
532.267	4179.18
532.632	4225.28
532.998	4198.62
533.364	4270.03
533.73	4228
534.095	4256.24
534.461	4346.41
534.826	4333.98
535.192	4349.57
535.557	4422.34
535.923	4381.21
536.288	4411.27
536.653	4413.53
537.019	4426.41
537.384	4408.33
537.749	4491.49
538.114	4500.98
538.479	4507.08
538.845	4587.99
539.21	4603.13
539.575	4562.68
539.94	4639.96
540.305	4630.47
540.67	4617.14
541.034	4697.59
541.399	4715.22
541.764	4707.98
542.129	4733.07
542.494	4768.09
542.858	4753.86
543.223	4797.25
543.587	4848.09
543.952	4842.9
544.316	4888.09
544.681	4870.92
545.045	4875.21
545.41	4952.72
545.774	4917.47
546.138	5021.65
546.503	4993.4
546.867	5029.11
547.231	5077.24
547.595	5103.45
547.959	5112.94
548.324	5112.72
548.688	5152.49
549.052	5199.95
549.416	5187.29
549.779	5204.69
550.143	5279.95
550.507	5302.77
550.871	5305.26
551.235	5311.36
551.599	5385.48
551.962	5385.48
552.326	5442.88
552.689	5461.64
553.053	5400.62
553.417	5507.51
553.78	5566.72
554.143	5595.19
554.507	5627.28
554.87	5633.16
555.234	5700.5
555.597	5717.9
555.96	5776.2
556.323	5805.58
556.686	5857.11
557.05	5821.85
557.413	5849.65
557.776	5930.78
558.139	5994.28
558.502	5980.94
558.865	6019.81
559.228	6114.73
559.59	6110.88
559.953	6259.36
560.316	6289.41
560.679	6334.83
561.041	6349.75
561.404	6398.33
561.767	6499.8
562.129	6459.12
562.492	6562.85
562.854	6623.41
563.217	6622.06
563.579	6708.16
563.941	6799.91
564.304	6764.2
564.666	6880.13
565.028	6951.09
565.39	6991.09
565.753	7081.71
566.115	7099.56
566.477	7161.48
566.839	7213.68
567.201	7280.35
567.563	7408.7
567.925	7530.06
568.287	7509.04
568.648	7543.39
569.01	7674.23
569.372	7765.08
569.734	7780.45
570.095	7828.81
570.457	7928.24
570.819	8031.96
571.18	8079.42
571.542	8165.29
571.903	8239.42
572.265	8315.8
572.626	8384.95
572.987	8448.68
573.349	8479.64
573.71	8591.72
574.071	8720.76
574.432	8773.41
574.794	8906.74
575.155	8958.72
575.516	9029.23
575.877	9074.87
576.238	9283.23
576.599	9340.18
576.96	9430.57
577.32	9493.62
577.681	9625.14
578.042	9725.7
578.403	9822.88
578.763	9993.04
579.124	10040.95
579.485	10184.22
579.845	10344.9
580.206	10421.28
580.566	10544.67
580.927	10640.48
581.287	10884.77
581.648	10944.88
582.008	11127.25
582.368	11302.61
582.728	11483.4
583.089	11607.92
583.449	11757.74
583.809	11946.66
584.169	12175.81
584.529	12281.57
584.889	12573.54
585.249	12707.55
585.609	12858.05
585.969	13096.92
586.329	13238.15
586.688	13479.73
587.048	13718.14
587.408	13916.55
587.768	14191.35
588.127	14283.1
588.487	14624.78
588.846	14925.57
589.206	15045.56
589.565	15444.65
589.925	15701.59
590.284	15916.95
590.643	16190.39
591.003	16554.68
591.362	16897.04
591.721	17150.14
592.08	17496.57
592.44	17843.01
592.799	18232.15
593.158	18440.73
593.517	18875.07
593.876	19175.85
594.235	19449.74
594.593	19826.91
594.952	20247.69
595.311	20642.03
595.67	20967.67
596.029	21391.84
596.387	21821.66
596.746	22251.7
597.104	22489.21
597.463	22890.56
597.822	23356.08
598.18	23683.3
598.538	24046.23
598.897	24485.32
599.255	24761.92
599.613	25503.14
599.972	25618.62
600.33	26176.8
600.688	26492.27
601.046	26922.99
601.404	27385.13
601.762	27783.99
602.12	28355.05
602.478	28724.53
602.836	29150.5
603.194	29339.65
603.552	29727.89
603.91	30030.93
604.268	30642.67
604.625	30921.98
604.983	31464.34
605.341	31684.9
605.698	32162.4
606.056	32705.44
606.413	32951.31
606.771	33502.48
607.128	33787.22
607.485	33917.84
607.843	34360.31
608.2	34824.48
608.557	35168.88
608.914	35394.18
609.272	35895.19
609.629	36193.26
609.986	36538.33
610.343	36825.33
610.7	37197.75
611.057	37505.54
611.414	37688.36
611.771	37946.88
612.127	38472.52
612.484	38624.38
612.841	39006.06
613.198	39039.28
613.554	39307.53
613.911	39702.32
614.267	40051.24
614.624	40183.66
614.98	40482.64
615.337	40878.56
615.693	40969.63
616.05	41053.24
616.406	41594.25
616.762	41541.14
617.118	41813.45
617.475	41910.4
617.831	42301.35
618.187	42345.86
618.543	42722.13
618.899	42984.94
619.255	43180.42
619.611	43002.34
619.967	43448.43
620.323	43708.09
620.678	43776.56
621.034	43651.59
621.39	43902.21
621.746	44030.11
622.101	44574.96
622.457	44443.66
622.812	44473.04
623.168	44744.22
623.523	44819.02
623.879	45046.58
624.234	44796.65
624.589	45162.74
624.945	45186.47
625.3	45360.25
625.655	45448.16
626.01	45609.06
626.365	45640.69
626.72	45659.9
627.075	45693.8
627.43	45798.43
627.785	45832.1
628.14	46011.08
628.495	46069.61
628.85	46089.27
629.205	46014.24
629.559	46329.94
629.914	46270.73
630.269	46363.39
630.623	46331.75
630.978	46311.18
631.332	46546.21
631.687	46577.17
632.041	46444.74
632.396	46764.05
632.75	46580.55
633.104	46651.29
633.459	46504.17
633.813	46719.99
634.167	46625.3
634.521	46646.54
634.875	46729.25
635.229	46632.3
635.583	46519.31
635.937	46498.07
636.291	46600.67
636.645	46625.98
636.999	46548.69
637.352	46785.07
637.706	46409.26
638.06	46701.23
638.413	46663.49
638.767	46676.82
639.121	46660.55
639.474	46478.18
639.828	46726.09
640.181	46697.39
640.534	46644.28
640.888	46687.9
641.241	46479.99
641.594	46814.67
641.947	46811.96
642.301	46707.33
642.654	46769.93
643.007	46737.39
643.36	46764.96
643.713	46590.5
644.066	46826.2
644.419	46455.59
644.771	46201.13
645.124	45927.24
645.477	45960.91
645.83	45735.83
646.182	45664.65
646.535	45661.93
646.888	45647.02
647.24	45432.34
647.593	45697.19
647.945	45771.54
648.298	45571.77
648.65	45468.72
649.002	45430.08
649.355	45616.74
649.707	45410.87
650.059	45759.11
650.411	46253.11
650.763	46335.36
651.115	46708.46
651.467	46633.66
651.819	46540.33
652.171	46459.88
652.523	46431.41
652.875	46430.28
653.227	46345.98
653.578	46585.07
653.93	46618.29
654.282	46302.6
654.633	46247.46
654.985	46339.43
655.337	46440.67
655.688	46465.3
656.039	46553.44
656.391	46324.74
656.742	46325.19
657.094	46297.17
657.445	46445.19
657.796	46403.61
658.147	46240.9
658.498	46241.58
658.849	46287.23
659.2	46155.48
659.551	46228.93
659.902	46386.44
660.253	46325.65
660.604	46268.7
660.955	46111.64
661.306	46204.75
661.656	46148.25
662.007	46210.62
662.358	46218.76
662.708	46318.19
663.059	46312.54
663.409	45997.75
663.76	46323.84
664.11	46392.54
664.461	46300.56
664.811	46512.99
665.161	46158.42
665.511	46204.07
665.862	46319.77
666.212	46393.89
666.562	46175.59
666.912	46243.16
667.262	46173.11
667.612	46213.11
667.962	46181.02
668.312	46198.42
668.662	46424.4
669.011	46175.59
669.361	46122.26
669.711	46254.01
670.06	46140.57
670.41	46170.4
670.76	46056.27
671.109	46252.2
671.459	46150.74
671.808	46147.35
672.157	46080
672.507	45931.08
672.856	45961.14
673.205	45974.92
673.554	45985.32
673.904	45862.61
674.253	46119.78
674.602	46082.49
674.951	45368.38
675.3	45349.63
675.649	45888.6
675.998	45762.72
676.346	45726.34
676.695	46016.28
677.044	45700.58
677.393	45750.97
677.741	45827.58
678.09	45734.02
678.438	45616.51
678.787	45663.29
679.135	45602.05
679.484	45406.35
679.832	45590.52
680.181	45424.2
680.529	45479.34
680.877	45398.21
681.225	45332
681.573	45656.06
681.922	45289.74
682.27	45193.7
682.618	45359.8
682.966	45064.44
683.314	45235.73
683.661	45117.99
684.009	44951.22
684.357	44797.55
684.705	44756.42
685.053	44889.75
685.4	44612.7
685.748	44467.84
686.095	44461.29
686.443	44326.6
686.79	44333.61
687.138	44548.29
687.485	44484.56
687.832	44293.61
688.18	44228.98
688.527	44029.66
688.874	44194.4
689.221	43928.2
689.568	43939.04
689.915	43813.85
690.262	43776.11
690.609	43651.82
690.956	43424.25
691.303	43536.79
691.65	43439.85
691.997	43347.19
692.344	43050.93
692.69	43110.14
693.037	43163.92
693.383	42855
693.73	42940.65
694.077	42612.52
694.423	42856.59
694.769	42546.76
695.116	42440.1
695.462	42500.66
695.808	42361.46
696.155	42229.48
696.501	42050.96
696.847	42045.08
697.193	41805.54
697.539	42022.26
697.885	41615.26
698.231	41664.07
698.577	41647.13
698.923	41533.91
699.269	41431.09
699.614	41135.27
699.96	41115.61
700.306	40977.09
700.651	40963.08
700.997	41002.85
701.342	40839.01
701.688	40670.43
702.033	40642.18
702.379	40587.04
702.724	40427.04
703.069	40596.08
703.415	40112.25
703.76	40096.88
704.105	40066.15
704.45	39850.56
704.795	39806.27
705.14	39786.16
705.485	39683.79
705.83	39665.26
706.175	39653.96
706.52	39437.47
706.865	39303.01
707.209	39305.27
707.554	39160.64
707.899	39227.98
708.243	39027.53
708.588	38976.69
708.932	38684.27
709.277	38700.54
709.621	38695.79
709.966	38399.53
710.31	38556.36
710.654	38227.1
710.998	38306.42
711.342	38239.98
711.687	38229.59
712.031	38045.86
712.375	37941.46
712.719	38061
713.063	37968.58
713.407	38067.11
713.75	37771.75
714.094	37824.4
714.438	37567.01
714.782	37657.4
715.125	37534.01
715.469	37602.03
715.812	37295.83
716.156	37186.23
716.499	37239.11
716.843	37310.29
717.186	37041.37
717.53	37279.78
717.873	37083.18
718.216	37000.02
718.559	36794.82
718.902	36717.09
719.246	36795.5
719.589	36612.46
719.932	36485.45
720.275	36613.13
720.617	36528.62
720.96	36389.41
721.303	36482.52
721.646	36366.36
721.989	36104.9
722.331	36393.03
722.674	36306.02
723.016	36090.89
723.359	36105.58
723.701	36118.91
724.044	35940.16
724.386	35754.4
724.729	35882.53
725.071	35846.15
725.413	35739.71
725.755	35719.82
726.097	35543.78
726.439	35452.03
726.782	35491.13
727.124	35637.57
727.465	35327.52
727.807	35331.59
728.149	35325.71
728.491	35242.1
728.833	35283
729.175	35092.72
729.516	35061.31
729.858	35008.66
730.199	35054.08
730.541	35042.1
730.882	34876.23
731.224	35139.27
731.565	34859.28
731.906	34809.34
732.248	34863.57
732.589	34724.82
732.93	34582.23
733.271	34609.12
733.612	34578.38
733.953	34594.43
734.294	34467.2
734.635	34478.73
734.976	34561.89
735.317	34326.64
735.658	34247.55
735.999	34294.55
736.339	34156.02
736.68	34133.42
737.021	34153.09
737.361	34039.64
737.702	34210.26
738.042	34054.78
738.383	33992.64
738.723	34063.37
739.063	33885.75
739.404	33930.27
739.744	33754
740.084	33645.3
740.424	33734.79
740.764	33696.6
741.104	33788.8
741.444	33512.2
741.784	33392.88
742.124	33691.85
742.464	33433.1
742.804	33435.36
743.143	33373.22
743.483	33277.4
743.823	33138.65
744.162	33178.87
744.502	33336.84
744.841	33029.27
745.181	33223.84
745.52	33024.75
745.86	33252.32
746.199	33048.93
746.538	32929.61
746.877	33071.53
747.216	33050.06
747.556	32939.11
747.895	32923.51
748.234	32676.51
748.573	32686.23
748.911	32569.17
749.25	32721.26
749.589	32407.82
749.928	32534.6
750.267	32536.86
750.605	32469.06
750.944	32360.36
751.283	32307.94
751.621	32358.33
751.96	32251.89
752.298	32286.92
752.636	32101.84
752.975	32152.46
753.313	31909.75
753.651	32124.66
753.989	31948.17
754.327	31837.21
754.666	31597.45
755.004	31711.57
755.342	31780.49
755.679	31710.89
756.017	31451.01
756.355	31613.04
756.693	31426.38
757.031	31504.57
757.368	31196.55
757.706	31237
758.044	31234.97
758.381	31116.55
758.719	31007.18
759.056	31043.11
759.394	30956.78
759.731	30737.81
760.068	30644.7
760.405	30487.64
760.743	30580.52
761.08	30587.76
761.417	30336.24
761.754	30478.38
762.091	30284.94
762.428	30141.21
762.765	30052.18
763.102	30197.48
763.438	29855.57
763.775	29806.76
764.112	29751.62
764.449	29773.31
764.785	29671.17
765.122	29544.39
765.458	29343.95
765.795	29387.11
766.131	29291.07
766.467	29175.36
766.804	29043.39
767.14	28981.7
767.476	28835.48
767.812	28678.43
768.148	28866.44
768.485	28650.4
768.821	28432.11
769.157	28470.07
769.492	28461.94
769.828	28373.12
770.164	28184.43
770.5	28041.38
770.836	28041.16
771.171	27909.63
771.507	27837.54
771.842	27609.53
772.178	27642.97
772.513	27490.44
772.849	27572.92
773.184	27448.4
773.519	27409.99
773.855	27154.4
774.19	27126.15
774.525	27044.8
774.86	26973.16
775.195	26888.87
775.53	26814.07
775.865	26715.31
776.2	26369.33
776.535	26380.18
776.87	26297.02
777.205	26173.41
777.539	26104.48
777.874	26258.38
778.209	26013.41
778.543	25926.86
778.878	25691.84
779.212	25760.09
779.547	25565.29
779.881	25738.39
780.215	25525.06
780.55	25414.11
780.884	25239.87
781.218	25265.64
781.552	25252.08
781.886	25034.23
782.22	25012.53
782.554	24813.22
782.888	24711.3
783.222	24684.18
783.556	24524.64
783.889	24374.36
784.223	24278.32
784.557	24281.48
784.89	24198.09
785.224	24171.2
785.557	23903.41
785.891	23924.65
786.224	23853.47
786.558	23928.04
786.891	23686.02
787.224	23504.78
787.557	23547.71
787.891	23492.35
788.224	23388.17
788.557	23396.31
788.89	23286.25
789.223	23307.72
789.556	23127.39
789.888	23021.63
790.221	23004.23
790.554	22754.29
790.887	22837.45
791.219	22769.2
791.552	22669.09
791.884	22516.33
792.217	22519.49
792.549	22429.55
792.882	22292.38
793.214	22214.42
793.546	22251.03
793.879	22026.62
794.211	21925.16
794.543	21994.99
794.875	21898.72
795.207	21977.36
795.539	21764.71
795.871	21903.46
796.203	21661.66
796.535	21453.76
796.867	21485.85
797.198	21467.99
797.53	21330.15
797.862	21263.71
798.193	21311.61
798.525	21084.95
798.856	21211.28
799.188	21060.32
799.519	20950.95
799.85	20847.67
800.182	20822.59
800.513	20767.22
800.844	20663.27
801.175	20709.82
801.506	20601.8
801.837	20508.02
802.168	20456.27
802.499	20368.81
802.83	20282.49
803.161	20340.79
803.491	20249.95
803.822	20256.95
804.153	20048.6
804.483	19931.31
804.814	19978.32
805.145	19898.77
805.475	19884.99
805.805	19765.89
806.136	19697.87
806.466	19755.72
806.796	19758.66
807.126	19591.89
807.457	19555.5
807.787	19454.04
808.117	19325.9
808.447	19313.93
808.777	19389.18
809.107	19355.96
809.436	19309.63
809.766	19275.51
810.096	19167.72
810.426	19042.75
810.755	19127.49
811.085	19082.07
811.414	18962.3
811.744	18806.14
812.073	18826.71
812.403	18859.25
812.732	18676.66
813.061	18642.08
813.39	18574.96
813.719	18607.28
814.049	18699.48
814.378	18514.85
814.707	18388.53
815.036	18391.24
815.365	18302.43
815.693	18181.3
816.022	18181.3
816.351	18236.44
816.68	18085.48
817.008	18125.71
817.337	17972.95
817.665	18028.99
817.994	17976.11
818.322	17946.73
818.651	17888.2
818.979	17800.52
819.307	17866.51
819.636	17842.55
819.964	17698.6
820.292	17768.66
820.62	17698.38
820.948	17653.86
821.276	17678.49
821.604	17615.21
821.932	17653.18
822.259	17656.34
822.587	17659.06
822.915	17575.22
823.243	17624.03
823.57	17574.99
823.898	17600.75
824.225	17555.56
824.553	17414.99
824.88	17495.9
825.207	17532.96
825.535	17467.87
825.862	17618.15
826.189	17534.54
826.516	17609.11
826.843	17646.85
827.17	17551.71
827.497	17541.32
827.824	17578.61
828.151	17529.34
828.478	17531.38
828.805	17591.26
829.131	17473.07
829.458	17495.9
829.785	17313.75
830.111	17347.43
830.438	17557.14
830.764	17527.53
831.09	17476.69
831.417	17409.34
831.743	17435.78
832.069	17454.32
832.395	17491.83
832.722	17417.71
833.048	17364.6
833.374	17342
833.7	17348.78
834.026	17391.27
834.351	17414.09
834.677	17391.94
835.003	17289.35
835.329	17284.15
835.654	17259.07
835.98	17173.19
836.306	17238.05
836.631	17193.3
836.956	17229.69
837.282	17148.79
837.607	17097.94
837.932	17072.4
838.258	17120.76
838.583	17177.71
838.908	16998.73
839.233	17021.11
839.558	16917.15
839.883	16909.24
840.208	16878.74
840.533	16832.64
840.858	16875.12
841.182	16785.41
841.507	16862.01
841.832	16717.39
842.156	16749.47
842.481	16665.41
842.805	16630.83
843.13	16563.04
843.454	16601.46
843.778	16465.64
844.103	16470.39
844.427	16512.64
844.751	16446.43
845.075	16343.38
845.399	16304.06
845.723	16211.18
846.047	16215.48
846.371	16053.45
846.695	16098.64
847.019	15914.92
847.343	15958.76
847.666	15786.56
847.99	15862.27
848.313	15805.32
848.637	15726.45
848.96	15655.04
849.284	15593.8
849.607	15459.79
849.931	15523.74
850.254	15307.7
850.577	15281.94
850.9	15197.88
851.223	15241.49
851.546	15074.04
851.869	15021.16
852.192	15122.17
852.515	14982.74
852.838	14871.11
853.161	14875.85
853.483	14833.14
853.806	14761.5
854.129	14762.41
854.451	14673.6
854.774	14594.96
855.096	14599.93
855.419	14542.08
855.741	14489.87
856.063	14374.4
856.385	14389.08
856.708	14272.03
857.03	14248.3
857.352	14388.18
857.674	14245.13
857.996	14235.42
858.318	14091.01
858.64	14061.41
858.961	14051.01
859.283	14070.45
859.605	13986.84
859.926	14016.21
860.248	13872.04
860.57	13833.62
860.891	13848.31
861.212	13760.85
861.534	13721.08
861.855	13670.69
862.176	13723.57
862.498	13712.04
862.819	13786.84
863.14	13676.34
863.461	13636.34
863.782	13493.29
864.103	13550.69
864.424	13534.42
864.745	13460.97
865.065	13456.91
865.386	13414.42
865.707	13497.13
866.027	13455.32
866.348	13386.4
866.668	13311.15
866.989	13247.87
867.309	13279.06
867.63	13343.69
867.95	13189.34
868.27	13159.74
868.59	13213.97
868.91	13184.6
869.23	13154.99
869.55	12980.31
869.87	13057.59
870.19	13032.51
870.51	13057.37
870.83	13144.15
871.15	12947.31
871.469	12929.46
871.789	13017.6
872.109	12979.63
872.428	12868.45
872.748	12922.91
873.067	12904.6
873.386	12846.07
873.706	12904.6
874.025	12877.26
874.344	12746.87
874.663	12785.96
874.982	12781.67
875.301	12733.08
875.62	12752.07
875.939	12646.08
876.258	12739.64
876.577	12714.55
876.896	12624.61
877.214	12604.27
877.533	12614.89
877.852	12626.65
878.17	12596.36
878.489	12575.35
878.807	12527.44
879.125	12560.66
879.444	12485.41
879.762	12524.5
880.08	12474.56
880.398	12388.46
880.716	12444.5
881.034	12326.09
881.352	12366.31
881.67	12284.96
881.988	12387.1
882.306	12271.4
882.624	12309.59
882.941	12317.28
883.259	12161.57
883.577	12211.06
883.894	12118.64
884.212	12062.14
884.529	12054.91
884.846	12058.07
885.164	12032.76
885.481	11947.79
885.798	11968.13
886.115	11924.97
886.432	11897.4
886.75	11887.23
887.067	11911.18
887.383	11828.02
887.7	11836.84
888.017	11766.1
888.334	11737.86
888.651	11645.65
888.967	11648.37
889.284	11603.17
889.6	11579.89
889.917	11572.66
890.233	11552.1
890.55	11466.22
890.866	11399.11
891.182	11422.84
891.498	11370.18
891.815	11369.5
892.131	11291.31
892.447	11231.65
892.763	11275.04
893.079	11259.45
893.395	11192.56
893.71	11136.29
894.026	11148.27
894.342	11066.46
894.657	11036.18
894.973	11019.23
895.289	11037.08
895.604	10990.76
895.92	10877.54
896.235	10857.43
896.55	10916.86
896.865	10824.21
897.181	10791.89
897.496	10722.97
897.811	10704.66
898.126	10674.38
898.441	10623.53
898.756	10662.86
899.071	10615.62
899.386	10603.65
899.7	10442.97
900.015	10489.3
900.33	10300.38
900.644	10327.27
900.959	10329.98
901.273	10288.85
901.588	10309.87
901.902	10214.96
902.216	10162.76
902.531	10173.83
902.845	10133.6
903.159	10084.79
903.473	10061.74
903.787	9962.99
904.101	9946.72
904.415	9943.1
904.729	9894.06
905.042	9892.48
905.356	9901.52
905.67	9775.65
905.984	9836.89
906.297	9717.12
906.611	9697.91
906.924	9655.88
907.237	9574.75
907.551	9567.97
907.864	9544.24
908.177	9510.8
908.491	9461.98
908.804	9422.66
909.117	9396.22
909.43	9339.73
909.743	9311.25
910.056	9273.51
910.368	9256.11
910.681	9126.17
910.994	9153.29
911.307	9203.46
911.619	8944.48
911.932	9075.33
912.244	8987.65
912.557	8984.03
912.869	8909.46
913.181	8915.78
913.494	8847.99
913.806	8812.96
914.118	8755.79
914.43	8709.46
914.742	8704.26
915.054	8649.35
915.366	8582.46
915.678	8628.78
915.99	8561.67
916.302	8560.76
916.613	8516.92
916.925	8472.18
917.236	8446.19
917.548	8408.45
917.859	8419.52
918.171	8317.15
918.482	8313.31
918.794	8239.87
919.105	8203.71
919.416	8119.65
919.727	8122.13
920.038	8128.01
920.349	8051.17
920.66	8045.52
920.971	8074.67
921.282	8002.59
921.593	7935.24
921.903	7900.89
922.214	7825.19
922.525	7796.72
922.835	7843.72
923.146	7744.74
923.456	7702.03
923.767	7669.71
924.077	7679.43
924.387	7590.17
924.697	7606.66
925.008	7601.24
925.318	7514.01
925.628	7511.3
925.938	7478.98
926.248	7420.91
926.558	7442.15
926.867	7362.6
927.177	7371.19
927.487	7347.69
927.796	7200.57
928.106	7217.07
928.416	7222.27
928.725	7179.56
929.034	7142.95
929.344	7189.95
929.653	7037.19
929.962	7063.63
930.271	7032.22
930.581	7049.16
930.89	6938.66
931.199	6897.53
931.508	6913.35
931.817	6867.93
932.125	6872.22
932.434	6834.48
932.743	6770.98
933.051	6773.92
933.36	6706.58
933.669	6713.58
933.977	6661.38
934.286	6634.26
934.594	6599.69
934.902	6592.23
935.21	6548.16
935.519	6592
935.827	6512.68
936.135	6440.59
936.443	6448.05
936.751	6409.86
937.059	6381.61
937.367	6372.35
937.674	6341.16
937.982	6334.16
938.29	6292.8
938.597	6282.41
938.905	6201.73
939.213	6157.21
939.52	6134.16
939.827	6143.65
940.135	6119.02
940.442	6072.47
940.749	6034.5
941.056	6042.64
941.363	6023.66
941.67	6048.51
941.977	5970.55
942.284	5858.24
942.591	5888.07
942.898	5831.57
943.205	5833.6
943.511	5808.75
943.818	5791.57
944.125	5795.64
944.431	5780.5
944.738	5717.22
945.044	5730.78
945.35	5686.49
945.657	5622.76
945.963	5599.26
946.269	5601.52
946.575	5607.17
946.881	5568.75
947.187	5508.64
947.493	5494.18
947.799	5505.25
948.105	5478.13
948.41	5414.86
948.716	5402.88
949.022	5401.75
949.327	5395.42
949.633	5302.54
949.938	5288.08
950.244	5331.02
950.549	5270.45
950.854	5256.22
951.16	5217.57
951.465	5177.8
951.77	5171.02
952.075	5138.71
952.38	5064.13
952.685	5120.63
952.99	5107.97
953.294	5061.65
953.599	5040.4
953.904	4994.76
954.209	4969.67
954.513	4989.33
954.818	4959.05
955.122	4938.26
955.426	4884.48
955.731	4872.5
956.035	4829.11
956.339	4836.34
956.643	4812.61
956.948	4762.9
957.252	4806.51
957.556	4766.06
957.86	4740.98
958.163	4758.15
958.467	4713.63
958.771	4666.18
959.075	4665.72
959.378	4641.77
959.682	4642.9
959.985	4584.82
960.289	4559.96
960.592	4595.22
960.896	4541.89
961.199	4522.23
961.502	4483.81
961.805	4450.59
962.108	4477.03
962.411	4424.38
962.714	4383.25
963.017	4385.05
963.32	4417.6
963.623	4376.01
963.926	4313.87
964.228	4303.93
964.531	4258.96
964.833	4279.07
965.136	4263.25
965.438	4268
965.741	4258.96
966.043	4190.94
966.345	4202.91
966.648	4158.39
966.95	4161.11
967.252	4166.3
967.554	4127.21
967.856	4088.56
968.158	4051.05
968.46	4040.88
968.761	4020.54
969.063	4041.11
969.365	4010.6
969.666	3971.96
969.968	3952.3
970.269	3961.34
970.571	3938.96
970.872	3938.96
971.174	3879.53
971.475	3886.76
971.776	3843.83
972.077	3873.66
972.378	3843.6
972.679	3828.91
972.98	3829.36
973.281	3785.3
973.582	3807.67
973.883	3750.72
974.183	3700.55
974.484	3715.24
974.785	3709.59
975.085	3661.68
975.386	3653.32
975.686	3669.82
975.986	3626.43
976.287	3581.01
976.587	3608.13
976.887	3550.5
977.187	3567.22
977.487	3534.46
977.787	3500.33
978.087	3448.13
978.387	3512.31
978.687	3479.09
978.987	3473.44
979.286	3423.05
979.586	3401.8
979.885	3407.23
980.185	3391.86
980.484	3366.1
980.784	3394.8
981.083	3370.39
981.382	3333.56
981.682	3332.2
981.981	3327.23
982.28	3303.73
982.579	3282.03
982.878	3257.17
983.177	3214.92
983.475	3230.06
983.774	3187.35
984.073	3191.64
984.372	3204.75
984.67	3213.11
984.969	3216.5
985.267	3174.01
985.566	3123.39
985.864	3091.53
986.162	3113.45
986.461	3091.98
986.759	3084.98
987.057	3088.14
987.355	3046.33
987.653	3073.9
987.951	2981.02
988.249	2994.36
988.547	2976.73
988.844	2985.09
989.142	2982.83
989.44	2986.9
989.737	2941.48
990.035	2866.68
990.332	2890.4
990.63	2898.99
990.927	2887.92
991.224	2872.1
991.521	2839.56
991.819	2826.9
992.116	2825.32
992.413	2807.69
992.71	2799.79
993.006	2776.51
993.303	2773.35
993.6	2755.04
993.897	2796.62
994.193	2765.66
994.49	2721.14
994.787	2702.61
995.083	2670.07
995.379	2699.9
995.676	2709.17
995.972	2651.77
996.268	2645.44
996.565	2644.76
996.861	2586.23
997.157	2593.24
997.453	2589.17
997.749	2602.5
998.044	2607.02
998.34	2530.41
998.636	2556.4
998.932	2565.89
999.227	2532.22
999.523	2468.04
999.818	2479.34
1000.114	2462.17
1000.409	2471.43
1000.704	2447.7
1001	2458.1
1001.295	2414.71
1001.59	2449.74
1001.885	2374.94
1002.18	2393.69
1002.475	2369.29
1002.77	2368.84
1003.065	2332.68
1003.359	2320.7
1003.654	2327.26
1003.949	2313.02
1004.243	2238.44
1004.538	2270.31
1004.832	2307.59
1005.127	2244.32
1005.421	2240.7
1005.715	2220.82
1006.009	2194.83
1006.304	2223.76
1006.598	2176.98
1006.892	2155.06
1007.186	2168.39
1007.48	2172.01
1007.773	2119.8
1008.067	2123.42
1008.361	2101.95
1008.655	2111.22
1008.948	2073.93
1009.242	2081.84
1009.535	2049.97
1009.829	2060.6
1010.122	2061.27
1010.415	2048.39
1010.708	2007.04
1011.001	2019.24
1011.295	1993.03
1011.588	2003.87
1011.881	1981.5
1012.173	1958.68
1012.466	1943.08
1012.759	1926.36
1013.052	1944.67
1013.344	1908.51
1013.637	1900.6
1013.93	1881.39
1014.222	1887.72
1014.514	1878
1014.807	1862.41
1015.099	1812.69
1015.391	1869.87
1015.683	1814.27
1015.976	1782.64
1016.268	1807.49
1016.56	1806.14
1016.851	1767.27
1017.143	1753.26
1017.435	1745.35
1017.727	1737.89
1018.018	1717.78
1018.31	1718.91
1018.602	1709.64
1018.893	1690.44
1019.185	1692.02
1019.476	1686.59
1019.767	1662.41
1020.058	1659.48
1020.35	1649.08
1020.641	1612.02
1020.932	1618.8
1021.223	1596.2
1021.514	1585.81
1021.804	1581.74
1022.095	1578.35
1022.386	1553.49
1022.677	1556.88
1022.967	1539.25
1023.258	1529.31
1023.548	1540.61
1023.839	1525.47
1024.129	1504.45
1024.419	1486.15
1024.709	1473.94
1025	1470.78
1025.29	1456.77
1025.58	1460.84
1025.87	1434.85
1026.16	1422.65
1026.449	1418.58
1026.739	1416.77
1027.029	1392.14
1027.319	1384.23
1027.608	1375.19
1027.898	1355.76
1028.187	1377.45
1028.477	1339.26
1028.766	1325.7
1029.055	1328.64
1029.344	1319.37
1029.634	1313.04
1029.923	1302.88
1030.212	1286.83
1030.501	1304.68
1030.79	1271.01
1031.078	1253.61
1031.367	1243.44
1031.656	1254.06
1031.945	1259.94
1032.233	1256.1
1032.522	1215.42
1032.81	1234.85
1033.099	1246.38
1033.387	1233.95
1033.675	1188.53
1033.963	1184.91
1034.251	1167.96
1034.54	1181.3
1034.828	1167.06
1035.116	1166.16
1035.403	1154.18
1035.691	1155.53
1035.979	1125.7
1036.267	1140.62
1036.554	1107.17
1036.842	1120.06
1037.129	1094.75
1037.417	1095.65
1037.704	1091.13
1037.992	1066.72
1038.279	1052.94
1038.566	1077.34
1038.853	1077.34
1039.14	1077.34
