Data from red_shiny_book_FLMS001491_00079.txt Node
Date: Wed Feb 08 15:25:22 GMT 2017
User: dcchb
Spectrometer: FLMS00149
Trigger mode: 0
Integration Time (sec): 2.000000E-2
Scans to average: 10
Electric dark correction enabled: true
Nonlinearity correction enabled: false
Boxcar width: 0
XAxis mode: Wavelengths
Number of Pixels in Spectrum: 2048
>>>>>Begin Spectral Data<<<<<
341.393	-17.87
341.776	-17.87
342.16	-17.87
342.543	-65.32
342.927	-44.76
343.31	-42.95
343.693	-63.29
344.077	-52.67
344.46	-61.71
344.843	-53.57
345.226	-52.89
345.61	-41.37
345.993	-2.05
346.376	-12.67
346.759	5.64
347.142	26.65
347.525	34.34
347.908	50.38
348.291	84.28
348.674	71.85
349.057	110.04
349.44	116.37
349.823	150.94
350.206	142.81
350.588	198.4
350.971	207.44
351.354	220.77
351.737	242.24
352.119	240.21
352.502	263.26
352.884	293.09
353.267	278.62
353.65	291.73
354.032	296.93
354.414	304.61
354.797	310.03
355.179	319.07
355.562	339.19
355.944	319.53
356.326	345.29
356.709	336.93
357.091	336.7
357.473	348.45
357.855	341.67
358.238	347.55
358.62	327.43
359.002	337.83
359.384	335.34
359.766	322.92
360.148	330.82
360.53	331.95
360.912	359.3
361.294	358.17
361.676	353.87
362.057	313.65
362.439	349.13
362.821	329.69
363.203	341.9
363.584	332.63
363.966	321.56
364.348	349.81
364.729	327.21
365.111	328.11
365.493	332.63
365.874	332.63
366.256	351.84
366.637	329.02
367.019	294.89
367.4	307.55
367.781	317.27
368.163	318.62
368.544	306.19
368.925	318.4
369.306	312.52
369.688	323.37
370.069	306.64
370.45	324.05
370.831	330.37
371.212	316.14
371.593	313.88
371.974	334.67
372.355	306.87
372.736	323.82
373.117	345.29
373.498	321.56
373.879	343.93
374.26	312.75
374.641	339.64
375.021	334.44
375.402	331.05
375.783	319.98
376.163	340.77
376.544	344.61
376.925	325.4
377.305	325.63
377.686	334.21
378.066	351.62
378.447	329.92
378.827	330.15
379.208	330.6
379.588	328.56
379.968	344.16
380.349	316.59
380.729	336.02
381.109	334.44
381.489	344.16
381.87	334.21
382.25	334.21
382.63	321.79
383.01	336.25
383.39	348
383.77	321.56
384.15	354.55
384.53	342.12
384.91	355.68
385.29	340.32
385.67	358.62
386.049	351.16
386.429	357.94
386.809	347.32
387.189	347.1
387.568	351.84
387.948	355.23
388.328	370.15
388.707	343.93
389.087	364.95
389.466	356.81
389.846	351.62
390.225	366.08
390.605	356.36
390.984	369.92
391.363	368.11
391.743	382.12
392.122	373.08
392.501	374.89
392.881	359.75
393.26	354.1
393.639	360.43
394.018	375.8
394.397	392.29
394.776	395.46
395.155	371.5
395.534	387.77
395.913	387.55
396.292	386.19
396.671	404.95
397.05	390.26
397.429	394.78
397.808	370.82
398.186	395.46
398.565	381.67
398.944	386.42
399.323	397.94
399.701	390.71
400.08	400.88
400.458	404.04
400.837	413.53
401.215	429.58
401.594	414.44
401.972	391.39
402.351	397.49
402.729	416.02
403.107	424.16
403.486	432.74
403.864	429.81
404.242	415.12
404.62	401.56
404.999	423.93
405.377	420.77
405.755	405.85
406.133	440.88
406.511	427.32
406.889	431.16
407.267	449.01
407.645	444.49
408.023	451.95
408.401	481.33
408.779	466.19
409.156	468.9
409.534	480.2
409.912	451.05
410.29	459.18
410.667	453.76
411.045	476.13
411.422	491.05
411.8	470.03
412.178	490.59
412.555	485.85
412.933	492.18
413.31	486.3
413.687	495.57
414.065	473.87
414.442	502.35
414.819	515
415.197	520.2
415.574	522.46
415.951	523.81
416.328	512.51
416.705	529.01
417.082	530.14
417.46	521.78
417.837	531.72
418.214	521.33
418.591	529.92
418.967	533.98
419.344	551.16
419.721	551.61
420.098	536.02
420.475	559.07
420.852	574.21
421.228	565.39
421.605	561.55
421.982	562
422.358	566.07
422.735	588.22
423.111	568.56
423.488	573.76
423.864	562.91
424.241	618.05
424.617	606.98
424.994	623.92
425.37	600.65
425.746	591.83
426.123	593.42
426.499	599.52
426.875	603.36
427.251	605.17
427.627	618.27
428.003	648.56
428.379	629.35
428.756	654.21
429.132	642.68
429.507	671.15
429.883	652.85
430.259	639.97
430.635	626.64
431.011	676.58
431.387	648.33
431.763	661.21
432.138	675.22
432.514	690.36
432.89	679.97
433.265	708.22
433.641	722.9
434.016	725.62
434.392	710.25
434.767	707.99
435.143	714.32
435.518	727.65
435.894	706.63
436.269	741.66
436.644	722.9
437.02	744.6
437.395	760.64
437.77	769.91
438.145	783.69
438.52	770.59
438.895	773.07
439.271	764.03
439.646	783.92
440.021	792.51
440.395	783.24
440.77	759.74
441.145	775.78
441.52	785.5
441.895	786.41
442.27	837.48
442.645	836.8
443.019	850.58
443.394	813.52
443.769	834.54
444.143	826.63
444.518	835.9
444.892	838.16
445.267	840.64
445.641	837.93
446.016	832.51
446.39	860.3
446.764	860.53
447.139	865.05
447.513	849.46
447.887	856.69
448.262	914.31
448.636	879.28
449.01	874.77
449.384	880.87
449.758	883.58
450.132	883.13
450.506	866.18
450.88	872.96
451.254	881.77
451.628	904.82
452.002	927.42
452.376	926.97
452.75	924.93
453.123	936.46
453.497	942.79
453.871	925.39
454.244	963.35
454.618	958.83
454.992	932.84
455.365	932.39
455.739	945.95
456.112	961.99
456.486	945.5
456.859	959.06
457.232	985.72
457.606	984.82
457.979	1002.22
458.352	998.15
458.725	1042.44
459.099	999.06
459.472	1034.08
459.845	1005.84
460.218	1014.42
460.591	992.95
460.964	1005.84
461.337	1002.9
461.71	1044.93
462.083	1058.94
462.456	1058.72
462.829	1062.78
463.201	1095.32
463.574	1111.6
463.947	1101.65
464.32	1123.35
464.692	1124.93
465.065	1095.1
465.438	1103.01
465.81	1125.38
466.183	1100.75
466.555	1123.8
466.928	1144.59
467.3	1149.33
467.672	1182.55
468.045	1180.97
468.417	1247.41
468.789	1219.84
469.161	1242.89
469.534	1235.89
469.906	1263.68
470.278	1251.25
470.65	1224.13
471.022	1302.78
471.394	1274.75
471.766	1254.19
472.138	1254.64
472.51	1284.92
472.882	1324.47
473.253	1372.38
473.625	1374.41
473.997	1396.11
474.369	1412.15
474.74	1471.13
475.112	1437.01
475.484	1447.41
475.855	1468.87
476.227	1464.13
476.598	1453.96
476.97	1473.62
477.341	1480.62
477.713	1487.63
478.084	1496.44
478.455	1540.51
478.827	1600.85
479.198	1620.51
479.569	1657.34
479.94	1692.37
480.311	1717.23
480.682	1769.66
481.053	1781.86
481.424	1758.81
481.795	1756.78
482.166	1752.48
482.537	1755.42
482.908	1797
483.279	1808.07
483.65	1845.36
484.021	1866.6
484.391	1916.32
484.762	1949.09
485.133	1992.48
485.503	2039.03
485.874	2091.46
486.244	2107.73
486.615	2128.07
486.985	2126.26
487.356	2149.31
487.726	2174.62
488.097	2145.24
488.467	2150.44
488.837	2128.52
489.207	2198.8
489.578	2200.15
489.948	2283.09
490.318	2284.22
490.688	2353.14
491.058	2409.41
491.428	2471.33
491.798	2514.72
492.168	2586.58
492.538	2545.68
492.908	2589.07
493.278	2575.06
493.648	2554.72
494.017	2559.47
494.387	2537.32
494.757	2569.41
495.126	2502.97
495.496	2593.36
495.866	2603.31
496.235	2641.72
496.605	2682.63
496.974	2714.04
497.344	2853.47
497.713	2841.04
498.082	2884.88
498.452	2891.66
498.821	2885.56
499.19	2895.5
499.559	2907.48
499.928	2898.21
500.298	2851.89
500.667	2819.57
501.036	2865.67
501.405	2823.64
501.774	2863.19
502.143	2881.94
502.512	2901.83
502.88	2982.28
503.249	3003.3
503.618	3058.89
503.987	3104.09
504.356	3112.67
504.724	3131.43
505.093	3137.53
505.462	3126.91
505.83	3106.57
506.199	3046.23
506.567	3064.54
506.936	3050.08
507.304	3025.67
507.672	3019.12
508.041	3061.6
508.409	3103.86
508.777	3078.55
509.145	3152.45
509.514	3176.63
509.882	3206
510.25	3238.77
510.618	3344.08
510.986	3367.35
511.354	3378.65
511.722	3358.77
512.09	3420.23
512.458	3308.37
512.826	3285.1
513.193	3213.46
513.561	3200.58
513.929	3182.73
514.297	3180.92
514.664	3193.57
515.032	3253.23
515.4	3314.47
515.767	3310.41
516.135	3356.96
516.502	3370.74
516.869	3446.45
517.237	3483.74
517.604	3523.96
517.972	3547.92
518.339	3534.81
518.706	3503.85
519.073	3489.61
519.44	3463.62
519.808	3392.67
520.175	3367.13
520.542	3351.99
520.909	3360.8
521.276	3324.42
521.643	3370.52
522.009	3409.84
522.376	3517.63
522.743	3514.7
523.11	3670.4
523.477	3646.67
523.843	3745.2
524.21	3780
524.577	3766.89
524.943	3775.25
525.31	3807.12
525.676	3792.88
526.043	3818.87
526.409	3707.46
526.776	3708.59
527.142	3678.99
527.508	3665.2
527.874	3669.95
528.241	3679.89
528.607	3697.06
528.973	3759.66
529.339	3842.82
529.705	3951.52
530.071	4034.46
530.437	4130.72
530.803	4138.18
531.169	4181.8
531.535	4243.72
531.901	4240.33
532.267	4296.14
532.632	4239.42
532.998	4213.89
533.364	4194.23
533.73	4164.17
534.095	4136.6
534.461	4126.66
534.826	4084.17
535.192	4098.64
535.557	4158.29
535.923	4158.29
536.288	4247.11
536.653	4324.17
537.019	4364.39
537.384	4480.09
537.749	4607.77
538.114	4616.81
538.479	4635.34
538.845	4706.3
539.21	4717.15
539.575	4737.04
539.94	4703.59
540.305	4662.91
540.67	4578.17
541.034	4546.98
541.399	4573.2
541.764	4526.19
542.129	4530.49
542.494	4492.3
542.858	4502.01
543.223	4591.96
543.587	4653.87
543.952	4740.65
544.316	4763.48
544.681	4794.44
545.045	5041.21
545.41	4991.72
545.774	5115.56
546.138	5115.11
546.503	5164.82
546.867	5149.23
547.231	5136.57
547.595	5069.68
547.959	5085.5
548.324	4970.25
548.688	4933.87
549.052	4887.77
549.416	4829.92
549.779	4799.41
550.143	4830.82
550.507	4850.48
550.871	4868.78
551.235	4908.78
551.599	4974.54
551.962	5083.24
552.326	5164.82
552.689	5234.2
553.053	5286.17
553.417	5336.79
553.78	5391.26
554.143	5413.4
554.507	5411.37
554.87	5356
555.234	5369.56
555.597	5233.52
555.96	5185.84
556.323	5122.56
556.686	5074.43
557.05	5091.6
557.413	5061.32
557.776	5013.41
558.139	5079.17
558.502	5040.08
558.865	5130.02
559.228	5200.98
559.59	5299.06
559.953	5336.57
560.316	5485.72
560.679	5582.44
561.041	5627.41
561.404	5703.11
561.767	5746.05
562.129	5697.69
562.492	5783.79
562.854	5722.77
563.217	5625.15
563.579	5601.42
563.941	5534.98
564.304	5492.5
564.666	5443.01
565.028	5428.77
565.39	5396.23
565.753	5367.53
566.115	5358.72
566.477	5435.32
566.839	5425.38
567.201	5519.61
567.563	5577.69
567.925	5758.03
568.287	5779.27
568.648	5863.33
569.01	6022.65
569.372	6069.88
569.734	6148.07
570.095	6186.26
570.457	6161.41
570.819	6169.54
571.18	6179.48
571.542	6132.03
571.903	6083.22
572.265	6080.05
572.626	5945.37
572.987	5905.37
573.349	5865.59
573.71	5857.01
574.071	5861.53
574.432	5894.75
574.794	6025.14
575.155	6028.75
575.516	6187.85
575.877	6294.96
576.238	6397.78
576.599	6557.55
576.96	6748.06
577.32	6892.01
577.681	6988.73
578.042	7169.97
578.403	7259.23
578.763	7400.7
579.124	7419
579.485	7473.24
579.845	7578.54
580.206	7590.75
580.566	7583.06
580.927	7714.36
581.287	7818.31
581.648	7858.54
582.008	8028.7
582.368	8142.82
582.728	8383.49
583.089	8504.62
583.449	8781.45
583.809	9136.02
584.169	9387.08
584.529	9756.57
584.889	10140.51
585.249	10506.15
585.609	10860.72
585.969	11288.5
586.329	11623.86
586.688	12127.8
587.048	12388.36
587.408	12845.98
587.768	13200.32
588.127	13520.99
588.487	13826.06
588.846	14266.96
589.206	14476.22
589.565	14643.89
589.925	15106.26
590.284	15476.19
590.643	15808.16
591.003	16268.03
591.362	16590.28
591.721	17010.61
592.08	17454.22
592.44	18061.21
592.799	18586.84
593.158	19004.23
593.517	19542.52
593.876	20188.38
594.235	20624.53
594.593	21248.92
594.952	21788.57
595.311	22180.19
595.67	22717.58
596.029	23367.51
596.387	23810.66
596.746	24291.78
597.104	24466.91
597.463	24939.67
597.822	25430.73
598.18	25722.47
598.538	25945.52
598.897	26473.64
599.255	26608.55
599.613	27292.15
599.972	27394.29
600.33	27918.57
600.688	28121.51
601.046	28582.96
601.404	29146.11
601.762	29572.32
602.12	30090.95
602.478	30506.08
602.836	31170.01
603.194	31332.95
603.552	31928.41
603.91	32201.4
604.268	32742.85
604.625	33110.08
604.983	33592.1
605.341	33743.28
605.698	34307.33
606.056	34618.74
606.413	34759.52
606.771	35134.2
607.128	35426.62
607.485	35410.35
607.843	35578.26
608.2	35972.6
608.557	36163.1
608.914	36226.38
609.272	36596.54
609.629	36918.34
609.986	37166.24
610.343	37246.92
610.7	37828.14
611.057	37970.96
611.414	38173.9
611.771	38584.28
612.127	39006.64
612.484	39116.02
612.841	39480.08
613.198	39626.29
613.554	40026.5
613.911	40404.57
614.267	40456.1
614.624	40649.09
614.98	40923.88
615.337	41233.7
615.693	41299.46
616.05	41402.74
616.406	41688.16
616.762	41592.56
617.118	41638.44
617.475	41626.91
617.831	41779.9
618.187	41822.16
618.543	41952.33
618.899	41996.4
619.255	42097.41
619.611	42174.7
619.967	42419.44
620.323	42584.85
620.678	42531.75
621.034	42670.05
621.39	42861.91
621.746	42916.6
622.101	43517.03
622.457	43316.59
622.812	43574.89
623.168	43720.19
623.523	43892.62
623.879	44150.01
624.234	43990.02
624.589	44249.44
624.945	44220.97
625.3	44510.68
625.655	44402.66
626.01	44346.16
626.365	44464.35
626.72	44246.05
627.075	44297.13
627.43	44162.89
627.785	44114.08
628.14	44131.48
628.495	44093.29
628.85	43943.01
629.205	43964.93
629.559	44257.58
629.914	44042.67
630.269	44144.81
630.623	44030.24
630.978	44197.02
631.332	44418.48
631.687	44298.71
632.041	44331.48
632.396	44550.9
632.75	44520.4
633.104	44607.63
633.459	44590
633.813	44662.31
634.167	44730.34
634.521	44824.8
634.875	44872.25
635.229	44655.53
635.583	44510
635.937	44613.28
636.291	44482.43
636.645	44498.02
636.999	44335.32
637.352	44374.64
637.706	44071.82
638.06	44105.04
638.413	44061.65
638.767	43925.84
639.121	43893.75
639.474	43676.58
639.828	43550.25
640.181	43704.6
640.534	43693.98
640.888	43548.22
641.241	43572.4
641.594	43755.67
641.947	43673.19
642.301	43651.04
642.654	43934.42
643.007	43989.11
643.36	43953.41
643.713	43963.12
644.066	44111.37
644.419	44037.47
644.771	43890.36
645.124	43302.12
645.477	43354.33
645.83	42956.37
646.182	42937.39
646.535	42793.89
646.888	42739.88
647.24	42510.51
647.593	42719.31
647.945	42510.73
648.298	42317.74
648.65	42170.85
649.002	41793.92
649.355	42077.3
649.707	41802.5
650.059	41847.47
650.411	42275.71
650.763	42435.93
651.115	42854.45
651.467	42749.37
651.819	42691.97
652.171	42546.66
652.523	42655.59
652.875	42721.8
653.227	42531.97
653.578	43028.68
653.93	42909.59
654.282	42942.59
654.633	42934.45
654.985	43075.24
655.337	43112.07
655.688	43064.62
656.039	43289.47
656.391	42922.02
656.742	43082.69
657.094	42853.55
657.445	43061.9
657.796	42889.48
658.147	42756.83
658.498	42681.58
658.849	42632.54
659.2	42482.48
659.551	42278.42
659.902	42344.64
660.253	42205.2
660.604	42169.72
660.955	42026.23
661.306	42141.93
661.656	42021.71
662.007	41934.93
662.358	42033
662.708	41986.45
663.059	42004.76
663.409	41781.94
663.76	42209.95
664.11	42167.69
664.461	42345.09
664.811	42530.17
665.161	42371.08
665.511	42392.77
665.862	42480.22
666.212	42542.37
666.562	42705.53
666.912	42524.97
667.262	42461.24
667.612	42539.88
667.962	42561.35
668.312	42365.2
668.662	42511.64
669.011	42335.14
669.361	42287.01
669.711	42068.48
670.06	41942.39
670.41	41837.53
670.76	41732.45
671.109	41797.53
671.459	41597.31
671.808	41466.24
672.157	41535.16
672.507	41109.64
672.856	41197.09
673.205	41248.39
673.554	41276.87
673.904	41168.17
674.253	41578.1
674.602	41423.08
674.951	40960.49
675.3	40712.81
675.649	41417.43
675.998	41468.95
676.346	41528.61
676.695	41678.66
677.044	41452
677.393	41680.02
677.741	41634.6
678.09	41628.95
678.438	41468.5
678.787	41666.01
679.135	41675.95
679.484	41448.84
679.832	41469.86
680.181	41268.96
680.529	41313.93
680.877	41161.16
681.225	41086.82
681.573	41237.77
681.922	40782.42
682.27	40665.36
682.618	40610.67
682.966	40473.72
683.314	40521.18
683.661	40259.27
684.009	40066.28
684.357	39944.7
684.705	39970.23
685.053	39807.3
685.4	39833.29
685.748	39597.36
686.095	39661.77
686.443	39588.78
686.79	39658.6
687.138	39765.04
687.485	39715.55
687.832	39646.63
688.18	39885.72
688.527	39566.86
688.874	39718.72
689.221	39662.45
689.568	39698.83
689.915	39690.92
690.262	39579.74
690.609	39565.95
690.956	39462.9
691.303	39594.2
691.65	39197.83
691.997	39224.04
692.344	38961.9
692.69	38926.87
693.037	38795.12
693.383	38443.72
693.73	38620.44
694.077	38073.11
694.423	38126.67
694.769	38042.15
695.116	38004.64
695.462	37788.14
695.808	37540.24
696.155	37447.59
696.501	37206.47
696.847	37222.51
697.193	36865.46
697.539	36905.91
697.885	36803.99
698.231	36771.45
698.577	36876.08
698.923	36816.64
699.269	36631.57
699.614	36573.71
699.96	36445.58
700.306	36695.29
700.651	36491.23
700.997	36533.04
701.342	36469.54
701.688	36482.42
702.033	36346.37
702.379	36388.86
702.724	36466.6
703.069	36394.51
703.415	36073.84
703.76	36100.96
704.105	36001.3
704.45	35961.07
704.795	35704.81
705.14	35609.9
705.485	35602.67
705.83	35359.51
706.175	35287.19
706.52	35087.88
706.865	34950.25
707.209	34831.16
707.554	34651.73
707.899	34669.81
708.243	34392.98
708.588	34147.11
708.932	33997.96
709.277	33971.75
709.621	33976.49
709.966	33730.85
710.31	33739.21
710.654	33470.97
710.998	33462.61
711.342	33609.5
711.687	33548.03
712.031	33466.9
712.375	33437.98
712.719	33480.24
713.063	33548.48
713.407	33661.47
713.75	33461.25
714.094	33472.1
714.438	33447.92
714.782	33497.41
715.125	33558.88
715.469	33578.99
715.812	33228.26
716.156	33249.06
716.499	33330.41
716.843	33417.41
717.186	33048.38
717.53	33270.07
717.873	33094.48
718.216	33043.41
718.559	32950.76
718.902	32628.28
719.246	32600.03
719.589	32474.39
719.932	32296.31
720.275	32100.38
720.617	32172.02
720.96	31903.1
721.303	31907.4
721.646	31828.75
721.989	31624.69
722.331	31735.2
722.674	31621.75
723.016	31476.22
723.359	31461.98
723.701	31486.84
724.044	31258.37
724.386	31316
724.729	31343.79
725.071	31201.2
725.413	31171.37
725.755	31366.39
726.097	31287.52
726.439	31168.66
726.782	31295.89
727.124	31407.52
727.465	31156
727.807	31269.45
728.149	31127.75
728.491	31064.93
728.833	31341.08
729.175	31157.36
729.516	31086.17
729.858	31123.69
730.199	31195.1
730.541	30970.24
730.882	30894.77
731.224	30965.73
731.565	30630.59
731.906	30769.8
732.248	30725.73
732.589	30445.06
732.93	30430.82
733.271	30368
733.612	30209.81
733.953	30095.92
734.294	29992.87
734.635	29919.88
734.976	29916.94
735.317	29853.44
735.658	29704.52
735.999	29632.88
736.339	29501.81
736.68	29693.44
737.021	29459.1
737.361	29399.44
737.702	29497.29
738.042	29398.76
738.383	29342.72
738.723	29457.97
739.063	29359.89
739.404	29545.2
739.744	29417.07
740.084	29272.21
740.424	29530.51
740.764	29355.37
741.104	29587.23
741.444	29505.2
741.784	29286.45
742.124	29433.11
742.464	29330.29
742.804	29410.06
743.143	29366.67
743.483	29398.31
743.823	29286
744.162	29358.54
744.502	29240.12
744.841	29114.93
745.181	29161.7
745.52	29031.76
745.86	29106.79
746.199	28878.32
746.538	28938.89
746.877	28926.23
747.216	28696.86
747.556	28564.21
747.895	28497.99
748.234	28352.46
748.573	28328.28
748.911	28050.77
749.25	28122.86
749.589	27984.33
749.928	27963.09
750.267	27928.07
750.605	27738.01
750.944	27769.43
751.283	27642.87
751.621	27626.83
751.96	27419.83
752.298	27426.38
752.636	27364.92
752.975	27289.66
753.313	27307.29
753.651	27388.19
753.989	27285.37
754.327	27294.41
754.666	27281.75
755.004	27268.42
755.342	27389.77
755.679	27284.69
756.017	27253.96
756.355	27315.2
756.693	27242.66
757.031	27330.34
757.368	27186.62
757.706	27136.45
758.044	27065.49
758.381	27101.42
758.719	26978.26
759.056	26917.24
759.394	26761.54
759.731	26667.31
760.068	26670.25
760.405	26471.61
760.743	26337.6
761.08	26451.95
761.417	26201.56
761.754	26146.87
762.091	25995.46
762.428	25812.41
762.765	25673.89
763.102	25734.22
763.438	25436.61
763.775	25363.84
764.112	25253.11
764.449	25282.48
764.785	25102.83
765.122	25005.43
765.458	24859.45
765.795	24868.26
766.131	24814.7
766.467	24654.7
766.804	24536.29
767.14	24471.66
767.476	24510.75
767.812	24405.9
768.148	24442.06
768.485	24371.77
768.821	24202.97
769.157	24235.73
769.492	24255.62
769.828	24045.91
770.164	24024.89
770.5	24023.76
770.836	24130.65
771.171	23953.71
771.507	23939.02
771.842	23816.31
772.178	23764.11
772.513	23818.57
772.849	23711
773.184	23553.72
773.519	23536.09
773.855	23526.15
774.19	23378.13
774.525	23336.77
774.86	23295.87
775.195	23130
775.53	23017.91
775.865	22915.32
776.2	22595.55
776.535	22614.76
776.87	22544.93
777.205	22382.9
777.539	22221.1
777.874	22254.77
778.209	21953.53
778.543	21967.09
778.878	21780.43
779.212	21692.3
779.547	21591.96
779.881	21538.63
780.215	21269.94
780.55	21406.65
780.884	21175.47
781.218	21164.18
781.552	21184.74
781.886	21082.37
782.22	20949.72
782.554	20881.24
782.888	20714.7
783.222	20715.83
783.556	20639.67
783.889	20688.26
784.223	20555.15
784.557	20549.73
784.89	20512.44
785.224	20479
785.557	20362.39
785.891	20354.7
786.224	20453.46
786.558	20251.66
786.891	20201.94
787.224	20187.93
787.557	20192.22
787.891	20085.33
788.224	20049.4
788.557	20150.42
788.89	19981.38
789.223	20068.61
789.556	19898.45
789.888	19827.04
790.221	19754.27
790.554	19584.33
790.887	19591.56
791.219	19498.46
791.552	19437.44
791.884	19321.51
792.217	19283.09
792.549	19183.44
792.882	18947.96
793.214	18848.3
793.546	18782.09
793.879	18746.16
794.211	18503
794.543	18663.68
794.875	18496
795.207	18507.97
795.539	18324.7
795.871	18381.65
796.203	18170.81
796.535	18063.92
796.867	18035.9
797.198	17935.56
797.53	17858.27
797.862	17763.59
798.193	17844.49
798.525	17688.56
798.856	17740.08
799.188	17447.44
799.519	17526.08
799.85	17362.24
800.182	17438.4
800.513	17432.3
800.844	17336.03
801.175	17442.01
801.506	17396.14
801.837	17408.34
802.168	17421.22
802.499	17393.43
802.83	17238.85
803.161	17263.26
803.491	17209.02
803.822	17197.27
804.153	17198.18
804.483	17012.65
804.814	17126.77
805.145	17039.76
805.475	17079.08
805.805	16946.66
806.136	16948.24
806.466	16986.88
806.796	16913.67
807.126	16785.53
807.457	16671.19
807.787	16689.49
808.117	16614.24
808.447	16545.54
808.777	16509.83
809.107	16311.42
809.436	16318.65
809.766	16296.96
810.096	16199.79
810.426	16042.28
810.755	16133.35
811.085	15988.27
811.414	15927.7
811.744	15847.93
812.073	15834.15
812.403	15707.37
812.732	15629.86
813.061	15674.83
813.39	15482.29
813.719	15459.01
814.049	15500.6
814.378	15424.67
814.707	15429.41
815.036	15353.25
815.365	15308.51
815.693	15108.74
816.022	15163.65
816.351	15153.03
816.68	15102.41
817.008	15207.72
817.337	14986.71
817.665	15005.92
817.994	15169.76
818.322	15062.19
818.651	14999.59
818.979	15001.85
819.307	15091.11
819.636	15037.1
819.964	14962.98
820.292	14993.72
820.62	14998.01
820.948	14975.41
821.276	15047.5
821.604	14968.41
821.932	14939.03
822.259	14979.48
822.587	15017.9
822.915	14952.14
823.243	15027.16
823.57	14938.8
823.898	15069.87
824.225	14968.86
824.553	14998.01
824.88	14929.54
825.207	14936.09
825.535	14825.81
825.862	14985.35
826.189	14858.58
826.516	14940.16
826.843	14946.49
827.17	14895.41
827.497	14763.21
827.824	14793.04
828.151	14827.84
828.478	14716.44
828.805	14652.03
829.131	14671.46
829.458	14580.17
829.785	14598.25
830.111	14589.43
830.438	14654.29
830.764	14611.58
831.09	14622.65
831.417	14417.69
831.743	14625.59
832.069	14592.82
832.395	14438.25
832.722	14519.38
833.048	14422.88
833.374	14498.81
833.7	14398.7
834.026	14480.51
834.351	14482.99
834.677	14517.34
835.003	14441.87
835.329	14454.97
835.654	14453.62
835.98	14396.9
836.306	14526.16
836.631	14432.37
836.956	14499.94
837.282	14508.76
837.607	14461.07
837.932	14413.39
838.258	14479.38
838.583	14400.74
838.908	14351.7
839.233	14467.4
839.558	14466.27
839.883	14389.21
840.208	14344.92
840.533	14343.56
840.858	14297.01
841.182	14352.83
841.507	14284.81
841.832	14169.33
842.156	14240.29
842.481	14115.77
842.805	14137.02
843.13	14133.63
843.454	14043.68
843.778	14118.03
844.103	14002.78
844.427	13915.78
844.751	13916.68
845.075	13841.66
845.399	13831.94
845.723	13716.91
846.047	13636.46
846.371	13557.37
846.695	13556.69
847.019	13309.01
847.343	13337.04
847.666	13233.76
847.99	13125.97
848.313	13216.14
848.637	12986.31
848.96	13009.59
849.284	12982.7
849.607	12828.12
849.931	12816.15
850.254	12768.01
850.577	12718.97
850.9	12611.63
851.223	12544.51
851.546	12595.81
851.869	12473.56
852.192	12563.5
852.515	12415.25
852.838	12342.26
853.161	12469.71
853.483	12332.54
853.806	12267.91
854.129	12299.1
854.451	12263.39
854.774	12253.9
855.096	12169.61
855.419	12227.23
855.741	12185.2
856.063	12120.12
856.385	12207.8
856.708	12103.62
857.03	12054.36
857.352	11991.53
857.674	12068.6
857.996	12041.93
858.318	11970.52
858.64	11886.45
858.961	11914.02
859.283	11907.47
859.605	11850.75
859.926	11890.07
860.248	11842.16
860.57	11776.4
860.891	11818.21
861.212	11725.55
861.534	11620.47
861.855	11675.16
862.176	11721.03
862.498	11602.39
862.819	11656.18
863.14	11482.85
863.461	11470.42
863.782	11444.43
864.103	11480.14
864.424	11356.3
864.745	11384.77
865.065	11353.59
865.386	11218
865.707	11218.67
866.027	11183.42
866.348	11086.47
866.668	11089.41
866.989	11042.86
867.309	10990.21
867.63	10998.34
867.95	11021.62
868.27	10917.66
868.59	10941.17
868.91	10911.11
869.23	10801.96
869.55	10768.97
869.87	10850.32
870.19	10926.25
870.51	10800.15
870.83	10892.58
871.15	10765.35
871.469	10759.7
871.789	10804.22
872.109	10730.55
872.428	10722.42
872.748	10816.2
873.067	10754.73
873.386	10735.97
873.706	10746.37
874.025	10785.69
874.344	10757.67
874.663	10799.48
874.982	10824.56
875.301	10793.15
875.62	10709.53
875.939	10740.72
876.258	10764.45
876.577	10753.15
876.896	10703.66
877.214	10675.41
877.533	10757.67
877.852	10599.71
878.17	10658.24
878.489	10660.27
878.807	10676.54
879.125	10628.41
879.444	10665.69
879.762	10522.42
880.08	10601.97
880.398	10437.68
880.716	10535.98
881.034	10477.22
881.352	10449.88
881.67	10467.28
881.988	10494.17
882.306	10377.79
882.624	10302.54
882.941	10250.34
883.259	10248.98
883.577	10222.77
883.894	10187.29
884.212	10158.81
884.529	10146.16
884.846	10099.16
885.164	10015.99
885.481	10035.2
885.798	10006.95
886.115	10016.9
886.432	9904.81
886.75	9911.14
887.067	9888.77
887.383	9819.61
887.7	9791.82
888.017	9788.2
888.334	9704.59
888.651	9721.76
888.967	9738.71
889.284	9620.75
889.6	9566.51
889.917	9579.17
890.233	9507.08
890.55	9515.44
890.866	9567.42
891.182	9474.76
891.498	9442.68
891.815	9425.73
892.131	9399.51
892.447	9410.13
892.763	9339.4
893.079	9335.79
893.395	9309.35
893.71	9325.84
894.026	9370.36
894.342	9381.21
894.657	9305.05
894.973	9240.65
895.289	9285.39
895.604	9217.37
895.92	9170.59
896.235	9185.06
896.55	9214.88
896.865	9157.71
897.181	9159.75
897.496	9193.42
897.811	9106.64
898.126	9146.64
898.441	9092.18
898.756	9077.49
899.071	8981.67
899.386	9013.08
899.7	8951.61
900.015	8870.26
900.33	8830.49
900.644	8821.9
900.959	8779.19
901.273	8783.03
901.588	8746.87
901.902	8689.93
902.216	8644.73
902.531	8638.85
902.845	8596.37
903.159	8541.23
903.473	8506.65
903.787	8455.58
904.101	8386.21
904.415	8426.66
904.729	8344.63
905.042	8290.39
905.356	8312.54
905.67	8194.8
905.984	8230.28
906.297	8112.77
906.611	8106.21
906.924	8032.99
907.237	7987.12
907.551	7996.61
907.864	7923.17
908.177	7874.13
908.491	7834.36
908.804	7878.87
909.117	7745.77
909.43	7726.34
909.743	7640.46
910.056	7701.03
910.368	7675.49
910.681	7604.08
910.994	7594.36
911.307	7563.18
911.619	7490.64
911.932	7509.39
912.244	7464.87
912.557	7445.89
912.869	7442.95
913.181	7429.85
913.494	7367.93
913.806	7264.65
914.118	7326.35
914.43	7217.65
914.742	7223.75
915.054	7199.8
915.366	7249.96
915.678	7169.06
915.99	7190.76
916.302	7173.13
916.613	7158.44
916.925	7185.33
917.236	7134.94
917.548	7068.05
917.859	7080.03
918.171	7008.84
918.482	7021.27
918.794	6975.17
919.105	6924.32
919.416	6969.29
919.727	6994.15
920.038	6918
920.349	6854.27
920.66	6858.34
920.971	6810.2
921.282	6821.73
921.593	6724.55
921.903	6736.08
922.214	6739.02
922.525	6614.95
922.835	6599.13
923.146	6610.43
923.456	6564.11
923.767	6570.66
924.077	6538.8
924.387	6491.57
924.697	6488.4
925.008	6397.56
925.318	6341.29
925.628	6397.11
925.938	6343.32
926.248	6292.25
926.558	6261.52
926.867	6190.11
927.177	6170.45
927.487	6141.97
927.796	6122.54
928.106	6055.87
928.416	6034.63
928.725	6005.25
929.034	5984.91
929.344	6006.83
929.653	5972.71
929.962	5845.03
930.271	5826.95
930.581	5819.49
930.89	5823.34
931.199	5723
931.508	5736.78
931.817	5732.04
932.125	5742.43
932.434	5719.16
932.743	5590.8
933.051	5648.88
933.36	5584.02
933.669	5559.61
933.977	5580.18
934.286	5548.54
934.594	5594.64
934.902	5480.75
935.21	5432.39
935.519	5448.2
935.827	5436.23
936.135	5397.58
936.443	5341.31
936.751	5388.09
937.059	5377.92
937.367	5341.77
937.674	5361.65
937.982	5277.14
938.29	5300.64
938.597	5245.05
938.905	5231.49
939.213	5206.63
939.52	5235.33
939.827	5271.26
940.135	5203.01
940.442	5165.95
940.749	5155.56
941.056	5148.1
941.363	5151.26
941.67	5090.02
941.977	5101.77
942.284	5067.88
942.591	5065.39
942.898	4998.27
943.205	5016.13
943.511	4977.71
943.818	4988.56
944.125	4985.62
944.431	4927.99
944.738	4966.63
945.044	4894.77
945.35	4849.58
945.657	4848.22
945.963	4824.27
946.269	4820.88
946.575	4795.79
946.881	4755.12
947.187	4758.96
947.493	4747.43
947.799	4721.9
948.105	4668.56
948.41	4584.27
948.716	4580.88
949.022	4549.7
949.327	4537.49
949.633	4533.65
949.938	4501.79
950.244	4487.55
950.549	4430.38
950.854	4416.37
951.16	4386.76
951.465	4407.33
951.77	4333.88
952.075	4312.41
952.38	4299.08
952.685	4328.46
952.99	4214.34
953.294	4277.39
953.599	4256.6
953.904	4179.31
954.209	4170.72
954.513	4205.75
954.818	4152.65
955.122	4113.32
955.426	4099.31
955.731	4112.87
956.035	4036.72
956.339	4052.99
956.643	4062.7
956.948	3999.65
957.252	4019.99
957.556	3979.09
957.86	3941.13
958.163	3979.09
958.467	3953.55
958.771	3919.66
959.075	3919.2
959.378	3862.48
959.682	3916.72
959.985	3891.41
960.289	3871.52
960.592	3881.69
960.896	3843.95
961.199	3857.29
961.502	3829.94
961.805	3812.32
962.108	3772.32
962.411	3792.43
962.714	3779.1
963.017	3754.24
963.32	3777.06
963.623	3750.4
963.926	3712.43
964.228	3695.71
964.531	3700
964.833	3678.76
965.136	3668.82
965.438	3653.45
965.741	3656.16
966.043	3635.37
966.345	3654.35
966.648	3597.41
966.95	3613.45
967.252	3594.69
967.554	3594.02
967.856	3546.33
968.158	3561.7
968.46	3552.43
968.761	3478.31
969.063	3453
969.365	3461.82
969.666	3480.12
969.968	3420.01
970.269	3375.94
970.571	3387.24
970.872	3382.04
971.174	3351.54
971.475	3339.79
971.776	3347.47
972.077	3291.65
972.378	3302.5
972.679	3257.75
972.98	3252.33
973.281	3227.92
973.582	3217.3
973.883	3207.59
974.183	3195.16
974.484	3193.35
974.785	3167.81
975.085	3154.71
975.386	3133.69
975.686	3122.39
975.986	3096.18
976.287	3076.52
976.587	3055.72
976.887	3018.66
977.187	3057.31
977.487	3015.05
977.787	3048.49
978.087	2983.86
978.387	3002.17
978.687	2966.91
978.987	2940.7
979.286	2932.56
979.586	2912.9
979.885	2903.41
980.185	2857.54
980.484	2879.91
980.784	2879.23
981.083	2862.74
981.382	2829.74
981.682	2795.17
981.981	2775.05
982.28	2797.88
982.579	2759.46
982.878	2778.9
983.177	2761.27
983.475	2754.49
983.774	2758.11
984.073	2749.74
984.372	2717.2
984.67	2724.66
984.969	2749.07
985.267	2698.9
985.566	2717.43
985.864	2678.33
986.162	2693.02
986.461	2674.94
986.759	2633.59
987.057	2621.39
987.355	2613.48
987.653	2613.48
987.951	2573.93
988.249	2607.37
988.547	2581.61
988.844	2595.4
989.142	2554.95
989.44	2537.09
989.737	2536.87
990.035	2529.18
990.332	2554.95
990.63	2528.51
990.927	2502.29
991.224	2489.86
991.521	2485.12
991.819	2450.77
992.116	2452.8
992.413	2445.35
992.71	2450.99
993.006	2419.81
993.303	2407.15
993.6	2437.21
993.897	2414.39
994.193	2387.04
994.49	2376.87
994.787	2357.21
995.083	2355.4
995.379	2381.17
995.676	2349.75
995.972	2320.15
996.268	2299.81
996.565	2311.79
996.861	2232.92
997.157	2253.26
997.453	2240.6
997.749	2240.83
998.044	2239.48
998.34	2215.97
998.636	2182.53
998.932	2213.71
999.227	2141.62
999.523	2149.53
999.818	2161.51
1000.114	2132.13
1000.409	2124.22
1000.704	2108.18
1001	2094.17
1001.295	2090.55
1001.59	2071.34
1001.885	2030.89
1002.18	2039.48
1002.475	2017.11
1002.77	2059.14
1003.065	2013.49
1003.359	1991.35
1003.654	1992.25
1003.949	1973.04
1004.243	1974.4
1004.538	1914.74
1004.832	1957.67
1005.127	1911.35
1005.421	1921.74
1005.715	1895.3
1006.009	1921.29
1006.304	1894.4
1006.598	1854.85
1006.892	1864.8
1007.186	1858.02
1007.48	1851.69
1007.773	1856.43
1008.067	1847.39
1008.361	1818.7
1008.655	1803.33
1008.948	1798.81
1009.242	1787.28
1009.535	1793.61
1009.829	1781.18
1010.122	1787.96
1010.415	1738.92
1010.708	1757.45
1011.001	1747.06
1011.295	1740.51
1011.588	1736.21
1011.881	1715.87
1012.173	1726.49
1012.466	1691.69
1012.759	1691.47
1013.052	1676.1
1013.344	1676.78
1013.637	1659.38
1013.93	1670.45
1014.222	1649.43
1014.514	1622.77
1014.807	1617.57
1015.099	1620.06
1015.391	1597.46
1015.683	1626.84
1015.976	1581.64
1016.268	1597.68
1016.56	1591.58
1016.851	1579.15
1017.143	1547.29
1017.435	1600.17
1017.727	1545.48
1018.018	1557.01
1018.31	1531.25
1018.602	1506.84
1018.893	1489.44
1019.185	1513.17
1019.476	1495.77
1019.767	1480.17
1020.058	1475.2
1020.35	1438.82
1020.641	1427.97
1020.932	1420.51
1021.223	1409.67
1021.514	1439.5
1021.804	1412.83
1022.095	1419.38
1022.386	1388.42
1022.677	1375.09
1022.967	1378.03
1023.258	1355.66
1023.548	1375.09
1023.839	1365.83
1024.129	1314.08
1024.419	1334.41
1024.709	1294.64
1025	1313.17
1025.29	1297.8
1025.58	1270.01
1025.87	1242.21
1026.16	1250.35
1026.449	1264.59
1026.739	1271.82
1027.029	1234.08
1027.319	1204.93
1027.608	1212.38
1027.898	1206.06
1028.187	1230.69
1028.477	1220.52
1028.766	1199.95
1029.055	1184.81
1029.344	1185.72
1029.634	1144.59
1029.923	1166.51
1030.212	1131.26
1030.501	1123.57
1030.79	1110.47
1031.078	1132.84
1031.367	1111.82
1031.656	1091.48
1031.945	1101.65
1032.233	1102.78
1032.522	1069.79
1032.81	1072.5
1033.099	1074.53
1033.387	1077.02
1033.675	1077.47
1033.963	1041.54
1034.251	1060.75
1034.54	1023.69
1034.828	1019.17
1035.116	1015.33
1035.403	1017.59
1035.691	1008.32
1035.979	1016.23
1036.267	1001.32
1036.554	1005.84
1036.842	986.85
1037.129	977.14
1037.417	975.55
1037.704	997.93
1037.992	959.96
1038.279	949.11
1038.566	957.7
1038.853	957.7
1039.14	957.7
