Data from red_cardboard_box_FLMS001491_00066.txt Node
Date: Wed Feb 08 11:32:56 GMT 2017
User: dcchb
Spectrometer: FLMS00149
Trigger mode: 0
Integration Time (sec): 2.000000E-2
Scans to average: 10
Electric dark correction enabled: true
Nonlinearity correction enabled: false
Boxcar width: 0
XAxis mode: Wavelengths
Number of Pixels in Spectrum: 2048
>>>>>Begin Spectral Data<<<<<
341.393	-14.8
341.776	-14.8
342.16	-14.8
342.543	-58.42
342.927	-76.72
343.31	-57.29
343.693	-89.38
344.077	-50.73
344.46	-57.06
344.843	-55.25
345.226	-34.46
345.61	-35.14
345.993	-32.2
346.376	14.58
346.759	7.57
347.142	25.88
347.525	49.83
347.908	55.03
348.291	80.56
348.674	67.91
349.057	110.17
349.44	110.39
349.823	120.11
350.206	163.27
350.588	167.11
350.971	207.57
351.354	233.1
351.737	238.52
352.119	248.69
352.502	282.14
352.884	284.85
353.267	280.78
353.65	265.19
354.032	316.49
354.414	291.4
354.797	288.47
355.179	333.21
355.562	324.62
355.944	328.47
356.326	347.45
356.709	332.99
357.091	344.28
357.473	337.51
357.855	329.82
358.238	338.18
358.62	336.38
359.002	344.06
359.384	316.04
359.766	346.32
360.148	342.93
360.53	315.36
360.912	320.56
361.294	314.68
361.676	330.27
362.057	313.33
362.439	324.85
362.821	338.18
363.203	320.56
363.584	330.73
363.966	319.65
364.348	327.79
364.729	329.14
365.111	308.81
365.493	311.29
365.874	299.09
366.256	310.39
366.637	320.56
367.019	321.01
367.4	325.53
367.781	312.65
368.163	325.3
368.544	311.52
368.925	313.78
369.306	334.34
369.688	317.39
370.069	320.78
370.45	320.78
370.831	311.52
371.212	317.39
371.593	298.18
371.974	299.99
372.355	309.03
372.736	305.42
373.117	320.1
373.498	299.09
373.879	307
374.26	324.62
374.641	316.04
375.021	330.95
375.402	310.61
375.783	318.75
376.163	325.08
376.544	321.91
376.925	323.49
377.305	314.23
377.686	319.88
378.066	335.7
378.447	333.66
378.827	309.48
379.208	322.14
379.588	326.88
379.968	314.46
380.349	315.13
380.729	309.26
381.109	335.25
381.489	334.57
381.87	318.52
382.25	339.09
382.63	336.15
383.01	338.18
383.39	338.41
383.77	331.18
384.15	318.97
384.53	327.11
384.91	335.25
385.29	340.44
385.67	337.96
386.049	336.83
386.429	330.73
386.809	349.71
387.189	334.79
387.568	341.57
387.948	353.78
388.328	347
388.707	320.56
389.087	332.08
389.466	364.62
389.846	349.71
390.225	358.07
390.605	365.3
390.984	338.64
391.363	344.96
391.743	375.7
392.122	357.84
392.501	349.48
392.881	338.41
393.26	361.01
393.639	359.88
394.018	356.04
394.397	344.51
394.776	356.71
395.155	338.41
395.534	361.23
395.913	328.47
396.292	368.69
396.671	356.49
397.05	360.78
397.429	368.69
397.808	358.75
398.186	362.59
398.565	353.1
398.944	372.08
399.323	358.52
399.701	358.3
400.08	349.26
400.458	357.17
400.837	366.88
401.215	382.02
401.594	371.4
401.972	382.25
402.351	378.63
402.729	377.05
403.107	398.07
403.486	375.02
403.864	383.61
404.242	379.31
404.62	370.5
404.999	379.76
405.377	400.1
405.755	386.77
406.133	390.84
406.511	395.81
406.889	387
407.267	384.28
407.645	392.19
408.023	394.23
408.401	396.94
408.779	385.87
409.156	414.34
409.534	410.05
409.912	415.02
410.29	398.97
410.667	401.01
411.045	412.31
411.422	403.94
411.8	422.93
412.178	399.2
412.555	431.74
412.933	401.23
413.31	416.37
413.687	434.68
414.065	417.96
414.442	422.25
414.819	445.75
415.197	446.2
415.574	418.18
415.951	412.08
416.328	436.49
416.705	441.46
417.082	428.8
417.46	455.69
417.837	418.86
418.214	443.04
418.591	446.88
418.967	450.5
419.344	454.11
419.721	445.98
420.098	434.45
420.475	451.85
420.852	451.17
421.228	471.74
421.605	443.72
421.982	481.46
422.358	466.32
422.735	447.33
423.111	458.86
423.488	488.24
423.864	495.24
424.241	456.6
424.617	463.83
424.994	483.26
425.37	469.93
425.746	458.41
426.123	474.45
426.499	482.81
426.875	511.74
427.251	501.57
427.627	498.18
428.003	506.99
428.379	501.79
428.756	481.23
429.132	506.77
429.507	514.45
429.883	496.15
430.259	514.68
430.635	501.12
431.011	519.65
431.387	504.73
431.763	526.2
432.138	525.97
432.514	544.05
432.89	529.59
433.265	547.9
433.641	535.24
434.016	542.7
434.392	543.38
434.767	557.39
435.143	546.31
435.518	580.21
435.894	574.34
436.269	569.59
436.644	577.72
437.02	573.66
437.395	557.39
437.77	563.94
438.145	580.66
438.52	585.86
438.895	572.75
439.271	571.62
439.646	594.67
440.021	597.61
440.395	604.16
440.77	581.57
441.145	589.02
441.52	599.42
441.895	615.24
442.27	599.19
442.645	600.1
443.019	607.78
443.394	589.25
443.769	622.02
444.143	618.4
444.518	600.32
444.892	638.74
445.267	626.99
445.641	643.49
446.016	616.59
446.39	615.69
446.764	628.57
447.139	623.37
447.513	651.17
447.887	663.15
448.262	608.23
448.636	635.35
449.01	613.66
449.384	642.13
449.758	632.41
450.132	640.55
450.506	661.79
450.88	664.5
451.254	654.56
451.628	667.44
452.002	684.39
452.376	671.73
452.75	689.81
453.123	676.03
453.497	685.52
453.871	700.66
454.244	698.17
454.618	684.61
454.992	690.49
455.365	695.46
455.739	721.45
456.112	698.85
456.486	733.65
456.859	722.13
457.232	726.42
457.606	717.16
457.979	719.64
458.352	726.42
458.725	757.61
459.099	750.15
459.472	759.64
459.845	776.59
460.218	770.04
460.591	779.98
460.964	774.33
461.337	790.15
461.71	795.57
462.083	797.15
462.456	772.75
462.829	795.8
463.201	804.16
463.574	796.25
463.947	819.98
464.32	809.13
464.692	839.86
465.065	839.41
465.438	843.25
465.81	862.46
466.183	863.82
466.555	867.21
466.928	872.41
467.3	863.37
467.672	884.61
468.045	883.48
468.417	890.26
468.789	911.05
469.161	897.94
469.534	909.47
469.906	929.81
470.278	933.87
470.65	962.35
471.022	927.55
471.394	964.61
471.766	950.37
472.138	967.77
472.51	991.05
472.882	997.6
473.253	1001.44
473.625	1022.01
473.997	1031.27
474.369	1024.49
474.74	1062.01
475.112	1045.28
475.484	1062.01
475.855	1083.02
476.227	1081.67
476.598	1100.65
476.97	1110.14
477.341	1098.62
477.713	1155.34
478.084	1134.09
478.455	1164.38
478.827	1180.87
479.198	1179.52
479.569	1215.67
479.94	1267.42
480.311	1232.4
480.682	1267.88
481.053	1267.88
481.424	1301.32
481.795	1318.04
482.166	1305.39
482.537	1323.24
482.908	1348.78
483.279	1371.6
483.65	1352.62
484.021	1428.78
484.391	1415.22
484.762	1439.17
485.133	1441.66
485.503	1457.7
485.874	1486.85
486.244	1506.74
486.615	1499.73
486.985	1514.2
487.356	1533.63
487.726	1558.49
488.097	1575.21
488.467	1613.4
488.837	1608.21
489.207	1646.4
489.578	1671.48
489.948	1668.09
490.318	1700.18
490.688	1688.66
491.058	1711.48
491.428	1770.46
491.798	1783.34
492.168	1758.94
492.538	1795.77
492.908	1793.96
493.278	1819.27
493.648	1828.09
494.017	1837.35
494.387	1839.39
494.757	1860.18
495.126	1874.41
495.496	1900.18
495.866	1937.46
496.235	1942.43
496.605	1962.1
496.974	1973.62
497.344	1962.55
497.713	1964.81
498.082	2004.13
498.452	2035.09
498.821	2030.57
499.19	2031.92
499.559	2061.98
499.928	2078.25
500.298	2099.27
500.667	2083
501.036	2108.53
501.405	2114.41
501.774	2131.13
502.143	2169.32
502.512	2155.99
502.88	2207.74
503.249	2170.68
503.618	2193.95
503.987	2205.93
504.356	2217
504.724	2199.6
505.093	2232.6
505.462	2249.09
505.83	2264.69
506.199	2295.19
506.567	2341.75
506.936	2313.72
507.304	2357.57
507.672	2340.84
508.041	2375.19
508.409	2374.51
508.777	2385.14
509.145	2424.23
509.514	2393.27
509.882	2422.2
510.25	2440.27
510.618	2443.66
510.986	2487.73
511.354	2490.67
511.722	2510.56
512.09	2539.93
512.458	2526.15
512.826	2578.58
513.193	2550.33
513.561	2609.99
513.929	2625.35
514.297	2643.66
514.664	2662.42
515.032	2654.51
515.4	2673.72
515.767	2706.26
516.135	2732.47
516.502	2714.17
516.869	2780.83
517.237	2791.9
517.604	2742.64
517.972	2805.24
518.339	2843.43
518.706	2832.13
519.073	2853.15
519.44	2880.94
519.808	2906.48
520.175	2900.38
520.542	2943.31
520.909	2937.89
521.276	2974.27
521.643	3000.26
522.009	3037.77
522.376	3088.85
522.743	3089.52
523.11	3083.87
523.477	3125.91
523.843	3122.97
524.21	3173.36
524.577	3152.12
524.943	3199.35
525.31	3164.78
525.676	3272.12
526.043	3287.94
526.409	3315.05
526.776	3311.44
527.142	3325
527.508	3357.99
527.874	3387.14
528.241	3385.79
528.607	3372.91
528.973	3451.77
529.339	3449.06
529.705	3486.8
530.071	3500.81
530.437	3520.92
530.803	3576.06
531.169	3579.45
531.535	3590.3
531.901	3622.39
532.267	3655.84
532.632	3664.88
532.998	3681.6
533.364	3682.5
533.73	3706.68
534.095	3736.29
534.461	3767.25
534.826	3822.61
535.192	3775.15
535.557	3852.44
535.923	3840.46
536.288	3863.51
536.653	3873.68
537.019	3873.23
537.384	3868.26
537.749	3925.66
538.114	3958.88
538.479	3897.19
538.845	3971.08
539.21	3945.55
539.575	3991.87
539.94	3997.75
540.305	4039.55
540.67	4047.69
541.034	4097.41
541.399	4073
541.764	4126.56
542.129	4158.42
542.494	4152.32
542.858	4176.73
543.223	4183.28
543.587	4172.66
543.952	4215.14
544.316	4264.86
544.681	4229.83
545.045	4286.1
545.41	4325.42
545.774	4336.5
546.138	4364.29
546.503	4317.51
546.867	4379.66
547.231	4388.7
547.595	4452.88
547.959	4388.92
548.324	4462.59
548.688	4503.5
549.052	4488.13
549.416	4506.89
549.779	4505.31
550.143	4502.37
550.507	4590.27
550.871	4564.29
551.235	4637.96
551.599	4645.19
551.962	4731.51
552.326	4683.38
552.689	4742.14
553.053	4762.7
553.417	4767.67
553.78	4786.2
554.143	4823.26
554.507	4889.93
554.87	4952.75
555.234	4933.99
555.597	4937.38
555.96	4992.52
556.323	4979.42
556.686	4985.07
557.05	5051.28
557.413	5054.22
557.776	5141.45
558.139	5199.52
558.502	5207.21
558.865	5218.51
559.228	5317.71
559.59	5313.87
559.953	5339.41
560.316	5440.87
560.679	5427.77
561.041	5493.98
561.404	5542.57
561.767	5634.32
562.129	5615.11
562.492	5654.65
562.854	5693.52
563.217	5665.73
563.579	5732.17
563.941	5818.49
564.304	5847.64
564.666	5919.96
565.028	5989.79
565.39	6025.27
565.753	6051.71
566.115	6122.66
566.477	6183.91
566.839	6276.11
567.201	6295.09
567.563	6380.28
567.925	6415.31
568.287	6424.8
568.648	6474.75
569.01	6548.42
569.372	6615.76
569.734	6630.22
570.095	6672.71
570.457	6750.44
570.819	6870.21
571.18	6914.96
571.542	6970.33
571.903	7027.27
572.265	7022.75
572.626	7136.65
572.987	7196.99
573.349	7291.9
573.71	7316.53
574.071	7384.1
574.432	7479.01
574.794	7547.94
575.155	7559.69
575.516	7620.25
575.877	7816.63
576.238	7885.33
576.599	7934.14
576.96	7948.83
577.32	8111.99
577.681	8163.74
578.042	8253.68
578.403	8338.65
578.763	8371.64
579.124	8514.47
579.485	8606.44
579.845	8685.99
580.206	8834.68
580.566	8937.96
580.927	9004.62
581.287	9119.42
581.648	9218.63
582.008	9341.11
582.368	9414.78
582.728	9596.47
583.089	9730.48
583.449	9881.89
583.809	9955.56
584.169	10110.13
584.529	10195.55
584.889	10500.18
585.249	10558.03
585.609	10676.22
585.969	10942.2
586.329	10930.45
586.688	11185.13
587.048	11360.04
587.408	11497.21
587.768	11725.91
588.127	11877.77
588.487	12035.95
588.846	12334.03
589.206	12503.06
589.565	12677.97
589.925	12954.8
590.284	13237.28
590.643	13351.4
591.003	13649.47
591.362	13883.59
591.721	14118.61
592.08	14293.75
592.44	14653.51
592.799	14872.72
593.158	15098.7
593.517	15456.88
593.876	15712.92
594.235	15973.7
594.593	16210.53
594.952	16640.58
595.311	16792.21
595.67	17182.49
596.029	17587
596.387	17852.07
596.746	18254.55
597.104	18487.31
597.463	18737.7
597.822	19160.74
598.18	19301.3
598.538	19741.29
598.897	20193.25
599.255	20423.76
599.613	20985.32
599.972	21166.11
600.33	21562.03
600.688	21765.42
601.046	22190.49
601.404	22619.63
601.762	22927.65
602.12	23296.45
602.478	23712.03
602.836	23887.39
603.194	24284.9
603.552	24605.57
603.91	24801.49
604.268	25344.31
604.625	25650.29
604.983	26052.54
605.341	26191.51
605.698	26590.37
606.056	27067.65
606.413	27292.95
606.771	27714.19
607.128	27965.93
607.485	28150.79
607.843	28453.6
608.2	28901.95
608.557	29296.29
608.914	29436.18
609.272	29943.05
609.629	30155.25
609.986	30559.99
610.343	30555.92
610.7	31153.19
611.057	31328.33
611.414	31554.31
611.771	31793.63
612.127	32231.81
612.484	32336.89
612.841	32693.26
613.198	32748.18
613.554	33032.69
613.911	33462.51
614.267	33600.81
614.624	33666.57
614.98	33963.51
615.337	34266.1
615.693	34384.97
616.05	34616.38
616.406	35073.54
616.762	35028.57
617.118	35251.16
617.475	35391.27
617.831	35770.92
618.187	35819.51
618.543	36167.07
618.899	36478.02
619.255	36523.22
619.611	36529.1
619.967	36890.22
620.323	36998.01
620.678	37041.85
621.034	37197.33
621.39	37335.63
621.746	37356.64
622.101	37831.89
622.457	37693.59
622.812	37879.79
623.168	38125.44
623.523	38229.16
623.879	38420.35
624.234	38188.49
624.589	38490.63
624.945	38535.6
625.3	38732.43
625.655	38877.73
626.01	38878.19
626.365	38888.58
626.72	39004.74
627.075	39147.78
627.43	39179.87
627.785	39072.76
628.14	39418.29
628.495	39263.26
628.85	39312.53
629.205	39404.95
629.559	39799.29
629.914	39636.36
630.269	39811.72
630.623	39676.81
630.978	39661.44
631.332	40012.85
631.687	39958.61
632.041	39976.46
632.396	40070.02
632.75	39990.7
633.104	40026.18
633.459	39928.1
633.813	40030.47
634.167	40078.16
634.521	40104.6
634.875	40297.36
635.229	40259.39
635.583	40064.14
635.937	40140.07
636.291	39968.78
636.645	40175.33
636.999	40224.14
637.352	40227.08
637.706	40134.2
638.06	40080.19
638.413	40077.93
638.767	40154.99
639.121	40258.26
639.474	40153.63
639.828	40175.1
640.181	40309.56
640.534	40342.33
640.888	40246.96
641.241	40091.49
641.594	40249.22
641.947	40424.13
642.301	40273.86
642.654	40379.62
643.007	40354.08
643.36	40220.52
643.713	40336
644.066	40428.65
644.419	39994.32
644.771	39871.83
645.124	39556.59
645.477	39499.41
645.83	39202.7
646.182	39187.11
646.535	39178.52
646.888	39381.45
647.24	39214.9
647.593	39434.1
647.945	39387.1
648.298	39223.94
648.65	39138.74
649.002	39039.54
649.355	39277.05
649.707	39184.85
650.059	39446.76
650.411	39670.93
650.763	39865.05
651.115	40257.81
651.467	40112.5
651.819	40234.31
652.171	40123.35
652.523	39976.69
652.875	39994.54
653.227	39966.29
653.578	40326.74
653.93	40175.78
654.282	40033.18
654.633	39929.46
654.985	39866.64
655.337	39984.6
655.688	39980.53
656.039	40017.82
656.391	39912.28
656.742	39922.91
657.094	40006.74
657.445	40005.16
657.796	39918.84
658.147	39984.15
658.498	39958.61
658.849	39936.24
659.2	39880.87
659.551	39808.56
659.902	39941.21
660.253	39937.14
660.604	40007.2
660.955	39801.1
661.306	39935.33
661.656	39872.74
662.007	39930.59
662.358	39849.69
662.708	39903.47
663.059	39903.7
663.409	39676.58
663.76	39969.23
664.11	39965.84
664.461	40009.46
664.811	39929.01
665.161	39825.96
665.511	39719.97
665.862	39951.83
666.212	40038.61
666.562	39923.58
666.912	39838.61
667.262	39889.01
667.612	39862.79
667.962	39888.33
668.312	39797.48
668.662	39986.63
669.011	40046.29
669.361	39867.09
669.711	39840.42
670.06	39807.43
670.41	39716.36
670.76	39676.81
671.109	39781.44
671.459	39904.6
671.808	39820.08
672.157	39772.63
672.507	39647.21
672.856	39565.63
673.205	39581.9
673.554	39829.12
673.904	39629.81
674.253	39782.12
674.602	39625.74
674.951	39074.11
675.3	38999.31
675.649	39710.03
675.998	39492.41
676.346	39521.11
676.695	39563.37
677.044	39417.16
677.393	39518.17
677.741	39400.66
678.09	39422.35
678.438	39533.76
678.787	39418.29
679.135	39445.4
679.484	39051.97
679.832	39272.75
680.181	39212.19
680.529	39409.02
680.877	39109.37
681.225	39051.29
681.573	39280.21
681.922	39089.48
682.27	38950.28
682.618	39009.26
682.966	38778.08
683.314	38916.15
683.661	38797.74
684.009	38773.78
684.357	38573.11
684.705	38574.47
685.053	38647.68
685.4	38482.49
685.748	38460.57
686.095	38332.66
686.443	38103.74
686.79	38089.28
687.138	38263.29
687.485	38251.99
687.832	38023.29
688.18	38237.53
688.527	37972.45
688.874	37860.13
689.221	37686.58
689.568	37534.72
689.915	37589.63
690.262	37614.04
690.609	37585.79
690.956	37379.47
691.303	37301.51
691.65	37065.81
691.997	37159.14
692.344	37029.87
692.69	36957.11
693.037	36911.23
693.383	36721.18
693.73	36858.58
694.077	36826.04
694.423	36687.51
694.769	36503.11
695.116	36532.71
695.462	36624.01
695.808	36383.56
696.155	36392.83
696.501	36126.39
696.847	36253.4
697.193	35774.09
697.539	36004.14
697.885	35783.13
698.231	35658.61
698.577	35717.82
698.923	35704.03
699.269	35376.36
699.614	35240.77
699.96	35259.98
700.306	35266.08
700.651	35201.45
700.997	35029.93
701.342	34896.14
701.688	34933.43
702.033	34745.87
702.379	34661.8
702.724	34657.51
703.069	34655.02
703.415	34294.8
703.76	34328.25
704.105	34298.19
704.45	34275.14
704.795	34038.77
705.14	33982.04
705.485	34054.81
705.83	33768.26
706.175	33912.89
706.52	33795.61
706.865	33669.74
707.209	33640.81
707.554	33623.18
707.899	33632.9
708.243	33316.98
708.588	33333.25
708.932	33070.43
709.277	33241.5
709.621	33101.16
709.966	32890.55
710.31	32967.83
710.654	32807.61
710.998	32836.09
711.342	32886.48
711.687	32791.57
712.031	32659.59
712.375	32534.85
712.719	32674.51
713.063	32447.17
713.407	32637.9
713.75	32453.72
714.094	32354.97
714.438	32190.23
714.782	32237.68
715.125	32100.51
715.469	32015.54
715.812	31930.12
716.156	31781.42
716.499	31862.33
716.843	31836.79
717.186	31671.6
717.53	31792.5
717.873	31796.79
718.216	31741.65
718.559	31508.44
718.902	31384.37
719.246	31469.12
719.589	31296.01
719.932	31320.19
720.275	31255.56
720.617	31275
720.96	31053.53
721.303	31131.05
721.646	31189.12
721.989	30898.74
722.331	31109.58
722.674	30962.69
723.016	31069.13
723.359	30898.28
723.701	30968.11
724.044	30731.73
724.386	30486.99
724.729	30701
725.071	30682.24
725.413	30617.61
725.755	30513.43
726.097	30440.44
726.439	30357.73
726.782	30369.26
727.124	30382.82
727.465	30260.79
727.807	30293.55
728.149	30213.56
728.491	30101.24
728.833	30157.96
729.175	29986.9
729.516	29986.67
729.858	30007.01
730.199	30110.28
730.541	29929.5
730.882	29999.78
731.224	30021.7
731.565	29762.04
731.906	29787.58
732.248	29825.09
732.589	29757.07
732.93	29549.39
733.271	29571.54
733.612	29483.86
733.953	29536.29
734.294	29490.64
734.635	29418.1
734.976	29434.82
735.317	29292.45
735.658	29321.83
735.999	29235.28
736.339	29172.45
736.68	29168.16
737.021	29201.15
737.361	29139.01
737.702	29271.43
738.042	29070.08
738.383	29016.98
738.723	29077.54
739.063	28919.13
739.404	28982.4
739.744	28932.91
740.084	28908.05
740.424	28788.73
740.764	28814.04
741.104	28929.52
741.444	28718.68
741.784	28559.14
742.124	28788.06
742.464	28629.42
742.804	28629.42
743.143	28526.14
743.483	28439.14
743.823	28447.73
744.162	28438.91
744.502	28398.91
744.841	28356.2
745.181	28488.4
745.52	28277.56
745.86	28344.45
746.199	28260.39
746.538	28147.4
746.877	28281.86
747.216	28237.34
747.556	28151.24
747.895	28157.56
748.234	28123.89
748.573	28036.44
748.911	28066.95
749.25	28036.21
749.589	27845.03
749.928	27916.67
750.267	27922.09
750.605	27911.24
750.944	27783.56
751.283	27557.13
751.621	27761.42
751.96	27575.66
752.298	27565.04
752.636	27556.9
752.975	27345.83
753.313	27311.26
753.651	27438.94
753.989	27289.56
754.327	27250.47
754.666	27076.69
755.004	27089.12
755.342	27189.68
755.679	26982.23
756.017	26934.32
756.355	26983.36
756.693	26830.37
757.031	27107.65
757.368	26721.67
757.706	26777.71
758.044	26696.81
758.381	26700.43
758.719	26490.26
759.056	26588.79
759.394	26501.34
759.731	26329.36
760.068	26260.67
760.405	26102.03
760.743	26089.82
761.08	26177.73
761.417	25999.88
761.754	26015.7
762.091	25999.43
762.428	25881.47
762.765	25688.03
763.102	25754.69
763.438	25641.02
763.775	25543.4
764.112	25642.6
764.449	25557.41
764.785	25378.65
765.122	25259.11
765.458	25172.56
765.795	25097.98
766.131	25134.14
766.467	25054.14
766.804	24918.33
767.14	24751.78
767.476	24832.23
767.812	24711.33
768.148	24565.12
768.485	24429.75
768.821	24359.02
769.157	24299.81
769.492	24259.36
769.828	24286.25
770.164	24156.99
770.5	24030.67
770.836	24171.91
771.171	23898.02
771.507	23873.61
771.842	23695.54
772.178	23752.26
772.513	23646.5
772.849	23561.08
773.184	23407.63
773.519	23580.51
773.855	23380.06
774.19	23232.5
774.525	23150.46
774.86	23135.1
775.195	23080.41
775.53	23040.64
775.865	22864.14
776.2	22605.62
776.535	22543.48
776.87	22633.42
777.205	22471.61
777.539	22433.65
777.874	22469.35
778.209	22291.28
778.543	22239.3
778.878	22017.61
779.212	22104.16
779.547	21878.41
779.881	21968.35
780.215	21752.31
780.55	21895.58
780.884	21686.1
781.218	21728.81
781.552	21610.84
781.886	21526.78
782.22	21415.82
782.554	21382.6
782.888	21168.14
783.222	20977.64
783.556	20918.43
783.889	20993.69
784.223	20789.62
784.557	20775.16
784.89	20914.59
785.224	20741.04
785.557	20582.4
785.891	20619.91
786.224	20472.34
786.558	20498.33
786.891	20287.94
787.224	20140.83
787.557	20178.57
787.891	20149.41
788.224	20021.73
788.557	20046.82
788.89	19926.59
789.223	19922.3
789.556	19800.27
789.888	19748.97
790.221	19705.36
790.554	19530.45
790.887	19578.58
791.219	19444.8
791.552	19448.87
791.884	19376.1
792.217	19226.05
792.549	19241.19
792.882	19101.08
793.214	19036.67
793.546	19007.97
793.879	18882.1
794.211	18795.1
794.543	18880.07
794.875	18757.59
795.207	18860.18
795.539	18705.16
795.871	18737.25
796.203	18605.95
796.535	18509.23
796.867	18400.08
797.198	18354.21
797.53	18340.2
797.862	18330.7
798.193	18248.45
798.525	18090.48
798.856	18171.84
799.188	17953.31
799.519	17885.52
799.85	17857.72
800.182	17892.07
800.513	17856.59
800.844	17721.91
801.175	17753.77
801.506	17745.18
801.837	17598.97
802.168	17559.43
802.499	17600.33
802.83	17435.81
803.161	17363.95
803.491	17333.89
803.822	17476.72
804.153	17221.13
804.483	17067.91
804.814	17101.81
805.145	17060
805.475	17090.51
805.805	16888.71
806.136	16878.31
806.466	16899.33
806.796	16868.37
807.126	16694.59
807.457	16700.24
807.787	16794.02
808.117	16628.83
808.447	16556.74
808.777	16509.51
809.107	16481.26
809.436	16449.62
809.766	16456.18
810.096	16349.74
810.426	16360.36
810.755	16317.88
811.085	16303.41
811.414	16273.81
811.744	16113.59
812.073	16111.78
812.403	16158.33
812.732	15966.02
813.061	16044.44
813.39	16013.93
813.719	15821.84
814.049	15955.17
814.378	15861.84
814.707	15770.09
815.036	15766.93
815.365	15736.65
815.693	15509.76
816.022	15508.41
816.351	15593.83
816.68	15392.93
817.008	15547.95
817.337	15325.59
817.665	15426.6
817.994	15459.82
818.322	15382.31
818.651	15288.3
818.979	15269.09
819.307	15289.88
819.636	15218.24
819.964	15094.86
820.292	15165.14
820.62	15182.54
820.948	15097.34
821.276	15162.65
821.604	15133.73
821.932	15131.92
822.259	15160.39
822.587	15014.18
822.915	14927.4
823.243	15016.44
823.57	15020.06
823.898	15084.01
824.225	15007.63
824.553	14957.01
824.88	15083.56
825.207	15051.24
825.535	15069.55
825.862	15050.34
826.189	15012.83
826.516	15018.93
826.843	15036.33
827.17	15029.32
827.497	15106.83
827.824	15008.76
828.151	15064.58
828.478	15013.5
828.805	15086.04
829.131	14944.8
829.458	15021.41
829.785	14912.26
830.111	14968.31
830.438	15049.21
830.764	14975.76
831.09	14978.25
831.417	14859.84
831.743	15004.92
832.069	14964.01
832.395	14881.53
832.722	14903.45
833.048	14914.07
833.374	14972.6
833.7	14909.78
834.026	14826.62
834.351	14841.3
834.677	14843.56
835.003	14883.11
835.329	14856.9
835.654	14851.7
835.98	14771.02
836.306	14822.1
836.631	14748.2
836.956	14794.3
837.282	14709.1
837.607	14759.5
837.932	14644.7
838.258	14618.26
838.583	14624.14
838.908	14551.59
839.233	14623.91
839.558	14516.57
839.883	14475.66
840.208	14511.82
840.533	14520.86
840.858	14489.9
841.182	14384.37
841.507	14427.3
841.832	14305.27
842.156	14263.92
842.481	14386.63
842.805	14281.55
843.13	14272.05
843.454	14229.12
843.778	14156.8
844.103	14133.07
844.427	14129.23
844.751	14076.35
845.075	14055.56
845.399	13962.46
845.723	13949.12
846.047	13895.57
846.371	13859.64
846.695	13751.84
847.019	13671.84
847.343	13647.44
847.666	13598.4
847.99	13490.38
848.313	13605.4
848.637	13454.45
848.96	13430.72
849.284	13374.22
849.607	13254.23
849.931	13286.54
850.254	13125.42
850.577	13128.81
850.9	13026.89
851.223	13047.91
851.546	12955.48
851.869	12837.97
852.192	12943.5
852.515	12894.46
852.838	12852.2
853.161	12809.95
853.483	12702.6
853.806	12654.24
854.129	12667.58
854.451	12538.99
854.774	12530.86
855.096	12430.52
855.419	12507.13
855.741	12468.03
856.063	12392.78
856.385	12316.63
856.708	12269.39
857.03	12215.61
857.352	12250.64
857.674	12275.95
857.996	12180.13
858.318	12087.48
858.64	12071.66
858.961	12055.16
859.283	12000.48
859.605	12002.28
859.926	11991.66
860.248	11969.06
860.57	11924.77
860.891	11897.88
861.212	11793.02
861.534	11842.29
861.855	11841.38
862.176	11781.95
862.498	11784.21
862.819	11771.33
863.14	11649.52
863.461	11664.89
863.782	11597.1
864.103	11589.64
864.424	11542.18
864.745	11534.72
865.065	11583.09
865.386	11499.7
865.707	11486.14
866.027	11555.97
866.348	11446.14
866.668	11438.91
866.989	11446.59
867.309	11346.26
867.63	11318.23
867.95	11337.22
868.27	11284.79
868.59	11359.36
868.91	11323.88
869.23	11214.73
869.55	11247.73
869.87	11268.29
870.19	11235.3
870.51	11221.74
870.83	11234.17
871.15	11151.91
871.469	11227.84
871.789	11186.49
872.109	11113.95
872.428	11076.21
872.748	11127.05
873.067	11055.87
873.386	11081.86
873.706	11082.31
874.025	11013.83
874.344	11034.17
874.663	10972.71
874.982	10965.02
875.301	11005.7
875.62	10960.05
875.939	10912.37
876.258	10932.93
876.577	10881.86
876.896	10901.75
877.214	10854.97
877.533	10828.3
877.852	10814.29
878.17	10796.21
878.489	10801.18
878.807	10765.03
879.125	10819.04
879.444	10706.27
879.762	10768.19
880.08	10746.5
880.398	10746.5
880.716	10640.51
881.034	10587.63
881.352	10612.26
881.67	10522.77
881.988	10639.16
882.306	10612.49
882.624	10552.83
882.941	10481.65
883.259	10489.55
883.577	10427.64
883.894	10367.3
884.212	10389.9
884.529	10416.56
884.846	10370.46
885.164	10380.18
885.481	10367.98
885.798	10345.83
886.115	10200.07
886.432	10210.24
886.75	10172.27
887.067	10194.65
887.383	10170.92
887.7	10178.38
888.017	10088.44
888.334	10095.44
888.651	10013.86
888.967	10146.96
889.284	9930.25
889.6	9965.05
889.917	9871.94
890.233	9941.77
890.55	9896.58
890.866	9848.67
891.182	9785.17
891.498	9799.63
891.815	9768.22
892.131	9730.93
892.447	9720.99
892.763	9706.52
893.079	9675.34
893.395	9622.68
893.71	9596.02
894.026	9635.34
894.342	9513.31
894.657	9471.05
894.973	9510.6
895.289	9451.39
895.604	9440.54
895.92	9303.37
896.235	9353.54
896.55	9332.07
896.865	9378.4
897.181	9226.99
897.496	9261.34
897.811	9217.05
898.126	9168.69
898.441	9104.51
898.756	9178.4
899.071	9021.57
899.386	9041.91
899.7	8987.9
900.015	8970.05
900.33	8888.01
900.644	8882.14
900.959	8899.31
901.273	8875.13
901.588	8790.84
901.902	8791.52
902.216	8774.8
902.531	8732.09
902.845	8727.57
903.159	8668.81
903.473	8611.19
903.787	8616.16
904.101	8498.65
904.415	8552.2
904.729	8562.37
905.042	8507.69
905.356	8515.82
905.67	8504.75
905.984	8468.14
906.297	8390.85
906.611	8239.44
906.924	8274.92
907.237	8306.34
907.551	8222.95
907.864	8165.77
908.177	8170.29
908.491	8190.41
908.804	8114.7
909.117	8091.43
909.43	8039.45
909.743	7987.7
910.056	7998.09
910.368	8020.24
910.681	7901.37
910.994	7874.71
911.307	7821.38
911.619	7811.66
911.932	7770.98
912.244	7732.34
912.557	7685.79
912.869	7637.43
913.181	7657.31
913.494	7587.03
913.806	7625.22
914.118	7517.88
914.43	7470.65
914.742	7486.92
915.054	7430.65
915.366	7445.57
915.678	7414.83
915.99	7368.51
916.302	7381.39
916.613	7295.51
916.925	7324.67
917.236	7299.81
917.548	7240.83
917.859	7208.74
918.171	7173.03
918.482	7114.05
918.794	7087.38
919.105	7111.56
919.416	7010.1
919.727	7062.07
920.038	6959.25
920.349	6946.37
920.66	6928.52
920.971	6899.82
921.282	6883.1
921.593	6863.44
921.903	6783.89
922.214	6757.45
922.525	6771.91
922.835	6696.43
923.146	6690.78
923.456	6596.32
923.767	6608.07
924.077	6648.53
924.387	6565.14
924.697	6536.44
925.008	6531.47
925.318	6499.83
925.628	6465.48
925.938	6462.99
926.248	6378.93
926.558	6360.4
926.867	6309.33
927.177	6332.83
927.487	6304.13
927.796	6207.86
928.106	6210.8
928.416	6218.93
928.725	6194.3
929.034	6171.02
929.344	6166.28
929.653	6139.16
929.962	6101.2
930.271	6046.96
930.581	5983.23
930.89	5969.67
931.199	5952.72
931.508	5985.49
931.817	5953.18
932.125	5896.91
932.434	5952.27
932.743	5840.41
933.051	5818.27
933.36	5830.02
933.669	5791.37
933.977	5718.61
934.286	5731.04
934.594	5666.4
934.902	5675.22
935.21	5619.85
935.519	5661.66
935.827	5633.19
936.135	5549.35
936.443	5559.97
936.751	5557.48
937.059	5505.73
937.367	5418.95
937.674	5475.45
937.982	5476.58
938.29	5461.44
938.597	5437.71
938.905	5403.36
939.213	5333.31
939.52	5363.14
939.827	5253.53
940.135	5264.16
940.442	5236.13
940.749	5205.4
941.056	5211.05
941.363	5180.99
941.67	5187.55
941.977	5131.5
942.284	5096.48
942.591	5123.37
942.898	5092.18
943.205	5055.12
943.511	5023.71
943.818	4996.14
944.125	4980.1
944.431	4982.58
944.738	4971.73
945.044	4935.8
945.35	4898.97
945.657	4855.35
945.963	4886.31
946.269	4859.87
946.575	4830.72
946.881	4804.28
947.187	4797.05
947.493	4762.93
947.799	4747.56
948.105	4722.93
948.41	4716.83
948.716	4721.57
949.022	4633.89
949.327	4611.29
949.633	4652.42
949.938	4624.62
950.244	4607.9
950.549	4537.39
950.854	4510.05
951.16	4556.6
951.465	4477.06
951.77	4506.89
952.075	4453.56
952.38	4451.07
952.685	4449.26
952.99	4417.62
953.294	4326.33
953.599	4387.79
953.904	4349.6
954.209	4295.37
954.513	4278.42
954.818	4284.52
955.122	4247.91
955.426	4274.35
955.731	4214.01
956.035	4243.17
956.339	4205.88
956.643	4187.57
956.948	4166.33
957.252	4143.73
957.556	4147.8
957.86	4113.45
958.163	4118.42
958.467	4111.42
958.771	4053.11
959.075	4055.15
959.378	4013.57
959.682	4018.09
959.985	3997.07
960.289	3976.28
960.592	3949.39
960.896	3919.11
961.199	3875.04
961.502	3860.12
961.805	3871.88
962.108	3867.81
962.411	3870.97
962.714	3844.53
963.017	3826
963.32	3828.71
963.623	3787.36
963.926	3770.41
964.228	3743.97
964.531	3724.08
964.833	3760.69
965.136	3726.12
965.438	3684.54
965.741	3662.16
966.043	3639.79
966.345	3600.47
966.648	3646.12
966.95	3623.07
967.252	3599.34
967.554	3575.16
967.856	3528.38
968.158	3536.29
968.46	3551.66
968.761	3480.02
969.063	3508.95
969.365	3486.12
969.666	3468.5
969.968	3429.18
970.269	3440.93
970.571	3439.34
970.872	3397.54
971.174	3376.97
971.475	3387.14
971.776	3357.76
972.077	3375.39
972.378	3303.3
972.679	3328.61
972.98	3317.31
973.281	3295.85
973.582	3273.02
973.883	3241.16
974.183	3221.05
974.484	3219.46
974.785	3222.63
975.085	3223.76
975.386	3187.6
975.686	3188.73
975.986	3169.52
976.287	3133.14
976.587	3119.13
976.887	3080.94
977.187	3091.11
977.487	3091.78
977.787	3036.87
978.087	3057.66
978.387	3066.02
978.687	3014.27
978.987	3034.16
979.286	3006.14
979.586	3025.57
979.885	2987.15
980.185	2922.3
980.484	2907.16
980.784	2951.9
981.083	2915.29
981.382	2901.51
981.682	2895.63
981.981	2880.49
982.28	2891.56
982.579	2840.04
982.878	2876.42
983.177	2806.59
983.475	2816.54
983.774	2815.18
984.073	2796.88
984.372	2787.38
984.67	2806.14
984.969	2737.44
985.267	2758.23
985.566	2708.52
985.864	2713.71
986.162	2707.16
986.461	2685.92
986.759	2696.09
987.057	2647.95
987.355	2661.51
987.653	2626.03
987.951	2630.55
988.249	2633.26
988.547	2593.27
988.844	2598.24
989.142	2611.34
989.44	2605.92
989.737	2544.9
990.035	2560.27
990.332	2556.43
990.63	2551.46
990.927	2525.7
991.224	2497
991.521	2488.18
991.819	2513.95
992.116	2460.84
992.413	2475.98
992.71	2447.73
993.006	2441.86
993.303	2470.78
993.6	2426.94
993.897	2370.9
994.193	2411.58
994.49	2380.62
994.787	2398.24
995.083	2392.37
995.379	2377.45
995.676	2305.59
995.972	2310.79
996.268	2321.63
996.565	2316.21
996.861	2297
997.157	2282.09
997.453	2267.62
997.749	2259.04
998.044	2218.13
998.34	2224.46
998.636	2239.83
998.932	2215.42
999.227	2209.77
999.523	2219.49
999.818	2175.87
1000.114	2167.06
1000.409	2120.06
1000.704	2124.12
1001	2118.02
1001.295	2100.85
1001.59	2079.15
1001.885	2097.46
1002.18	2085.26
1002.475	2069.21
1002.77	2072.83
1003.065	2089.1
1003.359	2005.94
1003.654	2033.05
1003.949	2000.06
1004.243	1990.8
1004.538	2014.98
1004.832	2014.98
1005.127	1977.46
1005.421	1974.07
1005.715	1948.08
1006.009	1913.96
1006.304	1945.82
1006.598	1913.28
1006.892	1914.41
1007.186	1881.65
1007.48	1899.27
1007.773	1909.67
1008.067	1880.74
1008.361	1838.26
1008.655	1865.37
1008.948	1848.88
1009.242	1825.6
1009.535	1826.05
1009.829	1824.92
1010.122	1800.07
1010.415	1815.43
1010.708	1766.39
1011.001	1769.78
1011.295	1760.29
1011.588	1749.22
1011.881	1715.32
1012.173	1748.54
1012.466	1727.07
1012.759	1691.37
1013.052	1703.35
1013.344	1693.4
1013.637	1682.55
1013.93	1656.34
1014.222	1694.98
1014.514	1654.08
1014.807	1617.02
1015.099	1629.22
1015.391	1621.77
1015.683	1615.21
1015.976	1615.21
1016.268	1567.76
1016.56	1570.24
1016.851	1541.32
1017.143	1552.16
1017.435	1591.71
1017.727	1535.67
1018.018	1509.45
1018.31	1486.18
1018.602	1514.42
1018.893	1510.81
1019.185	1506.29
1019.476	1478.72
1019.767	1467.19
1020.058	1486.18
1020.35	1444.37
1020.641	1428.32
1020.932	1463.35
1021.223	1434.88
1021.514	1427.42
1021.804	1413.86
1022.095	1383.35
1022.386	1394.2
1022.677	1371.83
1022.967	1377.7
1023.258	1371.38
1023.548	1367.76
1023.839	1348.33
1024.129	1335.22
1024.419	1330.25
1024.709	1329.8
1025	1335.9
1025.29	1299.29
1025.58	1271.94
1025.87	1288.44
1026.16	1285.5
1026.449	1264.26
1026.739	1258.16
1027.029	1218.84
1027.319	1234.88
1027.608	1230.14
1027.898	1228.33
1028.187	1224.04
1028.477	1210.7
1028.766	1180.19
1029.055	1192.17
1029.344	1213.64
1029.634	1159.86
1029.923	1187.2
1030.212	1177.71
1030.501	1150.14
1030.79	1137.03
1031.078	1138.84
1031.367	1154.43
1031.656	1168.44
1031.945	1137.94
1032.233	1139.29
1032.522	1121.44
1032.81	1117.6
1033.099	1090.03
1033.387	1081.21
1033.675	1081.89
1033.963	1064.72
1034.251	1062.01
1034.54	1075.11
1034.828	1023.59
1035.116	1032.4
1035.403	1033.76
1035.691	1035.57
1035.979	1011.84
1036.267	1010.03
1036.554	1012.97
1036.842	993.53
1037.129	989.24
1037.417	981.1
1037.704	981.78
1037.992	1002.12
1038.279	977.49
1038.566	956.02
1038.853	956.02
1039.14	956.02
