Data from red_cardboard_box_FLMS001491_00091.txt Node
Date: Wed Feb 08 11:33:24 GMT 2017
User: dcchb
Spectrometer: FLMS00149
Trigger mode: 0
Integration Time (sec): 2.000000E-2
Scans to average: 10
Electric dark correction enabled: true
Nonlinearity correction enabled: false
Boxcar width: 0
XAxis mode: Wavelengths
Number of Pixels in Spectrum: 2048
>>>>>Begin Spectral Data<<<<<
341.393	-13.23
341.776	-13.23
342.16	-13.23
342.543	-50.52
342.927	-62.95
343.31	-75.61
343.693	-64.08
344.077	-43.74
344.46	-48.71
344.843	-44.42
345.226	-36.06
345.61	-36.28
345.993	-8.26
346.376	-26.12
346.759	15.47
347.142	22.25
347.525	32.64
347.908	50.49
348.291	76.03
348.674	83.49
349.057	102.92
349.44	118.29
349.823	156.7
350.206	165.52
350.588	197.16
350.971	231.28
351.354	241.22
351.737	250.04
352.119	276.25
352.502	299.98
352.884	302.69
353.267	283.26
353.65	288.45
354.032	310.37
354.414	316.02
354.797	324.61
355.179	330.26
355.562	340.65
355.944	324.61
356.326	343.82
356.709	353.54
357.091	344.27
357.473	358.06
357.855	350.15
358.238	349.92
358.62	349.69
359.002	349.24
359.384	372.52
359.766	351.95
360.148	350.82
360.53	360.99
360.912	325.51
361.294	335.68
361.676	334.33
362.057	356.93
362.439	349.02
362.821	338.85
363.203	339.07
363.584	344.04
363.966	322.58
364.348	348.56
364.729	348.56
365.111	326.64
365.493	331.16
365.874	323.03
366.256	346.53
366.637	326.64
367.019	322.58
367.4	312.41
367.781	324.16
368.163	320.99
368.544	310.83
368.925	308.11
369.306	332.97
369.688	301.33
370.069	316.47
370.45	311.73
370.831	312.18
371.212	304.27
371.593	324.84
371.974	324.61
372.355	333.2
372.736	316.47
373.117	318.73
373.498	324.16
373.879	301.33
374.26	339.75
374.641	331.84
375.021	330.94
375.402	333.65
375.783	325.74
376.163	325.29
376.544	338.85
376.925	331.16
377.305	331.16
377.686	316.7
378.066	338.17
378.447	326.19
378.827	365.74
379.208	322.35
379.588	352.63
379.968	338.62
380.349	336.59
380.729	332.75
381.109	342.01
381.489	331.39
381.87	336.81
382.25	332.52
382.63	337.04
383.01	330.03
383.39	370.03
383.77	346.53
384.15	342.01
384.53	352.86
384.91	354.67
385.29	342.69
385.67	349.02
386.049	374.78
386.429	357.38
386.809	367.55
387.189	360.54
387.568	373.42
387.948	357.38
388.328	342.69
388.707	358.28
389.087	351.73
389.466	334.78
389.846	368.68
390.225	341.78
390.605	382.46
390.984	353.76
391.363	369.81
391.743	382.91
392.122	374.33
392.501	356.93
392.881	374.33
393.26	379.75
393.639	369.13
394.018	389.47
394.397	374.1
394.776	375
395.155	375.68
395.534	361.45
395.913	388.56
396.292	370.03
396.671	389.47
397.05	393.99
397.429	389.02
397.808	408
398.186	391.5
398.565	398.73
398.944	394.89
399.323	380.2
399.701	403.25
400.08	405.96
400.458	406.64
400.837	408.9
401.215	377.49
401.594	396.02
401.972	403.25
402.351	403.93
402.729	403.93
403.107	418.17
403.486	403.93
403.864	403.7
404.242	406.87
404.62	425.62
404.999	413.65
405.377	427.66
405.755	408.22
406.133	402.35
406.511	427.43
406.889	420.2
407.267	416.81
407.645	426.3
408.023	421.33
408.401	426.53
408.779	424.72
409.156	460.43
409.534	422.23
409.912	455.45
410.29	433.31
410.667	449.13
411.045	441.9
411.422	448.45
411.8	438.51
412.178	444.61
412.555	447.09
412.933	452.97
413.31	472.85
413.687	455.68
414.065	480.76
414.442	492.74
414.819	473.08
415.197	482.57
415.574	453.42
415.951	498.84
416.328	502.46
416.705	476.24
417.082	490.26
417.46	467.21
417.837	503.36
418.214	482.35
418.591	501.78
418.967	505.17
419.344	499.52
419.721	498.39
420.098	506.53
420.475	514.89
420.852	484.61
421.228	514.89
421.605	497.03
421.982	518.5
422.358	519.18
422.735	541.55
423.111	508.33
423.488	535.23
423.864	528.9
424.241	521.22
424.617	539.75
424.994	537.71
425.37	527.99
425.746	551.95
426.123	584.49
426.499	567.09
426.875	558.5
427.251	581.33
427.627	575.9
428.003	577.48
428.379	564.6
428.756	575.9
429.132	572.06
429.507	583.81
429.883	589.24
430.259	585.85
430.635	583.81
431.011	595.11
431.387	615.45
431.763	584.26
432.138	623.81
432.514	597.37
432.89	631.04
433.265	629.01
433.641	611.61
434.016	622.91
434.392	637.6
434.767	637.6
435.143	634.43
435.518	651.38
435.894	660.65
436.269	662.23
436.644	644.6
437.02	666.3
437.395	672.17
437.77	681.89
438.145	676.01
438.52	667.43
438.895	683.92
439.271	669.91
439.646	704.04
440.021	693.87
440.395	687.31
440.77	699.29
441.145	723.92
441.52	713.07
441.895	695.45
442.27	684.83
442.645	742.68
443.019	734.77
443.394	718.95
443.769	710.81
444.143	727.76
444.518	737.03
444.892	730.02
445.267	722.57
445.641	769.8
446.016	735.67
446.39	759.17
446.764	742.9
447.139	761.43
447.513	754.2
447.887	777.03
448.262	767.99
448.636	764.6
449.01	770.47
449.384	767.76
449.758	767.54
450.132	785.39
450.506	795.33
450.88	784.49
451.254	762.11
451.628	804.82
452.002	778.16
452.376	798.5
452.75	813.64
453.123	800.76
453.497	813.86
453.871	837.36
454.244	843.24
454.618	833.07
454.992	848.66
455.365	836.24
455.739	855.67
456.112	894.76
456.486	878.04
456.859	886.86
457.232	885.27
457.606	896.57
457.979	907.42
458.352	892.28
458.725	929.79
459.099	898.83
459.472	938.15
459.845	948.32
460.218	920.3
460.591	978.83
460.964	954.42
461.337	959.17
461.71	953.29
462.083	980.19
462.456	999.85
462.829	986.06
463.201	1010.24
463.574	1023.12
463.947	993.97
464.32	1025.16
464.692	1035.33
465.065	1026.06
465.438	1045.95
465.81	1072.16
466.183	1071.94
466.555	1065.61
466.928	1076.91
467.3	1083.91
467.672	1094.08
468.045	1104.25
468.417	1109.45
468.789	1116.45
469.161	1129.79
469.534	1165.72
469.906	1166.4
470.278	1159.84
470.65	1208.2
471.022	1230.57
471.394	1193.06
471.766	1222.89
472.138	1245.94
472.51	1266.05
472.882	1273.74
473.253	1281.42
473.625	1293.62
473.997	1328.65
474.369	1322.78
474.74	1330.46
475.112	1324.13
475.484	1354.87
475.855	1385.83
476.227	1379.27
476.598	1427.18
476.97	1425.82
477.341	1442.55
477.713	1485.94
478.084	1483.68
478.455	1535.2
478.827	1524.58
479.198	1581.07
479.569	1558.25
479.94	1592.15
480.311	1594.18
480.682	1634.18
481.053	1669.89
481.424	1725.03
481.795	1718.47
482.166	1748.98
482.537	1760.28
482.908	1795.98
483.279	1784.01
483.65	1823.78
484.021	1857.9
484.391	1872.59
484.762	1874.85
485.133	1887.28
485.503	1899.71
485.874	1978.35
486.244	1974.74
486.615	1981.06
486.985	2006.6
487.356	2037.79
487.726	2042.08
488.097	2076.2
488.467	2071.91
488.837	2157.78
489.207	2174.05
489.578	2197.33
489.948	2197.33
490.318	2273.94
490.688	2262.64
491.058	2298.57
491.428	2296.31
491.798	2339.7
492.168	2395.52
492.538	2398.23
492.908	2397.78
493.278	2426.7
493.648	2457.44
494.017	2439.36
494.387	2512.35
494.757	2504.44
495.126	2572.46
495.496	2544.89
495.866	2556.42
496.235	2611.56
496.605	2594.61
496.974	2632.35
497.344	2647.94
497.713	2685.9
498.082	2696.3
498.452	2671.22
498.821	2708.95
499.19	2725.45
499.559	2792.12
499.928	2796.18
500.298	2775.39
500.667	2853.58
501.036	2816.07
501.405	2873.7
501.774	2872.34
502.143	2890.42
502.512	2897.88
502.88	2948.27
503.249	2939
503.618	2946.46
503.987	3012.45
504.356	2994.6
504.724	3012
505.093	3063.07
505.462	3049.74
505.83	3054.03
506.199	3086.35
506.567	3108.49
506.936	3144.42
507.304	3169.06
507.672	3145.55
508.041	3188.72
508.409	3222.39
508.777	3248.83
509.145	3286.79
509.514	3256.28
509.882	3293.35
510.25	3276.17
510.618	3366.56
510.986	3354.13
511.354	3378.77
511.722	3379.22
512.09	3434.13
512.458	3463.96
512.826	3491.98
513.193	3452.21
513.561	3513.23
513.929	3528.14
514.297	3563.17
514.664	3614.02
515.032	3623.51
515.4	3630.29
515.767	3678.19
516.135	3724.29
516.502	3704.41
516.869	3744.86
517.237	3792.99
517.604	3770.4
517.972	3803.61
518.339	3835.7
518.706	3841.81
519.073	3865.99
519.44	3943.5
519.808	3955.7
520.175	3948.92
520.542	4027.79
520.909	4058.98
521.276	4059.65
521.643	4074.12
522.009	4071.4
522.376	4152.53
522.743	4185.75
523.11	4196.15
523.477	4267.33
523.843	4262.13
524.21	4327.67
524.577	4345.75
524.943	4340.55
525.31	4366.54
525.676	4464.16
526.043	4470.04
526.409	4486.99
526.776	4548.68
527.142	4577.61
527.508	4569.24
527.874	4659.86
528.241	4687.21
528.607	4677.72
528.973	4751.84
529.339	4748
529.705	4776.7
530.071	4804.72
530.437	4806.53
530.803	4845.17
531.169	4908.9
531.535	4928.33
531.901	4936.47
532.267	4964.94
532.632	4957.93
532.998	5010.81
533.364	5083.36
533.73	5071.6
534.095	5128.33
534.461	5131.94
534.826	5176.01
535.192	5217.14
535.557	5244.71
535.923	5276.34
536.288	5302.78
536.653	5355.89
537.019	5294.65
537.384	5341.65
537.749	5378.04
538.114	5378.49
538.479	5409.45
538.845	5426.62
539.21	5432.5
539.575	5494.87
539.94	5480.63
540.305	5492.84
540.67	5540.07
541.034	5582.55
541.399	5623.91
541.764	5648.09
542.129	5629.78
542.494	5686.95
542.858	5781.19
543.223	5714.07
543.587	5769.66
543.952	5765.37
544.316	5785.03
544.681	5820.96
545.045	5917.46
545.41	5902.77
545.774	5948.42
546.138	5956.78
546.503	6004.91
546.867	5935.54
547.231	6004.69
547.595	6052.82
547.959	6065.7
548.324	6085.14
548.688	6060.5
549.052	6208.07
549.416	6220.95
549.779	6211.46
550.143	6280.39
550.507	6257.79
550.871	6384.34
551.235	6416.88
551.599	6411.23
551.962	6422.98
552.326	6514.28
552.689	6547.5
553.053	6538.01
553.417	6538.91
553.78	6650.77
554.143	6598.34
554.507	6693.26
554.87	6730.54
555.234	6819.81
555.597	6758.34
555.96	6821.61
556.323	6899.35
556.686	6937.32
557.05	6998.78
557.413	7012.12
557.776	7004.66
558.139	7112.68
558.502	7170.31
558.865	7157.65
559.228	7239.68
559.59	7293.69
559.953	7302.73
560.316	7460.02
560.679	7473.57
561.041	7565.78
561.404	7635.38
561.767	7715.38
562.129	7697.3
562.492	7826.11
562.854	7822.94
563.217	7895.03
563.579	7892.77
563.941	8052.54
564.304	8148.59
564.666	8191.97
565.028	8161.24
565.39	8291.63
565.753	8334.79
566.115	8455.47
566.477	8492.98
566.839	8551.96
567.201	8661.57
567.563	8742.02
567.925	8824.27
568.287	8877.83
568.648	8940.43
569.01	8996.92
569.372	9152.4
569.734	9123.02
570.095	9354.43
570.457	9378.38
570.819	9412.73
571.18	9528.66
571.542	9647.98
571.903	9647.3
572.265	9762.55
572.626	9791.93
572.987	9906.96
573.349	10046.16
573.71	10078.93
574.071	10291.81
574.432	10263.56
574.794	10438.02
575.155	10487.51
575.516	10500.61
575.877	10786.03
576.238	10791.91
576.599	10954.84
576.96	11056.53
577.32	11207.71
577.681	11219.69
578.042	11432.11
578.403	11534.26
578.763	11652.22
579.124	11765.44
579.485	11941.25
579.845	12053.12
580.206	12178.99
580.566	12380.11
580.927	12491.75
581.287	12688.8
581.648	12734.23
582.008	12908.46
582.368	13192.07
582.728	13361.33
583.089	13479.52
583.449	13710.7
583.809	13859.62
584.169	14051.93
584.529	14222.1
584.889	14539.6
585.249	14611.69
585.609	14746.83
585.969	15112.92
586.329	15304.33
586.688	15648.05
587.048	15746.35
587.408	16016.17
587.768	16322.38
588.127	16537.52
588.487	16855.7
588.846	17246.88
589.206	17411.17
589.565	17617.04
589.925	18032.62
590.284	18237.13
590.643	18560.74
591.003	18929.54
591.362	19292.47
591.721	19592.58
592.08	19849.29
592.44	20285.89
592.799	20602.72
593.158	21026.21
593.517	21421
593.876	21761.11
594.235	22113.64
594.593	22459.62
594.952	22891.02
595.311	23270.45
595.67	23663.66
596.029	24054.83
596.387	24640.58
596.746	24853.46
597.104	25236.05
597.463	25595.13
597.822	26152.41
598.18	26516.69
598.538	26872.61
598.897	27379.04
599.255	27651.8
599.613	28419.24
599.972	28583.75
600.33	28998.66
600.688	29360.23
601.046	29964.06
601.404	30470.94
601.762	30656.02
602.12	31259.84
602.478	31773.27
602.836	32073.83
603.194	32305.46
603.552	32756.75
603.91	32968.72
604.268	33530.29
604.625	33923.05
604.983	34473.09
605.341	34740.88
605.698	35153.98
606.056	35760.74
606.413	35871.02
606.771	36453.38
607.128	36784.89
607.485	36995.28
607.843	37353.02
608.2	37840.91
608.557	38065.54
608.914	38413.55
609.272	38877.49
609.629	39223.02
609.986	39504.14
610.343	39767.87
610.7	40390.45
611.057	40498.7
611.414	40687.39
611.771	40976.2
612.127	41408.73
612.484	41681.94
612.841	41951.76
613.198	42171.87
613.554	42251.87
613.911	42620.9
614.267	42783.83
614.624	43011.4
614.98	43255.46
615.337	43670.14
615.693	43699.06
616.05	43941.32
616.406	44422.43
616.762	44301.53
617.118	44498.14
617.475	44805.7
617.831	45049.76
618.187	45182.19
618.543	45372.01
618.899	45670.54
619.255	45768.16
619.611	45932.45
619.967	46126.57
620.323	46396.39
620.678	46291.09
621.034	46464.19
621.39	46592.77
621.746	46580.34
622.101	47163.6
622.457	46907.11
622.812	47030.73
623.168	47259.87
623.523	47359.08
623.879	47586.42
624.234	47413.77
624.589	47686.53
624.945	47698.28
625.3	47941.44
625.655	47755.45
626.01	47951.15
626.365	48114.09
626.72	48153.63
627.075	48258.94
627.43	48268.66
627.785	48171.04
628.14	48452.61
628.495	48460.07
628.85	48592.27
629.205	48436.57
629.559	48871.13
629.914	48619.16
630.269	48855.54
630.623	48701.42
630.978	48750
631.332	48938.02
631.687	49030.45
632.041	48878.59
632.396	49086.49
632.75	48835.2
633.104	48915.65
633.459	48889.43
633.813	48980.28
634.167	49054.63
634.521	49008.53
634.875	49020.73
635.229	49038.36
635.583	48999.26
635.937	48950
636.291	48971.24
636.645	49097.56
636.999	48927.85
637.352	49124.46
637.706	48804.01
638.06	49100.73
638.413	48971.69
638.767	48993.39
639.121	49070.22
639.474	48946.16
639.828	48789.55
640.181	49044.91
640.534	48959.72
640.888	48971.92
641.241	48903.22
641.594	48955.65
641.947	49130.78
642.301	48926.04
642.654	49025.93
643.007	49107.51
643.36	48909.32
643.713	48926.95
644.066	48954.97
644.419	48804.01
644.771	48708.42
645.124	48213.52
645.477	48275.21
645.83	48095.78
646.182	48006.97
646.535	47766.53
646.888	47910.93
647.24	47810.14
647.593	47858.73
647.945	47856.02
648.298	47719.97
648.65	47682.23
649.002	47607.66
649.355	47826.64
649.707	47731.95
650.059	48075.44
650.411	48362.44
650.763	48428.43
651.115	48792.04
651.467	48871.58
651.819	48686.5
652.171	48664.13
652.523	48612.83
652.875	48697.35
653.227	48461.65
653.578	48767.86
653.93	48677.24
654.282	48576.67
654.633	48603.11
654.985	48592.04
655.337	48597.69
655.688	48580.29
656.039	48689.67
656.391	48410.35
656.742	48467.75
657.094	48436.34
657.445	48618.48
657.796	48543
658.147	48393.63
658.498	48458.94
658.849	48426.17
659.2	48362.9
659.551	48299.39
659.902	48444.47
660.253	48427.53
660.604	48397.92
660.955	48237.02
661.306	48460.75
661.656	48333.07
662.007	48494.87
662.358	48423.01
662.708	48286.06
663.059	48320.41
663.409	48230.47
663.76	48454.87
664.11	48479.95
664.461	48367.64
664.811	48493.06
665.161	48551.36
665.511	48342.1
665.862	48481.31
666.212	48352.27
666.562	48367.87
666.912	48298.04
667.262	48325.61
667.612	48377.81
667.962	48383.91
668.312	48286.74
668.662	48416.9
669.011	48387.75
669.361	48464.59
669.711	48254.42
670.06	48341.65
670.41	48255.1
670.76	48186.85
671.109	48263.24
671.459	48158.61
671.808	48217.14
672.157	48304.59
672.507	48010.36
672.856	48134.88
673.205	48186.63
673.554	48149.79
673.904	48153.18
674.253	48265.95
674.602	48134.65
674.951	47578.96
675.3	47557.27
675.649	48020.53
675.998	48025.05
676.346	48099.85
676.695	48097.14
677.044	47868.44
677.393	47915.9
677.741	47978.05
678.09	47796.58
678.438	47660.54
678.787	47913.64
679.135	47759.97
679.484	47630.03
679.832	47696.7
680.181	47562.69
680.529	47827.54
680.877	47558.17
681.225	47589.58
681.573	47684.04
681.922	47360.44
682.27	47376.25
682.618	47342.81
682.966	47262.58
683.314	47387.1
683.661	47188.46
684.009	47030.5
684.357	47082.48
684.705	46870.96
685.053	46900.11
685.4	46905.31
685.748	46676.84
686.095	46675.03
686.443	46593
686.79	46591.42
687.138	46621.47
687.485	46490.63
687.832	46451.53
688.18	46454.02
688.527	46385.55
688.874	46196.62
689.221	46104.88
689.568	45947.14
689.915	45990.3
690.262	45951.88
690.609	45913.24
690.956	45840.25
691.303	45628.96
691.65	45398
691.997	45516.64
692.344	45368.17
692.69	45304.9
693.037	45287.95
693.383	44856.09
693.73	44994.62
694.077	44896.09
694.423	44876.21
694.769	44746.72
695.116	44686.61
695.462	44714.18
695.808	44465.14
696.155	44565.93
696.501	44177.02
696.847	44268.99
697.193	43960.07
697.539	44134.31
697.885	43837.82
698.231	43731.38
698.577	43802.34
698.923	43684.15
699.269	43353.99
699.614	43350.82
699.96	43174.56
700.306	43269.02
700.651	43109.93
700.997	42973.88
701.342	42924.85
701.688	42708.58
702.033	42658.19
702.379	42663.16
702.724	42445.76
703.069	42604.4
703.415	42108.37
703.76	42202.38
704.105	42196.28
704.45	42073.57
704.795	41935.95
705.14	41841.03
705.485	41634.71
705.83	41555.16
706.175	41677.42
706.52	41480.59
706.865	41491.89
707.209	41283.53
707.554	41225
707.899	41282.63
708.243	41016.87
708.588	41070.21
708.932	40714.28
709.277	40699.14
709.621	40747.28
709.966	40512.03
710.31	40567.85
710.654	40237.23
710.998	40308.42
711.342	40492.82
711.687	40169.44
712.031	40005.37
712.375	39918.82
712.719	40057.8
713.063	39884.25
713.407	39997.47
713.75	39820.52
714.094	39862.1
714.438	39618.49
714.782	39601.09
715.125	39455.11
715.469	39498.27
715.812	39260.99
716.156	39130.14
716.499	39183.02
716.843	39095.12
717.186	38872.98
717.53	39246.75
717.873	39095.34
718.216	38875.69
718.559	38801.56
718.902	38463.72
719.246	38523.38
719.589	38487.9
719.932	38401.35
720.275	38425.3
720.617	38287
720.96	38345.76
721.303	38320
721.646	38236.83
721.989	38012.43
722.331	38162.03
722.674	38074.8
723.016	38056.05
723.359	37995.71
723.701	38035.26
724.044	37830.29
724.386	37723.4
724.729	37704.42
725.071	37583.29
725.413	37592.1
725.755	37538.09
726.097	37436.85
726.439	37277.08
726.782	37404.09
727.124	37482.5
727.465	37143.08
727.807	37119.57
728.149	37127.03
728.491	37093.36
728.833	37072.57
729.175	36993.48
729.516	36846.81
729.858	36993.7
730.199	36930.88
730.541	36789.41
730.882	36705.12
731.224	36797.55
731.565	36487.95
731.906	36718.46
732.248	36615.63
732.589	36410.21
732.93	36435.07
733.271	36336.32
733.612	36344.45
733.953	36350.78
734.294	36158.47
734.635	36130.67
734.976	36319.82
735.317	35942.88
735.658	35979.04
735.999	36001.86
736.339	35982.88
736.68	36020.17
737.021	36012.49
737.361	35819.04
737.702	35913.96
738.042	35746.96
738.383	35697.47
738.723	35721.19
739.063	35724.36
739.404	35634.64
739.744	35574.98
740.084	35488.88
740.424	35398.49
740.764	35510.13
741.104	35573.63
741.444	35358.49
741.784	35195.33
742.124	35395.33
742.464	35393.74
742.804	35173.41
743.143	35132.51
743.483	35076.92
743.823	34903.36
744.162	34839.41
744.502	35016.81
744.841	34837.37
745.181	35004.38
745.52	34852.74
745.86	34867.43
746.199	34724.38
746.538	34706.98
746.877	34656.81
747.216	34645.74
747.556	34556.48
747.895	34482.58
748.234	34435.58
748.573	34437.84
748.911	34375.92
749.25	34322.59
749.589	34314.45
749.928	34258.18
750.267	34215.47
750.605	34074.91
750.944	34093.67
751.283	33989.94
751.621	34011.18
751.96	33728.48
752.298	33771.41
752.636	33810.28
752.975	33599.22
753.313	33526.67
753.651	33733.68
753.989	33444.87
754.327	33468.15
754.666	33286.46
755.004	33265.66
755.342	33239.22
755.679	33210.98
756.017	33087.82
756.355	33181.6
756.693	32947.48
757.031	33051.89
757.368	32694.61
757.706	32821.83
758.044	32467.49
758.381	32645.12
758.719	32556.08
759.056	32597.66
759.394	32437.66
759.731	32281.96
760.068	32210.55
760.405	32126.26
760.743	32060.95
761.08	32084.9
761.417	31871.13
761.754	31834.06
762.091	31796.1
762.428	31646.95
762.765	31398.37
763.102	31605.14
763.438	31320.18
763.775	31254.64
764.112	31217.81
764.449	31222.55
764.785	31011.94
765.122	30858.5
765.458	30723.36
765.795	30765.62
766.131	30650.59
766.467	30540.31
766.804	30484.27
767.14	30343.48
767.476	30398.17
767.812	30176.03
768.148	30259.64
768.485	29965.86
768.821	29883.83
769.157	29849.26
769.492	29691.97
769.828	29711.86
770.164	29391.87
770.5	29457.63
770.836	29512.54
771.171	29188.94
771.507	29245.43
771.842	28924.54
772.178	29004.08
772.513	28862.62
772.849	28762.05
773.184	28689.06
773.519	28724.32
773.855	28570.65
774.19	28447.49
774.525	28414.94
774.86	28294.27
775.195	28200.49
775.53	28153.71
775.865	27950.32
776.2	27800.27
776.535	27619.71
776.87	27617.9
777.205	27506.49
777.539	27389.66
777.874	27529.09
778.209	27126.17
778.543	27215.2
778.878	26939.73
779.212	27096.34
779.547	26870.8
779.881	27045.26
780.215	26773.41
780.55	26712.62
780.884	26521.44
781.218	26548.78
781.552	26469.69
781.886	26289.35
782.22	26176.81
782.554	26083.25
782.888	25928.46
783.222	25831.74
783.556	25737.05
783.889	25635.81
784.223	25365.53
784.557	25364.4
784.89	25486.43
785.224	25366.44
785.557	25139.55
785.891	25141.58
786.224	24984.3
786.558	25075.6
786.891	24940.91
787.224	24771.65
787.557	24615.72
787.891	24673.35
788.224	24606.46
788.557	24419.8
788.89	24512.67
789.223	24400.14
789.556	24190.2
789.888	24137.32
790.221	24114.49
790.554	23926.48
790.887	24014.38
791.219	23818
791.552	23840.6
791.884	23600.61
792.217	23585.24
792.549	23467.05
792.882	23306.38
793.214	23333.72
793.546	23216.44
793.879	23027.97
794.211	22928.31
794.543	22935.77
794.875	22910.46
795.207	23067.51
795.539	22702.1
795.871	22875.2
796.203	22679.05
796.535	22557.02
796.867	22607.41
797.198	22526.29
797.53	22352.51
797.862	22334.2
798.193	22434.31
798.525	22094.89
798.856	22232.28
799.188	21980.31
799.519	21900.99
799.85	21929.69
800.182	21825.06
800.513	21748.91
800.844	21567.67
801.175	21746.87
801.506	21697.61
801.837	21569.25
802.168	21472.08
802.499	21410.61
802.83	21269.6
803.161	21231.18
803.491	21213.33
803.822	21202.71
804.153	21085.42
804.483	20984.41
804.814	20826.9
805.145	20914.58
805.475	20732.44
805.805	20630.97
806.136	20736.95
806.466	20631.65
806.796	20623.74
807.126	20529.95
807.457	20341.03
807.787	20433.69
808.117	20351.2
808.447	20283.86
808.777	20351.43
809.107	20275.95
809.436	20159.57
809.766	20225.56
810.096	20092.23
810.426	19945.79
810.755	19870.08
811.085	19925.9
811.414	19856.98
811.744	19761.61
812.073	19678.45
812.403	19699.47
812.732	19527.5
813.061	19595.29
813.39	19465.8
813.719	19367.27
814.049	19548.06
814.378	19492.47
814.707	19263.77
815.036	19319.14
815.365	19173.15
815.693	19178.13
816.022	19106.94
816.351	18976.55
816.68	18929.32
817.008	18978.36
817.337	18784.92
817.665	18805.03
817.994	18832.37
818.322	18862.43
818.651	18658.82
818.979	18696.56
819.307	18688.2
819.636	18685.03
819.964	18589.89
820.292	18632.38
820.62	18530.23
820.948	18428.31
821.276	18575.66
821.604	18468.77
821.932	18498.14
822.259	18486.17
822.587	18428.31
822.915	18375.43
823.243	18519.61
823.57	18364.36
823.898	18367.75
824.225	18389.45
824.553	18361.65
824.88	18398.71
825.207	18433.96
825.535	18375.43
825.862	18445.04
826.189	18299.96
826.516	18354.64
826.843	18454.75
827.17	18306.06
827.497	18440.52
827.824	18360.07
828.151	18454.08
828.478	18315.32
828.805	18463.79
829.131	18289.11
829.458	18286.62
829.785	18220.41
830.111	18343.35
830.438	18265.83
830.764	18408.88
831.09	18328.2
831.417	18213.41
831.743	18355.77
832.069	18370.01
832.395	18312.16
832.722	18373.18
833.048	18162.11
833.374	18172.05
833.7	18232.84
834.026	18150.81
834.351	18200.07
834.677	18156.01
835.003	18217.25
835.329	18066.74
835.654	18166.85
835.98	18107.42
836.306	18024.03
836.631	17941.55
836.956	18087.08
837.282	18028.1
837.607	17871.27
837.932	17814.77
838.258	17923.47
838.583	17926.41
838.908	17769.35
839.233	17828.56
839.558	17732.74
839.883	17729.12
840.208	17749.69
840.533	17680.54
840.858	17677.6
841.182	17636.7
841.507	17662.46
841.832	17597.83
842.156	17517.38
842.481	17397.61
842.805	17427.89
843.13	17345.63
843.454	17283.94
843.778	17304.28
844.103	17256.59
844.427	17163.49
844.751	17273.54
845.075	17105.86
845.399	17093.66
845.723	16962.36
846.047	17021.8
846.371	16873.33
846.695	16810.73
847.019	16712.43
847.343	16620.45
847.666	16622.26
847.99	16481.02
848.313	16513.11
848.637	16382.04
848.96	16301.37
849.284	16283.51
849.607	16170.97
849.931	16184.98
850.254	16073.8
850.577	16024.76
850.9	15925.33
851.223	15876.29
851.546	15805.11
851.869	15623.19
852.192	15765.33
852.515	15538.9
852.838	15607.15
853.161	15572.57
853.483	15537.09
853.806	15437.66
854.129	15401.05
854.451	15311.11
854.774	15339.36
855.096	15215.52
855.419	15144.79
855.741	15175.52
856.063	15058.01
856.385	14986.37
856.708	15055.07
857.03	14930.1
857.352	14940.72
857.674	14845.58
857.996	14818.47
858.318	14805.59
858.64	14741.86
858.961	14693.72
859.283	14669.77
859.605	14654.63
859.926	14605.14
860.248	14607.85
860.57	14473.84
860.891	14485.14
861.212	14400.4
861.534	14391.13
861.855	14300.06
862.176	14362.89
862.498	14297.12
862.819	14343
863.14	14259.84
863.461	14224.13
863.782	14083.12
864.103	14197.69
864.424	14229.78
864.745	14188.43
865.065	14058.49
865.386	14009.67
865.707	14005.38
866.027	14068.88
866.348	13987.75
866.668	13930.58
866.989	13885.38
867.309	13794.99
867.63	13907.08
867.95	13889.23
868.27	13785.5
868.59	13804.93
868.91	13773.97
869.23	13714.54
869.55	13657.14
869.87	13767.42
870.19	13639.06
870.51	13691.72
870.83	13718.61
871.15	13599.52
871.469	13672.28
871.789	13662.11
872.109	13620.53
872.428	13414.89
872.748	13527.88
873.067	13486.3
873.386	13519.07
873.706	13426.86
874.025	13385.96
874.344	13372.63
874.663	13414.89
874.982	13391.16
875.301	13396.36
875.62	13282.01
875.939	13264.83
876.258	13388.22
876.577	13262.58
876.896	13295.79
877.214	13195.23
877.533	13263.25
877.852	13192.97
878.17	13142.58
878.489	13193.42
878.807	13067.78
879.125	13036.82
879.444	13181.9
879.762	13048.34
880.08	13016.71
880.398	12936.93
880.716	13035.01
881.034	12898.29
881.352	12948.91
881.67	12871.4
881.988	12946.88
882.306	12908.46
882.624	12778.07
882.941	12764.73
883.259	12713.44
883.577	12623.95
883.894	12705.98
884.212	12623.95
884.529	12635.92
884.846	12630.5
885.164	12672.53
885.481	12474.57
885.798	12580.11
886.115	12395.71
886.432	12420.79
886.75	12409.26
887.067	12438.87
887.383	12350.96
887.7	12335.82
888.017	12264.18
888.334	12291.53
888.651	12208.59
888.967	12160.46
889.284	12130.63
889.6	12157.75
889.917	11993.91
890.233	12093.11
890.55	11946.9
890.866	12065.32
891.182	11960.46
891.498	11863.97
891.815	11850.18
892.131	11825.55
892.447	11829.84
892.763	11780.81
893.079	11722.5
893.395	11785.55
893.71	11683.86
894.026	11659.23
894.342	11602.73
894.657	11503.3
894.973	11504.2
895.289	11545.33
895.604	11487.03
895.92	11345.11
896.235	11308.28
896.55	11333.81
896.865	11342.4
897.181	11278.45
897.496	11284.55
897.811	11202.97
898.126	11133.59
898.441	11126.81
898.756	11136.53
899.071	11063.08
899.386	11042.29
899.7	10918.46
900.015	10936.31
900.33	10803.43
900.644	10829.87
900.959	10809.31
901.273	10776.99
901.588	10750.32
901.902	10699.03
902.216	10649.31
902.531	10633.49
902.845	10641.18
903.159	10517.56
903.473	10493.38
903.787	10443.21
904.101	10334.74
904.415	10347.4
904.729	10368.87
905.042	10245.93
905.356	10267.85
905.67	10231.69
905.984	10194.18
906.297	10190.11
906.611	10100.4
906.924	10071.47
907.237	10089.55
907.551	10085.26
907.864	9979.5
908.177	9970.68
908.491	9878.26
908.804	9843
909.117	9850.91
909.43	9802.55
909.743	9793.74
910.056	9728.88
910.368	9659.51
910.681	9596.68
910.994	9568.43
911.307	9504.48
911.619	9511.49
911.932	9437.82
912.244	9380.19
912.557	9348.33
912.869	9332.06
913.181	9366.63
913.494	9297.26
913.806	9178.84
914.118	9215.9
914.43	9157.6
914.742	9139.07
915.054	9016.36
915.366	9075.57
915.678	8970.26
915.99	8988.34
916.302	8888.23
916.613	8912.86
916.925	8883.93
917.236	8817.72
917.548	8843.71
917.859	8755.12
918.171	8775.91
918.482	8660.44
918.794	8640.78
919.105	8578.4
919.416	8591.06
919.727	8517.84
920.038	8465.41
920.349	8401.23
920.66	8514.68
920.971	8380.22
921.282	8298.19
921.593	8301.35
921.903	8234.23
922.214	8176.38
922.525	8192.2
922.835	8152.2
923.146	8103.61
923.456	8100.22
923.767	8046.89
924.077	7984.52
924.387	7974.58
924.697	7940.23
925.008	7831.53
925.318	7876.73
925.628	7869.27
925.938	7832.21
926.248	7769.61
926.558	7727.35
926.867	7744.98
927.177	7621.14
927.487	7606.68
927.796	7545.44
928.106	7546.57
928.416	7554.25
928.725	7529.39
929.034	7484.87
929.344	7440.13
929.653	7387.25
929.962	7335.5
930.271	7305.44
930.581	7303.41
930.89	7323.97
931.199	7217.08
931.508	7211.21
931.817	7217.31
932.125	7170.76
932.434	7099.12
932.743	7078.56
933.051	7048.05
933.36	6986.13
933.669	6959.92
933.977	6975.06
934.286	6887.6
934.594	6878.34
934.902	6844.21
935.21	6892.12
935.519	6808.73
935.827	6799.24
936.135	6725.12
936.443	6682.64
936.751	6687.15
937.059	6679.25
937.367	6613.48
937.674	6601.28
937.982	6584.11
938.29	6563.99
938.597	6582.07
938.905	6448.06
939.213	6481.28
939.52	6409.87
939.827	6374.85
940.135	6323.1
940.442	6336.88
940.749	6297.56
941.056	6355.19
941.363	6272.25
941.67	6286.71
941.977	6215.98
942.284	6148.19
942.591	6148.41
942.898	6121.29
943.205	6118.81
943.511	6038.81
943.818	6103.67
944.125	5987.29
944.431	6038.36
944.738	5963.11
945.044	5926.95
945.35	5916.1
945.657	5905.93
945.963	5844.92
946.269	5811.47
946.575	5807.86
946.881	5773.51
947.187	5787.29
947.493	5771.25
947.799	5741.42
948.105	5682.66
948.41	5646.96
948.716	5661.42
949.022	5658.03
949.327	5581.42
949.633	5570.35
949.938	5537.58
950.244	5524.7
950.549	5475.66
950.854	5458.94
951.16	5433.63
951.465	5462.1
951.77	5404.93
952.075	5415.32
952.38	5356.57
952.685	5340.75
952.99	5299.62
953.294	5277.25
953.599	5232.05
953.904	5188.89
954.209	5137.14
954.513	5143.01
954.818	5180.3
955.122	5143.92
955.426	5125.39
955.731	5068.67
956.035	5121.32
956.339	4993.19
956.643	5066.41
956.948	4941.66
957.252	4999.52
957.556	4981.66
957.86	4931.72
958.163	4906.18
958.467	4886.07
958.771	4885.62
959.075	4896.92
959.378	4824.38
959.682	4798.62
959.985	4780.76
960.289	4757.71
960.592	4782.8
960.896	4710.94
961.199	4668.9
961.502	4696.47
961.805	4652.63
962.108	4630.94
962.411	4630.94
962.714	4623.25
963.017	4548
963.32	4600.66
963.623	4518.62
963.926	4517.49
964.228	4481.56
964.531	4471.85
964.833	4477.5
965.136	4430.49
965.438	4400.89
965.741	4395.69
966.043	4359.08
966.345	4347.33
966.648	4322.7
966.95	4308.46
967.252	4268.46
967.554	4282.7
967.856	4262.36
968.158	4224.17
968.46	4203.38
968.761	4214.23
969.063	4207.9
969.365	4159.09
969.666	4177.84
969.968	4131.97
970.269	4112.31
970.571	4125.87
970.872	4086.09
971.174	4023.27
971.475	4015.13
971.776	3985.53
972.077	3987.79
972.378	3981.46
972.679	3990.95
972.98	4009.26
973.281	3978.53
973.582	3909.6
973.883	3875.03
974.183	3863.27
974.484	3847.68
974.785	3852.2
975.085	3815.37
975.386	3802.26
975.686	3812.88
975.986	3758.64
976.287	3771.53
976.587	3733.33
976.887	3696.05
977.187	3703.96
977.487	3693.79
977.787	3713.45
978.087	3661.02
978.387	3658.08
978.687	3668.03
978.987	3636.39
979.286	3600.91
979.586	3643.17
979.885	3537.86
980.185	3522.27
980.484	3506.45
980.784	3518.2
981.083	3502.83
981.382	3501.7
981.682	3495.15
981.981	3471.87
982.28	3457.18
982.579	3412.21
982.878	3397.98
983.177	3366.34
983.475	3411.76
983.774	3352.55
984.073	3314.59
984.372	3277.98
984.67	3299.45
984.969	3339.22
985.267	3242.73
985.566	3217.87
985.864	3222.39
986.162	3246.12
986.461	3222.16
986.759	3234.36
987.057	3196.62
987.355	3169.06
987.653	3142.62
987.951	3141.03
988.249	3167.02
988.547	3080.47
988.844	3082.73
989.142	3102.16
989.44	3113.46
989.737	3057.65
990.035	3047.25
990.332	3012.68
990.63	2991.88
990.927	2984.88
991.224	3008.16
991.521	2960.25
991.819	2948.27
992.116	2960.7
992.413	2979.23
992.71	2896.07
993.006	2902.85
993.303	2847.71
993.6	2882.06
993.897	2843.64
994.193	2833.47
994.49	2828.05
994.787	2822.4
995.083	2776.75
995.379	2779.23
995.676	2768.61
995.972	2758.9
996.268	2765
996.565	2732.91
996.861	2710.08
997.157	2695.85
997.453	2718.67
997.749	2682.97
998.044	2661.72
998.34	2649.97
998.636	2624.66
998.932	2646.36
999.227	2622.63
999.523	2625.57
999.818	2595.74
1000.114	2572.23
1000.409	2552.8
1000.704	2516.87
1001	2540.82
1001.295	2530.65
1001.59	2534.5
1001.885	2480.94
1002.18	2499.92
1002.475	2456.76
1002.77	2458.11
1003.065	2400.94
1003.359	2410.43
1003.654	2424.44
1003.949	2405.23
1004.243	2370.21
1004.538	2346.93
1004.832	2345.8
1005.127	2356.65
1005.421	2332.24
1005.715	2285.46
1006.009	2296.99
1006.304	2273.49
1006.598	2258.34
1006.892	2255.41
1007.186	2223.54
1007.48	2274.16
1007.773	2223.32
1008.067	2219.7
1008.361	2214.05
1008.655	2189.42
1008.948	2198.91
1009.242	2159.36
1009.535	2128.86
1009.829	2131.34
1010.122	2104.22
1010.415	2089.76
1010.708	2105.35
1011.001	2071.68
1011.295	2077.56
1011.588	2027.16
1011.881	2034.17
1012.173	1987.62
1012.466	2012.7
1012.759	2014.51
1013.052	2002.76
1013.344	1999.59
1013.637	1972.7
1013.93	1946.26
1014.222	1949.88
1014.514	1942.87
1014.807	1965.7
1015.099	1906.49
1015.391	1897.9
1015.683	1877.56
1015.976	1881.18
1016.268	1893.61
1016.56	1849.54
1016.851	1822.65
1017.143	1857
1017.435	1838.24
1017.727	1819.26
1018.018	1789.43
1018.31	1811.58
1018.602	1744.23
1018.893	1751.92
1019.185	1750.34
1019.476	1744.46
1019.767	1753.73
1020.058	1698.81
1020.35	1691.81
1020.641	1680.05
1020.932	1681.86
1021.223	1698.59
1021.514	1648.42
1021.804	1650
1022.095	1631.69
1022.386	1624.46
1022.677	1567.74
1022.967	1614.97
1023.258	1600.73
1023.548	1576.55
1023.839	1552.6
1024.129	1572.71
1024.419	1537.91
1024.709	1573.84
1025	1527.74
1025.29	1512.38
1025.58	1491.81
1025.87	1487.74
1026.16	1483.9
1026.449	1471.25
1026.739	1468.76
1027.029	1471.25
1027.319	1458.37
1027.608	1429.67
1027.898	1435.54
1028.187	1408.2
1028.477	1403.9
1028.766	1392.15
1029.055	1378.59
1029.344	1359.16
1029.634	1365.26
1029.923	1359.39
1030.212	1352.38
1030.501	1319.39
1030.79	1337.69
1031.078	1331.59
1031.367	1310.57
1031.656	1310.57
1031.945	1309.22
1032.233	1288.88
1032.522	1280.07
1032.81	1300.63
1033.099	1254.76
1033.387	1233.51
1033.675	1243.68
1033.963	1265.83
1034.251	1236.22
1034.54	1230.35
1034.828	1235.32
1035.116	1190.58
1035.403	1188.99
1035.691	1181.99
1035.979	1171.37
1036.267	1155.1
1036.554	1150.8
1036.842	1137.02
1037.129	1134.08
1037.417	1142.22
1037.704	1116.23
1037.992	1124.14
1038.279	1118.04
1038.566	1120.52
1038.853	1120.52
1039.14	1120.52
