Data from red_cardboard_box_FLMS001491_00017.txt Node
Date: Wed Feb 08 11:31:36 GMT 2017
User: dcchb
Spectrometer: FLMS00149
Trigger mode: 0
Integration Time (sec): 2.000000E-2
Scans to average: 10
Electric dark correction enabled: true
Nonlinearity correction enabled: false
Boxcar width: 0
XAxis mode: Wavelengths
Number of Pixels in Spectrum: 2048
>>>>>Begin Spectral Data<<<<<
341.393	-3.95
341.776	-3.95
342.16	-3.95
342.543	-62.26
342.927	-82.14
343.31	-60
343.693	-64.74
344.077	-59.32
344.46	-62.48
344.843	-45.99
345.226	-44.41
345.61	-26.55
345.993	-22.26
346.376	-6.89
346.759	-10.51
347.142	25.65
347.525	35.14
347.908	49.38
348.291	82.6
348.674	92.99
349.057	117.4
349.44	128.47
349.823	140.45
350.206	179.77
350.588	196.72
350.971	211.41
351.354	216.38
351.737	238.75
352.119	237.85
352.502	245.53
352.884	280.78
353.267	271.74
353.65	292.31
354.032	312.42
354.414	300.67
354.797	312.2
355.179	322.82
355.562	321.23
355.944	345.64
356.326	322.82
356.709	331.63
357.091	304.96
357.473	330.95
357.855	350.84
358.238	339.31
358.62	337.96
359.002	327.11
359.384	351.06
359.766	326.21
360.148	342.48
360.53	354
360.912	325.08
361.294	335.25
361.676	337.51
362.057	344.51
362.439	318.97
362.821	332.99
363.203	318.07
363.584	320.33
363.966	327.79
364.348	324.4
364.729	326.66
365.111	310.84
365.493	312.2
365.874	321.69
366.256	301.57
366.637	325.75
367.019	309.71
367.4	308.35
367.781	320.33
368.163	314.46
368.544	282.37
368.925	298.86
369.306	321.91
369.688	319.88
370.069	302.03
370.45	302.7
370.831	296.83
371.212	303.61
371.593	307.45
371.974	304.51
372.355	299.31
372.736	315.36
373.117	314.46
373.498	331.4
373.879	315.81
374.26	311.29
374.641	313.78
375.021	301.35
375.402	320.1
375.783	312.2
376.163	320.33
376.544	331.86
376.925	325.98
377.305	322.36
377.686	324.17
378.066	316.26
378.447	345.19
378.827	325.53
379.208	321.23
379.588	323.72
379.968	333.66
380.349	332.99
380.729	322.36
381.109	330.95
381.489	320.33
381.87	320.78
382.25	304.96
382.63	335.7
383.01	336.15
383.39	314
383.77	308.35
384.15	334.12
384.53	347.45
384.91	334.79
385.29	325.53
385.67	346.32
386.049	338.86
386.429	334.57
386.809	335.02
387.189	352.42
387.568	323.95
387.948	344.06
388.328	348.35
388.707	346.54
389.087	347.9
389.466	323.49
389.846	365.53
390.225	348.58
390.605	340.89
390.984	328.47
391.363	321.69
391.743	356.04
392.122	324.17
392.501	352.19
392.881	354.68
393.26	330.95
393.639	365.08
394.018	358.52
394.397	331.63
394.776	360.1
395.155	352.42
395.534	353.32
395.913	378.86
396.292	350.61
396.671	372.31
397.05	357.84
397.429	368.01
397.808	342.02
398.186	348.8
398.565	359.43
398.944	376.15
399.323	380.89
399.701	363.49
400.08	346.77
400.458	347.67
400.837	372.53
401.215	369.59
401.594	370.05
401.972	378.41
402.351	368.01
402.729	366.21
403.107	381.8
403.486	386.09
403.864	376.83
404.242	375.24
404.62	371.4
404.999	355.13
405.377	372.08
405.755	372.53
406.133	378.18
406.511	378.18
406.889	377.28
407.267	400.55
407.645	371.85
408.023	402.14
408.401	389.03
408.779	392.87
409.156	401.23
409.534	391.06
409.912	399.65
410.29	403.04
410.667	393.32
411.045	405.53
411.422	402.81
411.8	435.58
412.178	388.35
412.555	424.51
412.933	407.33
413.31	414.79
413.687	409.82
414.065	411.4
414.442	412.53
414.819	443.04
415.197	399.65
415.574	426.32
415.951	419.76
416.328	423.83
416.705	406.43
417.082	380.22
417.46	402.14
417.837	447.11
418.214	432.87
418.591	428.35
418.967	448.69
419.344	425.64
419.721	434.45
420.098	446.2
420.475	449.59
420.852	441.91
421.228	431.29
421.605	440.33
421.982	417.28
422.358	450.5
422.735	440.55
423.111	450.27
423.488	456.37
423.864	442.14
424.241	446.65
424.617	456.15
424.994	457.73
425.37	462.93
425.746	462.25
426.123	462.7
426.499	434.45
426.875	464.06
427.251	461.57
427.627	474.9
428.003	475.13
428.379	471.06
428.756	465.41
429.132	470.61
429.507	474.45
429.883	469.25
430.259	483.26
430.635	497.73
431.011	483.26
431.387	506.99
431.763	496.15
432.138	498.18
432.514	499.31
432.89	500.89
433.265	509.48
433.641	515.13
434.016	516.26
434.392	510.16
434.767	528.69
435.143	518.29
435.518	519.42
435.894	519.87
436.269	540.21
436.644	557.61
437.02	551.28
437.395	530.95
437.77	541.12
438.145	528.91
438.52	559.42
438.895	545.64
439.271	535.92
439.646	549.25
440.021	561.45
440.395	549.03
440.77	563.94
441.145	570.04
441.52	572.08
441.895	572.08
442.27	582.47
442.645	563.26
443.019	583.37
443.394	570.49
443.769	604.84
444.143	586.31
444.518	581.79
444.892	585.86
445.267	604.39
445.641	589.48
446.016	603.49
446.39	584.05
446.764	605.07
447.139	592.87
447.513	598.06
447.887	604.84
448.262	610.94
448.636	605.97
449.01	623.83
449.384	619.53
449.758	624.5
450.132	608.23
450.506	602.58
450.88	635.58
451.254	610.49
451.628	611.17
452.002	629.47
452.376	636.03
452.75	633.09
453.123	647.55
453.497	643.49
453.871	647.55
454.244	671.06
454.618	648.91
454.992	651.4
455.365	650.94
455.739	667.44
456.112	655.01
456.486	663.82
456.859	682.13
457.232	662.02
457.606	688.68
457.979	687.33
458.352	703.82
458.725	677.16
459.099	697.95
459.472	707.67
459.845	693.2
460.218	737.72
460.591	714.67
460.964	703.82
461.337	745.63
461.71	738.17
462.083	732.98
462.456	746.99
462.829	768.23
463.201	750.83
463.574	740.88
463.947	756.48
464.32	753.31
464.692	751.28
465.065	773.43
465.438	794.67
465.81	789.47
466.183	785.18
466.555	791.05
466.928	784.73
467.3	806.42
467.672	820.88
468.045	807.78
468.417	837.83
468.789	815.91
469.161	824.95
469.534	811.84
469.906	836.48
470.278	840.77
470.65	858.62
471.022	898.62
471.394	863.82
471.766	885.06
472.138	895.23
472.51	887.32
472.882	896.13
473.253	943.37
473.625	917.15
473.997	939.3
474.369	974.78
474.74	957.15
475.112	973.19
475.484	985.17
475.855	973.87
476.227	986.98
476.598	1001.22
476.97	1006.41
477.341	1032.18
477.713	1044.15
478.084	1033.31
478.455	1050.71
478.827	1080.31
479.198	1082.12
479.569	1102.68
479.94	1108.33
480.311	1127.77
480.682	1114.43
481.053	1161.66
481.424	1178.84
481.795	1193.98
482.166	1215.45
482.537	1224.94
482.908	1214.54
483.279	1226.52
483.65	1257.71
484.021	1265.84
484.391	1275.11
484.762	1294.54
485.133	1293.41
485.503	1343.13
485.874	1320.98
486.244	1337.93
486.615	1358.5
486.985	1387.42
487.356	1394.65
487.726	1405.5
488.097	1406.86
488.467	1440.75
488.837	1478.27
489.207	1490.92
489.578	1498.6
489.948	1493.18
490.318	1514.88
490.688	1511.71
491.058	1545.38
491.428	1550.35
491.798	1545.84
492.168	1603.23
492.538	1631.26
492.908	1643.91
493.278	1631.03
493.648	1610.01
494.017	1667.41
494.387	1667.41
494.757	1675.32
495.126	1718.26
495.496	1700.41
495.866	1734.53
496.235	1735.43
496.605	1753.97
496.974	1753.06
497.344	1767.52
497.713	1765.72
498.082	1781.08
498.452	1805.04
498.821	1815.88
499.19	1835.54
499.559	1837.8
499.928	1872.15
500.298	1843.45
500.667	1923
501.036	1868.76
501.405	1902.89
501.774	1940.17
502.143	1939.72
502.512	1924.13
502.88	1960.74
503.249	1955.32
503.618	1975.88
503.987	1974.07
504.356	1980.85
504.724	1995.99
505.093	2004.35
505.462	2027.4
505.83	2077.12
506.199	2031.47
506.567	2086.61
506.936	2084.35
507.304	2082.32
507.672	2080.51
508.041	2118.02
508.409	2129.32
508.777	2158.25
509.145	2172.71
509.514	2151.92
509.882	2192.37
510.25	2178.81
510.618	2212.71
510.986	2256.32
511.354	2235.53
511.722	2242.77
512.09	2264.01
512.458	2244.12
512.826	2282.54
513.193	2296.32
513.561	2323.89
513.929	2308.3
514.297	2370.45
514.664	2354.18
515.032	2374.97
515.4	2410.9
515.767	2394.63
516.135	2424
516.502	2432.37
516.869	2451.8
517.237	2475.3
517.604	2479.37
517.972	2492.7
518.339	2491.8
518.706	2536.09
519.073	2555.07
519.44	2524.79
519.808	2562.31
520.175	2594.17
520.542	2639.82
520.909	2635.3
521.276	2630.55
521.643	2659.48
522.009	2709.42
522.376	2697.67
522.743	2695.86
523.11	2734.96
523.477	2782.86
523.843	2791.9
524.21	2833.03
524.577	2826.71
524.943	2849.76
525.31	2863.77
525.676	2932.24
526.043	2933.82
526.409	2911.22
526.776	2941.5
527.142	2957.1
527.508	2957.55
527.874	2980.15
528.241	3002.52
528.607	3035.97
528.973	3074.83
529.339	3073.48
529.705	3127.26
530.071	3144.21
530.437	3150.31
530.803	3156.19
531.169	3162.06
531.535	3182.85
531.901	3242.97
532.267	3199.8
532.632	3233.25
532.998	3282.96
533.364	3280.7
533.73	3290.87
534.095	3317.77
534.461	3353.47
534.826	3348.73
535.192	3374.49
535.557	3379.01
535.923	3420.14
536.288	3422.4
536.653	3474.37
537.019	3482.96
537.384	3450.64
537.749	3453.36
538.114	3497.42
538.479	3496.74
538.845	3499.91
539.21	3530.42
539.575	3549.17
539.94	3558.66
540.305	3572
540.67	3569.28
541.034	3633.46
541.399	3594.82
541.764	3677.76
542.129	3643.18
542.494	3621.94
542.858	3670.3
543.223	3707.59
543.587	3727.47
543.952	3706.91
544.316	3730.41
544.681	3766.57
545.045	3782.39
545.41	3867.13
545.774	3844.08
546.138	3831.65
546.503	3814.93
546.867	3857.41
547.231	3880.01
547.595	3894.47
547.959	3961.36
548.324	3925.66
548.688	3983.29
549.052	4000.01
549.416	4062.83
549.779	4021.02
550.143	4049.27
550.507	4082.04
550.871	4110.29
551.235	4133.34
551.599	4155.48
551.962	4199.55
552.326	4159.1
552.689	4216.05
553.053	4218.08
553.417	4229.15
553.78	4298.76
554.143	4319.77
554.507	4310.51
554.87	4306.44
555.234	4413.78
555.597	4401.58
555.96	4440.9
556.323	4452.2
556.686	4484.06
557.05	4503.5
557.413	4560.45
557.776	4599.77
558.139	4649.26
558.502	4649.93
558.865	4648.13
559.228	4727.9
559.59	4782.36
559.953	4773.77
560.316	4854.45
560.679	4818.29
561.041	4877.05
561.404	4933.99
561.767	4938.51
562.129	4949.81
562.492	5020.32
562.854	5068.23
563.217	5086.31
563.579	5123.14
563.941	5196.81
564.304	5255.79
564.666	5251.95
565.028	5282.23
565.39	5321.55
565.753	5391.84
566.115	5450.37
566.477	5484.04
566.839	5503.92
567.201	5578.95
567.563	5650.81
567.925	5678.83
568.287	5732.62
568.648	5774.88
569.01	5847.64
569.372	5850.13
569.734	5885.83
570.095	5983.91
570.457	6001.54
570.819	6108.65
571.18	6135.32
571.542	6199.27
571.903	6247.63
572.265	6287.63
572.626	6393.39
572.987	6416.44
573.349	6470.45
573.71	6481.3
574.071	6576.44
574.432	6699.6
574.794	6767.62
575.155	6815.3
575.516	6803.78
575.877	6911.34
576.238	6962.87
576.599	7044.45
576.96	7107.27
577.32	7172.13
577.681	7260.94
578.042	7354.95
578.403	7450.99
578.763	7475.4
579.124	7620.48
579.485	7700.7
579.845	7795.16
580.206	7894.82
580.566	7993.12
580.927	8089.39
581.287	8246.22
581.648	8303.17
582.008	8419.55
582.368	8456.16
582.728	8561.24
583.089	8721.69
583.449	8825.64
583.809	9020.67
584.169	9093.21
584.529	9227.89
584.889	9449.36
585.249	9572.52
585.609	9648.45
585.969	9922.79
586.329	10038.95
586.688	10153.07
587.048	10383.57
587.408	10542.66
587.768	10716.22
588.127	10872.37
588.487	11068.52
588.846	11399.81
589.206	11461.51
589.565	11652.91
589.925	11938.78
590.284	12125.44
590.643	12453.34
591.003	12670.51
591.362	12913.22
591.721	13184.4
592.08	13386.65
592.44	13677.72
592.799	13906.64
593.158	14131.27
593.517	14415.55
593.876	14731.93
594.235	14917.91
594.593	15203.78
594.952	15477.22
595.311	15771.9
595.67	16104.32
596.029	16581.37
596.387	16877.41
596.746	17122.83
597.104	17386.77
597.463	17628.8
597.822	18086.87
598.18	18323.92
598.538	18556.69
598.897	18994.64
599.255	19156.45
599.613	19765.47
599.972	19960.72
600.33	20348.96
600.688	20555.73
601.046	20946
601.404	21388.48
601.762	21794.12
602.12	22075.92
602.478	22372.63
602.836	22745.5
603.194	22768.78
603.552	23222.55
603.91	23505.26
604.268	23982.08
604.625	24314.05
604.983	24631.56
605.341	24792.23
605.698	25215.04
606.056	25572.77
606.413	25778.64
606.771	26193.32
607.128	26484.16
607.485	26577.95
607.843	26939.52
608.2	27289.34
608.557	27670.35
608.914	27785.37
609.272	28241.86
609.629	28405.02
609.986	28763.42
610.343	28881.61
610.7	29271.89
611.057	29455.38
611.414	29574.93
611.771	30035.71
612.127	30212.65
612.484	30398.64
612.841	30825.74
613.198	30823.71
613.554	31068.67
613.911	31404.03
614.267	31409
614.624	31776.9
614.98	31883.12
615.337	32200.4
615.693	32289.21
616.05	32491.01
616.406	32775.97
616.762	32834.05
617.118	33010.32
617.475	33239.46
617.831	33453.47
618.187	33482.17
618.543	33731.88
618.899	34165.32
619.255	34087.58
619.611	34226.33
619.967	34528.47
620.323	34675.81
620.678	34713.1
621.034	34612.31
621.39	34795.13
621.746	34931.62
622.101	35472.4
622.457	35196.25
622.812	35341.78
623.168	35576.35
623.523	35688.21
623.879	35724.15
624.234	35767.31
624.589	35965.27
624.945	36064.93
625.3	36173.63
625.655	36167.75
626.01	36280.51
626.365	36266.28
626.72	36291.36
627.075	36515.76
627.43	36431.47
627.785	36448.87
628.14	36767.51
628.495	36819.26
628.85	36787.85
629.205	36761.86
629.559	37027.39
629.914	36933.61
630.269	36981.29
630.623	36976.32
630.978	36878.92
631.332	37088.4
631.687	37218.8
632.041	37150.77
632.396	37293.82
632.75	37160.94
633.104	37243.2
633.459	37235.97
633.813	37196.2
634.167	37337.66
634.521	37388.06
634.875	37335.63
635.229	37469.86
635.583	37299.47
635.937	37240.94
636.291	37182.19
636.645	37295.63
636.999	37307.15
637.352	37389.41
637.706	37095.18
638.06	37375.4
638.413	37334.5
638.767	37193.03
639.121	37398.23
639.474	37338.34
639.828	37214.95
640.181	37315.29
640.534	37518
640.888	37230.77
641.241	37268.51
641.594	37326.36
641.947	37365.68
642.301	37142.19
642.654	37306.7
643.007	37234.84
643.36	37361.16
643.713	37312.13
644.066	37468.96
644.419	37056.77
644.771	37039.14
645.124	36547.4
645.477	36558.25
645.83	36414.3
646.182	36211.59
646.535	36375.65
646.888	36443.9
647.24	36296.56
647.593	36403.22
647.945	36442.09
648.298	36354.41
648.65	36204.58
649.002	36126.17
649.355	36398.93
649.707	36318.25
650.059	36466.05
650.411	36933.83
650.763	36890.44
651.115	37340.15
651.467	37131.57
651.819	37272.13
652.171	37072.58
652.523	37157.33
652.875	37065.13
653.227	36976.54
653.578	37301.73
653.93	37241.85
654.282	37084.11
654.633	36966.82
654.985	37288.85
655.337	37105.35
655.688	37188.51
656.039	37254.95
656.391	36969.99
656.742	37036.65
657.094	37052.7
657.445	37059.93
657.796	37155.97
658.147	36990.78
658.498	36920.5
658.849	37117.56
659.2	36924.79
659.551	36858.8
659.902	37028.97
660.253	36948.07
660.604	37021.74
660.955	36938.8
661.306	37015.18
661.656	37003.66
662.007	37046.14
662.358	37080.04
662.708	37032.59
663.059	37047.95
663.409	36748.98
663.76	37049.76
664.11	36995.75
664.461	37084.56
664.811	36942.87
665.161	37008.63
665.511	36860.84
665.862	36975.64
666.212	37088.86
666.562	37190.32
666.912	36951.68
667.262	36949.65
667.612	36918.24
667.962	37005.69
668.312	36891.8
668.662	37137.67
669.011	37132.7
669.361	36926.37
669.711	36868.3
670.06	36761.63
670.41	36879.82
670.76	36660.17
671.109	36927.05
671.459	36799.82
671.808	36922.08
672.157	36961.85
672.507	36728.19
672.856	36713.27
673.205	36801.18
673.554	36823.1
673.904	36731.8
674.253	36826.94
674.602	36713.5
674.951	36353.73
675.3	36096.11
675.649	36635.53
675.998	36595.99
676.346	36695.65
676.695	36771.8
677.044	36628.3
677.393	36669.66
677.741	36669.21
678.09	36516.44
678.438	36545.59
678.787	36566.61
679.135	36541.3
679.484	36291.14
679.832	36430.57
680.181	36051.14
680.529	36360.06
680.877	36257.24
681.225	36097.92
681.573	36340.17
681.922	36158.94
682.27	36040.75
682.618	36077.36
682.966	35993.06
683.314	35941.31
683.661	35937.47
684.009	35731.15
684.357	35711.72
684.705	35547.2
685.053	35552.17
685.4	35561.89
685.748	35501.55
686.095	35502.46
686.443	35294.33
686.79	35328.68
687.138	35324.61
687.485	35464.72
687.832	35209.58
688.18	35377.26
688.527	35135.01
688.874	34984.5
689.221	34984.73
689.568	34888.69
689.915	34683.49
690.262	34731.4
690.609	34679.2
690.956	34661.12
691.303	34684.4
691.65	34444.86
691.997	34583.84
692.344	34184.52
692.69	34188.82
693.037	34287.57
693.383	33856.62
693.73	34078.54
694.077	33767.59
694.423	33906.11
694.769	33815.27
695.116	33641.04
695.462	33752.45
695.808	33481.72
696.155	33501.15
696.501	33269.97
696.847	33417.54
697.193	33109.07
697.539	33234.72
697.885	32907.72
698.231	33085.8
698.577	32964.22
698.923	32831.57
699.269	32736.43
699.614	32587.5
699.96	32495.76
700.306	32672.25
700.651	32378.47
700.997	32414.63
701.342	32253.95
701.688	32206.27
702.033	32081.08
702.379	32065.71
702.724	31946.17
703.069	32040.63
703.415	31693.97
703.76	31795.44
704.105	31709.56
704.45	31654.2
704.795	31528.32
705.14	31379.4
705.485	31388.89
705.83	31366.97
706.175	31364.26
706.52	31260.76
706.865	31167.43
707.209	31180.31
707.554	31015.57
707.899	31037.71
708.243	30895.12
708.588	30846.31
708.932	30573.32
709.277	30588.46
709.621	30558.63
709.966	30378.52
710.31	30570.16
710.654	30246.55
710.998	30264.63
711.342	30268.24
711.687	30221.69
712.031	30108.93
712.375	29839.55
712.719	30136.27
713.063	30027.57
713.407	30164.97
713.75	29860.57
714.094	29817.18
714.438	29779.67
714.782	29744.19
715.125	29562.27
715.469	29705.77
715.812	29412.45
716.156	29329.06
716.499	29368.38
716.843	29490.41
717.186	29256.29
717.53	29397.98
717.873	29360.7
718.216	29116.64
718.559	29218.55
718.902	29090.2
719.246	29030.08
719.589	28881.61
719.932	28769.98
720.275	28811.78
720.617	28757.55
720.96	28744.89
721.303	28748.51
721.646	28834.61
721.989	28674.61
722.331	28788.06
722.674	28559.59
723.016	28507.84
723.359	28504
723.701	28560.04
724.044	28320.27
724.386	28271.91
724.729	28424
725.071	28272.36
725.413	28334.96
725.755	28227.85
726.097	28142.42
726.439	27947.85
726.782	27984.91
727.124	28135.87
727.465	27847.97
727.807	27939.04
728.149	27930.23
728.491	27790.57
728.833	27840.06
729.175	27761.19
729.516	27751.25
729.858	27673.51
730.199	27698.82
730.541	27635.32
730.882	27687.97
731.224	27587.86
731.565	27420.63
731.906	27425.38
732.248	27577.92
732.589	27368.66
732.93	27211.15
733.271	27352.84
733.612	27278.49
733.953	27290.69
734.294	27278.49
734.635	27123.02
734.976	27297.25
735.317	27046.63
735.658	27039.18
735.999	26950.14
736.339	26915.34
736.68	27045.05
737.021	27046.86
737.361	26931.83
737.702	26993.53
738.042	26952.17
738.383	26891.84
738.723	26855.9
739.063	26793.76
739.404	26793.76
739.744	26670.82
740.084	26616.59
740.424	26708.34
740.764	26614.33
741.104	26811.61
741.444	26458.85
741.784	26429.25
742.124	26502.69
742.464	26314.45
742.804	26505.4
743.143	26337.05
743.483	26330.49
743.823	26329.36
744.162	26214.34
744.502	26236.03
744.841	26237.16
745.181	26321.91
745.52	26200.55
745.86	26122.36
746.199	26104.29
746.538	26022.03
746.877	26200.33
747.216	26017.06
747.556	25922.37
747.895	26066.55
748.234	25933.67
748.573	25885.53
748.911	25850.96
749.25	25788.36
749.589	25719.21
749.928	25725.54
750.267	25666.33
750.605	25740.91
750.944	25781.13
751.283	25511.31
751.621	25553.79
751.96	25436.96
752.298	25486.22
752.636	25497.07
752.975	25321.03
753.313	25274.25
753.651	25241.03
753.989	25367.36
754.327	25211.65
754.666	25011.66
755.004	25146.12
755.342	25211.88
755.679	25000.13
756.017	24914.26
756.355	25054.14
756.693	24825.22
757.031	24893.24
757.368	24716.3
757.706	24760.82
758.044	24631.1
758.381	24820.93
758.719	24505.46
759.056	24647.37
759.394	24436.98
759.731	24385.01
760.068	24272.02
760.405	24204.22
760.743	24178.69
761.08	24255.29
761.417	23979.14
761.754	24072.7
762.091	23930.33
762.428	24005.81
762.765	23643.33
763.102	23820.05
763.438	23705.03
763.775	23489.44
764.112	23605.59
764.449	23564.24
764.785	23447.18
765.122	23440.85
765.458	23253.51
765.795	23281.76
766.131	23252.61
766.467	23154.53
766.804	23050.35
767.14	22953.18
767.476	22833.41
767.812	22810.13
768.148	22801.77
768.485	22778.95
768.821	22634.32
769.157	22559.07
769.492	22412.41
769.828	22511.84
770.164	22234.78
770.5	22294.89
770.836	22296.02
771.171	22218.29
771.507	22073.66
771.842	21888.35
772.178	21899.65
772.513	21810.61
772.849	21703.95
773.184	21690.62
773.519	21751.86
773.855	21592.54
774.19	21508.93
774.525	21482.94
774.86	21448.14
775.195	21312.09
775.53	21268.03
775.865	21170.63
776.2	21007.7
776.535	20854.03
776.87	20885.67
777.205	20837.76
777.539	20706.01
777.874	20741.04
778.209	20545.56
778.543	20615.62
778.878	20500.36
779.212	20437.77
779.547	20314.83
779.881	20350.09
780.215	20200.03
780.55	20151.45
780.884	20025.58
781.218	20061.96
781.552	20037.78
781.886	19884.56
782.22	19782.19
782.554	19613.16
782.888	19580.16
783.222	19459.71
783.556	19466.27
783.889	19360.28
784.223	19232.6
784.557	19364.35
784.89	19289.1
785.224	19131.59
785.557	19096.56
785.891	18981.08
786.224	18979.05
786.558	18983.57
786.891	18774.31
787.224	18786.96
787.557	18708.1
787.891	18682.56
788.224	18629.45
788.557	18614.31
788.89	18561.88
789.223	18469.01
789.556	18224.49
789.888	18288.9
790.221	18278.95
790.554	18095.91
790.887	18092.07
791.219	17995.12
791.552	17939.53
791.884	17890.26
792.217	17865.86
792.549	17769.14
792.882	17624.96
793.214	17585.64
793.546	17641.23
793.879	17582.25
794.211	17435.13
794.543	17469.26
794.875	17341.58
795.207	17473.33
795.539	17326.66
795.871	17341.13
796.203	17173.22
796.535	17080.57
796.867	17074.47
797.198	17011.87
797.53	16949.72
797.862	16830.4
798.193	16918.99
798.525	16749.28
798.856	16794.47
799.188	16622.05
799.519	16638.09
799.85	16532.79
800.182	16560.36
800.513	16542.28
800.844	16209.18
801.175	16427.7
801.506	16461.83
801.837	16253.7
802.168	16250.53
802.499	16167.82
802.83	16106.81
803.161	16091.22
803.491	16074.49
803.822	16039.01
804.153	16012.57
804.483	15828.62
804.814	15834.72
805.145	15812.35
805.475	15752.02
805.805	15697.33
806.136	15659.81
806.466	15762.18
806.796	15630.21
807.126	15504.56
807.457	15460.5
807.787	15482.42
808.117	15406.94
808.447	15333.95
808.777	15329.2
809.107	15258.02
809.436	15335.53
809.766	15218.24
810.096	15213.5
810.426	15106.61
810.755	15182.54
811.085	15057.57
811.414	15047.17
811.744	14955.88
812.073	14871.81
812.403	14956.33
812.732	14836.33
813.061	14835.2
813.39	14797.46
813.719	14658.26
814.049	14723.34
814.378	14682.21
814.707	14649.22
815.036	14552.27
815.365	14565.38
815.693	14455.55
816.022	14425.72
816.351	14409.68
816.68	14207.65
817.008	14298.04
817.337	14211.26
817.665	14247.87
817.994	14222.34
818.322	14252.17
818.651	14086.52
818.979	14123.13
819.307	14183.47
819.636	14056.92
819.964	13998.84
820.292	14100.31
820.62	14061.66
820.948	14040.2
821.276	14040.87
821.604	13983.25
821.932	14075.9
822.259	14066.18
822.587	13989.35
822.915	13951.84
823.243	14054.66
823.57	13926.53
823.898	13941.89
824.225	13914.32
824.553	13876.13
824.88	13953.42
825.207	13950.03
825.535	13912.97
825.862	13961.55
826.189	13906.64
826.516	13923.14
826.843	13952.29
827.17	13924.04
827.497	13927.2
827.824	13969.92
828.151	13919.3
828.478	13893.98
828.805	13950.03
829.131	13877.49
829.458	13869.35
829.785	13780.99
830.111	13790.48
830.438	13894.89
830.764	13874.78
831.09	13848.56
831.417	13776.02
831.743	13854.66
832.069	13832.07
832.395	13784.38
832.722	13836.59
833.048	13830.48
833.374	13865.29
833.7	13782.8
834.026	13823.48
834.351	13817.6
834.677	13712.97
835.003	13730.15
835.329	13782.35
835.654	13691.05
835.98	13694.89
836.306	13733.54
836.631	13655.8
836.956	13728.34
837.282	13628.68
837.607	13591.62
837.932	13577.61
838.258	13617.83
838.583	13581.9
838.908	13484.96
839.233	13521.11
839.558	13422.58
839.883	13397.05
840.208	13381.46
840.533	13439.08
840.858	13443.6
841.182	13380.1
841.507	13330.84
841.832	13286.09
842.156	13304.62
842.481	13326.99
842.805	13098.53
843.13	13280.44
843.454	13178.75
843.778	13139.88
844.103	13095.14
844.427	13101.01
844.751	13064.4
845.075	12946.67
845.399	13035.93
845.723	12962.03
846.047	12937.85
846.371	12863.28
846.695	12795.71
847.019	12703.06
847.343	12676.62
847.666	12590.97
847.99	12594.81
848.313	12546
848.637	12461.25
848.96	12375.38
849.284	12423.52
849.607	12311.65
849.931	12311.88
850.254	12218.1
850.577	12188.49
850.9	12114.14
851.223	12066.46
851.546	12013.13
851.869	11919.12
852.192	12017.42
852.515	11862.63
852.838	11787.37
853.161	11867.37
853.483	11756.87
853.806	11759.58
854.129	11713.25
854.451	11667.83
854.774	11634.84
855.096	11574.95
855.419	11476.65
855.741	11541.28
856.063	11540.15
856.385	11498.79
856.708	11384.9
857.03	11366.14
857.352	11345.35
857.674	11313.71
857.996	11285.24
858.318	11276.2
858.64	11293.15
858.961	11229.65
859.283	11147.39
859.605	11073.49
859.926	11147.39
860.248	11125.92
860.57	11037.34
860.891	11091.8
861.212	10948.75
861.534	10868.75
861.855	10959.6
862.176	10941.07
862.498	10884.57
862.819	10923.89
863.14	10856.1
863.461	10791.92
863.782	10765.71
864.103	10730.45
864.424	10753.73
864.745	10701.75
865.065	10764.8
865.386	10729.55
865.707	10621.75
866.027	10667.18
866.348	10720.06
866.668	10673.96
866.989	10628.31
867.309	10559.84
867.63	10524.81
867.95	10598.93
868.27	10500.85
868.59	10608.42
868.91	10520.51
869.23	10511.25
869.55	10406.85
869.87	10508.09
870.19	10446.17
870.51	10400.07
870.83	10426.73
871.15	10335.43
871.469	10435.54
871.789	10391.25
872.109	10314.19
872.428	10333.85
872.748	10313.29
873.067	10265.38
873.386	10278.94
873.706	10252.05
874.025	10218.83
874.344	10152.16
874.663	10241.43
874.982	10143.35
875.301	10139.96
875.62	10166.4
875.939	10123.24
876.258	10095.89
876.577	10125.72
876.896	10124.59
877.214	10028.55
877.533	10013.18
877.852	10036.23
878.17	10044.82
878.489	10016.57
878.807	10022
879.125	10027.65
879.444	10019.96
879.762	9934.77
880.08	9983.81
880.398	9846.18
880.716	9865.62
881.034	9828.78
881.352	9805.05
881.67	9800.99
881.988	9906.52
882.306	9742.91
882.624	9745.62
882.941	9774.32
883.259	9671.27
883.577	9699.07
883.894	9666.53
884.212	9615
884.529	9607.32
884.846	9598.5
885.164	9558.96
885.481	9577.71
885.798	9538.39
886.115	9473.99
886.432	9439.86
886.75	9492.07
887.067	9460.88
887.383	9373.88
887.7	9485.74
888.017	9310.83
888.334	9360.09
888.651	9346.99
888.967	9326.65
889.284	9247.78
889.6	9285.29
889.917	9246.42
890.233	9190.38
890.55	9184.73
890.866	9148.35
891.182	9121.23
891.498	9106.09
891.815	9068.35
892.131	9075.81
892.447	9122.58
892.763	8994.45
893.079	8963.27
893.395	8975.02
893.71	8933.21
894.026	8885.08
894.342	8895.92
894.657	8800.11
894.973	8829.94
895.289	8795.81
895.604	8747.23
895.92	8694.35
896.235	8729.83
896.55	8678.3
896.865	8684.18
897.181	8595.37
897.496	8596.95
897.811	8603.05
898.126	8465.65
898.441	8463.39
898.756	8442.6
899.071	8421.13
899.386	8440.57
899.7	8420.68
900.015	8304.3
900.33	8311.31
900.644	8271.99
900.959	8283.06
901.273	8276.73
901.588	8219.11
901.902	8183.17
902.216	8136.85
902.531	8126.68
902.845	8100.46
903.159	8083.29
903.473	8009.85
903.787	8024.76
904.101	7904.09
904.415	7981.6
904.729	7881.49
905.042	7895.27
905.356	7875.61
905.67	7855.95
905.984	7901.37
906.297	7735.95
906.611	7721.49
906.924	7694.37
907.237	7672
907.551	7670.19
907.864	7643.53
908.177	7597.65
908.491	7584.32
908.804	7535.96
909.117	7561.95
909.43	7445.34
909.743	7433.82
910.056	7372.57
910.368	7431.78
910.681	7350.43
910.994	7280.83
911.307	7241.05
911.619	7294.16
911.932	7262.29
912.244	7142.07
912.557	7160.15
912.869	7111.34
913.181	7120.15
913.494	7060.27
913.806	6999.48
914.118	7035.41
914.43	6975.3
914.742	6963.09
915.054	6938.24
915.366	6935.3
915.678	6895.52
915.99	6851.68
916.302	6821.18
916.613	6839.48
916.925	6766.71
917.236	6759.94
917.548	6724
917.859	6673.16
918.171	6668.64
918.482	6612.82
918.794	6670.45
919.105	6590.9
919.416	6558.58
919.727	6578.25
920.038	6503.44
920.349	6432.71
920.66	6479.94
920.971	6459.15
921.282	6373.05
921.593	6351.13
921.903	6333.28
922.214	6323.11
922.525	6344.35
922.835	6277.91
923.146	6230.01
923.456	6172.83
923.767	6175.54
924.077	6196.11
924.387	6175.77
924.697	6079.73
925.008	6067.98
925.318	6055.77
925.628	6034.53
925.938	6007.41
926.248	5948.66
926.558	5961.31
926.867	5943.91
927.177	5926.28
927.487	5853.07
927.796	5836.12
928.106	5802.22
928.416	5766.06
928.725	5785.72
929.034	5769
929.344	5706.86
929.653	5709.79
929.962	5693.75
930.271	5635.67
930.581	5617.59
930.89	5553.19
931.199	5552.51
931.508	5586.18
931.817	5587.31
932.125	5504.15
932.434	5487.2
932.743	5432.51
933.051	5409.01
933.36	5409.01
933.669	5335.57
933.977	5320.65
934.286	5343.7
934.594	5297.6
934.902	5263.7
935.21	5292.63
935.519	5307.54
935.827	5262.8
936.135	5231.84
936.443	5145.97
936.751	5147.55
937.059	5144.84
937.367	5112.97
937.674	5091.28
937.982	5119.3
938.29	5051.73
938.597	5068.45
938.905	4985.52
939.213	4986.42
939.52	4922.47
939.827	4984.84
940.135	4903.26
940.442	4905.75
940.749	4874.56
941.056	4896.26
941.363	4891.51
941.67	4859.87
941.977	4815.13
942.284	4749.14
942.591	4756.37
942.898	4738.97
943.205	4709.59
943.511	4696.71
943.818	4672.98
944.125	4669.59
944.431	4667.11
944.738	4595.7
945.044	4629.6
945.35	4537.39
945.657	4525.87
945.963	4540.11
946.269	4518.19
946.575	4539.2
946.881	4517.73
947.187	4468.47
947.493	4449.04
947.799	4431.18
948.105	4408.58
948.41	4352.09
948.716	4366.55
949.022	4362.26
949.327	4333.33
949.633	4338.08
949.938	4316.84
950.244	4360
950.549	4224.86
950.854	4244.52
951.16	4213.34
951.465	4221.24
951.77	4250.85
952.075	4139.89
952.38	4168.59
952.685	4116.84
952.99	4136.5
953.294	4137.41
953.599	4033.45
953.904	4044.07
954.209	4045.2
954.513	4018.09
954.818	4034.36
955.122	4009.95
955.426	3985.32
955.731	3965.66
956.035	3931.76
956.339	3970.4
956.643	3863.51
956.948	3925.21
957.252	3850.41
957.556	3865.1
957.86	3852.67
958.163	3766.57
958.467	3823.52
958.771	3804.31
959.075	3788.94
959.378	3750.07
959.682	3763.18
959.985	3730.86
960.289	3710.75
960.592	3707.59
960.896	3671.65
961.199	3676.17
961.502	3657.42
961.805	3598.89
962.108	3607.25
962.411	3567.7
962.714	3579.45
963.017	3581.71
963.32	3563.64
963.623	3522.28
963.926	3504.65
964.228	3490.19
964.531	3515.5
964.833	3519.12
965.136	3458.78
965.438	3427.59
965.741	3385.79
966.043	3420.14
966.345	3382.4
966.648	3379.01
966.95	3444.32
967.252	3341.72
967.554	3357.54
967.856	3350.99
968.158	3332.68
968.46	3280.7
968.761	3300.82
969.063	3271.89
969.365	3237.77
969.666	3243.42
969.968	3261.72
970.269	3205
970.571	3190.99
970.872	3172.01
971.174	3173.14
971.475	3131.56
971.776	3132.23
972.077	3143.99
972.378	3116.64
972.679	3104.66
972.98	3103.53
973.281	3090.88
973.582	3054.04
973.883	3046.59
974.183	3010.66
974.484	3030.99
974.785	3039.81
975.085	3035.74
975.386	3013.59
975.686	3028.28
975.986	2967.49
976.287	2981.05
976.587	2899.47
976.887	2944.22
977.187	2920.04
977.487	2904.44
977.787	2910.77
978.087	2849.3
978.387	2863.54
978.687	2853.37
978.987	2862.18
979.286	2834.16
979.586	2793.26
979.885	2787.61
980.185	2754.16
980.484	2727.95
980.784	2782.86
981.083	2727.5
981.382	2727.5
981.682	2712.81
981.981	2733.6
982.28	2728.63
982.579	2646.15
982.878	2674.17
983.177	2661.96
983.475	2659.03
983.774	2652.02
984.073	2638.91
984.372	2574.28
984.67	2608.41
984.969	2596.2
985.267	2603.21
985.566	2578.58
985.864	2562.98
986.162	2535.87
986.461	2536.32
986.759	2488.86
987.057	2501.74
987.355	2508.52
987.653	2478.92
987.951	2462.65
988.249	2461.74
988.547	2457.45
988.844	2439.82
989.142	2445.7
989.44	2422.2
989.737	2434.4
990.035	2390.56
990.332	2384.01
990.63	2360.05
990.927	2394.17
991.224	2380.16
991.521	2338.13
991.819	2314.4
992.116	2338.36
992.413	2293.39
992.71	2293.16
993.006	2324.57
993.303	2265.14
993.6	2269.43
993.897	2262.2
994.193	2249.77
994.49	2282.54
994.787	2234.63
995.083	2207.51
995.379	2207.96
995.676	2186.72
995.972	2177.91
996.268	2179.26
996.565	2173.84
996.861	2127.51
997.157	2130.68
997.453	2139.49
997.749	2112.15
998.044	2100.4
998.34	2059.27
998.636	2088.65
998.932	2069.44
999.227	2068.99
999.523	2063.34
999.818	2046.61
1000.114	2043.45
1000.409	2029.21
1000.704	1997.57
1001	2016.56
1001.295	1991.7
1001.59	2003.68
1001.885	1986.73
1002.18	1939.72
1002.475	1944.47
1002.77	1950.8
1003.065	1915.54
1003.359	1912.38
1003.654	1906.5
1003.949	1902.66
1004.243	1906.73
1004.538	1859.27
1004.832	1875.77
1005.127	1852.04
1005.421	1831.93
1005.715	1862.66
1006.009	1831.7
1006.304	1845.04
1006.598	1836.45
1006.892	1788.54
1007.186	1781.76
1007.48	1809.33
1007.773	1790.12
1008.067	1785.83
1008.361	1758.48
1008.655	1745.38
1008.948	1734.53
1009.242	1715.77
1009.535	1706.73
1009.829	1724.59
1010.122	1666.74
1010.415	1697.24
1010.708	1657.92
1011.001	1671.48
1011.295	1658.37
1011.588	1667.19
1011.881	1647.53
1012.173	1586.74
1012.466	1621.99
1012.759	1599.39
1013.052	1603.01
1013.344	1608.66
1013.637	1604.82
1013.93	1565.5
1014.222	1572.5
1014.514	1529.79
1014.807	1558.49
1015.099	1511.71
1015.391	1552.61
1015.683	1521.88
1015.976	1504.71
1016.268	1513.07
1016.56	1466.29
1016.851	1496.8
1017.143	1464.03
1017.435	1468.55
1017.727	1484.14
1018.018	1469
1018.31	1433.52
1018.602	1448.66
1018.893	1419.51
1019.185	1426.97
1019.476	1403.69
1019.767	1394.43
1020.058	1390.58
1020.35	1375.67
1020.641	1377.03
1020.932	1374.31
1021.223	1349.23
1021.514	1334.32
1021.804	1358.72
1022.095	1316.46
1022.386	1320.76
1022.677	1315.78
1022.967	1275.33
1023.258	1285.95
1023.548	1276.92
1023.839	1298.84
1024.129	1291.6
1024.419	1254.54
1024.709	1260.19
1025	1245.28
1025.29	1223.58
1025.58	1214.09
1025.87	1210.48
1026.16	1194.66
1026.449	1212.28
1026.739	1221.1
1027.029	1197.37
1027.319	1204.83
1027.608	1171.61
1027.898	1167.99
1028.187	1152.63
1028.477	1136.35
1028.766	1130.7
1029.055	1137.48
1029.344	1136.58
1029.634	1108.11
1029.923	1115.34
1030.212	1137.48
1030.501	1113.76
1030.79	1117.82
1031.078	1088.9
1031.367	1077.15
1031.656	1069.01
1031.945	1064.27
1032.233	1066.53
1032.522	1029.92
1032.81	1048
1033.099	1060.88
1033.387	1043.48
1033.675	1023.81
1033.963	1019.75
1034.251	1014.1
1034.54	1032.85
1034.828	1034.89
1035.116	1007.54
1035.403	970.93
1035.691	988.56
1035.979	991.5
1036.267	990.14
1036.554	962.12
1036.842	936.59
1037.129	934.33
1037.417	934.78
1037.704	944.49
1037.992	934.1
1038.279	941.56
1038.566	919.41
1038.853	919.41
1039.14	919.41
