Data from red_cardboard_box_FLMS001491_00062.txt Node
Date: Wed Feb 08 11:32:55 GMT 2017
User: dcchb
Spectrometer: FLMS00149
Trigger mode: 0
Integration Time (sec): 2.000000E-2
Scans to average: 10
Electric dark correction enabled: true
Nonlinearity correction enabled: false
Boxcar width: 0
XAxis mode: Wavelengths
Number of Pixels in Spectrum: 2048
>>>>>Begin Spectral Data<<<<<
341.393	-1.47
341.776	-1.47
342.16	-1.47
342.543	-65.2
342.927	-71.07
343.31	-68.59
343.693	-73.33
344.077	-74.24
344.46	-57.51
344.843	-69.04
345.226	-42.37
345.61	-16.61
345.993	-17.29
346.376	4.18
346.759	20.23
347.142	22.26
347.525	58.87
347.908	53.67
348.291	74.46
348.674	73.11
349.057	112.2
349.44	137.51
349.823	124.86
350.206	160.11
350.588	203.5
350.971	227.68
351.354	222.93
351.737	222.93
352.119	237.17
352.502	266.09
352.884	266.32
353.267	301.12
353.65	291.63
354.032	309.26
354.414	299.31
354.797	313.1
355.179	302.93
355.562	318.3
355.944	323.49
356.326	332.08
356.709	339.54
357.091	381.57
357.473	333.66
357.855	339.99
358.238	343.61
358.62	317.62
359.002	341.12
359.384	354.45
359.766	318.07
360.148	333.44
360.53	338.86
360.912	338.18
361.294	349.71
361.676	339.09
362.057	337.73
362.439	319.88
362.821	328.47
363.203	342.25
363.584	331.63
363.966	323.04
364.348	311.29
364.729	335.02
365.111	335.25
365.493	341.35
365.874	314.68
366.256	327.56
366.637	312.65
367.019	321.01
367.4	318.3
367.781	313.55
368.163	311.74
368.544	322.59
368.925	302.93
369.306	310.16
369.688	311.29
370.069	285.76
370.45	319.43
370.831	309.48
371.212	294.34
371.593	314
371.974	300.44
372.355	305.42
372.736	317.84
373.117	316.49
373.498	308.13
373.879	321.46
374.26	309.03
374.641	296.83
375.021	294.34
375.402	334.79
375.783	309.26
376.163	311.74
376.544	308.35
376.925	297.51
377.305	338.18
377.686	318.75
378.066	325.75
378.447	320.78
378.827	328.69
379.208	321.23
379.588	307.68
379.968	323.49
380.349	351.52
380.729	295.25
381.109	339.09
381.489	317.84
381.87	329.37
382.25	332.53
382.63	344.96
383.01	328.47
383.39	337.96
383.77	355.58
384.15	338.64
384.53	353.1
384.91	339.09
385.29	330.73
385.67	333.21
386.049	360.1
386.429	318.3
386.809	356.71
387.189	336.6
387.568	367.33
387.948	344.74
388.328	339.54
388.707	347.45
389.087	349.93
389.466	348.13
389.846	351.29
390.225	349.03
390.605	372.08
390.984	351.06
391.363	338.86
391.743	337.51
392.122	366.21
392.501	367.11
392.881	351.74
393.26	366.66
393.639	356.26
394.018	357.84
394.397	363.49
394.776	358.07
395.155	351.52
395.534	351.97
395.913	357.62
396.292	362.14
396.671	353.1
397.05	385.87
397.429	353.55
397.808	359.2
398.186	369.37
398.565	353.32
398.944	361.46
399.323	392.42
399.701	345.87
400.08	353.1
400.458	359.88
400.837	377.05
401.215	369.82
401.594	382.7
401.972	358.3
402.351	369.37
402.729	378.63
403.107	363.27
403.486	394
403.864	382.93
404.242	379.09
404.62	391.97
404.999	366.66
405.377	392.42
405.755	375.02
406.133	385.19
406.511	391.52
406.889	392.87
407.267	407.56
407.645	394
408.023	388.35
408.401	400.55
408.779	389.03
409.156	417.5
409.534	394
409.912	415.47
410.29	419.99
410.667	408.01
411.045	402.14
411.422	403.49
411.8	407.33
412.178	420.44
412.555	429.25
412.933	435.81
413.31	421.57
413.687	446.65
414.065	419.09
414.442	421.12
414.819	418.86
415.197	426.32
415.574	447.11
415.951	434.9
416.328	417.96
416.705	438.52
417.082	440.55
417.46	451.17
417.837	457.95
418.214	452.98
418.591	441.23
418.967	445.98
419.344	453.43
419.721	470.16
420.098	459.31
420.475	457.05
420.852	466.77
421.228	452.3
421.605	457.05
421.982	451.63
422.358	449.59
422.735	476.71
423.111	478.74
423.488	477.61
423.864	466.54
424.241	476.94
424.617	481.46
424.994	479.42
425.37	485.98
425.746	485.52
426.123	478.07
426.499	480.55
426.875	475.35
427.251	484.17
427.627	512.87
428.003	495.69
428.379	495.92
428.756	511.06
429.132	506.31
429.507	503.15
429.883	509.7
430.259	489.59
430.635	502.47
431.011	519.87
431.387	525.97
431.763	530.49
432.138	525.3
432.514	536.37
432.89	532.53
433.265	532.53
433.641	541.34
434.016	540.44
434.392	577.95
434.767	540.89
435.143	547.9
435.518	554.67
435.894	561.45
436.269	567.1
436.644	585.63
437.02	572.08
437.395	585.86
437.77	584.28
438.145	588.8
438.52	584.73
438.895	589.02
439.271	569.14
439.646	572.75
440.021	597.39
440.395	577.05
440.77	583.37
441.145	589.48
441.52	602.36
441.895	600.55
442.27	608.91
442.645	612.07
443.019	599.65
443.394	622.47
443.769	596.26
444.143	617.5
444.518	626.09
444.892	618.85
445.267	626.54
445.641	629.7
446.016	648.01
446.39	651.17
446.764	611.62
447.139	631.51
447.513	635.58
447.887	626.99
448.262	632.86
448.636	636.93
449.01	633.32
449.384	645.52
449.758	650.72
450.132	653.88
450.506	657.95
450.88	683.03
451.254	676.93
451.628	663.37
452.002	665.18
452.376	689.81
452.75	675.58
453.123	681.45
453.497	676.93
453.871	686.87
454.244	705.63
454.618	680.77
454.992	714.9
455.365	714.22
455.739	711.51
456.112	723.48
456.486	735.69
456.859	736.59
457.232	759.19
457.606	733.43
457.979	740.43
458.352	734.1
458.725	749.02
459.099	761.67
459.472	775.91
459.845	764.16
460.218	794.22
460.591	788.34
460.964	771.84
461.337	780.88
461.71	799.64
462.083	801.22
462.456	809.58
462.829	809.58
463.201	797.61
463.574	820.66
463.947	816.59
464.32	834.67
464.692	847.55
465.065	820.43
465.438	826.98
465.81	865.85
466.183	840.32
466.555	888.23
466.928	865.17
467.3	856.81
467.672	875.57
468.045	880.54
468.417	905.17
468.789	887.32
469.161	918.28
469.534	926.64
469.906	920.09
470.278	928.22
470.65	938.39
471.022	948.11
471.394	978.39
471.766	951.5
472.138	989.92
472.51	1005.06
472.882	999.86
473.253	1000.31
473.625	1017.26
473.997	1027.43
474.369	1035.79
474.74	1059.97
475.112	1069.92
475.484	1083.02
475.855	1075.56
476.227	1082.8
476.598	1121.67
476.97	1119.86
477.341	1138.61
477.713	1141.33
478.084	1164.38
478.455	1179.97
478.827	1194.43
479.198	1188.56
479.569	1226.07
479.94	1238.72
480.311	1250.25
480.682	1254.09
481.053	1287.99
481.424	1295.22
481.795	1319.17
482.166	1311.49
482.537	1336.12
482.908	1350.13
483.279	1358.5
483.65	1380.42
484.021	1403.01
484.391	1450.92
484.762	1446.4
485.133	1422.67
485.503	1461.77
485.874	1501.54
486.244	1497.93
486.615	1525.04
486.985	1534.08
487.356	1554.87
487.726	1558.26
488.097	1583.57
488.467	1586.06
488.837	1636.91
489.207	1637.36
489.578	1647.98
489.948	1649.11
490.318	1659.5
490.688	1685.94
491.058	1744.7
491.428	1763.91
491.798	1749.45
492.168	1781.08
492.538	1788.09
492.908	1777.92
493.278	1808.43
493.648	1796
494.017	1853.4
494.387	1860.4
494.757	1859.73
495.126	1880.97
495.496	1894.98
495.866	1929.55
496.235	1906.96
496.605	1933.4
496.974	1968.65
497.344	1982.66
497.713	2010.23
498.082	2009.33
498.452	2016.56
498.821	2024.69
499.19	2026.27
499.559	2067.18
499.928	2082.77
500.298	2083.22
500.667	2098.59
501.036	2127.74
501.405	2101.3
501.774	2119.38
502.143	2127.29
502.512	2156.67
502.88	2154.41
503.249	2141.3
503.618	2196.21
503.987	2206.16
504.356	2223.33
504.724	2234.86
505.093	2258.58
505.462	2279.38
505.83	2280.05
506.199	2318.47
506.567	2306.27
506.936	2318.47
507.304	2325.93
507.672	2352.37
508.041	2330.9
508.409	2405.7
508.777	2389.2
509.145	2415.87
509.514	2425.59
509.882	2404.8
510.25	2437.79
510.618	2467.39
510.986	2460.61
511.354	2505.13
511.722	2542.42
512.09	2545.13
512.458	2516.66
512.826	2564.11
513.193	2540.84
513.561	2574.73
513.929	2607.28
514.297	2626.03
514.664	2667.16
515.032	2671
515.4	2684.34
515.767	2677.33
516.135	2703.32
516.502	2706.48
516.869	2739.48
517.237	2765.92
517.604	2783.54
517.972	2805.91
518.339	2816.31
518.706	2826.25
519.073	2823.54
519.44	2860.83
519.808	2854.95
520.175	2901.96
520.542	2958.23
520.909	2950.32
521.276	2980.37
521.643	2986.25
522.009	3027.38
522.376	3044.1
522.743	3056.3
523.11	3094.04
523.477	3133.36
523.843	3125
524.21	3153.48
524.577	3183.98
524.943	3204.55
525.31	3248.84
525.676	3272.34
526.043	3308.73
526.409	3266.02
526.776	3281.38
527.142	3349.86
527.508	3366.35
527.874	3375.84
528.241	3437.76
528.607	3402.96
528.973	3444.77
529.339	3443.64
529.705	3462.85
530.071	3519.57
530.437	3528.83
530.803	3529.29
531.169	3565.22
531.535	3600.92
531.901	3597.08
532.267	3626.23
532.632	3648.6
532.998	3682.95
533.364	3691.09
533.73	3748.26
534.095	3738.32
534.461	3753.01
534.826	3767.92
535.192	3801.37
535.557	3813.57
535.923	3829.39
536.288	3846.34
536.653	3834.81
537.019	3872.1
537.384	3884.53
537.749	3873.91
538.114	3948.03
538.479	3927.69
538.845	3941.48
539.21	3931.99
539.575	3974.25
539.94	3993.91
540.305	4063.96
540.67	4018.09
541.034	4040.46
541.399	4112.1
541.764	4102.15
542.129	4156.84
542.494	4147.57
542.858	4148.7
543.223	4171.3
543.587	4228.02
543.952	4186.44
544.316	4237.74
544.681	4244.3
545.045	4286.1
545.41	4323.62
545.774	4333.56
546.138	4346.89
546.503	4380.56
546.867	4345.76
547.231	4442.48
547.595	4397.51
547.959	4458.98
548.324	4436.83
548.688	4461.69
549.052	4504.18
549.416	4494.91
549.779	4534.46
550.143	4527
550.507	4587.11
550.871	4628.47
551.235	4648.35
551.599	4651.97
551.962	4692.87
552.326	4696.26
552.689	4745.98
553.053	4734
553.417	4788.91
553.78	4864.62
554.143	4853.32
554.507	4825.52
554.87	4882.47
555.234	4973.09
555.597	4931.96
555.96	4989.36
556.323	5024.61
556.686	5060.54
557.05	5098.96
557.413	5090.15
557.776	5123.82
558.139	5166.98
558.502	5199.3
558.865	5225.96
559.228	5294.44
559.59	5254.66
559.953	5322.01
560.316	5411.72
560.679	5428.9
561.041	5516.58
561.404	5538.72
561.767	5580.98
562.129	5565.84
562.492	5677.93
562.854	5695.33
563.217	5657.59
563.579	5779.85
563.941	5816.46
564.304	5871.37
564.666	5896.91
565.028	5998.6
565.39	6016.45
565.753	6077.02
566.115	6079.95
566.477	6192.94
566.839	6263.23
567.201	6276.78
567.563	6349.32
567.925	6414.86
568.287	6443.79
568.648	6484.01
569.01	6525.59
569.372	6611.24
569.734	6645.36
570.095	6760.39
570.457	6758.58
570.819	6867.96
571.18	6857.56
571.542	6935.98
571.903	7033.83
572.265	7077.22
572.626	7120.15
572.987	7168.06
573.349	7232.69
573.71	7281.28
574.071	7350.2
574.432	7399.24
574.794	7539.58
575.155	7555.17
575.516	7600.14
575.877	7766.24
576.238	7805.56
576.599	7920.13
576.96	7945.44
577.32	8015.27
577.681	8150.63
578.042	8209.61
578.403	8274.02
578.763	8356.5
579.124	8475.6
579.485	8566.22
579.845	8707.91
580.206	8806.44
580.566	8825.19
580.927	9008.92
581.287	9175.24
581.648	9237.84
582.008	9361.45
582.368	9487.32
582.728	9643.25
583.089	9710.14
583.449	9808.67
583.809	10042.79
584.169	10119.85
584.529	10193.07
584.889	10419.27
585.249	10508.99
585.609	10626.05
585.969	10885.25
586.329	11022.2
586.688	11127.96
587.048	11285.69
587.408	11503.54
587.768	11639.13
588.127	11916.41
588.487	12103.52
588.846	12309.17
589.206	12505.32
589.565	12695.15
589.925	12987.57
590.284	13131.97
590.643	13368.58
591.003	13624.61
591.362	13894.21
591.721	14051.49
592.08	14341.43
592.44	14602.67
592.799	14931.92
593.158	15204.46
593.517	15420.05
593.876	15754.5
594.235	16009.64
594.593	16305.67
594.952	16618.21
595.311	16858.2
595.67	17237.4
596.029	17577.96
596.387	17853.65
596.746	18199.41
597.104	18396.24
597.463	18713.97
597.822	19112.15
598.18	19360.06
598.538	19743.55
598.897	20124.78
599.255	20395.96
599.613	20845.89
599.972	21075.94
600.33	21515.48
600.688	21658.53
601.046	22136.03
601.404	22645.39
601.762	22927.19
602.12	23282.21
602.478	23696.67
602.836	24006.49
603.194	24185.69
603.552	24646.7
603.91	24842.85
604.268	25335.49
604.625	25631.53
604.983	25984.51
605.341	26256.15
605.698	26642.12
606.056	27062.9
606.413	27363.69
606.771	27630.12
607.128	27952.6
607.485	28167.73
607.843	28485.24
608.2	28856.98
608.557	29262.39
608.914	29581.26
609.272	29867.58
609.629	30208.36
609.986	30488.12
610.343	30701.45
610.7	31013.31
611.057	31339.63
611.414	31552.96
611.771	31817.58
612.127	32094.86
612.484	32342.09
612.841	32598.8
613.198	32719.03
613.554	33138.45
613.911	33361.27
614.267	33521.94
614.624	33739.56
614.98	33940.46
615.337	34198.76
615.693	34424.29
616.05	34597.85
616.406	34965.3
616.762	34995.58
617.118	35078.29
617.475	35326.42
617.831	35728.44
618.187	35829
618.543	36047.3
618.899	36405.71
619.255	36482.09
619.611	36588.08
619.967	36838.69
620.323	37011.34
620.678	37007.05
621.034	37059.7
621.39	37253.14
621.746	37532.01
622.101	37858.1
622.457	37682.06
622.812	37884.31
623.168	38026.68
623.523	38167.92
623.879	38368.82
624.234	38152.56
624.589	38496.05
624.945	38499.21
625.3	38725.2
625.655	38844.29
626.01	38860.79
626.365	38971.52
626.72	38983.49
627.075	39008.13
627.43	39151.63
627.785	39139.65
628.14	39326.76
628.495	39344.39
628.85	39461
629.205	39371.51
629.559	39742.34
629.914	39604.5
630.269	39650.37
630.623	39618.05
630.978	39635.46
631.332	39892.62
631.687	39879.97
632.041	39808.33
632.396	39961.32
632.75	39958.84
633.104	39939.18
633.459	39796.13
633.813	40019.63
634.167	39985.73
634.521	40096.01
634.875	40172.39
635.229	40073.18
635.583	39907.76
635.937	40091.94
636.291	39858.5
636.645	40175.1
636.999	40115.44
637.352	40145.05
637.706	39933.53
638.06	40139.4
638.413	40211.26
638.767	40043.35
639.121	40150.24
639.474	39917.71
639.828	40112.96
640.181	40229.79
640.534	40276.57
640.888	40160.41
641.241	40011.26
641.594	40049.68
641.947	40161.99
642.301	40261.65
642.654	40176.46
643.007	40233.63
643.36	40176.68
643.713	40259.62
644.066	40294.87
644.419	39992.73
644.771	39855.11
645.124	39452.86
645.477	39335.12
645.83	39255.8
646.182	39084.28
646.535	39000.44
646.888	39154.56
647.24	39210.38
647.593	39306.42
647.945	39168.57
648.298	39017.62
648.65	39084.51
649.002	38990.73
649.355	39133.77
649.707	39205.41
650.059	39172.19
650.411	39702.57
650.763	39800.65
651.115	40217.59
651.467	39995.67
651.819	40073.18
652.171	40014.2
652.523	39949.57
652.875	40099.62
653.227	39954.09
653.578	40116.35
653.93	40055.1
654.282	39929.91
654.633	39922.45
654.985	39832.06
655.337	39970.36
655.688	40019.17
656.039	40090.81
656.391	39870.03
656.742	39864.83
657.094	39929.68
657.445	39928.1
657.796	39879.74
658.147	39857.6
658.498	39884.49
658.849	39969.91
659.2	39780.76
659.551	39796.35
659.902	39870.93
660.253	39717.26
660.604	39929.91
660.955	39765.62
661.306	39851.04
661.656	39800.2
662.007	39868.44
662.358	39748.9
662.708	39819.63
663.059	39775.34
663.409	39494.89
663.76	39877.03
664.11	39957.71
664.461	39881.55
664.811	39858.5
665.161	39691.72
665.511	39804.04
665.862	39805.62
666.212	39845.39
666.562	39902.79
666.912	39705.51
667.262	39784.15
667.612	39871.83
667.962	39754.55
668.312	39828.67
668.662	40074.31
669.011	39848.78
669.361	39902.11
669.711	39788.9
670.06	39751.61
670.41	39751.61
670.76	39559.52
671.109	39813.98
671.459	39822.12
671.808	39741.44
672.157	39737.37
672.507	39428.45
672.856	39441.79
673.205	39579.64
673.554	39707.32
673.904	39637.26
674.253	39689.92
674.602	39760.42
674.951	38962.25
675.3	39025.08
675.649	39529.47
675.998	39518.17
676.346	39515.23
676.695	39620.77
677.044	39382.58
677.393	39426.87
677.741	39475.46
678.09	39438.85
678.438	39200.44
678.787	39338.06
679.135	39368.34
679.484	39067.11
679.832	39295.8
680.181	39092.64
680.529	39191.62
680.877	39034.79
681.225	39217.84
681.573	39239.76
681.922	39007.22
682.27	38942.82
682.618	38835.25
682.966	38775.36
683.314	38822.82
683.661	38823.27
684.009	38651.75
684.357	38624.41
684.705	38524.98
685.053	38431.64
685.4	38430.74
685.748	38356.17
686.095	38305.32
686.443	38206.79
686.79	38251.54
687.138	38082.05
687.485	38160.92
687.832	37956.4
688.18	37993.24
688.527	37890.19
688.874	37913.92
689.221	37660.59
689.568	37600.71
689.915	37463.99
690.262	37638.67
690.609	37443.87
690.956	37209.98
691.303	37261.51
691.65	37104.67
691.997	37179.93
692.344	37109.42
692.69	36924.57
693.037	36992.59
693.383	36650.45
693.73	36731.8
694.077	36635.99
694.423	36443.9
694.769	36558.93
695.116	36533.39
695.462	36414.75
695.808	36245.94
696.155	36274.19
696.501	36089.33
696.847	36109.22
697.193	35812.5
697.539	35887.98
697.885	35632.62
698.231	35636.46
698.577	35673.98
698.923	35580.65
699.269	35364.15
699.614	35177.04
699.96	35164.39
700.306	35176.14
700.651	34956.03
700.997	34921.23
701.342	34863.83
701.688	34818.41
702.033	34711.74
702.379	34612.54
702.724	34582.48
703.069	34699.77
703.415	34243.28
703.76	34303.84
704.105	34200.12
704.45	34205.77
704.795	34038.09
705.14	33959.9
705.485	33890.75
705.83	33811.2
706.175	33820.69
706.52	33645.56
706.865	33532.79
707.209	33625.9
707.554	33387.03
707.899	33466.58
708.243	33393.36
708.588	33363.98
708.932	33072.92
709.277	33062.75
709.621	33126.93
709.966	32822.07
710.31	32855.97
710.654	32513.61
710.998	32882.19
711.342	32700.27
711.687	32599.93
712.031	32491.69
712.375	32308.19
712.719	32523.1
713.063	32544.12
713.407	32505.25
713.75	32254.41
714.094	32265.48
714.438	32218.25
714.782	32245.82
715.125	31994.53
715.469	32132.15
715.812	31940.97
716.156	31684.03
716.499	31836.79
716.843	31711.82
717.186	31536.01
717.53	31734.65
717.873	31684.25
718.216	31667.75
718.559	31584.14
718.902	31164.94
719.246	31386.63
719.589	31403.36
719.932	31161.33
720.275	31071.61
720.617	31119.07
720.96	31102.35
721.303	31089.01
721.646	31045.62
721.989	30838.4
722.331	30882.24
722.674	30952.07
723.016	30973.76
723.359	30793.88
723.701	30821.68
724.044	30622.58
724.386	30541.91
724.729	30643.83
725.071	30606.99
725.413	30588.91
725.755	30544.39
726.097	30513.89
726.439	30217.4
726.782	30275.7
727.124	30450.61
727.465	30255.81
727.807	30151.41
728.149	30049.72
728.491	30145.31
728.833	30134.91
729.175	30001.58
729.516	29981.47
729.858	29799.1
730.199	29909.16
730.541	29862.83
730.882	29955.48
731.224	29893.56
731.565	29687.24
731.906	29785.54
732.248	29699.22
732.589	29593.91
732.93	29430.53
733.271	29612.22
733.612	29568.38
733.953	29496.51
734.294	29368.38
734.635	29408.83
734.976	29342.39
735.317	29374.03
735.658	29361.37
735.999	29323.18
736.339	29239.12
736.68	29296.97
737.021	29056.52
737.361	29051.33
737.702	29139.69
738.042	29050.2
738.383	28913.93
738.723	28950.76
739.063	28788.96
739.404	29040.93
739.744	28918.45
740.084	28727.95
740.424	28742.41
740.764	28831.45
741.104	28853.14
741.444	28616.54
741.784	28543.54
742.124	28662.64
742.464	28515.75
742.804	28538.57
743.143	28573.6
743.483	28510.1
743.823	28276.88
744.162	28376.32
744.502	28466.94
744.841	28240.27
745.181	28347.62
745.52	28250.44
745.86	28388.29
746.199	28226.49
746.538	28248.64
746.877	28184.46
747.216	28178.36
747.556	28106.27
747.895	28113.72
748.234	28011.13
748.573	28034.4
748.911	27927.51
749.25	27819.72
749.589	27895.88
749.928	27841.41
750.267	27844.13
750.605	27694.53
750.944	27801.87
751.283	27536.34
751.621	27661.76
751.96	27501.76
752.298	27470.8
752.636	27506.28
752.975	27390.35
753.313	27299.28
753.651	27362.33
753.989	27330.69
754.327	27276.46
754.666	27160.53
755.004	27078.5
755.342	27152.85
755.679	27066.29
756.017	26950.14
756.355	27006.63
756.693	26887.54
757.031	26888.9
757.368	26666.53
757.706	26751.27
758.044	26569.81
758.381	26663.82
758.719	26504.05
759.056	26564.39
759.394	26404.16
759.731	26286.65
760.068	26280.78
760.405	26118.75
760.743	26129.6
761.08	26142.7
761.417	26002.37
761.754	25942.93
762.091	25981.8
762.428	25727.57
762.765	25675.82
763.102	25724.63
763.438	25694.13
763.775	25457.97
764.112	25524.87
764.449	25497.3
764.785	25453.46
765.122	25238.32
765.458	25056.4
765.795	25014.82
766.131	24995.84
766.467	24953.81
766.804	24796.75
767.14	24646.02
767.476	24736.19
767.812	24591.56
768.148	24655.74
768.485	24425.23
768.821	24343.88
769.157	24376.65
769.492	24242.41
769.828	24243.77
770.164	24055.3
770.5	24042.64
770.836	23948.18
771.171	23767.4
771.507	23785.93
771.842	23684.91
772.178	23598.81
772.513	23671.13
772.849	23533.05
773.184	23357.24
773.519	23469.33
773.855	23267.52
774.19	23186.85
774.525	23181.2
774.86	23174.64
775.195	23056.91
775.53	22881.32
775.865	22868.44
776.2	22686.75
776.535	22604.72
776.87	22490.37
777.205	22456.92
777.539	22350.03
777.874	22411.05
778.209	22162.02
778.543	22180.09
778.878	22047.67
779.212	21974.68
779.547	21869.59
779.881	21949.59
780.215	21799.99
780.55	21915.92
780.884	21758.64
781.218	21622.6
781.552	21658.53
781.886	21468.48
782.22	21294.02
782.554	21281.81
782.888	21082.95
783.222	21014.7
783.556	20996.85
783.889	20888.83
784.223	20798.21
784.557	20773.35
784.89	20768.38
785.224	20571.32
785.557	20600.25
785.891	20612.68
786.224	20559.8
786.558	20412.68
786.891	20243.42
787.224	20193.71
787.557	20069.64
787.891	20168.62
788.224	20141.05
788.557	20033.94
788.89	19966.59
789.223	19889.99
789.556	19817.22
789.888	19735.19
790.221	19622.87
790.554	19478.24
790.887	19534.06
791.219	19360.96
791.552	19400.96
791.884	19322.09
792.217	19184.69
792.549	19142.89
792.882	19049.78
793.214	18923.91
793.546	19025.6
793.879	18908.77
794.211	18694.99
794.543	18788.09
794.875	18677.81
795.207	18818.15
795.539	18703.35
795.871	18724.82
796.203	18604.6
796.535	18428.55
796.867	18423.13
797.198	18439.63
797.53	18354.21
797.862	18127.77
798.193	18313.08
798.525	18102.69
798.856	18140.43
799.188	17897.27
799.519	17902.24
799.85	17820.44
800.182	17803.49
800.513	17838.51
800.844	17662.02
801.175	17723.26
801.506	17664.28
801.837	17623.6
802.168	17481.91
802.499	17578.41
802.83	17404.85
803.161	17342.26
803.491	17280.56
803.822	17292.99
804.153	17207.34
804.483	17027.69
804.814	17116.05
805.145	16989.04
805.475	17070.62
805.805	16924.87
806.136	16978.42
806.466	16913.79
806.796	16803.74
807.126	16755.6
807.457	16578.66
807.787	16749.73
808.117	16544.76
808.447	16472.45
808.777	16607.13
809.107	16463.18
809.436	16452.79
809.766	16455.95
810.096	16325.79
810.426	16320.36
810.755	16312.68
811.085	16249.63
811.414	16161.95
811.744	16135.28
812.073	16073.81
812.403	16058.67
812.732	16028.84
813.061	16046.02
813.39	15807.61
813.719	15881.5
814.049	15985
814.378	15858.91
814.707	15854.61
815.036	15728.51
815.365	15758.79
815.693	15542.53
816.022	15602.41
816.351	15487.62
816.68	15433.38
817.008	15492.14
817.337	15349.99
817.665	15387.51
817.994	15365.81
818.322	15342.08
818.651	15272.93
818.979	15265.25
819.307	15293.95
819.636	15197.45
819.964	15089.43
820.292	15168.08
820.62	15154.52
820.948	15098.7
821.276	15146.16
821.604	15052.37
821.932	15072.71
822.259	15053.28
822.587	15037.46
822.915	14987.74
823.243	15057.12
823.57	14995.65
823.898	15011.7
824.225	14982.09
824.553	14966.95
824.88	15038.81
825.207	15057.34
825.535	14967.4
825.862	15009.89
826.189	14941.64
826.516	15055.54
826.843	14958.59
827.17	15075.2
827.497	15141.86
827.824	14962.21
828.151	15059.15
828.478	15042.88
828.805	15012.37
829.131	14931.25
829.458	14987.29
829.785	14874.52
830.111	14921.08
830.438	15015.76
830.764	14943.45
831.09	15003.79
831.417	14821.19
831.743	14991.36
832.069	14916.1
832.395	14830.46
832.722	14951.81
833.048	14882.66
833.374	14947.29
833.7	14866.84
834.026	14853.51
834.351	14886.5
834.677	14891.7
835.003	14908.42
835.329	14853.51
835.654	14881.3
835.98	14726.73
836.306	14786.39
836.631	14693.74
836.956	14678.82
837.282	14743.23
837.607	14611.03
837.932	14640.18
838.258	14625.49
838.583	14658.71
838.908	14473.18
839.233	14567.19
839.558	14572.39
839.883	14544.82
840.208	14450.13
840.533	14533.06
840.858	14397.7
841.182	14441.32
841.507	14448.09
841.832	14364.26
842.156	14356.8
842.481	14251.72
842.805	14308.21
843.13	14278.83
843.454	14150.25
843.778	14218.27
844.103	14185.73
844.427	14029.57
844.751	14119.29
845.075	14019.63
845.399	14041.78
845.723	13859.18
846.047	13930.14
846.371	13773.08
846.695	13882.46
847.019	13702.35
847.343	13599.98
847.666	13568.8
847.99	13479.98
848.313	13485.41
848.637	13421.91
848.96	13401.57
849.284	13367.67
849.607	13252.19
849.931	13172.87
850.254	13095.36
850.577	13108.92
850.9	13025.08
851.223	13019.21
851.546	12881.36
851.869	12875.93
852.192	12932.2
852.515	12822.6
852.838	12795.26
853.161	12743.05
853.483	12738.31
853.806	12698.54
854.129	12561.82
854.451	12486.34
854.774	12502.16
855.096	12481.37
855.419	12444.08
855.741	12403.63
856.063	12330.18
856.385	12318.43
856.708	12320.69
857.03	12268.94
857.352	12301.26
857.674	12254.93
857.996	12148.27
858.318	12113.69
858.64	12164.31
858.961	11973.36
859.283	12013.81
859.605	12011.77
859.926	12011.1
860.248	11894.49
860.57	11915.73
860.891	11896.07
861.212	11784.89
861.534	11711.44
861.855	11746.7
862.176	11763.65
862.498	11753.02
862.819	11761.39
863.14	11654.95
863.461	11609.98
863.782	11547.38
864.103	11668.51
864.424	11529.08
864.745	11553.26
865.065	11521.39
865.386	11537.66
865.707	11558.23
866.027	11457.66
866.348	11428.29
866.668	11375.18
866.989	11313.71
867.309	11275.52
867.63	11358.01
867.95	11386.03
868.27	11374.28
868.59	11329.31
868.91	11282.53
869.23	11272.36
869.55	11221.74
869.87	11240.5
870.19	11138.8
870.51	11219.25
870.83	11227.84
871.15	11161.18
871.469	11144.45
871.789	11197.33
872.109	11179.93
872.428	11112.36
872.748	11044.57
873.067	11037.34
873.386	11075.3
873.706	11029.65
874.025	10939.03
874.344	10953.27
874.663	10977.23
874.982	10887.28
875.301	11011.35
875.62	10947.62
875.939	10829.43
876.258	10826.04
876.577	10845.25
876.896	10881.41
877.214	10863.1
877.533	10862.2
877.852	10789.66
878.17	10779.49
878.489	10749.21
878.807	10809.77
879.125	10754.18
879.444	10737.68
879.762	10713.73
880.08	10684.13
880.398	10683.9
880.716	10717.35
881.034	10583.79
881.352	10630.12
881.67	10544.24
881.988	10570.68
882.306	10516.45
882.624	10577.91
882.941	10564.13
883.259	10452.49
883.577	10384.47
883.894	10370.69
884.212	10384.25
884.529	10361.42
884.846	10346.28
885.164	10413.17
885.481	10273.06
885.798	10285.94
886.115	10210.24
886.432	10167.08
886.75	10214.08
887.067	10137.93
887.383	10196.68
887.7	10096.34
888.017	10127.53
888.334	10103.12
888.651	10033.97
888.967	10031.71
889.284	9991.26
889.6	9936.57
889.917	9884.15
890.233	9892.28
890.55	9816.58
890.866	9843.24
891.182	9799.86
891.498	9792.62
891.815	9722.12
892.131	9681.44
892.447	9679.86
892.763	9603.02
893.079	9612.29
893.395	9614.32
893.71	9654.77
894.026	9550.37
894.342	9502.24
894.657	9525.74
894.973	9478.06
895.289	9443.71
895.604	9408.91
895.92	9389.47
896.235	9308.34
896.55	9274.45
896.865	9259.08
897.181	9232.19
897.496	9187.22
897.811	9199.42
898.126	9183.6
898.441	9158.06
898.756	9135.47
899.071	9104.28
899.386	9059.76
899.7	8957.62
900.015	8942.02
900.33	8867.9
900.644	8892.53
900.959	8966.43
901.273	8850.73
901.588	8819.77
901.902	8773.44
902.216	8836.04
902.531	8720.34
902.845	8679.88
903.159	8617.29
903.473	8629.04
903.787	8582.49
904.101	8527.8
904.415	8484.64
904.729	8532.54
905.042	8495.71
905.356	8506.1
905.67	8386.33
905.984	8454.13
906.297	8397.63
906.611	8270.63
906.924	8277.18
907.237	8225.89
907.551	8212.1
907.864	8223.4
908.177	8156.96
908.491	8145.66
908.804	8122.61
909.117	8067.25
909.43	8093.69
909.743	8016.4
910.056	7970.75
910.368	7936.85
910.681	7879.68
910.994	7908.38
911.307	7873.8
911.619	7744.54
911.932	7799
912.244	7667.26
912.557	7702.51
912.869	7680.14
913.181	7668.84
913.494	7605.56
913.806	7567.82
914.118	7545.9
914.43	7549.74
914.742	7495.28
915.054	7440.37
915.366	7378.22
915.678	7415.74
915.99	7380.71
916.302	7335.29
916.613	7272.92
916.925	7306.14
917.236	7202.86
917.548	7251.9
917.859	7194.27
918.171	7159.7
918.482	7114.28
918.794	7047.39
919.105	7093.49
919.416	7021.62
919.727	7005.35
920.038	6950.44
920.349	6929.65
920.66	6961.29
920.971	6898.24
921.282	6862.31
921.593	6831.57
921.903	6754.29
922.214	6750.67
922.525	6758.58
922.835	6679.03
923.146	6654.18
923.456	6636.55
923.767	6655.98
924.077	6582.31
924.387	6578.47
924.697	6526.5
925.008	6476.33
925.318	6461.41
925.628	6456.67
925.938	6443.79
926.248	6392.94
926.558	6373.5
926.867	6350.68
927.177	6288.76
927.487	6255.77
927.796	6201.08
928.106	6180.97
928.416	6188.2
928.725	6191.59
929.034	6187.75
929.344	6166.28
929.653	6167.18
929.962	6054.19
930.271	6034.08
930.581	5989.33
930.89	6031.37
931.199	6026.17
931.508	5993.63
931.817	5926.28
932.125	5898.94
932.434	5890.58
932.743	5765.16
933.051	5843.12
933.36	5796.8
933.669	5734.88
933.977	5740.53
934.286	5743.69
934.594	5691.49
934.902	5657.37
935.21	5623.02
935.519	5660.3
935.827	5610.13
936.135	5577.82
936.443	5542.34
936.751	5486.07
937.059	5531.27
937.367	5502.34
937.674	5433.19
937.982	5406.52
938.29	5411.95
938.597	5401.55
938.905	5368.56
939.213	5343.48
939.52	5330.14
939.827	5317.04
940.135	5245.62
940.442	5221.9
940.749	5259.41
941.056	5257.38
941.363	5194.33
941.67	5177.15
941.977	5152.29
942.284	5114.78
942.591	5093.76
942.898	5027.55
943.205	5033.43
943.511	5005.63
943.818	4959.76
944.125	5032.75
944.431	5019.42
944.738	5018.06
945.044	4896.93
945.35	4939.42
945.657	4905.97
945.963	4804.05
946.269	4849.48
946.575	4807.9
946.881	4801.79
947.187	4772.42
947.493	4765.19
947.799	4792.08
948.105	4740.1
948.41	4732.87
948.716	4682.48
949.022	4633.89
949.327	4688.8
949.633	4617.62
949.938	4640.22
950.244	4567.9
950.549	4536.26
950.854	4504.4
951.16	4481.8
951.465	4527.23
951.77	4492.65
952.075	4482.03
952.38	4440.45
952.685	4456.49
952.99	4402.94
953.294	4389.83
953.599	4313.9
953.904	4352.99
954.209	4331.3
954.513	4289.27
954.818	4273.9
955.122	4272.54
955.426	4245.88
955.731	4198.19
956.035	4207.46
956.339	4195.26
956.643	4181.47
956.948	4143.28
957.252	4108.71
957.556	4137.86
957.86	4127.91
958.163	4092.89
958.467	4049.95
958.771	4088.14
959.075	4044.53
959.378	4011.98
959.682	3989.84
959.985	3930.18
960.289	3974.7
960.592	3953.91
960.896	3922.27
961.199	3934.02
961.502	3853.8
961.805	3851.09
962.108	3848.83
962.411	3838.2
962.714	3865.1
963.017	3819
963.32	3807.7
963.623	3779.22
963.926	3775.38
964.228	3732.9
964.531	3706.91
964.833	3744.87
965.136	3742.39
965.438	3670.75
965.741	3704.65
966.043	3645.44
966.345	3589.62
966.648	3609.28
966.95	3619.45
967.252	3567.02
967.554	3544.88
967.856	3575.84
968.158	3557.99
968.46	3519.57
968.761	3534.48
969.063	3503.3
969.365	3448.84
969.666	3484.54
969.968	3437.31
970.269	3431.66
970.571	3400.25
970.872	3427.37
971.174	3345.79
971.475	3346.47
971.776	3339.46
972.077	3366.58
972.378	3318.22
972.679	3319.35
972.98	3284.09
973.281	3292.91
973.582	3255.62
973.883	3264.89
974.183	3239.35
974.484	3204.55
974.785	3184.44
975.085	3235.51
975.386	3180.59
975.686	3172.23
975.986	3222.63
976.287	3157.54
976.587	3131.56
976.887	3109.86
977.187	3128.17
977.487	3136.08
977.787	3066.47
978.087	3087.26
978.387	3040.49
978.687	3037.1
978.987	3055.4
979.286	3033.25
979.586	3014.27
979.885	2962.97
980.185	2956.65
980.484	2958.23
980.784	2946.02
981.083	2899.25
981.382	2916.42
981.682	2923.88
981.981	2897.89
982.28	2913.26
982.579	2842.07
982.878	2838.23
983.177	2844.11
983.475	2854.28
983.774	2797.55
984.073	2785.8
984.372	2772.7
984.67	2805.01
984.969	2733.6
985.267	2719.36
985.566	2772.02
985.864	2714.39
986.162	2700.61
986.461	2714.17
986.759	2709.65
987.057	2683.66
987.355	2640.04
987.653	2656.99
987.951	2604.34
988.249	2626.71
988.547	2608.18
988.844	2597.33
989.142	2585.13
989.44	2554.85
989.737	2570.67
990.035	2548.52
990.332	2576.54
990.63	2538.58
990.927	2530.67
991.224	2481.4
991.521	2485.02
991.819	2492.48
992.116	2471.69
992.413	2452.93
992.71	2489.54
993.006	2451.8
993.303	2441.18
993.6	2412.25
993.897	2433.27
994.193	2422.2
994.49	2379.71
994.787	2396.43
995.083	2369.09
995.379	2339.49
995.676	2325.25
995.972	2310.33
996.268	2320.73
996.565	2310.33
996.861	2282.31
997.157	2303.56
997.453	2257.68
997.749	2244.12
998.044	2212.94
998.34	2230.11
998.636	2216.1
998.932	2185.59
999.227	2193.05
999.523	2204.12
999.818	2207.74
1000.114	2195.99
1000.409	2129.55
1000.704	2133.62
1001	2139.04
1001.295	2108.53
1001.59	2123
1001.885	2116.89
1002.18	2102.2
1002.475	2078.02
1002.77	2079.61
1003.065	2071.24
1003.359	2030.12
1003.654	2023.79
1003.949	2030.34
1004.243	2038.03
1004.538	2014.98
1004.832	1984.92
1005.127	1964.58
1005.421	1956.22
1005.715	1960.06
1006.009	1940.85
1006.304	1913.51
1006.598	1914.64
1006.892	1908.54
1007.186	1898.59
1007.48	1906.73
1007.773	1894.3
1008.067	1872.61
1008.361	1850.69
1008.655	1846.17
1008.948	1846.84
1009.242	1823.79
1009.535	1808.43
1009.829	1813.62
1010.122	1796.22
1010.415	1803
1010.708	1760.52
1011.001	1776.79
1011.295	1767.75
1011.588	1752.84
1011.881	1720.52
1012.173	1703.35
1012.466	1728.43
1012.759	1722.55
1013.052	1681.88
1013.344	1713.06
1013.637	1704.7
1013.93	1650.24
1014.222	1656.11
1014.514	1645.27
1014.807	1658.15
1015.099	1651.14
1015.391	1619.73
1015.683	1623.57
1015.976	1610.92
1016.268	1573.4
1016.56	1570.47
1016.851	1567.76
1017.143	1556.68
1017.435	1540.19
1017.727	1545.61
1018.018	1515.33
1018.31	1528.66
1018.602	1525.95
1018.893	1525.72
1019.185	1476.23
1019.476	1503.8
1019.767	1468.77
1020.058	1468.1
1020.35	1475.55
1020.641	1417.7
1020.932	1428.32
1021.223	1433.3
1021.514	1400.53
1021.804	1393.97
1022.095	1388.55
1022.386	1375.67
1022.677	1386.74
1022.967	1367.31
1023.258	1390.36
1023.548	1365.27
1023.839	1380.19
1024.129	1318.72
1024.419	1323.02
1024.709	1351.49
1025	1309.01
1025.29	1270.36
1025.58	1280.31
1025.87	1274.88
1026.16	1266.75
1026.449	1267.65
1026.739	1243.92
1027.029	1258.16
1027.319	1238.27
1027.608	1240.31
1027.898	1246.41
1028.187	1192.17
1028.477	1205.28
1028.766	1202.12
1029.055	1174.09
1029.344	1189.01
1029.634	1173.87
1029.923	1174.77
1030.212	1125.96
1030.501	1164.38
1030.79	1167.99
1031.078	1134.09
1031.367	1136.35
1031.656	1107.43
1031.945	1145.39
1032.233	1116.92
1032.522	1107.65
1032.81	1099.52
1033.099	1071.72
1033.387	1089.12
1033.675	1096.36
1033.963	1088.67
1034.251	1074.21
1034.54	1047.09
1034.828	1055.9
1035.116	1026.75
1035.403	1027.66
1035.691	1029.46
1035.979	1025.62
1036.267	1013.42
1036.554	995.79
1036.842	988.79
1037.129	990.6
1037.417	989.69
1037.704	991.95
1037.992	969.35
1038.279	957.6
1038.566	963.93
1038.853	963.93
1039.14	963.93
