Data from red_shiny_book_FLMS001491_00070.txt Node
Date: Wed Feb 08 15:25:14 GMT 2017
User: dcchb
Spectrometer: FLMS00149
Trigger mode: 0
Integration Time (sec): 2.000000E-2
Scans to average: 10
Electric dark correction enabled: true
Nonlinearity correction enabled: false
Boxcar width: 0
XAxis mode: Wavelengths
Number of Pixels in Spectrum: 2048
>>>>>Begin Spectral Data<<<<<
341.393	0.72
341.776	0.72
342.16	0.72
342.543	-63.91
342.927	-53.52
343.31	-77.24
343.693	-53.29
344.077	-61.88
344.46	-63.23
344.843	-45.83
345.226	-41.54
345.61	-26.4
345.993	-26.62
346.376	0.72
346.759	8.18
347.142	19.02
347.525	15.64
347.908	63.32
348.291	73.71
348.674	98.12
349.057	117.33
349.44	123.65
349.823	162.07
350.206	145.12
350.588	190.09
350.971	202.75
351.354	216.31
351.737	232.13
352.119	239.58
352.502	274.84
352.884	277.32
353.267	285.23
353.65	302.63
354.032	312.8
354.414	303.31
354.797	297.44
355.179	327.72
355.562	327.49
355.944	346.02
356.326	322.52
356.709	329.3
357.091	341.73
357.473	338.11
357.855	339.02
358.238	346.25
358.62	353.03
359.002	355.06
359.384	354.61
359.766	341.73
360.148	324.33
360.53	339.02
360.912	342.63
361.294	356.87
361.676	346.93
362.057	343.08
362.439	346.25
362.821	336.98
363.203	325.91
363.584	319.36
363.966	333.59
364.348	315.51
364.729	326.36
365.111	341.95
365.493	316.42
365.874	312.8
366.256	315.51
366.637	309.86
367.019	315.74
367.4	322.29
367.781	304.67
368.163	287.72
368.544	299.47
368.925	313.71
369.306	322.97
369.688	304.44
370.069	321.84
370.45	333.37
370.831	313.71
371.212	307.6
371.593	293.14
371.974	328.17
372.355	326.81
372.736	314.38
373.117	338.11
373.498	336.3
373.879	308.06
374.26	302.18
374.641	312.8
375.021	310.99
375.402	315.06
375.783	328.85
376.163	324.1
376.544	318.9
376.925	342.18
377.305	324.78
377.686	339.24
378.066	331.56
378.447	331.56
378.827	312.58
379.208	334.5
379.588	340.82
379.968	323.88
380.349	325.23
380.729	326.81
381.109	325.23
381.489	319.36
381.87	316.19
382.25	316.19
382.63	338.56
383.01	341.95
383.39	337.66
383.77	346.7
384.15	347.6
384.53	335.17
384.91	310.09
385.29	339.02
385.67	345.34
386.049	345.57
386.429	348.06
386.809	350.54
387.189	346.02
387.568	357.1
387.948	334.04
388.328	351.9
388.707	358
389.087	336.98
389.466	340.6
389.846	335.17
390.225	324.1
390.605	360.94
390.984	353.93
391.363	345.12
391.743	345.34
392.122	367.26
392.501	345.34
392.881	370.65
393.26	369.52
393.639	337.43
394.018	372.01
394.397	351.22
394.776	370.43
395.155	362.07
395.534	370.88
395.913	355.51
396.292	354.84
396.671	360.03
397.05	375.4
397.429	375.63
397.808	370.43
398.186	364.78
398.565	379.24
398.944	373.59
399.323	350.32
399.701	364.33
400.08	370.65
400.458	369.75
400.837	381.5
401.215	351.45
401.594	367.26
401.972	370.65
402.351	396.64
402.729	386.02
403.107	378.56
403.486	393.03
403.864	393.7
404.242	389.86
404.62	387.15
404.999	367.72
405.377	377.21
405.755	387.15
406.133	394.38
406.511	419.01
406.889	367.72
407.267	441.84
407.645	406.59
408.023	404.33
408.401	395.96
408.779	413.36
409.156	412.91
409.534	382.86
409.912	404.55
410.29	407.04
410.667	427.83
411.045	418.56
411.422	423.99
411.8	411.11
412.178	442.29
412.555	427.38
412.933	423.76
413.31	433.03
413.687	456.3
414.065	445.91
414.442	444.55
414.819	448.39
415.197	457.66
415.574	454.49
415.951	455.62
416.328	437.32
416.705	461.95
417.082	470.31
417.46	440.93
417.837	459.92
418.214	484.55
418.591	473.93
418.967	482.74
419.344	466.7
419.721	481.39
420.098	501.5
420.475	499.46
420.852	483.19
421.228	468.96
421.605	475.06
421.982	475.74
422.358	489.75
422.735	481.84
423.111	496.75
423.488	504.21
423.864	521.38
424.241	523.64
424.617	525
424.994	511.22
425.37	491.78
425.746	532.23
426.123	518.45
426.499	527.49
426.875	521.38
427.251	520.71
427.627	539.69
428.003	523.87
428.379	528.39
428.756	552.34
429.132	545.34
429.507	533.14
429.883	524.1
430.259	560.93
430.635	543.08
431.011	562.97
431.387	562.74
431.763	560.25
432.138	564.1
432.514	573.59
432.89	578.78
433.265	588.05
433.641	589.41
434.016	591.89
434.392	581.04
434.767	590.99
435.143	581.95
435.518	590.99
435.894	590.99
436.269	625.11
436.644	623.98
437.02	623.53
437.395	614.26
437.77	611.1
438.145	628.27
438.52	608.84
438.895	628.5
439.271	621.27
439.646	621.27
440.021	627.14
440.395	634.6
440.77	633.02
441.145	642.06
441.52	645.68
441.895	655.62
442.27	634.83
442.645	632.34
443.019	665.79
443.394	664.21
443.769	671.44
444.143	664.21
444.518	668.05
444.892	641.61
445.267	672.34
445.641	653.81
446.016	678.89
446.39	671.66
446.764	689.97
447.139	676.63
447.513	695.62
447.887	692.45
448.262	699.01
448.636	676.63
449.01	679.12
449.384	681.38
449.758	681.61
450.132	684.54
450.506	681.83
450.88	721.38
451.254	720.02
451.628	713.02
452.002	716.86
452.376	717.76
452.75	729.97
453.123	741.04
453.497	715.28
453.871	696.52
454.244	725.45
454.618	741.27
454.992	700.81
455.365	722.51
455.739	746.46
456.112	759.34
456.486	755.28
456.859	777.65
457.232	780.13
457.606	751.44
457.979	762.28
458.352	762.28
458.725	745.11
459.099	734.26
459.472	761.6
459.845	751.89
460.218	767.71
460.591	763.19
460.964	792.79
461.337	783.3
461.71	819.91
462.083	797.08
462.456	793.69
462.829	772.45
463.201	775.16
463.574	781.49
463.947	776.07
464.32	794.15
464.692	794.15
465.065	791.66
465.438	797.54
465.81	809.96
466.183	824.2
466.555	831.21
466.928	839.12
467.3	843.64
467.672	862.39
468.045	888.83
468.417	882.05
468.789	824.43
469.161	855.16
469.534	870.08
469.906	863.75
470.278	870.98
470.65	873.47
471.022	874.82
471.394	902.62
471.766	914.14
472.138	906.91
472.51	945.33
472.882	949.4
473.253	957.76
473.625	918.89
473.997	962.5
474.369	958.89
474.74	936.06
475.112	961.37
475.484	948.04
475.855	998.66
476.227	978.77
476.598	1000.92
476.97	1037.53
477.341	1049.96
477.713	1052.67
478.084	1069.17
478.455	1076.85
478.827	1089.28
479.198	1124.98
479.569	1096.28
479.94	1112.56
480.311	1111.65
480.682	1115.49
481.053	1122.5
481.424	1155.72
481.795	1145.77
482.166	1150.97
482.537	1178.77
482.908	1211.54
483.279	1224.87
483.65	1260.8
484.021	1273.68
484.391	1303.51
484.762	1296.51
485.133	1305.54
485.503	1302.16
485.874	1337.86
486.244	1324.98
486.615	1303.96
486.985	1308.26
487.356	1350.97
487.726	1362.04
488.097	1407.91
488.467	1419.21
488.837	1458.99
489.207	1494.92
489.578	1513.67
489.948	1525.65
490.318	1540.11
490.688	1559.55
491.058	1558.42
491.428	1566.1
491.798	1561.13
492.168	1557.06
492.538	1600.68
492.908	1574.46
493.278	1597.74
493.648	1595.71
494.017	1616.72
494.387	1671.64
494.757	1696.49
495.126	1711.64
495.496	1693.11
495.866	1759.09
496.235	1776.27
496.605	1790.5
496.974	1811.07
497.344	1794.8
497.713	1763.39
498.082	1762.71
498.452	1747.57
498.821	1763.61
499.19	1746.44
499.559	1753.22
499.928	1778.98
500.298	1817.17
500.667	1830.95
501.036	1854.46
501.405	1859.2
501.774	1883.16
502.143	1898.75
502.512	1916.83
502.88	1910.73
503.249	1910.27
503.618	1925.42
503.987	1870.73
504.356	1901.24
504.724	1886.55
505.093	1864.63
505.462	1853.33
505.83	1838.41
506.199	1896.26
506.567	1910.5
506.936	1947.11
507.304	1969.93
507.672	1960.22
508.041	1979.43
508.409	2013.1
508.777	2019.65
509.145	2007
509.514	2009.26
509.882	1977.84
510.25	1963.61
510.618	1951.18
510.986	1942.36
511.354	1905.08
511.722	1912.99
512.09	1921.35
512.458	1908.92
512.826	1921.57
513.193	1968.8
513.561	1963.61
513.929	1971.06
514.297	2012.87
514.664	2055.13
515.032	2061.91
515.4	2083.83
515.767	2049.93
516.135	2036.6
516.502	2040.21
516.869	2005.87
517.237	1987.56
517.604	1952.08
517.972	1954.34
518.339	1936.94
518.706	1916.38
519.073	1930.39
519.44	1972.42
519.808	1957.51
520.175	1963.83
520.542	2015.81
520.909	2045.86
521.276	2060.78
521.643	2080.67
522.009	2088.12
522.376	2110.72
522.743	2117.5
523.11	2096.48
523.477	2059.88
523.843	2032.08
524.21	2022.36
524.577	2006.32
524.943	1957.05
525.31	2002.25
525.676	2009.71
526.043	2016.94
526.409	2087.9
526.776	2087.9
527.142	2103.26
527.508	2119.76
527.874	2172.87
528.241	2220.77
528.607	2272.3
528.973	2295.12
529.339	2281.11
529.705	2288.8
530.071	2254.9
530.437	2253.99
530.803	2222.81
531.169	2168.57
531.535	2206.09
531.901	2177.39
532.267	2186.43
532.632	2174
532.998	2220.77
533.364	2253.09
533.73	2269.81
534.095	2329.02
534.461	2398.17
534.826	2424.16
535.192	2442.69
535.557	2511.16
535.923	2519.07
536.288	2510.03
536.653	2507.55
537.019	2495.34
537.384	2478.17
537.749	2458.73
538.114	2461.22
538.479	2450.83
538.845	2445.85
539.21	2440.43
539.575	2430.94
539.94	2437.04
540.305	2511.16
540.67	2486.98
541.034	2586.42
541.399	2571.73
541.764	2619.41
542.129	2695.11
542.494	2735.11
542.858	2729.46
543.223	2746.64
543.587	2764.49
543.952	2738.28
544.316	2745.96
544.681	2732.85
545.045	2716.81
545.41	2725.39
545.774	2673.19
546.138	2633.65
546.503	2651.27
546.867	2649.46
547.231	2657.83
547.595	2697.15
547.959	2715
548.324	2738.05
548.688	2789.35
549.052	2800.87
549.416	2850.36
549.779	2847.2
550.143	2871.83
550.507	2913.41
550.871	2907.08
551.235	2895.56
551.599	2883.36
551.962	2902.56
552.326	2841.55
552.689	2817.82
553.053	2761.1
553.417	2750.7
553.78	2759.97
554.143	2712.51
554.507	2688.11
554.87	2670.71
555.234	2720.42
555.597	2738.95
555.96	2753.64
556.323	2796.8
556.686	2836.8
557.05	2914.99
557.413	2933.75
557.776	2914.54
558.139	2933.98
558.502	2961.77
558.865	2957.25
559.228	2990.25
559.59	2971.26
559.953	2933.52
560.316	2924.71
560.679	2878.38
561.041	2856.24
561.404	2842.23
561.767	2793.42
562.129	2779.63
562.492	2784.15
562.854	2777.37
563.217	2786.86
563.579	2823.02
563.941	2907.08
564.304	2930.36
564.666	2939.63
565.028	2978.72
565.39	3009
565.753	3033.86
566.115	3097.59
566.477	3090.81
566.839	3114.99
567.201	3133.07
567.563	3126.97
567.925	3112.28
568.287	3062.79
568.648	2987.53
569.01	3000.42
569.372	2963.13
569.734	2980.08
570.095	2940.08
570.457	2959.06
570.819	2964.03
571.18	2994.09
571.542	3008.1
571.903	3039.74
572.265	3162.9
572.626	3158.15
572.987	3235.21
573.349	3270.69
573.71	3374.87
574.071	3477.69
574.432	3471.36
574.794	3486.05
575.155	3561.08
575.516	3589.33
575.877	3623.68
576.238	3616.22
576.599	3622.55
576.96	3664.58
577.32	3604.02
577.681	3693.5
578.042	3724.69
578.403	3713.17
578.763	3828.64
579.124	3916.32
579.485	4023.89
579.845	4135.98
580.206	4255.75
580.566	4377.1
580.927	4537.32
581.287	4760.14
581.648	4924.21
582.008	5161.94
582.368	5327.13
582.728	5519.22
583.089	5796.5
583.449	5957.63
583.809	6181.57
584.169	6410.95
584.529	6602.35
584.889	6876.25
585.249	6997.15
585.609	7202.34
585.969	7573.85
586.329	7763
586.688	8069.66
587.048	8333.16
587.408	8609.99
587.768	8924.78
588.127	9274.15
588.487	9617.42
588.846	10081.36
589.206	10407.68
589.565	10901
589.925	11286.75
590.284	11733.97
590.643	12108.2
591.003	12663.89
591.362	13167.38
591.721	13536.86
592.08	13944.53
592.44	14379.33
592.799	14862.7
593.158	15155.58
593.517	15592.85
593.876	16006.85
594.235	16233.29
594.593	16784.91
594.952	17237.33
595.311	17454.27
595.67	17973.13
596.029	18446.79
596.387	18873.9
596.746	19281.12
597.104	19722.24
597.463	20096.46
597.822	20641.99
598.18	20945.03
598.538	21516.09
598.897	22083.76
599.255	22309.06
599.613	23081.7
599.972	23391.07
600.33	23887.78
600.688	24211.38
601.046	24722.56
601.404	25258.81
601.762	25477.79
602.12	26044.56
602.478	26402.51
602.836	26652
603.194	26916.4
603.552	27218.08
603.91	27383.05
604.268	27949.36
604.625	28164.5
604.983	28626.41
605.341	28562.23
605.698	29123.12
606.056	29593.84
606.413	29782.99
606.771	30256.2
607.128	30421.16
607.485	30682.4
607.843	31019.34
608.2	31546.56
608.557	31925.08
608.914	32083.04
609.272	32534.78
609.629	32783.14
609.986	33262.22
610.343	33309.45
610.7	33911.69
611.057	33885.48
611.414	34226.49
611.771	34210.67
612.127	34586.7
612.484	34673.25
612.841	34981.95
613.198	34954.83
613.554	35186.69
613.911	35426.91
614.267	35597.98
614.624	35579.45
614.98	35875.71
615.337	36155.7
615.693	36324.06
616.05	36375.36
616.406	36699.64
616.762	36741.68
617.118	36955.45
617.475	37187.77
617.831	37391.38
618.187	37647.19
618.543	37814.42
618.899	38106.39
619.255	38178.7
619.611	38364.23
619.967	38581.63
620.323	38723.09
620.678	38695.07
621.034	38657.11
621.39	38724.67
621.746	38774.62
622.101	39394.94
622.457	38919.02
622.812	39105.23
623.168	39177.54
623.523	39140.71
623.879	39424.99
624.234	39101.39
624.589	39356.97
624.945	39205.34
625.3	39493.92
625.655	39457.54
626.01	39561.94
626.365	39523.97
626.72	39688.26
627.075	39770.07
627.43	39851.2
627.785	39825.89
628.14	40075.37
628.495	40095.49
628.85	40084.64
629.205	40107.46
629.559	40513.1
629.914	40401.69
630.269	40363.95
630.623	40366.44
630.978	40461.13
631.332	40455.02
631.687	40453.22
632.041	40342.03
632.396	40370.96
632.75	40275.37
633.104	40230.85
633.459	40122.83
633.813	40123.96
634.167	40126.44
634.521	40022.94
634.875	40056.84
635.229	39971.19
635.583	39744.99
635.937	39933.91
636.291	39843.97
636.645	39998.09
636.999	39913.34
637.352	40010.52
637.706	39760.35
638.06	40091.19
638.413	40060.01
638.767	39967.81
639.121	40144.07
639.474	39899.78
639.828	39985.43
640.181	40119.89
640.534	40067.69
640.888	40008.26
641.241	39792.22
641.594	39912.89
641.947	39902.5
642.301	39754.7
642.654	39856.17
643.007	39830.41
643.36	39704.08
643.713	39537.31
644.066	39743.18
644.419	39410.31
644.771	39071.11
645.124	38644.9
645.477	38761.28
645.83	38493.95
646.182	38217.34
646.535	38227.06
646.888	38355.87
647.24	38001.76
647.593	38415.98
647.945	38404
648.298	38283.33
648.65	38056.89
649.002	38103.22
649.355	38390.9
649.707	38364.46
650.059	38416.43
650.411	38886.7
650.763	39021.84
651.115	39411.66
651.467	39189.07
651.819	39229.52
652.171	39037.89
652.523	39000.6
652.875	38971.9
653.227	38736.42
653.578	39041.95
653.93	38818.68
654.282	38532.59
654.633	38413.5
654.985	38371.24
655.337	38626.15
655.688	38476.77
656.039	38588.63
656.391	38357.9
656.742	38296.89
657.094	38312.48
657.445	38511.57
657.796	38418.69
658.147	38357.68
658.498	38314.52
658.849	38364.46
659.2	38439.03
659.551	38431.12
659.902	38667.73
660.253	38585.02
660.604	38639.25
660.955	38480.16
661.306	38606.48
661.656	38604.45
662.007	38495.53
662.358	38520.61
662.708	38574.17
663.059	38329.2
663.409	38146.61
663.76	38554.28
664.11	38450.1
664.461	38368.53
664.811	38431.35
665.161	38259.6
665.511	38145.48
665.862	38093.28
666.212	38271.8
666.562	38000.63
666.912	38123.11
667.262	37898.48
667.612	37893.96
667.962	37921.98
668.312	37787.07
668.662	37911.14
669.011	37884.7
669.361	37969.44
669.711	37889.89
670.06	37967.63
670.41	37943.68
670.76	37867.3
671.109	38058.7
671.459	37927.41
671.808	38014.86
672.157	38077.01
672.507	37895.32
672.856	37970.12
673.205	38027.97
673.554	38100.96
673.904	37893.06
674.253	38046.5
674.602	37920.63
674.951	37311.83
675.3	37182.12
675.649	37747.52
675.998	37604.48
676.346	37677.92
676.695	37681.31
677.044	37352.73
677.393	37328.55
677.741	37423.24
678.09	37258.5
678.438	37221.89
678.787	37164.26
679.135	37234.54
679.484	36803.14
679.832	37101.44
680.181	36877.49
680.529	36989.58
680.877	37034.1
681.225	37006.3
681.573	37103.25
681.922	36864.84
682.27	36875.68
682.618	37008.56
682.966	36874.55
683.314	36998.62
683.661	36889.02
684.009	36842.24
684.357	36696.03
684.705	36736.93
685.053	36686.76
685.4	36666.87
685.748	36470.95
686.095	36471.63
686.443	36390.27
686.79	36306.66
687.138	36256.26
687.485	36354.57
687.832	35994.35
688.18	36044.74
688.527	35884.52
688.874	35811.76
689.221	35633.46
689.568	35522.72
689.915	35491.76
690.262	35360.02
690.609	35213.58
690.956	35049.74
691.303	35205.44
691.65	34860.14
691.997	34961.83
692.344	34748.96
692.69	34735.63
693.037	34812.23
693.383	34448.85
693.73	34706.7
694.077	34450.44
694.423	34435.75
694.769	34422.19
695.116	34389.87
695.462	34446.37
695.808	34393.49
696.155	34438.23
696.501	34224
696.847	34128.64
697.193	33915.53
697.539	34004.35
697.885	33795.99
698.231	33574.07
698.577	33581.76
698.923	33569.1
699.269	33496.34
699.614	33286.85
699.96	33151.94
700.306	33091.6
700.651	33043.92
700.997	32710.37
701.342	32696.81
701.688	32669.92
702.033	32506.98
702.379	32520.32
702.724	32447.32
703.069	32372.07
703.415	31950.39
703.76	32103.83
704.105	31962.82
704.45	31861.13
704.795	31801.69
705.14	31814.57
705.485	31697.51
705.83	31663.84
706.175	31716.04
706.52	31610.28
706.865	31516.73
707.209	31553.11
707.554	31356.73
707.899	31573
708.243	31222.27
708.588	31321.93
708.932	31216.85
709.277	31140.01
709.621	31134.36
709.966	31026.57
710.31	31149.51
710.654	30895.95
710.998	30852.34
711.342	30797.2
711.687	30555.62
712.031	30575.96
712.375	30373.48
712.719	30524.21
713.063	30364.22
713.407	30427.04
713.75	30165.35
714.094	30213.26
714.438	29879.48
714.782	30001.51
715.125	29800.16
715.469	29827.05
715.812	29647.85
716.156	29470.68
716.499	29618.02
716.843	29561.52
717.186	29395.65
717.53	29462.09
717.873	29518.59
718.216	29291.02
718.559	29258.03
718.902	29116.11
719.246	29251.93
719.589	29096.23
719.932	29180.29
720.275	28990.92
720.617	29117.47
720.96	29050.13
721.303	28987.08
721.646	29063.46
721.989	28873.41
722.331	29076.34
722.674	29032.27
723.016	29017.81
723.359	28811.04
723.701	29008.77
724.044	28646.52
724.386	28523.81
724.729	28587.09
725.071	28637.71
725.413	28449.24
725.755	28424.15
726.097	28214.44
726.439	28255.57
726.782	28083.82
727.124	28255.8
727.465	27927.67
727.807	27918.86
728.149	27938.97
728.491	27744.17
728.833	27789.14
729.175	27668.47
729.516	27661.91
729.858	27545.53
730.199	27547.11
730.541	27584.4
730.882	27526.78
731.224	27568.81
731.565	27430.28
731.906	27429.83
732.248	27435.03
732.589	27247.69
732.93	27301.7
733.271	27300.57
733.612	27283.39
733.953	27338.98
734.294	27300.34
734.635	27155.94
734.976	27308.25
735.317	27242.04
735.658	27156.62
735.999	27146.22
736.339	27121.82
736.68	27244.07
737.021	27037.3
737.361	26987.58
737.702	27014.02
738.042	26971.54
738.383	26835.49
738.723	26879.11
739.063	26759.79
739.404	26801.15
739.744	26698.78
740.084	26664.43
740.424	26596.86
740.764	26460.82
741.104	26560.02
741.444	26437.31
741.784	26259.69
742.124	26246.81
742.464	26205.68
742.804	26159.13
743.143	26137.66
743.483	26090.66
743.823	25904.22
744.162	25965.01
744.502	26058.34
744.841	25809.31
745.181	25921.85
745.52	25731.34
745.86	25839.81
746.199	25806.37
746.538	25768.4
746.877	25954.39
747.216	25904.67
747.556	25779.03
747.895	25799.36
748.234	25580.84
748.573	25581.52
748.911	25655.64
749.25	25655.64
749.589	25609.09
749.928	25624.68
750.267	25658.58
750.605	25533.83
750.944	25465.14
751.283	25394.4
751.621	25488.41
751.96	25140.17
752.298	25184.69
752.636	25213.39
752.975	25138.36
753.313	24934.08
753.651	24982.89
753.989	24774.76
754.327	24780.86
754.666	24695.89
755.004	24686.85
755.342	24601.66
755.679	24575.67
756.017	24315.11
756.355	24462
756.693	24263.81
757.031	24322.79
757.368	24106.08
757.706	24027.89
758.044	24046.42
758.381	23961.67
758.719	23846.2
759.056	23902.24
759.394	23806.65
759.731	23544.51
760.068	23708.35
760.405	23549.48
760.743	23521.23
761.08	23594.68
761.417	23489.14
761.754	23403.04
762.091	23479.88
762.428	23321.46
762.765	23190.85
763.102	23252.99
763.438	23286.66
763.775	23127.34
764.112	23021.58
764.449	23089.83
764.785	23131.64
765.122	22863.85
765.458	22894.81
765.795	22855.49
766.131	22767.13
766.467	22752.66
766.804	22527.13
767.14	22473.58
767.476	22399.68
767.812	22266.35
768.148	22286.91
768.485	22220.93
768.821	22076.75
769.157	22051.44
769.492	21956.75
769.828	21883.08
770.164	21690.77
770.5	21605.12
770.836	21590.66
771.171	21504.56
771.507	21352.02
771.842	21200.39
772.178	21234.74
772.513	21073.16
772.849	21143.89
773.184	20973.73
773.519	20965.59
773.855	20777.35
774.19	20708.2
774.525	20630.46
774.86	20573.74
775.195	20561.54
775.53	20486.51
775.865	20409
776.2	20267.53
776.535	20245.16
776.87	20301.88
777.205	20231.83
777.539	20050.36
777.874	20183.69
778.209	19857.83
778.543	19969.01
778.878	19837.03
779.212	19863.02
779.547	19792.29
779.881	19748
780.215	19653.99
780.55	19739.64
780.884	19613.31
781.218	19600.66
781.552	19613.09
781.886	19391.17
782.22	19287.22
782.554	19195.47
782.888	18945.08
783.222	19025.08
783.556	18921.58
783.889	18721.13
784.223	18682.71
784.557	18623.96
784.89	18703.96
785.224	18450.18
785.557	18446.11
785.891	18347.81
786.224	18215.38
786.558	18239.56
786.891	18023.75
787.224	18019.23
787.557	17914.6
787.891	17950.76
788.224	17837.99
788.557	17805.9
788.89	17769.74
789.223	17780.37
789.556	17551.67
789.888	17428.06
790.221	17541.5
790.554	17383.77
790.887	17304.67
791.219	17383.99
791.552	17266.93
791.884	17168.4
792.217	17202.98
792.549	17165.24
792.882	17012.93
793.214	17009.54
793.546	17004.79
793.879	16887.06
794.211	16776.78
794.543	16918.69
794.875	16785.82
795.207	16925.25
795.539	16689.55
795.871	16754.4
796.203	16633.73
796.535	16531.59
796.867	16482.32
797.198	16468.54
797.53	16377.92
797.862	16356.67
798.193	16478.48
798.525	16251.37
798.856	16210.69
799.188	16021.77
799.519	16014.99
799.85	15951.49
800.182	15896.8
800.513	15913.07
800.844	15730.93
801.175	15842.34
801.506	15705.62
801.837	15589.69
802.168	15638.73
802.499	15598.28
802.83	15461.1
803.161	15357.83
803.491	15416.81
803.822	15386.3
804.153	15270.38
804.483	15185.18
804.814	15041.68
805.145	15125.75
805.475	15033.55
805.805	14978.41
806.136	15016.82
806.466	14937.5
806.796	14914.68
807.126	14796.04
807.457	14835.81
807.787	14873.78
808.117	14737.06
808.447	14797.39
808.777	14748.36
809.107	14664.97
809.436	14687.57
809.766	14678.53
810.096	14575.48
810.426	14559.21
810.755	14590.39
811.085	14558.3
811.414	14557.85
811.744	14423.17
812.073	14413.22
812.403	14441.47
812.732	14347.69
813.061	14332.09
813.39	14219.56
813.719	14285.32
814.049	14265.66
814.378	14164.64
814.707	14144.08
815.036	14119.9
815.365	14046.68
815.693	14004.87
816.022	13999.22
816.351	13898.43
816.68	13768.95
817.008	13913.35
817.337	13718.33
817.665	13712.9
817.994	13697.08
818.322	13694.82
818.651	13611.21
818.979	13567.82
819.307	13558.33
819.636	13493.47
819.964	13434.94
820.292	13389.97
820.62	13441.72
820.948	13316.08
821.276	13344.55
821.604	13352.01
821.932	13281.5
822.259	13342.52
822.587	13308.39
822.915	13272.69
823.243	13291.22
823.57	13274.04
823.898	13361.27
824.225	13195.85
824.553	13219.58
824.88	13298.9
825.207	13347.04
825.535	13291.67
825.862	13286.7
826.189	13272.24
826.516	13336.87
826.843	13387.26
827.17	13383.42
827.497	13423.42
827.824	13361.5
828.151	13473.36
828.478	13374.15
828.805	13413.93
829.131	13420.25
829.458	13376.87
829.785	13340.26
830.111	13422.97
830.438	13402.63
830.764	13382.06
831.09	13422.74
831.417	13339.58
831.743	13462.74
832.069	13367.15
832.395	13344.78
832.722	13378.22
833.048	13296.19
833.374	13317.21
833.7	13197.21
834.026	13316.75
834.351	13268.17
834.677	13158.57
835.003	13168.28
835.329	13125.35
835.654	13172.8
835.98	13045.8
836.306	13106.59
836.631	13012.81
836.956	13020.04
837.282	13058.46
837.607	12931.91
837.932	12970.55
838.258	12913.15
838.583	12926.26
838.908	12735.07
839.233	12821.17
839.558	12873.83
839.883	12771.01
840.208	12645.36
840.533	12683.32
840.858	12714.74
841.182	12767.16
841.507	12713.38
841.832	12590.9
842.156	12576.89
842.481	12602.87
842.805	12585.02
843.13	12522.88
843.454	12604
843.778	12517.45
844.103	12451.92
844.427	12567.85
844.751	12514.74
845.075	12432.26
845.399	12442.65
845.723	12400.17
846.047	12399.49
846.371	12297.12
846.695	12207.86
847.019	12205.37
847.343	12082.21
847.666	12114.98
847.99	12001.99
848.313	12054.87
848.637	11947.75
848.96	11973.74
849.284	11933.51
849.607	11818.94
849.931	11736.91
850.254	11717.7
850.577	11632.28
850.9	11562.22
851.223	11618.04
851.546	11542.11
851.869	11477.48
852.192	11496.24
852.515	11425.96
852.838	11329.01
853.161	11289.69
853.483	11253.31
853.806	11243.14
854.129	11183.48
854.451	11102.58
854.774	11094.44
855.096	11029.58
855.419	10974.67
855.741	10926.08
856.063	10907.78
856.385	10870.27
856.708	10791.85
857.03	10830.27
857.352	10729.25
857.674	10710.04
857.996	10738.74
858.318	10618.97
858.64	10658.29
858.961	10552.08
859.283	10546.21
859.605	10464.17
859.926	10515.92
860.248	10557.73
860.57	10432.08
860.891	10436.15
861.212	10441.58
861.534	10421.01
861.855	10374.23
862.176	10382.14
862.498	10409.03
862.819	10333.78
863.14	10307.12
863.461	10257.63
863.782	10274.8
864.103	10368.13
864.424	10238.64
864.745	10310.96
865.065	10282.71
865.386	10162.26
865.707	10263.28
866.027	10225.54
866.348	10214.24
866.668	10258.76
866.989	10201.58
867.309	10163.39
867.63	10183.96
867.95	10159.32
868.27	10027.12
868.59	10092.43
868.91	10070.51
869.23	10062.15
869.55	9998.88
869.87	10066.22
870.19	10019.44
870.51	9957.52
870.83	10021.47
871.15	9884.75
871.469	9908.71
871.789	9916.84
872.109	9897.41
872.428	9759.11
872.748	9799.56
873.067	9859.22
873.386	9813.34
873.706	9764.98
874.025	9735.15
874.344	9646.34
874.663	9659
874.982	9636.85
875.301	9656.29
875.62	9593.46
875.939	9602.05
876.258	9529.74
876.577	9534.93
876.896	9520.7
877.214	9468.27
877.533	9541.49
877.852	9437.76
878.17	9482.96
878.489	9443.18
878.807	9421.26
879.125	9437.76
879.444	9405.67
879.762	9405.44
880.08	9435.73
880.398	9346.92
880.716	9355.73
881.034	9348.95
881.352	9288.39
881.67	9317.76
881.988	9259.46
882.306	9292.23
882.624	9207.26
882.941	9159.8
883.259	9129.07
883.577	9199.8
883.894	9244.77
884.212	9182.4
884.529	9211.55
884.846	9204.32
885.164	9086.81
885.481	9127.94
885.798	9108.05
886.115	9053.14
886.432	9079.8
886.75	9034.16
887.067	9030.31
887.383	9051.33
887.7	9046.81
888.017	8998.45
888.334	9043.87
888.651	8935.63
888.967	8933.82
889.284	8912.8
889.6	8844.56
889.917	8814.27
890.233	8835.29
890.55	8739.25
890.866	8777.89
891.182	8729.98
891.498	8733.15
891.815	8714.39
892.131	8681.4
892.447	8610.21
892.763	8562.76
893.079	8548.97
893.395	8487.95
893.71	8507.84
894.026	8482.98
894.342	8456.54
894.657	8386.04
894.973	8426.49
895.289	8348.75
895.604	8309.65
895.92	8272.14
896.235	8150.11
896.55	8211.8
896.865	8178.81
897.181	8150.79
897.496	8110.79
897.811	8092.03
898.126	8059.72
898.441	8011.58
898.756	8026.05
899.071	7948.31
899.386	7963.9
899.7	7899.95
900.015	7848.2
900.33	7859.27
900.644	7799.61
900.959	7857.24
901.273	7833.96
901.588	7776.56
901.902	7702.66
902.216	7701.99
902.531	7748.77
902.845	7678.94
903.159	7582.22
903.473	7612.5
903.787	7570.46
904.101	7553.74
904.415	7590.35
904.729	7544.48
905.042	7511.71
905.356	7496.34
905.67	7507.42
905.984	7417.7
906.297	7438.94
906.611	7370.02
906.924	7341.32
907.237	7282.11
907.551	7354.2
907.864	7269.23
908.177	7289.12
908.491	7259.74
908.804	7216.35
909.117	7194.66
909.43	7110.36
909.743	7093.19
910.056	7095.22
910.368	7037.15
910.681	7000.31
910.994	6982.68
911.307	6999.86
911.619	6853.65
911.932	6909.47
912.244	6896.36
912.557	6878.28
912.869	6769.81
913.181	6751.28
913.494	6768.9
913.806	6681.22
914.118	6719.19
914.43	6610.26
914.742	6618.63
915.054	6589.25
915.366	6523.94
915.678	6546.54
915.99	6519.42
916.302	6415.69
916.613	6453.21
916.925	6420.44
917.236	6375.69
917.548	6357.39
917.859	6292.98
918.171	6276.94
918.482	6306.77
918.794	6230.16
919.105	6210.27
919.416	6126.89
919.727	6189.03
920.038	6132.08
920.349	6116.27
920.66	6040.34
920.971	6090.96
921.282	6040.34
921.593	6035.14
921.903	5986.33
922.214	5939.1
922.525	5956.5
922.835	5924.41
923.146	5842.6
923.456	5831.75
923.767	5843.73
924.077	5838.98
924.387	5835.6
924.697	5780
925.008	5800.57
925.318	5758.31
925.628	5742.94
925.938	5693
926.248	5615.94
926.558	5598.31
926.867	5645.32
927.177	5653.68
927.487	5616.39
927.796	5591.08
928.106	5541.82
928.416	5553.34
928.725	5570.07
929.034	5497.52
929.344	5465.44
929.653	5464.08
929.962	5446.23
930.271	5387.25
930.581	5390.64
930.89	5385.89
931.199	5338.66
931.508	5278.77
931.817	5269.73
932.125	5219.11
932.434	5259.79
932.743	5190.64
933.051	5208.72
933.36	5170.3
933.669	5142.05
933.977	5147.03
934.286	5122.39
934.594	5055.95
934.902	5011.89
935.21	5044.88
935.519	4999.68
935.827	4985.45
936.135	4936.41
936.443	4901.61
936.751	4881.72
937.059	4923.98
937.367	4814.38
937.674	4850.99
937.982	4848.28
938.29	4760.14
938.597	4750.88
938.905	4772.8
939.213	4698.9
939.52	4691.67
939.827	4706.13
940.135	4680.37
940.442	4648.96
940.749	4638.11
941.056	4624.78
941.363	4548.62
941.67	4602.63
941.977	4530.54
942.284	4471.34
942.591	4520.15
942.898	4500.04
943.205	4517.66
943.511	4435.18
943.818	4434.28
944.125	4382.53
944.431	4401.96
944.738	4402.64
945.044	4403.77
945.35	4293.71
945.657	4331
945.963	4287.39
946.269	4272.25
946.575	4314.51
946.881	4300.72
947.187	4277.44
947.493	4218.69
947.799	4232.93
948.105	4205.81
948.41	4172.14
948.716	4184.79
949.022	4145.24
949.327	4106.15
949.633	4157.22
949.938	4083.1
950.244	4085.13
950.549	4047.39
950.854	4067.96
951.16	4060.05
951.465	4023.67
951.77	3987.06
952.075	3974.18
952.38	3991.35
952.685	3953.38
952.99	3938.92
953.294	3902.31
953.599	3870.22
953.904	3890.56
954.209	3821.64
954.513	3846.04
954.818	3856.21
955.122	3798.13
955.426	3811.02
955.731	3790.9
956.035	3733.96
956.339	3695.54
956.643	3750.9
956.948	3715.2
957.252	3733.05
957.556	3671.81
957.86	3640.62
958.163	3650.57
958.467	3632.26
958.771	3616.9
959.075	3579.61
959.378	3616.22
959.682	3568.54
959.985	3545.94
960.289	3560.85
960.592	3504.36
960.896	3513.17
961.199	3507.75
961.502	3433.85
961.805	3416.68
962.108	3436.34
962.411	3375.77
962.714	3386.39
963.017	3350.01
963.32	3381.2
963.623	3331.93
963.926	3312.27
964.228	3354.76
964.531	3329.45
964.833	3293.97
965.136	3303.01
965.438	3261.88
965.741	3245.83
966.043	3223.91
966.345	3206.96
966.648	3213.07
966.95	3202.22
967.252	3175.78
967.554	3200.41
967.856	3178.26
968.158	3142.78
968.46	3152.05
968.761	3098.49
969.063	3128.55
969.365	3107.53
969.666	3080.87
969.968	3077.7
970.269	3045.39
970.571	3044.03
970.872	3022.34
971.174	3036.8
971.475	2999.29
971.776	2993.41
972.077	2968.1
972.378	2978.5
972.679	2977.82
972.98	2959.96
973.281	2957.7
973.582	2929.91
973.883	2915.9
974.183	2912.73
974.484	2923.58
974.785	2908.21
975.085	2855.79
975.386	2896.69
975.686	2874.54
975.986	2835.67
976.287	2815.11
976.587	2817.6
976.887	2795.45
977.187	2814.43
977.487	2793.19
977.787	2756.81
978.087	2759.07
978.387	2758.16
978.687	2731.5
978.987	2684.04
979.286	2749.8
979.586	2681.33
979.885	2692.63
980.185	2676.81
980.484	2666.19
980.784	2660.76
981.083	2635.68
981.382	2608.56
981.682	2625.28
981.981	2588.9
982.28	2603.82
982.579	2526.98
982.878	2549.13
983.177	2580.09
983.475	2538.51
983.774	2533.31
984.073	2510.03
984.372	2487.21
984.67	2482.24
984.969	2485.4
985.267	2463.93
985.566	2465.29
985.864	2432.97
986.162	2430.94
986.461	2457.6
986.759	2464.61
987.057	2398.17
987.355	2397.27
987.653	2363.14
987.951	2351.17
988.249	2345.74
988.547	2343.48
988.844	2323.15
989.142	2338.51
989.44	2309.81
989.737	2271.62
990.035	2291.06
990.332	2284.95
990.63	2255.12
990.927	2267.1
991.224	2252.41
991.521	2277.95
991.819	2245.86
992.116	2211.06
992.413	2225.29
992.71	2227.55
993.006	2199.08
993.303	2182.81
993.6	2188.91
993.897	2172.64
994.193	2140.55
994.49	2152.98
994.787	2124.96
995.083	2109.82
995.379	2135.35
995.676	2102.36
995.972	2115.69
996.268	2075.69
996.565	2067.56
996.861	2057.16
997.157	2046.99
997.453	2050.38
997.749	2049.03
998.044	2031.18
998.34	2007
998.636	2018.52
998.932	2013.55
999.227	2012.64
999.523	1952.08
999.818	1967.67
1000.114	1963.83
1000.409	1961.57
1000.704	1941.69
1001	1955.25
1001.295	1934.45
1001.59	1928.81
1001.885	1924.29
1002.18	1907.11
1002.475	1903.04
1002.77	1879.99
1003.065	1853.33
1003.359	1867.11
1003.654	1853.55
1003.949	1841.12
1004.243	1822.59
1004.538	1823.95
1004.832	1827.56
1005.127	1827.79
1005.421	1774.23
1005.715	1793.44
1006.009	1774.68
1006.304	1773.56
1006.598	1757.51
1006.892	1737.62
1007.186	1726.1
1007.48	1722.26
1007.773	1724.52
1008.067	1698.53
1008.361	1700.79
1008.655	1682.71
1008.948	1675.25
1009.242	1649.94
1009.535	1654.46
1009.829	1634.8
1010.122	1618.98
1010.415	1625.08
1010.708	1605.88
1011.001	1611.75
1011.295	1625.54
1011.588	1571.53
1011.881	1592.54
1012.173	1546.22
1012.466	1594.12
1012.759	1553.45
1013.052	1537.63
1013.344	1533.34
1013.637	1501.25
1013.93	1502.6
1014.222	1484.07
1014.514	1510.74
1014.807	1487.01
1015.099	1477.97
1015.391	1486.1
1015.683	1518.19
1015.976	1475.71
1016.268	1467.57
1016.56	1397.07
1016.851	1433
1017.143	1443.85
1017.435	1422.6
1017.727	1404.07
1018.018	1382.83
1018.31	1383.96
1018.602	1387.12
1018.893	1375.6
1019.185	1371.76
1019.476	1355.71
1019.767	1324.75
1020.058	1328.82
1020.35	1343.74
1020.641	1303.74
1020.932	1332.21
1021.223	1323.4
1021.514	1306.67
1021.804	1283.17
1022.095	1296.05
1022.386	1273.46
1022.677	1265.77
1022.967	1275.26
1023.258	1266
1023.548	1238.43
1023.839	1242.5
1024.129	1241.37
1024.419	1240.46
1024.709	1204.98
1025	1199.11
1025.29	1191.2
1025.58	1183.51
1025.87	1178.77
1026.16	1183.29
1026.449	1177.19
1026.739	1173.34
1027.029	1152.1
1027.319	1167.92
1027.608	1129.73
1027.898	1127.24
1028.187	1122.27
1028.477	1134.93
1028.766	1121.82
1029.055	1107.36
1029.344	1095.38
1029.634	1079.79
1029.923	1097.87
1030.212	1080.69
1030.501	1087.92
1030.79	1059.9
1031.078	1047.92
1031.367	1030.07
1031.656	1073.69
1031.945	1063.52
1032.233	1058.77
1032.522	1016.06
1032.81	1036.63
1033.099	1010.86
1033.387	980.13
1033.675	996.63
1033.963	990.75
1034.251	989.17
1034.54	950.75
1034.828	978.55
1035.116	968.38
1035.403	979.23
1035.691	936.97
1035.979	965.67
1036.267	953.92
1036.554	933.8
1036.842	906.01
1037.129	947.59
1037.417	891.77
1037.704	917.31
1037.992	911.66
1038.279	902.62
1038.566	894.48
1038.853	894.48
1039.14	894.48
