Data from red_shiny_book_FLMS001491_00064.txt Node
Date: Wed Feb 08 15:25:13 GMT 2017
User: dcchb
Spectrometer: FLMS00149
Trigger mode: 0
Integration Time (sec): 2.000000E-2
Scans to average: 10
Electric dark correction enabled: true
Nonlinearity correction enabled: false
Boxcar width: 0
XAxis mode: Wavelengths
Number of Pixels in Spectrum: 2048
>>>>>Begin Spectral Data<<<<<
341.393	-14.63
341.776	-14.63
342.16	-14.63
342.543	-44.69
342.927	-58.7
343.31	-67.51
343.693	-66.16
344.077	-69.55
344.46	-50.11
344.843	-49.66
345.226	-20.73
345.61	-41.75
345.993	-13.28
346.376	1.19
346.759	29.89
347.142	26.27
347.525	27.17
347.908	44.35
348.291	77.34
348.674	74.86
349.057	97.68
349.44	116.21
349.823	140.62
350.206	171.58
350.588	182.2
350.971	219.03
351.354	235.53
351.737	246.38
352.119	261.52
352.502	279.37
352.884	271.91
353.267	288.18
353.65	285.7
354.032	311.23
354.414	298.13
354.797	312.14
355.179	331.57
355.562	332.48
355.944	335.19
356.326	344.45
356.709	358.01
357.091	347.39
357.473	317.34
357.855	331.8
358.238	350.56
358.62	360.5
359.002	338.13
359.384	314.4
359.766	359.14
360.148	344.91
360.53	331.8
360.912	343.1
361.294	321.63
361.676	330.9
362.057	329.09
362.439	340.39
362.821	320.95
363.203	327.05
363.584	316.43
363.966	339.93
364.348	315.08
364.729	318.01
365.111	319.37
365.493	316.88
365.874	300.16
366.256	303.33
366.637	321.86
367.019	298.13
367.4	310.56
367.781	313.27
368.163	314.62
368.544	307.39
368.925	326.6
369.306	305.36
369.688	320.73
370.069	317.34
370.45	319.14
370.831	315.75
371.212	309.65
371.593	315.3
371.974	301.97
372.355	274.85
372.736	322.99
373.117	307.62
373.498	326.15
373.879	313.72
374.26	308.52
374.641	306.26
375.021	315.08
375.402	308.52
375.783	289.31
376.163	290.67
376.544	318.47
376.925	320.5
377.305	319.82
377.686	332.93
378.066	322.08
378.447	303.1
378.827	287.73
379.208	327.73
379.588	319.6
379.968	322.08
380.349	336.54
380.729	323.21
381.109	329.99
381.489	324.34
381.87	327.05
382.25	335.19
382.63	345.36
383.01	328.64
383.39	328.18
383.77	348.52
384.15	342.87
384.53	315.08
384.91	351.69
385.29	325.47
385.67	344.23
386.049	337.67
386.429	336.09
386.809	341.74
387.189	322.76
387.568	350.1
387.948	334.28
388.328	343.1
388.707	336.54
389.087	341.74
389.466	330.22
389.846	359.82
390.225	342.87
390.605	350.56
390.984	355.98
391.363	355.98
391.743	329.77
392.122	337.22
392.501	347.84
392.881	353.49
393.26	348.97
393.639	359.6
394.018	358.24
394.397	355.3
394.776	341.06
395.155	338.8
395.534	340.84
395.913	348.97
396.292	353.27
396.671	364.79
397.05	362.98
397.429	362.76
397.808	345.58
398.186	385.36
398.565	361.4
398.944	366.15
399.323	360.5
399.701	356.66
400.08	367.5
400.458	359.6
400.837	383.32
401.215	347.84
401.594	364.34
401.972	382.87
402.351	376.77
402.729	367.96
403.107	375.64
403.486	375.19
403.864	388.29
404.242	384.45
404.62	377.9
404.999	394.62
405.377	400.05
405.755	382.87
406.133	392.14
406.511	382.65
406.889	399.14
407.267	409.31
407.645	393.72
408.023	412.02
408.401	399.59
408.779	389.2
409.156	398.24
409.534	386.26
409.912	393.04
410.29	416.77
410.667	447.95
411.045	432.59
411.422	411.35
411.8	436.43
412.178	416.77
412.555	421.51
412.933	443.89
413.31	430.33
413.687	445.47
414.065	409.54
414.442	447.73
414.819	430.1
415.197	435.3
415.574	450.21
415.951	454.06
416.328	456.77
416.705	467.16
417.082	452.47
417.46	473.49
417.837	458.12
418.214	455.41
418.591	459.71
418.967	485.24
419.344	477.56
419.721	473.72
420.098	454.51
420.475	471
420.852	465.35
421.228	490.67
421.605	489.08
421.982	507.16
422.358	508.07
422.735	492.92
423.111	486.82
423.488	509.42
423.864	514.17
424.241	522.53
424.617	497.9
424.994	506.94
425.37	504.68
425.746	491.34
426.123	505.35
426.499	510.55
426.875	502.87
427.251	509.87
427.627	518.46
428.003	541.06
428.379	551
428.756	543.55
429.132	530.44
429.507	539.7
429.883	534.73
430.259	524.56
430.635	557.1
431.011	541.74
431.387	551.45
431.763	557.78
432.138	584.45
432.514	563.66
432.89	568.4
433.265	576.31
433.641	600.04
434.016	574.28
434.392	573.83
434.767	575.41
435.143	593.26
435.518	575.41
435.894	592.81
436.269	626.25
436.644	601.62
437.02	613.6
437.395	585.58
437.77	626.03
438.145	626.25
438.52	627.84
438.895	625.8
439.271	610.89
439.646	608.18
440.021	616.76
440.395	646.59
440.77	631.45
441.145	629.87
441.52	680.72
441.895	629.87
442.27	667.16
442.645	644.79
443.019	652.92
443.394	632.36
443.769	645.69
444.143	650.21
444.518	658.57
444.892	666.71
445.267	673.03
445.641	667.61
446.016	663.54
446.39	665.35
446.764	685.46
447.139	670.1
447.513	702.86
447.887	666.03
448.262	678.46
448.636	645.46
449.01	654.73
449.384	685.24
449.758	685.91
450.132	695.41
450.506	707.61
450.88	663.32
451.254	685.69
451.628	682.98
452.002	721.39
452.376	693.37
452.75	717.33
453.123	706.7
453.497	704.44
453.871	701.51
454.244	713.26
454.618	720.94
454.992	709.42
455.365	721.62
455.739	717.78
456.112	731.79
456.486	747.38
456.859	753.03
457.232	766.59
457.606	748.06
457.979	754.16
458.352	754.39
458.725	746.93
459.099	763.88
459.472	751.9
459.845	769.98
460.218	765.46
460.591	733.14
460.964	770.21
461.337	783.99
461.71	792.58
462.083	798.23
462.456	776.31
462.829	799.36
463.201	807.49
463.574	782.18
463.947	804.1
464.32	812.01
464.692	787.83
465.065	781.05
465.438	800.49
465.81	803.43
466.183	812.01
466.555	813.59
466.928	845.01
467.3	867.15
467.672	853.59
468.045	881.84
468.417	840.94
468.789	854.5
469.161	850.88
469.534	870.54
469.906	859.92
470.278	849.75
470.65	879.13
471.022	901.28
471.394	890.2
471.766	891.33
472.138	942.18
472.51	947.38
472.882	977.43
473.253	943.31
473.625	943.99
473.997	946.7
474.369	956.64
474.74	943.76
475.112	944.21
475.484	965.91
475.855	966.58
476.227	978.34
476.598	994.38
476.97	1024.21
477.341	1023.08
477.713	1075.51
478.084	1064.89
478.455	1087.71
478.827	1084.32
479.198	1097.65
479.569	1126.58
479.94	1127.26
480.311	1091.78
480.682	1120.7
481.053	1122.96
481.424	1146.47
481.795	1138.33
482.166	1156.64
482.537	1169.07
482.908	1210.65
483.279	1231.44
483.65	1263.98
484.021	1296.52
484.391	1302.85
484.762	1309.4
485.133	1312.79
485.503	1304.43
485.874	1316.41
486.244	1317.99
486.615	1308.5
486.985	1310.53
487.356	1330.87
487.726	1331.09
488.097	1401.15
488.467	1420.58
488.837	1443.18
489.207	1486.35
489.578	1521.37
489.948	1512.79
490.318	1564.54
490.688	1562.05
491.058	1564.76
491.428	1576.29
491.798	1576.06
492.168	1580.58
492.538	1582.84
492.908	1555.04
493.278	1586.46
493.648	1583.97
494.017	1618.77
494.387	1665.32
494.757	1694.93
495.126	1708.03
495.496	1750.29
495.866	1763.17
496.235	1744.87
496.605	1782.38
496.974	1751.87
497.344	1779.22
497.713	1760.46
498.082	1775.38
498.452	1755.49
498.821	1763.17
499.19	1767.69
499.559	1787.58
499.928	1767.24
500.298	1780.35
500.667	1814.02
501.036	1829.84
501.405	1885.66
501.774	1907.58
502.143	1918.2
502.512	1913.9
502.88	1937.41
503.249	1928.82
503.618	1897.86
503.987	1908.71
504.356	1883.17
504.724	1894.24
505.093	1858.09
505.462	1862.15
505.83	1875.49
506.199	1859.89
506.567	1898.09
506.936	1886.56
507.304	1948.03
507.672	1984.64
508.041	1966.11
508.409	1995.94
508.777	2001.59
509.145	2003.85
509.514	1985.99
509.882	1998.65
510.25	1974.02
510.618	1897.63
510.986	1945.32
511.354	1945.99
511.722	1924.75
512.09	1933.79
512.458	1921.36
512.826	1952.1
513.193	1964.75
513.561	1969.95
513.929	2015.6
514.297	2032.09
514.664	2068.02
515.032	2065.76
515.4	2057.4
515.767	2076.61
516.135	2050.62
516.502	1992.77
516.869	1992.09
517.237	1951.42
517.604	1960.23
517.972	1939.67
518.339	1929.95
518.706	1917.97
519.073	1921.36
519.44	1917.75
519.808	1970.17
520.175	1996.61
520.542	2028.25
520.909	2010.63
521.276	2057.18
521.643	2084.3
522.009	2071.19
522.376	2105.76
522.743	2082.26
523.11	2047.01
523.477	2068.7
523.843	2039.32
524.21	2021.92
524.577	1972.89
524.943	2022.6
525.31	1966.78
525.676	2008.59
526.043	2023.51
526.409	2046.78
526.776	2078.87
527.142	2120.9
527.508	2137.85
527.874	2171.98
528.241	2208.59
528.607	2234.8
528.973	2270.05
529.339	2233.67
529.705	2237.74
530.071	2264.4
530.437	2266.89
530.803	2245.2
531.169	2199.55
531.535	2204.29
531.901	2208.81
532.267	2149.83
532.632	2195.25
532.998	2230.05
533.364	2269.38
533.73	2310.5
534.095	2353.44
534.461	2381.01
534.826	2427.79
535.192	2462.59
535.557	2476.6
535.923	2479.99
536.288	2521.57
536.653	2539.88
537.019	2527.45
537.384	2473.44
537.749	2484.74
538.114	2469.37
538.479	2433.21
538.845	2430.95
539.21	2406.09
539.575	2430.05
539.94	2452.65
540.305	2469.14
540.67	2487.22
541.034	2557.73
541.399	2602.7
541.764	2629.14
542.129	2633.21
542.494	2701.91
542.858	2714.34
543.223	2769.48
543.587	2761.34
543.952	2760.44
544.316	2762.24
544.681	2713.66
545.045	2718.63
545.41	2649.7
545.774	2702.36
546.138	2684.96
546.503	2651.74
546.867	2644.51
547.231	2677.5
547.595	2696.48
547.959	2677.95
548.324	2719.31
548.688	2757.72
549.052	2781.23
549.416	2816.03
549.779	2846.99
550.143	2899.87
550.507	2913.65
550.871	2932.18
551.235	2922.69
551.599	2906.87
551.962	2874.11
552.326	2851.96
552.689	2837.27
553.053	2802.02
553.417	2766.99
553.78	2742.13
554.143	2722.02
554.507	2677.73
554.87	2683.38
555.234	2721.11
555.597	2708.69
555.96	2750.27
556.323	2738.74
556.686	2859.87
557.05	2863.03
557.413	2877.27
557.776	2960.2
558.139	2949.81
558.502	2975.8
558.865	2995.91
559.228	3003.14
559.59	2966.31
559.953	2938.51
560.316	2899.19
560.679	2855.57
561.041	2850.38
561.404	2854.22
561.767	2850.83
562.129	2787.33
562.492	2807.44
562.854	2806.31
563.217	2756.59
563.579	2867.1
563.941	2831.62
564.304	2896.25
564.666	2933.99
565.028	3009.47
565.39	3029.81
565.753	3063.48
566.115	3096.02
566.477	3120.43
566.839	3133.08
567.201	3137.15
567.563	3091.5
567.925	3089.24
568.287	3062.57
568.648	3045.4
569.01	3019.19
569.372	2970.6
569.734	2940.77
570.095	2962.01
570.457	2977.38
570.819	2972.86
571.18	2949.13
571.542	3030.94
571.903	3050.37
572.265	3112.29
572.626	3190.03
572.987	3240.42
573.349	3312.74
573.71	3342.57
574.071	3399.52
574.432	3473.64
574.794	3516.8
575.155	3576.46
575.516	3558.83
575.877	3611.26
576.238	3587.31
576.599	3624.82
576.96	3624.37
577.32	3643.12
577.681	3680.19
578.042	3689.23
578.403	3759.51
578.763	3801.09
579.124	3936.9
579.485	3981.19
579.845	4125.37
580.206	4218.25
580.566	4380.05
580.927	4515.42
581.287	4770.33
581.648	4921.73
582.008	5123.09
582.368	5354.94
582.728	5541.83
583.089	5716.29
583.449	5914.25
583.809	6176.62
584.169	6420.68
584.529	6595.59
584.889	6864.51
585.249	6975.92
585.609	7205.52
585.969	7509.24
586.329	7727.54
586.688	7995.1
587.048	8311.25
587.408	8639.15
587.768	8905.81
588.127	9260.6
588.487	9589.18
588.846	10063.07
589.206	10346.68
589.565	10869.6
589.925	11267.33
590.284	11669.13
590.643	12124.94
591.003	12640.4
591.362	13083.33
591.721	13520.83
592.08	13885.12
592.44	14370.98
592.799	14768.48
593.158	15243.27
593.517	15500.44
593.876	15953.76
594.235	16364.37
594.593	16710.58
594.952	17149.66
595.311	17466.72
595.67	17887.04
596.029	18518.67
596.387	18946.45
596.746	19418.53
597.104	19659.2
597.463	20181.67
597.822	20592.74
598.18	20931.03
598.538	21436.55
598.897	22060.04
599.255	22234.95
599.613	23154.48
599.972	23353.57
600.33	23812.31
600.688	24190.83
601.046	24707.66
601.404	25162.33
601.762	25533.62
602.12	25981.07
602.478	26335.86
602.836	26677.77
603.194	26800.26
603.552	27269.85
603.91	27480.01
604.268	27861.02
604.625	28141.01
604.983	28572.64
605.341	28629.81
605.698	29120.65
606.056	29483.12
606.413	29682.21
606.771	30125.59
607.128	30496.43
607.485	30664.11
607.843	30964.67
608.2	31450.08
608.557	31833.8
608.914	31962.15
609.272	32473.33
609.629	32805.52
609.986	33299.75
610.343	33394.66
610.7	33797.81
611.057	33908.09
611.414	34041.42
611.771	34238.7
612.127	34506.27
612.484	34657
612.841	34995.52
613.198	34936.09
613.554	35144.22
613.911	35320.03
614.267	35409.52
614.624	35649.97
614.98	35782.17
615.337	36097.41
615.693	36159.33
616.05	36263.06
616.406	36724.06
616.762	36669.83
617.118	36881.35
617.475	37115.92
617.831	37389.13
618.187	37510.26
618.543	37841.55
618.899	38108.88
619.255	38064.59
619.611	38219.84
619.967	38510
620.323	38762.43
620.678	38549.33
621.034	38678.36
621.39	38758.36
621.746	38748.87
622.101	39396.76
622.457	38894.4
622.812	38938.47
623.168	39077
623.523	39208.97
623.879	39305.24
624.234	38996.77
624.589	39131
624.945	39303.43
625.3	39413.71
625.655	39457.78
626.01	39590.65
626.365	39718.11
626.72	39656.64
627.075	39819.35
627.43	39746.81
627.785	39820.25
628.14	39950.64
628.495	40208.26
628.85	40273.12
629.205	40239.45
629.559	40562.38
629.914	40286.68
630.269	40360.13
630.623	40378.88
630.978	40355.38
631.332	40569.84
631.687	40446.68
632.041	40307.47
632.396	40281.26
632.75	40134.59
633.104	40320.58
633.459	40042.85
633.813	39865.45
634.167	39889.86
634.521	39994.94
634.875	39924.43
635.229	39848.73
635.583	39783.42
635.937	39873.58
636.291	39952
636.645	39860.25
636.999	39872.45
637.352	39779.58
637.706	39860.25
638.06	40068.16
638.413	39936.18
638.767	39839.91
639.121	40106.57
639.474	39799.69
639.828	39980.02
640.181	40104.99
640.534	40086.01
640.888	39937.99
641.241	39709.52
641.594	39798.56
641.947	39942.51
642.301	39656.41
642.654	39924.66
643.007	39739.12
643.36	39656.87
643.713	39400.83
644.066	39568.06
644.419	39270.44
644.771	39012.14
645.124	38642.88
645.477	38542.77
645.83	38340.29
646.182	38111.37
646.535	38419.84
646.888	38339.84
647.24	38070.47
647.593	38318.6
647.945	38344.58
648.298	38246.96
648.65	38111.14
649.002	38049.23
649.355	38265.72
649.707	38189.33
650.059	38398.82
650.411	38953.61
650.763	38962.65
651.115	39345.01
651.467	39055.3
651.819	39171.68
652.171	39156.09
652.523	39095.98
652.875	38927.39
653.227	38736.21
653.578	38904.57
653.93	38779.15
654.282	38536.9
654.633	38510.68
654.985	38528.99
655.337	38421.65
655.688	38572.83
656.039	38627.97
656.391	38173.97
656.742	38204.93
657.094	38364.47
657.445	38423
657.796	38442.66
658.147	38395.88
658.498	38420.74
658.849	38459.38
659.2	38453.73
659.551	38382.55
659.902	38413.96
660.253	38463.68
660.604	38652.37
660.955	38489.44
661.306	38722.43
661.656	38488.08
662.007	38454.19
662.358	38502.77
662.708	38533.96
663.059	38506.16
663.409	38181.43
663.76	38456.45
664.11	38355.21
664.461	38298.26
664.811	38239.05
665.161	38250.8
665.511	38082.22
665.862	38063.46
666.212	38180.75
666.562	38109.34
666.912	37938.95
667.262	37853.75
667.612	37869.12
667.962	37838.16
668.312	37778.95
668.662	38022.11
669.011	37799.97
669.361	37854.65
669.711	37988.66
670.06	37982.33
670.41	37841.55
670.76	37823.69
671.109	37933.97
671.459	37972.17
671.808	37944.37
672.157	38106.4
672.507	37722
672.856	37863.92
673.205	38032.05
673.554	38036.8
673.904	37809.23
674.253	38052.39
674.602	37834.77
674.951	37314.56
675.3	37188.46
675.649	37718.84
675.998	37530.6
676.346	37623.25
676.695	37680.2
677.044	37197.04
677.393	37333.31
677.741	37373.31
678.09	37213.99
678.438	37116.37
678.787	37103.71
679.135	37159.76
679.484	36896.26
679.832	37053.77
680.181	36923.15
680.529	36949.59
680.877	36875.25
681.225	36896.49
681.573	37150.27
681.922	36875.02
682.27	36848.81
682.618	37008.57
682.966	36916.37
683.314	36920.89
683.661	36974
684.009	36682.48
684.357	36643.84
684.705	36572.65
685.053	36772.65
685.4	36583.05
685.748	36468.48
686.095	36417.63
686.443	36402.94
686.79	36229.61
687.138	36288.37
687.485	36273.23
687.832	36008.83
688.18	35980.58
688.527	35708.5
688.874	35806.12
689.221	35550.31
689.568	35519.8
689.915	35323.65
690.262	35338.56
690.609	35216.08
690.956	35122.07
691.303	35040.27
691.65	34977.89
691.997	34867.39
692.344	34684.79
692.69	34538.13
693.037	34800.72
693.383	34463.56
693.73	34689.09
694.077	34440.05
694.423	34471.24
694.769	34372.03
695.116	34446.16
695.462	34420.62
695.808	34297.01
696.155	34325.26
696.501	34048.65
696.847	34097.69
697.193	33871.48
697.539	33979.95
697.885	33725.5
698.231	33694.09
698.577	33574.31
698.923	33611.38
699.269	33407.54
699.614	33242.8
699.96	33142.91
700.306	33100.2
700.651	32861.34
700.997	32718.07
701.342	32718.29
701.688	32679.42
702.033	32499.09
702.379	32404.4
702.724	32328.92
703.069	32462.03
703.415	31947.24
703.76	32125.54
704.105	32048.93
704.45	31888.03
704.795	31662.95
705.14	31767.81
705.485	31755.83
705.83	31504.09
706.175	31629.73
706.52	31572.79
706.865	31557.19
707.209	31457.99
707.554	31489.62
707.899	31513.35
708.243	31209.63
708.588	31345.67
708.932	31197.88
709.277	31208.5
709.621	31250.08
709.966	31003.76
710.31	30889.87
710.654	30688.06
710.998	30828.85
711.342	30920.83
711.687	30597.22
712.031	30439.48
712.375	30408.52
712.719	30456.2
713.063	30221.41
713.407	30359.26
713.75	30272.93
714.094	30142.54
714.438	29983.22
714.782	29977.12
715.125	29738.03
715.469	29841.08
715.812	29530.35
716.156	29548.43
716.499	29445.61
716.843	29515.44
717.186	29338.72
717.53	29455.33
717.873	29343.01
718.216	29265.5
718.559	29285.61
718.902	29039.97
719.246	29116.13
719.589	29174.66
719.932	28988.45
720.275	28991.38
720.617	29075.22
720.96	29081.78
721.303	28970.37
721.646	29112.29
721.989	28920.88
722.331	29006.53
722.674	28877.94
723.016	28929.69
723.359	28824.38
723.701	28827.1
724.044	28693.09
724.386	28516.37
724.729	28624.39
725.071	28536.93
725.413	28562.7
725.755	28430.95
726.097	28245.42
726.439	28044.74
726.782	28047.91
727.124	28185.76
727.465	28040.9
727.807	28031.86
728.149	27763.85
728.491	27703.06
728.833	27697.63
729.175	27640.46
729.516	27607.92
729.858	27582.61
730.199	27525.89
730.541	27559.78
730.882	27458.77
731.224	27650.18
731.565	27308.04
731.906	27288.15
732.248	27479.79
732.589	27284.08
732.93	27341.03
733.271	27156.86
733.612	27282.95
733.953	27361.6
734.294	27171.09
734.635	27254.93
734.976	27257.87
735.317	27126.35
735.658	27153.92
735.999	27094.71
736.339	27063.53
736.68	27170.87
737.021	27109.63
737.361	27000.7
737.702	26993.47
738.042	26861.95
738.383	26858.11
738.723	26867.15
739.063	26660.15
739.404	26768.39
739.744	26673.25
740.084	26507.83
740.424	26627.6
740.764	26594.39
741.104	26560.49
741.444	26281.17
741.784	26323.66
742.124	26309.87
742.464	26203.89
742.804	26175.64
743.143	26046.6
743.483	25989.43
743.823	25914.4
744.162	25878.02
744.502	25948.3
744.841	25767.51
745.181	25912.82
745.52	25835.31
745.86	25786.72
746.199	25755.99
746.538	25765.93
746.877	25834.63
747.216	25848.87
747.556	25807.29
747.895	25755.09
748.234	25591.93
748.573	25664.69
748.911	25606.84
749.25	25702.88
749.589	25539.05
749.928	25643.68
750.267	25588.76
750.605	25476.67
750.944	25436
751.283	25454.3
751.621	25334.98
751.96	25264.02
752.298	25170.92
752.636	25246.4
752.975	24986.52
753.313	24858.39
753.651	24897.48
753.989	24758.5
754.327	24801.66
754.666	24626.98
755.004	24670.37
755.342	24637.15
755.679	24550.15
756.017	24364.39
756.355	24357.83
756.693	24176.82
757.031	24225.41
757.368	23994.23
757.706	24015.02
758.044	23988.58
758.381	23897.96
758.719	23710.39
759.056	23858.19
759.394	23769.15
759.731	23551.08
760.068	23694.8
760.405	23489.16
760.743	23535.48
761.08	23601.7
761.417	23434.24
761.754	23404.86
762.091	23420.68
762.428	23322.83
762.765	23188.6
763.102	23262.72
763.438	23100.92
763.775	23047.13
764.112	23123.97
764.449	23093.91
764.785	23008.04
765.122	22967.14
765.458	22763.75
765.795	22719.01
766.131	22862.28
766.467	22653.7
766.804	22612.8
767.14	22514.94
767.476	22333.25
767.812	22250.54
768.148	22311.11
768.485	22125.12
768.821	22041.28
769.157	21991.34
769.492	21881.29
769.828	21850.1
770.164	21578.47
770.5	21671.13
770.836	21550.68
771.171	21264.13
771.507	21346.84
771.842	21112.95
772.178	21141.42
772.513	21020.07
772.849	21085.83
773.184	20918.15
773.519	20839.28
773.855	20711.6
774.19	20686.52
774.525	20615.79
774.86	20584.83
775.195	20524.94
775.53	20545.96
775.865	20373.08
776.2	20254.44
776.535	20223.93
776.87	20192.29
777.205	20123.37
777.539	20096.48
777.874	20117.04
778.209	19878.63
778.543	20043.6
778.878	19879.53
779.212	19785.98
779.547	19728.58
779.881	19768.58
780.215	19638.86
780.55	19773.1
780.884	19596.83
781.218	19568.36
781.552	19462.82
781.886	19349.38
782.22	19191.19
782.554	19206.11
782.888	18976.51
783.222	18967.47
783.556	18828.26
783.889	18827.81
784.223	18568.16
784.557	18622.84
784.89	18717.3
785.224	18504.2
785.557	18419.23
785.891	18429.4
786.224	18288.62
786.558	18199.8
786.891	17962.07
787.224	17907.61
787.557	17965.46
787.891	17890.43
788.224	17813.37
788.557	17740.61
788.89	17833.03
789.223	17729.08
789.556	17560.05
789.888	17468.52
790.221	17468.98
790.554	17345.59
790.887	17308.08
791.219	17256.1
791.552	17192.6
791.884	17170
792.217	17237.34
792.549	17118.02
792.882	17026.28
793.214	17004.36
793.546	16967.75
793.879	16834.64
794.211	16862.89
794.543	16862.89
794.875	16755.1
795.207	16803.91
795.539	16820.63
795.871	16737.92
796.203	16551.94
796.535	16545.84
796.867	16545.38
797.198	16441.43
797.53	16444.6
797.862	16322.11
798.193	16302.45
798.525	16274.43
798.856	16260.65
799.188	16046.87
799.519	15948.79
799.85	15993.76
800.182	15967.55
800.513	15867.89
800.844	15822.24
801.175	15776.36
801.506	15766.42
801.837	15511.06
802.168	15549.48
802.499	15505.41
802.83	15493.66
803.161	15406.21
803.491	15344.96
803.822	15342.03
804.153	15215.93
804.483	15232.88
804.814	15082.15
805.145	15026.1
805.475	15087.8
805.805	14991.53
806.136	15012.09
806.466	15008.7
806.796	14905.2
807.126	14756.05
807.457	14758.31
807.787	14793.79
808.117	14715.83
808.447	14768.48
808.777	14776.84
809.107	14704.98
809.436	14604.87
809.766	14682.38
810.096	14619.56
810.426	14581.37
810.755	14520.8
811.085	14538.66
811.414	14467.02
811.744	14459.34
812.073	14399.68
812.403	14415.95
812.732	14354.48
813.061	14267.03
813.39	14327.36
813.719	14208.95
814.049	14259.57
814.378	14193.36
814.707	14216.18
815.036	14115.17
815.365	14082.85
815.693	13928.5
816.022	13896.41
816.351	13825.23
816.68	13810.31
817.008	13888.05
817.337	13659.81
817.665	13692.8
817.994	13709.3
818.322	13643.09
818.651	13539.59
818.979	13449.19
819.307	13563.32
819.636	13516.99
819.964	13391.79
820.292	13498.68
820.62	13380.5
820.948	13330.78
821.276	13338.69
821.604	13331.01
821.932	13371.46
822.259	13385.24
822.587	13274.96
822.915	13284
823.243	13338.91
823.57	13249.43
823.898	13209.88
824.225	13226.6
824.553	13222.76
824.88	13220.5
825.207	13236.54
825.535	13260.72
825.862	13289.65
826.189	13321.06
826.516	13306.15
826.843	13385.02
827.17	13347.95
827.497	13390.89
827.824	13325.36
828.151	13420.27
828.478	13342.98
828.805	13450.78
829.131	13346.6
829.458	13340.72
829.785	13344.79
830.111	13313.83
830.438	13417.78
830.764	13405.58
831.09	13454.17
831.417	13335.98
831.743	13416.2
832.069	13386.15
832.395	13252.14
832.722	13343.43
833.048	13244.45
833.374	13331.68
833.7	13182.31
834.026	13254.4
834.351	13237
834.677	13199.03
835.003	13211.01
835.329	13116.55
835.654	13172.14
835.98	13026.38
836.306	13072.71
836.631	12952.48
836.956	12983.44
837.282	13029.54
837.607	12902.99
837.932	12890.79
838.258	12913.39
838.583	12900.51
838.908	12816.67
839.233	12843.33
839.558	12756.11
839.883	12706.62
840.208	12734.86
840.533	12649.22
840.858	12657.58
841.182	12661.42
841.507	12612.83
841.832	12586.84
842.156	12570.12
842.481	12630.46
842.805	12537.35
843.13	12507.07
843.454	12482.89
843.778	12478.82
844.103	12557.92
844.427	12490.35
844.751	12467.3
845.075	12455.77
845.399	12403.8
845.723	12398.15
846.047	12345.49
846.371	12222.56
846.695	12270.24
847.019	12170.81
847.343	12175.56
847.666	12025.73
847.99	12033.41
848.313	12040.64
848.637	11957.93
848.96	12009.46
849.284	11929.69
849.607	11851.5
849.931	11711.16
850.254	11676.36
850.577	11687.21
850.9	11669.58
851.223	11573.76
851.546	11522.69
851.869	11444.95
852.192	11490.83
852.515	11369.48
852.838	11285.64
853.161	11343.04
853.483	11220.55
853.806	11151.85
854.129	11159.31
854.451	11178.52
854.774	11013.55
855.096	11047.9
855.419	10985.76
855.741	10849.94
856.063	10891.52
856.385	10799.55
856.708	10782.37
857.03	10723.84
857.352	10763.39
857.674	10731.3
857.996	10690.85
858.318	10620.79
858.64	10645.65
858.961	10575.6
859.283	10548.71
859.605	10449.95
859.926	10509.38
860.248	10540.8
860.57	10418.09
860.891	10427.8
861.212	10398.65
861.534	10389.84
861.855	10381.25
862.176	10353
862.498	10346.68
862.819	10336.51
863.14	10292.22
863.461	10289.96
863.782	10240.47
864.103	10248.83
864.424	10241.6
864.745	10218.09
865.065	10283.63
865.386	10227.81
865.707	10235.95
866.027	10206.34
866.348	10115.27
866.668	10215.38
866.989	10175.38
867.309	10134.25
867.63	10086.34
867.95	10113.01
868.27	10104.88
868.59	10048.38
868.91	10113.24
869.23	9988.04
869.55	9998.21
869.87	9969.51
870.19	9998.21
870.51	9936.29
870.83	9918.21
871.15	9868.72
871.469	9913.02
871.789	9959.79
872.109	9903.07
872.428	9829.18
872.748	9878.89
873.067	9894.03
873.386	9810.42
873.706	9824.66
874.025	9697.65
874.344	9688.39
874.663	9699.91
874.982	9650.42
875.301	9572.23
875.62	9603.42
875.939	9587.38
876.258	9570.65
876.577	9542.86
876.896	9584.89
877.214	9508.73
877.533	9452.46
877.852	9501.05
878.17	9435.97
878.489	9434.16
878.807	9414.5
879.125	9429.41
879.444	9401.17
879.762	9322.3
880.08	9348.51
880.398	9351.45
880.716	9358.45
881.034	9298.57
881.352	9349.87
881.67	9219.25
881.988	9272.36
882.306	9231
882.624	9220.38
882.941	9224.9
883.259	9248.85
883.577	9194.39
883.894	9189.19
884.212	9189.42
884.529	9127.5
884.846	9172.47
885.164	9100.83
885.481	9143.54
885.798	9108.74
886.115	9112.36
886.432	9068.29
886.75	9024.9
887.067	9020.38
887.383	9008.63
887.7	9024.9
888.017	8966.83
888.334	8918.92
888.651	8936.77
888.967	8894.29
889.284	8899.26
889.6	8824.46
889.917	8770
890.233	8762.99
890.55	8793.72
890.866	8777.23
891.182	8723.22
891.498	8698.58
891.815	8708.98
892.131	8610
892.447	8596.21
892.763	8512.83
893.079	8504.92
893.395	8513.96
893.71	8450.68
894.026	8391.47
894.342	8417.46
894.657	8358.25
894.973	8311.93
895.289	8386.05
895.604	8302.66
895.92	8245.04
896.235	8254.53
896.55	8221.08
896.865	8180.18
897.181	8167.75
897.496	8139.05
897.811	8073.06
898.126	8109.67
898.441	8012.73
898.756	7990.35
899.071	7957.14
899.386	7952.16
899.7	7893.63
900.015	7791.26
900.33	7777.48
900.644	7803.02
900.959	7810.02
901.273	7807.53
901.588	7774.99
901.902	7755.78
902.216	7699.06
902.531	7707.42
902.845	7651.38
903.159	7635.11
903.473	7646.18
903.787	7559.86
904.101	7546.52
904.415	7549.46
904.729	7514.44
905.042	7490.26
905.356	7422.01
905.67	7418.17
905.984	7445.06
906.297	7398.73
906.611	7403.25
906.924	7363.48
907.237	7316.25
907.551	7379.07
907.864	7271.5
908.177	7209.58
908.491	7241
908.804	7193.99
909.117	7128
909.43	7151.28
909.743	7054.79
910.056	7070.83
910.368	6996.71
910.681	7033.77
910.994	6980.21
911.307	6916.03
911.619	6848.92
911.932	6865.19
912.244	6830.61
912.557	6791.29
912.869	6777.28
913.181	6762.59
913.494	6714.46
913.806	6681.24
914.118	6668.13
914.43	6610.73
914.742	6594.46
915.054	6522.82
915.366	6521.69
915.678	6514.91
915.99	6465.2
916.302	6429.04
916.613	6380.45
916.925	6388.36
917.236	6327.57
917.548	6283.06
917.859	6351.3
918.171	6301.59
918.482	6250.29
918.794	6218.42
919.105	6231.31
919.416	6124.87
919.727	6137.07
920.038	6134.36
920.349	6075.83
920.66	6124.42
920.971	6039.67
921.282	6050.74
921.593	6005.32
921.903	6030.86
922.214	5923.97
922.525	5923.97
922.835	5961.71
923.146	5867.92
923.456	5841.48
923.767	5829.96
924.077	5805.78
924.387	5783.63
924.697	5737.76
925.008	5771.88
925.318	5719.45
925.628	5716.97
925.938	5700.02
926.248	5679.68
926.558	5639.23
926.867	5600.59
927.177	5640.36
927.487	5604.43
927.796	5566.24
928.106	5547.26
928.416	5503.41
928.725	5470.42
929.034	5491.66
929.344	5468.84
929.653	5501.83
929.962	5384.32
930.271	5399.01
930.581	5359.69
930.89	5326.7
931.199	5309.75
931.508	5275.4
931.817	5250.54
932.125	5283.99
932.434	5194.95
932.743	5187.72
933.051	5160.15
933.36	5119.92
933.669	5114.95
933.977	5124.44
934.286	5062.07
934.594	5053.03
934.902	5023.2
935.21	5019.81
935.519	5013.71
935.827	4950.43
936.135	4954.73
936.443	4913.6
936.751	4895.52
937.059	4873.37
937.367	4821.85
937.674	4822.75
937.982	4758.12
938.29	4760.38
938.597	4711.57
938.905	4762.42
939.213	4706.83
939.52	4688.75
939.827	4686.03
940.135	4688.75
940.442	4628.18
940.749	4601.97
941.056	4619.14
941.363	4561.29
941.67	4555.42
941.977	4531.24
942.284	4502.09
942.591	4531.91
942.898	4499.83
943.205	4464.35
943.511	4462.54
943.818	4428.87
944.125	4412.6
944.431	4360.62
944.738	4418.92
945.044	4376.89
945.35	4339.83
945.657	4325.14
945.963	4281.75
946.269	4276.33
946.575	4331.24
946.881	4231.81
947.187	4262.09
947.493	4215.09
947.799	4192.49
948.105	4194.3
948.41	4153.62
948.716	4159.72
949.022	4162.66
949.327	4160.85
949.633	4118.14
949.938	4085.6
950.244	4058.03
950.549	4072.72
950.854	4053.51
951.16	4030.46
951.465	4027.52
951.77	3997.24
952.075	3958.82
952.38	3962.21
952.685	3946.39
952.99	3933.74
953.294	3884.47
953.599	3935.09
953.904	3880.41
954.209	3875.21
954.513	3869.33
954.818	3816.91
955.122	3795.21
955.426	3821.2
955.731	3788.88
956.035	3745.95
956.339	3759.05
956.643	3712.73
956.948	3711.82
957.252	3719.51
957.556	3693.97
957.86	3653.75
958.163	3643.8
958.467	3632.73
958.771	3602
959.075	3592.96
959.378	3594.76
959.682	3525.61
959.985	3538.95
960.289	3539.85
960.592	3507.76
960.896	3486.29
961.199	3464.6
961.502	3512.51
961.805	3452.62
962.108	3439.74
962.411	3420.53
962.714	3388.89
963.017	3366.97
963.32	3387.76
963.623	3356.13
963.926	3378.72
964.228	3353.87
964.531	3321.33
964.833	3264.38
965.136	3275.68
965.438	3239.07
965.741	3253.53
966.043	3259.63
966.345	3178.28
966.648	3225.96
966.95	3189.35
967.252	3199.29
967.554	3178.05
967.856	3139.18
968.158	3090.37
968.46	3131.95
968.761	3130.82
969.063	3117.49
969.365	3099.18
969.666	3083.82
969.968	3041.11
970.269	3078.17
970.571	3008.34
970.872	3048.11
971.174	3041.33
971.475	3005.18
971.776	3009.69
972.077	2986.19
972.378	2968.57
972.679	2961.56
972.98	2951.17
973.281	2934.22
973.582	2921.79
973.883	2903.26
974.183	2883.6
974.484	2935.57
974.785	2898.51
975.085	2878.17
975.386	2889.25
975.686	2870.49
975.986	2849.02
976.287	2811.28
976.587	2805.86
976.887	2830.04
977.187	2766.99
977.487	2806.99
977.787	2770.38
978.087	2756.14
978.387	2761.11
978.687	2734
978.987	2721.34
979.286	2654.22
979.586	2683.6
979.885	2718.63
980.185	2666.2
980.484	2641.79
980.784	2632.76
981.083	2603.15
981.382	2617.61
981.682	2604.73
981.981	2579.65
982.28	2574.9
982.579	2560.22
982.878	2559.31
983.177	2530.61
983.475	2517.96
983.774	2535.13
984.073	2483.83
984.372	2495.36
984.67	2502.14
984.969	2471.18
985.267	2441.8
985.566	2436.6
985.864	2402.93
986.162	2430.5
986.461	2398.64
986.759	2416.04
987.057	2383.5
987.355	2345.76
987.653	2375.81
987.951	2354.12
988.249	2339.88
988.547	2329.49
988.844	2325.65
989.142	2338.75
989.44	2321.8
989.737	2271.18
990.035	2263.27
990.332	2275.93
990.63	2280.45
990.927	2257.17
991.224	2238.19
991.521	2211.07
991.819	2219.43
992.116	2232.77
992.413	2215.59
992.71	2176.72
993.006	2211.98
993.303	2196.16
993.6	2177.63
993.897	2176.27
994.193	2126.1
994.49	2170.85
994.787	2095.82
995.083	2084.3
995.379	2094.01
995.676	2069.38
995.972	2094.01
996.268	2077.52
996.565	2084.52
996.861	2073
997.157	2054.01
997.453	2037.29
997.749	2051.75
998.044	2016.95
998.34	2035.94
998.636	2020.79
998.932	2016.27
999.227	2009.72
999.523	1976.05
999.818	2001.36
1000.114	1966.56
1000.409	1983.73
1000.704	1941.7
1001	1943.51
1001.295	1936.28
1001.59	1936.5
1001.885	1925.43
1002.18	1905.32
1002.475	1884.98
1002.77	1871.87
1003.065	1870.06
1003.359	1855.6
1003.654	1839.1
1003.949	1856.96
1004.243	1845.43
1004.538	1817.86
1004.832	1815.15
1005.127	1803.62
1005.421	1768.82
1005.715	1771.31
1006.009	1778.54
1006.304	1746.9
1006.598	1725.89
1006.892	1738.32
1007.186	1733.34
1007.48	1693.12
1007.773	1700.8
1008.067	1686.11
1008.361	1695.38
1008.655	1686.57
1008.948	1651.99
1009.242	1654.48
1009.535	1668.71
1009.829	1643.86
1010.122	1634.14
1010.415	1623.52
1010.708	1587.59
1011.001	1571.54
1011.295	1576.74
1011.588	1577.64
1011.881	1568.6
1012.173	1555.72
1012.466	1590.75
1012.759	1531.09
1013.052	1537.87
1013.344	1514.14
1013.637	1514.59
1013.93	1508.94
1014.222	1481.6
1014.514	1469.62
1014.807	1484.76
1015.099	1483.63
1015.391	1456.06
1015.683	1470.07
1015.976	1423.97
1016.268	1419.68
1016.56	1424.2
1016.851	1431.88
1017.143	1409.06
1017.435	1392.79
1017.727	1381.49
1018.018	1366.8
1018.31	1392.34
1018.602	1380.59
1018.893	1345.56
1019.185	1369.06
1019.476	1311.89
1019.767	1323.64
1020.058	1319.57
1020.35	1335.16
1020.641	1348.72
1020.932	1322.73
1021.223	1281.15
1021.514	1295.16
1021.804	1297.2
1022.095	1282.06
1022.386	1275.96
1022.677	1263.53
1022.967	1253.13
1023.258	1252.23
1023.548	1239.57
1023.839	1237.76
1024.129	1224.21
1024.419	1230.98
1024.709	1213.13
1025	1218.1
1025.29	1195.51
1025.58	1173.58
1025.87	1162.51
1026.16	1174.94
1026.449	1165.45
1026.739	1146.47
1027.029	1166.35
1027.319	1152.57
1027.608	1150.99
1027.898	1141.04
1028.187	1130.65
1028.477	1103.76
1028.766	1115.73
1029.055	1107.6
1029.344	1101.95
1029.634	1084.55
1029.923	1080.71
1030.212	1092.01
1030.501	1061.72
1030.79	1082.06
1031.078	1063.31
1031.367	1072.34
1031.656	1029.86
1031.945	1015.85
1032.233	1011.56
1032.522	1015.85
1032.81	995.28
1033.099	983.76
1033.387	979.01
1033.675	994.61
1033.963	1015.62
1034.251	974.49
1034.54	954.83
1034.828	973.82
1035.116	962.29
1035.403	975.85
1035.691	930.65
1035.979	950.54
1036.267	940.37
1036.554	929.3
1036.842	939.01
1037.129	925.23
1037.417	929.52
1037.704	910.99
1037.992	910.54
1038.279	903.08
1038.566	878
1038.853	878
1039.14	878
