Data from red_shiny_book_FLMS001491_00043.txt Node
Date: Wed Feb 08 15:24:54 GMT 2017
User: dcchb
Spectrometer: FLMS00149
Trigger mode: 0
Integration Time (sec): 2.000000E-2
Scans to average: 10
Electric dark correction enabled: true
Nonlinearity correction enabled: false
Boxcar width: 0
XAxis mode: Wavelengths
Number of Pixels in Spectrum: 2048
>>>>>Begin Spectral Data<<<<<
341.393	-11.13
341.776	-11.13
342.16	-11.13
342.543	-74.18
342.927	-73.05
343.31	-73.27
343.693	-66.27
344.077	-82.99
344.46	-62.65
344.843	-69.89
345.226	-55.87
345.61	-26.72
345.993	-28.76
346.376	11.24
346.759	30.68
347.142	36.33
347.525	51.02
347.908	55.31
348.291	81.52
348.674	100.28
349.057	100.05
349.44	109.32
349.823	146.61
350.206	165.59
350.588	187.96
350.971	213.5
351.354	234.74
351.737	240.62
352.119	258.69
352.502	274.74
352.884	269.54
353.267	263.44
353.65	292.82
354.032	299.82
354.414	298.69
354.797	302.08
355.179	324
355.562	297.79
355.944	331.69
356.326	352.25
356.709	356.09
357.091	338.47
357.473	349.31
357.855	351.8
358.238	361.74
358.62	358.35
359.002	303.21
359.384	359.71
359.766	337.56
360.148	340.5
360.53	351.12
360.912	338.24
361.294	332.59
361.676	318.81
362.057	339.82
362.439	364.68
362.821	342.08
363.203	342.31
363.584	326.94
363.966	338.01
364.348	326.49
364.729	328.75
365.111	333.04
365.493	325.81
365.874	291.24
366.256	331.91
366.637	332.82
367.019	300.95
367.4	328.75
367.781	327.84
368.163	343.89
368.544	319.71
368.925	331.23
369.306	324.23
369.688	326.04
370.069	326.94
370.45	307.51
370.831	309.99
371.212	319.71
371.593	322.42
371.974	322.42
372.355	331.69
372.736	303.21
373.117	312.25
373.498	338.01
373.879	339.6
374.26	325.81
374.641	317
375.021	321.52
375.402	338.24
375.783	301.86
376.163	342.08
376.544	340.27
376.925	327.62
377.305	336.88
377.686	330.1
378.066	340.73
378.447	350.44
378.827	357.45
379.208	322.42
379.588	352.48
379.968	315.42
380.349	368.52
380.729	358.58
381.109	340.05
381.489	357.22
381.87	360.16
382.25	350.89
382.63	355.19
383.01	367.62
383.39	367.84
383.77	371.69
384.15	344.12
384.53	349.99
384.91	359.03
385.29	374.62
385.67	371.69
386.049	363.1
386.429	351.57
386.809	385.47
387.189	366.26
387.568	361.74
387.948	373.94
388.328	361.06
388.707	373.72
389.087	380.72
389.466	378.01
389.846	393.15
390.225	381.18
390.605	382.31
390.984	360.84
391.363	382.08
391.743	398.8
392.122	387.05
392.501	384.57
392.881	401.97
393.26	397.22
393.639	403.32
394.018	372.82
394.397	368.3
394.776	385.92
395.155	379.82
395.534	406.26
395.913	400.61
396.292	399.71
396.671	423.66
397.05	405.13
397.429	404.45
397.808	425.92
398.186	401.74
398.565	397.22
398.944	400.16
399.323	405.13
399.701	418.46
400.08	389.76
400.458	418.01
400.837	422.31
401.215	433.38
401.594	427.28
401.972	415.98
402.351	415.98
402.729	438.35
403.107	449.42
403.486	434.96
403.864	426.15
404.242	429.99
404.62	462.76
404.999	448.07
405.377	440.61
405.755	461.17
406.133	444.23
406.511	456.2
406.889	457.78
407.267	456.88
407.645	472.47
408.023	472.7
408.401	476.77
408.779	466.6
409.156	483.77
409.534	475.19
409.912	459.82
410.29	493.04
410.667	478.35
411.045	467.95
411.422	500.27
411.8	493.04
412.178	513.38
412.555	501.63
412.933	533.04
413.31	503.66
413.687	506.82
414.065	539.36
414.442	527.61
414.819	515.41
415.197	533.49
415.574	529.65
415.951	546.82
416.328	537.33
416.705	534.17
417.082	540.95
417.46	551.12
417.837	561.96
418.214	560.83
418.591	584.56
418.967	605.13
419.344	593.37
419.721	584.79
420.098	590.89
420.475	610.32
420.852	595.63
421.228	587.72
421.605	620.27
421.982	625.24
422.358	615.97
422.735	617.78
423.111	629.53
423.488	631.79
423.864	636.54
424.241	629.76
424.617	624.79
424.994	633.15
425.37	653.49
425.746	632.47
426.123	637.44
426.499	666.59
426.875	640.38
427.251	659.59
427.627	679.7
428.003	691.68
428.379	701.17
428.756	688.96
429.132	699.13
429.507	691.45
429.883	708.63
430.259	724.67
430.635	696.2
431.011	702.52
431.387	732.81
431.763	755.63
432.138	759.02
432.514	762.64
432.89	763.09
433.265	779.36
433.641	767.61
434.016	749.3
434.392	793.82
434.767	778.23
435.143	787.04
435.518	778.68
435.894	778.68
436.269	816.42
436.644	822.07
437.02	813.26
437.395	841.28
437.77	848.51
438.145	848.51
438.52	825.01
438.895	854.38
439.271	820.94
439.646	852.35
440.021	863.88
440.395	846.93
440.77	869.53
441.145	870.66
441.52	900.26
441.895	892.12
442.27	914.95
442.645	897.1
443.019	922.63
443.394	905
443.769	892.35
444.143	878.11
444.518	908.85
444.892	918.34
445.267	912.24
445.641	905.68
446.016	944.78
446.39	928.73
446.764	953.59
447.139	954.95
447.513	956.75
447.887	954.27
448.262	956.3
448.636	953.36
449.01	923.31
449.384	946.81
449.758	973.93
450.132	970.31
450.506	973.48
450.88	1022.74
451.254	994.49
451.628	1030.88
452.002	1010.31
452.376	1013.02
452.75	1010.31
453.123	1007.6
453.497	1016.19
453.871	990.65
454.244	1011.22
454.618	1041.95
454.992	1066.58
455.365	1079.92
455.739	1116.3
456.112	1088.05
456.486	1093.7
456.859	1117.88
457.232	1085.34
457.606	1083.3
457.979	1084.89
458.352	1105.45
458.725	1065.68
459.099	1086.02
459.472	1115.17
459.845	1146.58
460.218	1161.72
460.591	1151.1
460.964	1175.73
461.337	1195.84
461.71	1219.35
462.083	1218.67
462.456	1210.76
462.829	1189.06
463.201	1209.4
463.574	1211.21
463.947	1181.61
464.32	1212.34
464.692	1247.59
465.065	1237.2
465.438	1302.06
465.81	1308.38
466.183	1330.53
466.555	1328.04
466.928	1336.41
467.3	1329.85
467.672	1360.59
468.045	1344.09
468.417	1319.46
468.789	1311.77
469.161	1320.81
469.534	1342.51
469.906	1381.15
470.278	1409.17
470.65	1454.82
471.022	1475.61
471.394	1510.64
471.766	1553.35
472.138	1526.01
472.51	1542.73
472.882	1543.63
473.253	1535.72
473.625	1537.76
473.997	1545.89
474.369	1537.3
474.74	1562.16
475.112	1610.3
475.484	1642.61
475.855	1665.89
476.227	1722.38
476.598	1770.29
476.97	1773.46
477.341	1801.25
477.713	1815.04
478.084	1814.81
478.455	1839.67
478.827	1804.42
479.198	1818.2
479.569	1785.89
479.94	1837.64
480.311	1910.63
480.682	1947.91
481.053	2007.35
481.424	2054.35
481.795	2130.06
482.166	2157.63
482.537	2199.89
482.908	2222.26
483.279	2226.1
483.65	2258.87
484.021	2230.17
484.391	2210.51
484.762	2241.01
485.133	2211.41
485.503	2203.05
485.874	2260.68
486.244	2347.23
486.615	2394.91
486.985	2502.25
487.356	2547.9
487.726	2605.07
488.097	2686.65
488.467	2687.1
488.837	2692.53
489.207	2728.69
489.578	2725.3
489.948	2686.43
490.318	2685.3
490.688	2699.53
491.058	2696.82
491.428	2747.67
491.798	2783.37
492.168	2839.42
492.538	2940.21
492.908	3026.53
493.278	3130.03
493.648	3120.54
494.017	3192.85
494.387	3168.9
494.757	3215.45
495.126	3174.78
495.496	3159.18
495.866	3118.96
496.235	3102.23
496.605	3093.2
496.974	3097.49
497.344	3131.61
497.713	3206.86
498.082	3282.34
498.452	3339.97
498.821	3445.28
499.19	3449.34
499.559	3524.82
499.928	3536.35
500.298	3619.51
500.667	3548.32
501.036	3502.68
501.405	3496.35
501.774	3424.94
502.143	3386.52
502.512	3367.09
502.88	3405.96
503.249	3419.51
503.618	3452.28
503.987	3550.36
504.356	3561.21
504.724	3620.19
505.093	3732.95
505.462	3767.53
505.83	3810.24
506.199	3855.66
506.567	3895.89
506.936	3817.92
507.304	3751.94
507.672	3751.71
508.041	3697.25
508.409	3670.13
508.777	3659.06
509.145	3665.16
509.514	3634.42
509.882	3711.48
510.25	3839.84
510.618	3863.34
510.986	3964.59
511.354	4053.62
511.722	4053.85
512.09	4099.04
512.458	4112.15
512.826	4159.61
513.193	4080.74
513.561	4010.46
513.929	3967.52
514.297	3959.39
514.664	3877.36
515.032	3836.68
515.4	3883.91
515.767	3937.47
516.135	3952.38
516.502	3968.2
516.869	4088.88
517.237	4222.21
517.604	4225.82
517.972	4332.94
518.339	4393.27
518.706	4438.02
519.073	4401.18
519.44	4393.95
519.808	4319.15
520.175	4286.61
520.542	4248.65
520.909	4179.27
521.276	4088.65
521.643	4146.73
522.009	4132.26
522.376	4130.68
522.743	4197.12
523.11	4299.72
523.477	4420.62
523.843	4545.81
524.21	4633.49
524.577	4731.8
524.943	4785.81
525.31	4840.95
525.676	4873.94
526.043	4816.09
526.409	4772.02
526.776	4717.79
527.142	4656.54
527.508	4626.04
527.874	4563.44
528.241	4545.13
528.607	4570.44
528.973	4629.65
529.339	4672.81
529.705	4732.25
530.071	4913.71
530.437	5033.03
530.803	5132.69
531.169	5226.25
531.535	5312.12
531.901	5383.98
532.267	5416.98
532.632	5455.85
532.998	5408.16
533.364	5352.12
533.73	5260.6
534.095	5218.79
534.461	5147.6
534.826	5134.95
535.192	5113.93
535.557	5140.15
535.923	5124.55
536.288	5237.55
536.653	5309.63
537.019	5423.76
537.384	5564.77
537.749	5701.94
538.114	5781.26
538.479	5927.92
538.845	5921.14
539.21	5962.95
539.575	5956.17
539.94	5893.12
540.305	5888.6
540.67	5824.42
541.034	5751.88
541.399	5655.61
541.764	5626.46
542.129	5607.93
542.494	5606.35
542.858	5649.51
543.223	5651.32
543.587	5816.51
543.952	5831.2
544.316	6046.56
544.681	6152.55
545.045	6293.11
545.41	6461.69
545.774	6473.9
546.138	6556.61
546.503	6537.4
546.867	6498.3
547.231	6493.33
547.595	6371.08
547.959	6237.07
548.324	6203.85
548.688	6040.24
549.052	5988.26
549.416	5981.93
549.779	5943.29
550.143	6020.35
550.507	6089.27
550.871	6209.05
551.235	6285.88
551.599	6375.37
551.962	6520
552.326	6602.48
552.689	6793.66
553.053	6757.73
553.417	6859.65
553.78	6987.33
554.143	6866.66
554.507	6800.44
554.87	6727.9
555.234	6661.46
555.597	6529.49
555.96	6403.84
556.323	6357.52
556.686	6332.88
557.05	6290.17
557.413	6298.08
557.776	6339.44
558.139	6427.35
558.502	6524.74
558.865	6605.87
559.228	6719.99
559.59	6918.63
559.953	7035.24
560.316	7229.81
560.679	7299.41
561.041	7309.13
561.404	7355.23
561.767	7349.58
562.129	7254.44
562.492	7160.89
562.854	7111.17
563.217	6931.29
563.579	6813.1
563.941	6739.65
564.304	6710.05
564.666	6721.57
565.028	6656.72
565.39	6724.51
565.753	6822.14
566.115	6942.81
566.477	7038.63
566.839	7228.91
567.201	7449.01
567.563	7511.84
567.925	7677.03
568.287	7801.77
568.648	7878.83
569.01	7919.74
569.372	7894.2
569.734	7784.6
570.095	7808.1
570.457	7686.97
570.819	7574.66
571.18	7431.61
571.542	7399.75
571.903	7272.97
572.265	7262.8
572.626	7266.87
572.987	7279.07
573.349	7269.36
573.71	7486.07
574.071	7583.92
574.432	7731.27
574.794	8020.07
575.155	8249.67
575.516	8308.43
575.877	8538.7
576.238	8654.86
576.599	8875.64
576.96	8945.25
577.32	8968.07
577.681	9004.23
578.042	9013.49
578.403	9005.13
578.763	8945.02
579.124	8985.02
579.485	8892.59
579.845	8978.01
580.206	8985.7
580.566	9046.03
580.927	9114.51
581.287	9350.43
581.648	9610.99
582.008	9849.4
582.368	10167.36
582.728	10521.47
583.089	10886.89
583.449	11314.45
583.809	11686.19
584.169	12109.23
584.529	12389.67
584.889	12920.51
585.249	13116.89
585.609	13367.95
585.969	13752.8
586.329	13937.2
586.688	14328.15
587.048	14482.27
587.408	14774.7
587.768	15079.32
588.127	15257.17
588.487	15521.57
588.846	16033.42
589.206	16263.02
589.565	16707.75
589.925	17245.14
590.284	17798.57
590.643	18406.47
591.003	18938.43
591.362	19786.09
591.721	20263.82
592.08	20871.49
592.44	21540.17
592.799	22150.32
593.158	22726.35
593.517	23214.47
593.876	23806.1
594.235	24177.39
594.593	24686.98
594.952	25160.86
595.311	25215.1
595.67	25884.46
596.029	26360.61
596.387	26749.3
596.746	27078.55
597.104	27444.87
597.463	27835.37
597.822	28388.8
598.18	28828.34
598.538	29240.98
598.897	29956.9
599.255	30276.44
599.613	31404.54
599.972	31658.32
600.33	32320
600.688	33021
601.046	33662.34
601.404	34326.05
601.762	34779.37
602.12	35407.6
602.478	35907.7
602.836	36135.72
603.194	36350.63
603.552	36829.48
603.91	36994.9
604.268	37456.36
604.625	37639.63
604.983	38048.21
605.341	37988.1
605.698	38450.01
606.056	38770.45
606.413	38970.22
606.771	39387.16
607.128	39787.82
607.485	39974.49
607.843	40436.17
608.2	40981.69
608.557	41495.12
608.914	41721.33
609.272	42321.77
609.629	42853.28
609.986	43396.09
610.343	43427.28
610.7	44077.88
611.057	44348.83
611.414	44588.38
611.771	44848.93
612.127	45165.99
612.484	45318.3
612.841	45387
613.198	45415.47
613.554	45466.77
613.911	45771.4
614.267	45728.91
614.624	45881.9
614.98	45908.34
615.337	46192.18
615.693	46169.13
616.05	46256.13
616.406	46590.13
616.762	46633.07
617.118	46847.98
617.475	47037.35
617.831	47306.04
618.187	47711.68
618.543	47868.29
618.899	48314.15
619.255	48368.39
619.611	48519.8
619.967	48878.21
620.323	49100.12
620.678	49018.54
621.034	49070.74
621.39	49084.08
621.746	49113
622.101	49677.51
622.457	49219.67
622.812	49232.55
623.168	49225.77
623.523	49186.22
623.879	49252.66
624.234	49040.69
624.589	49155.94
624.945	49089.5
625.3	49212.43
625.655	49250.63
626.01	49162.49
626.365	49349.83
626.72	49376.5
627.075	49529.94
627.43	49717.73
627.785	49609.03
628.14	49927.67
628.495	50090.6
628.85	50202.47
629.205	50191.84
629.559	50528.78
629.914	50335.12
630.269	50479.97
630.623	50348.68
630.978	50309.81
631.332	50476.36
631.687	50446.3
632.041	50264.16
632.396	50356.13
632.75	50135.57
633.104	49990.95
633.459	49817.16
633.813	49787.33
634.167	49674.57
634.521	49603.84
634.875	49649.71
635.229	49538.08
635.583	49417.18
635.937	49444.97
636.291	49455.82
636.645	49595.93
636.999	49585.76
637.352	49724.06
637.706	49675.7
638.06	49927.44
638.413	49869.59
638.767	49852.19
639.121	50004.96
639.474	49972.87
639.828	50084.5
640.181	50119.76
640.534	50080.66
640.888	50008.35
641.241	49843.38
641.594	49803.15
641.947	49905.98
642.301	49638.86
642.654	49641.35
643.007	49492.88
643.36	49285.43
643.713	49270.96
644.066	49282.72
644.419	49003.17
644.771	48790.75
645.124	48336.98
645.477	48322.97
645.83	48021.73
646.182	47850.89
646.535	47778.8
646.888	47978.12
647.24	47734.51
647.593	48211.56
647.945	48220.14
648.298	48120.03
648.65	48214.04
649.002	48031.9
649.355	48354.38
649.707	48405.68
650.059	48495.17
650.411	48866
650.763	48931.99
651.115	49370.85
651.467	49028.48
651.819	49083.4
652.171	48986.45
652.523	48830.07
652.875	48669.17
653.227	48512.57
653.578	48605.45
653.93	48405.22
654.282	48261.27
654.633	48048.17
654.985	48144.44
655.337	47952.81
655.688	47951.9
656.039	48170.88
656.391	47926.14
656.742	48059.92
657.094	48065.35
657.445	48113.93
657.796	48216.53
658.147	48305.57
658.498	48288.62
658.849	48476.18
659.2	48453.58
659.551	48517.54
659.902	48809.28
660.253	48500.36
660.604	48692.67
660.955	48592.79
661.306	48698.78
661.656	48464.21
662.007	48679.34
662.358	48536.07
662.708	48433.47
663.059	48256.53
663.409	47912.81
663.76	48148.96
664.11	48066.48
664.461	48075.06
664.811	47855.18
665.161	47770.66
665.511	47555.08
665.862	47569.09
666.212	47626.94
666.562	47552.37
666.912	47544.68
667.262	47392.37
667.612	47561.18
667.962	47621.06
668.312	47679.37
668.662	47756.88
669.011	47842.3
669.361	47821.74
669.711	47822.64
670.06	47934.05
670.41	47919.59
670.76	47985.8
671.109	48230.09
671.459	48067.15
671.808	48017.44
672.157	48120.71
672.507	47976.08
672.856	47857.89
673.205	47895.86
673.554	47845.92
673.904	47618.58
674.253	47807.95
674.602	47603.66
674.951	46888.65
675.3	46665.16
675.649	47254.29
675.998	47058.59
676.346	46996.22
676.695	47038.48
677.044	46758.94
677.393	46762.33
677.741	46817.7
678.09	46731.6
678.438	46586.74
678.787	46706.06
679.135	46768.66
679.484	46376.58
679.832	46817.7
680.181	46590.58
680.529	46893.17
680.877	46725.72
681.225	46868.77
681.573	46957.13
681.922	46924.59
682.27	47083.45
682.618	47003.91
682.966	46943.12
683.314	47070.34
683.661	46900.86
684.009	46717.59
684.357	46523.24
684.705	46515.33
685.053	46523.69
685.4	46260.65
685.748	46019.3
686.095	46043.7
686.443	45622.7
686.79	45577.5
687.138	45560.33
687.485	45577.05
687.832	45224.52
688.18	45258.87
688.527	44952.66
688.874	45022.71
689.221	44843.74
689.568	44589.96
689.915	44669.05
690.262	44620.01
690.609	44670.41
690.956	44563.74
691.303	44536.17
691.65	44526.23
691.997	44581.6
692.344	44405.1
692.69	44321.04
693.037	44509.06
693.383	44311.77
693.73	44531.2
694.077	44403.52
694.423	44374.6
694.769	44245.33
695.116	44119.91
695.462	44214.37
695.808	43988.39
696.155	43952.91
696.501	43654.16
696.847	43364.45
697.193	43225.7
697.539	43151.58
697.885	42831.36
698.231	42605.38
698.577	42623.91
698.923	42379.17
699.269	42114.54
699.614	41806.98
699.96	41846.98
700.306	41792.74
700.651	41493.77
700.997	41381.23
701.342	41343.94
701.688	41310.72
702.033	41227.79
702.379	41280.44
702.724	41110.95
703.069	41291.29
703.415	40947.79
703.76	41143.95
704.105	41144.85
704.45	41051.75
704.795	40927.68
705.14	40914.12
705.485	41053.55
705.83	40940.11
706.175	41058.07
706.52	40698.76
706.865	40736.05
707.209	40762.04
707.554	40501.25
707.899	40562.94
708.243	40312.1
708.588	40229.17
708.932	40029.17
709.277	39960.93
709.621	39789.41
709.966	39374.05
710.31	39400.04
710.654	39047.73
710.998	38970.22
711.342	39043.44
711.687	38844.57
712.031	38631.24
712.375	38359.84
712.719	38372.95
713.063	38287.75
713.407	38428.54
713.75	38255.89
714.094	38168.43
714.438	38038.49
714.782	38149.9
715.125	37986.74
715.469	38110.13
715.812	37913.75
716.156	37779.29
716.499	38044.14
716.843	38179.73
717.186	37914.88
717.53	38146.96
717.873	38123.69
718.216	38195.55
718.559	37982.9
718.902	37805.96
719.246	38060.64
719.589	37885.95
719.932	37534.1
720.275	37681.89
720.617	37770.25
720.96	37532.97
721.303	37502.23
721.646	37386.98
721.989	37181.79
722.331	37238.06
722.674	36944.96
723.016	36952.42
723.359	36619.77
723.701	36554.01
724.044	36413
724.386	36048.04
724.729	36299.1
725.071	35982.05
725.413	35994.48
725.755	35866.12
726.097	35751.77
726.439	35575.51
726.782	35640.81
727.124	35784.54
727.465	35520.59
727.807	35642.85
728.149	35507.71
728.491	35676.07
728.833	35728.5
729.175	35642.4
729.516	35732.34
729.858	35580.25
730.199	35672.68
730.541	35621.83
730.882	35640.59
731.224	35826.8
731.565	35659.34
731.906	35711.09
732.248	35724.2
732.589	35515.62
732.93	35442.85
733.271	35542.96
733.612	35390.43
733.953	35382.97
734.294	35255.29
734.635	35111.11
734.976	35101.62
735.317	34908.18
735.658	34837.67
735.999	34598.36
736.339	34558.36
736.68	34514.74
737.021	34415.99
737.361	34129.22
737.702	34277.01
738.042	34014.64
738.383	33934.19
738.723	33961.08
739.063	33738.27
739.404	33932.16
739.744	33674.99
740.084	33607.2
740.424	33772.39
740.764	33711.15
741.104	33806.06
741.444	33672.05
741.784	33555.9
742.124	33724.25
742.464	33870.47
742.804	33701.2
743.143	33636.57
743.483	33659.4
743.823	33523.58
744.162	33636.35
744.502	33813.97
744.841	33726.29
745.181	33871.6
745.52	33689
745.86	33771.94
746.199	33602.68
746.538	33695.1
746.877	33605.16
747.216	33520.42
747.556	33433.64
747.895	33333.53
748.234	33202.69
748.573	33045.85
748.911	32938.29
749.25	32953.43
749.589	32694.23
749.928	32675.69
750.267	32768.12
750.605	32498.07
750.944	32304.18
751.283	31955.26
751.621	32116.84
751.96	31875.72
752.298	31830.29
752.636	31691.54
752.975	31563.18
753.313	31634.37
753.651	31670.07
753.989	31431.66
754.327	31456.29
754.666	31327.03
755.004	31350.31
755.342	31342.85
755.679	31224.89
756.017	31166.13
756.355	31331.32
756.693	31167.26
757.031	31317.99
757.368	31188.73
757.706	31273.25
758.044	31120.93
758.381	31274.6
758.719	31126.58
759.056	31266.69
759.394	31100.59
759.731	31015.85
760.068	30949.64
760.405	30720.27
760.743	30821.96
761.08	30802.98
761.417	30506.26
761.754	30446.15
762.091	30353.95
762.428	30355.76
762.765	30140.62
763.102	30145.59
763.438	29883.68
763.775	29618.83
764.112	29628.77
764.449	29484.82
764.785	29360.75
765.122	29099.97
765.458	28921.67
765.795	28937.49
766.131	28915.57
766.467	28692.3
766.804	28448.46
767.14	28333.66
767.476	28380.44
767.812	28279.65
768.148	28330.95
768.485	28151.75
768.821	28020.22
769.157	28072.2
769.492	27923.96
769.828	27896.61
770.164	27765.09
770.5	27629.05
770.836	27731.87
771.171	27503.18
771.507	27606.22
771.842	27455.72
772.178	27488.03
772.513	27491.65
772.849	27558.54
773.184	27354.03
773.519	27286.01
773.855	27189.06
774.19	27234.03
774.525	26960.82
774.86	27047.82
775.195	26913.36
775.53	26931.66
775.865	26693.93
776.2	26566.02
776.535	26272.02
776.87	26222.53
777.205	26124.23
777.539	25999.94
777.874	25909.09
778.209	25774.41
778.543	25660.96
778.878	25389.78
779.212	25288.77
779.547	25187.3
779.881	25092.84
780.215	24979.4
780.55	24935.11
780.884	24725.62
781.218	24638.17
781.552	24671.16
781.886	24474.55
782.22	24356.59
782.554	24174.9
782.888	23999.54
783.222	23904.85
783.556	23891.07
783.889	23755.48
784.223	23798.19
784.557	23723.84
784.89	23851.97
785.224	23701.24
785.557	23582.15
785.891	23594.8
786.224	23504.41
786.558	23520
786.891	23354.81
787.224	23385.54
787.557	23307.58
787.891	23447.46
788.224	23350.97
788.557	23285.66
788.89	23247.24
789.223	23238.43
789.556	22968.38
789.888	23024.87
790.221	23006.34
790.554	22837.99
790.887	22753.24
791.219	22811.55
791.552	22706.69
791.884	22494.27
792.217	22337.66
792.549	22172.24
792.882	22087.27
793.214	22013.38
793.546	21954.39
793.879	21807.96
794.211	21618.81
794.543	21636.89
794.875	21494.52
795.207	21497.68
795.539	21328.42
795.871	21316.67
796.203	21089.11
796.535	20831.03
796.867	20900.64
797.198	20815.67
797.53	20781.54
797.862	20683.47
798.193	20576.58
798.525	20454.55
798.856	20591.27
799.188	20310.82
799.519	20326.41
799.85	20122.13
800.182	20218.39
800.513	20296.58
800.844	20091.17
801.175	20350.59
801.506	20278.73
801.837	20274.89
802.168	20132.52
802.499	20159.87
802.83	20053.43
803.161	20051.62
803.491	19978.63
803.822	20052.07
804.153	19962.13
804.483	19850.27
804.814	19761.01
805.145	19862.7
805.475	19832.19
805.805	19728.46
806.136	19748.12
806.466	19707.45
806.796	19575.7
807.126	19513.55
807.457	19384.52
807.787	19360.79
808.117	19268.82
808.447	19146.78
808.777	19173.45
809.107	19006.68
809.436	19010.29
809.766	18928.71
810.096	18811.65
810.426	18671.09
810.755	18700.92
811.085	18558.1
811.414	18515.61
811.744	18386.8
812.073	18274.27
812.403	18163.08
812.732	18178
813.061	18088.06
813.39	17976.65
813.719	17855.75
814.049	17966.93
814.378	17986.36
814.707	17836.08
815.036	17825.24
815.365	17744.34
815.693	17603.1
816.022	17601.97
816.351	17621.18
816.68	17596.77
817.008	17641.74
817.337	17463.21
817.665	17512.48
817.994	17607.62
818.322	17605.81
818.651	17566.94
818.979	17521.74
819.307	17637.9
819.636	17528.97
819.964	17354.06
820.292	17521.29
820.62	17606.49
820.948	17536.66
821.276	17616.66
821.604	17468.64
821.932	17662.98
822.259	17476.77
822.587	17656.65
822.915	17469.99
823.243	17620.27
823.57	17506.6
823.898	17538.92
824.225	17363.55
824.553	17371.92
824.88	17426.15
825.207	17440.61
825.535	17348.87
825.862	17334.4
826.189	17271.81
826.516	17263.67
826.843	17285.82
827.17	17211.69
827.497	17159.27
827.824	17119.27
828.151	17148.87
828.478	17090.12
828.805	17200.85
829.131	17025.71
829.458	16891.93
829.785	16907.52
830.111	16958.59
830.438	16964.7
830.764	16894.87
831.09	16992.27
831.417	16877.24
831.743	16923.79
832.069	16907.3
832.395	16836.34
832.722	16876.79
833.048	16876.79
833.374	16845.38
833.7	16815.09
834.026	16873.85
834.351	17037.69
834.677	16902.55
835.003	17003.56
835.329	17030.91
835.654	16939.16
835.98	16877.01
836.306	17042.43
836.631	16957.46
836.956	16857.35
837.282	16968.31
837.607	16894.41
837.932	16814.42
838.258	16963.34
838.583	16917.69
838.908	16856
839.233	16928.76
839.558	16805.15
839.883	16702.78
840.208	16670.01
840.533	16776.45
840.858	16727.41
841.182	16661.88
841.507	16621.2
841.832	16500.98
842.156	16427.08
842.481	16403.58
842.805	16369.23
843.13	16277.03
843.454	16297.59
843.778	16156.13
844.103	16125.4
844.427	16143.25
844.751	16058.5
845.075	15919.07
845.399	16013.08
845.723	15876.36
846.047	15726.54
846.371	15621
846.695	15606.76
847.019	15449.48
847.343	15390.05
847.666	15376.94
847.99	15291.97
848.313	15257.85
848.637	15083.61
848.96	15140.79
849.284	15052.88
849.607	14930.85
849.931	14868.03
850.254	14825.32
850.577	14799.33
850.9	14650.63
851.223	14713.45
851.546	14692.66
851.869	14614.25
852.192	14694.92
852.515	14573.57
852.838	14499
853.161	14555.04
853.483	14455.83
853.806	14497.87
854.129	14395.95
854.451	14404.54
854.774	14346.46
855.096	14384.88
855.419	14384.88
855.741	14252.68
856.063	14213.58
856.385	14186.46
856.708	14179.91
857.03	14102.85
857.352	14186.46
857.674	14090.87
857.996	14023.53
858.318	13929.29
858.64	13938.56
858.961	13928.84
859.283	13866.25
859.605	13758
859.926	13826.92
860.248	13718.68
860.57	13546.93
860.891	13633.26
861.212	13593.71
861.534	13494.5
861.855	13422.42
862.176	13366.15
862.498	13424.45
862.819	13264
863.14	13201.4
863.461	13156.21
863.782	13145.81
864.103	13100.16
864.424	13088.86
864.745	13147.62
865.065	12928.64
865.386	12920.73
865.707	12894.97
866.027	12890.23
866.348	12863.56
866.668	12803.45
866.989	12838.25
867.309	12792.15
867.63	12750.79
867.95	12797.12
868.27	12733.39
868.59	12739.95
868.91	12715.32
869.23	12663.34
869.55	12531.59
869.87	12679.16
870.19	12649.33
870.51	12695.88
870.83	12740.17
871.15	12664.92
871.469	12644.13
871.789	12681.64
872.109	12713.51
872.428	12613.4
872.748	12682.1
873.067	12742.21
873.386	12708.99
873.706	12682.32
874.025	12585.83
874.344	12614.3
874.663	12589.67
874.982	12679.38
875.301	12663.11
875.62	12583.12
875.939	12579.95
876.258	12602.55
876.577	12498.15
876.896	12511.7
877.214	12425.83
877.533	12436.9
877.852	12387.41
878.17	12430.13
878.489	12311.26
878.807	12349.68
879.125	12263.35
879.444	12274.42
879.762	12241.43
880.08	12144.03
880.398	12107.42
880.716	12090.25
881.034	11940.42
881.352	11995.79
881.67	11981.1
881.988	11935
882.306	11848.67
882.624	11866.07
882.941	11784.94
883.259	11719.86
883.577	11697.26
883.894	11645.29
884.212	11630.82
884.529	11639.64
884.846	11538.62
885.164	11508.57
885.481	11468.57
885.798	11403.26
886.115	11448.68
886.432	11444.84
886.75	11386.54
887.067	11346.54
887.383	11335.46
887.7	11350.83
888.017	11345.41
888.334	11300.89
888.651	11358.51
888.967	11273.77
889.284	11225.64
889.6	11251.4
889.917	11173.89
890.233	11221.34
890.55	11203.94
890.866	11271.96
891.182	11173.89
891.498	11095.47
891.815	11128.69
892.131	11063.83
892.447	11061.12
892.763	11086.88
893.079	10951.75
893.395	11007.79
893.71	10997.62
894.026	10990.84
894.342	10937.51
894.657	10814.57
894.973	10895.7
895.289	10867.23
895.604	10823.16
895.92	10781.35
896.235	10730.28
896.55	10723.73
896.865	10647.8
897.181	10639.44
897.496	10687.12
897.811	10599.44
898.126	10585.88
898.441	10450.74
898.756	10477.41
899.071	10378.2
899.386	10342.72
899.7	10201.48
900.015	10192.67
900.33	10078.77
900.644	10066.35
900.959	10112.45
901.273	9993.58
901.588	10011.88
901.902	9874.71
902.216	9839.46
902.531	9839.68
902.845	9773.7
903.159	9735.73
903.473	9684.21
903.787	9572.35
904.101	9586.58
904.415	9587.04
904.729	9516.08
905.042	9469.3
905.356	9375.52
905.67	9376.87
905.984	9374.84
906.297	9343.88
906.611	9288.06
906.924	9269.08
907.237	9239.47
907.551	9207.84
907.864	9182.75
908.177	9217.55
908.491	9091.46
908.804	9107.5
909.117	9021.18
909.43	9042.87
909.743	9001.97
910.056	9002.42
910.368	8914.06
910.681	8962.19
910.994	8958.35
911.307	8930.78
911.619	8875.87
911.932	8823.44
912.244	8806.04
912.557	8815.08
912.869	8745.02
913.181	8673.16
913.494	8695.99
913.806	8672.71
914.118	8659.15
914.43	8588.42
914.742	8585.48
915.054	8577.12
915.366	8580.28
915.678	8460.96
915.99	8464.58
916.302	8382.32
916.613	8409.44
916.925	8388.2
917.236	8362.66
917.548	8265.49
917.859	8289.22
918.171	8195.43
918.482	8157.47
918.794	8101.2
919.105	8129.9
919.416	8066.4
919.727	7988.66
920.038	8043.57
920.349	7945.27
920.66	7908.44
920.971	7828.89
921.282	7757.48
921.593	7733.07
921.903	7680.87
922.214	7663.02
922.525	7590.03
922.835	7521.1
923.146	7481.78
923.456	7432.97
923.767	7357.49
924.077	7362.24
924.387	7380.77
924.697	7316.36
925.008	7265.74
925.318	7232.3
925.628	7217.83
925.938	7145.07
926.248	7096.03
926.558	7029.82
926.867	7020.32
927.177	7098.97
927.487	7028.69
927.796	6961.12
928.106	7021
928.416	6904.62
928.725	6918.41
929.034	6849.93
929.344	6871.85
929.653	6842.93
929.962	6763.61
930.271	6797.73
930.581	6755.02
930.89	6747.11
931.199	6745.3
931.508	6695.36
931.817	6717.73
932.125	6624.63
932.434	6627.57
932.743	6632.99
933.051	6567.23
933.36	6608.58
933.669	6555.25
933.977	6532.88
934.286	6498.53
934.594	6536.27
934.902	6467.8
935.21	6438.42
935.519	6463.28
935.827	6407.68
936.135	6405.88
936.443	6370.85
936.751	6283.62
937.059	6308.93
937.367	6286.11
937.674	6223.73
937.982	6260.12
938.29	6168.82
938.597	6189.61
938.905	6096.51
939.213	6081.14
939.52	6070.52
939.827	6090.18
940.135	6040.91
940.442	5978.54
940.749	5955.95
941.056	5911.43
941.363	5877.76
941.67	5866.91
941.977	5867.36
942.284	5789.85
942.591	5771.09
942.898	5753.92
943.205	5740.58
943.511	5695.84
943.818	5687.25
944.125	5588.72
944.431	5626.69
944.738	5662.62
945.044	5527.71
945.35	5490.65
945.657	5468.73
945.963	5429.41
946.269	5388.95
946.575	5399.58
946.881	5366.13
947.187	5356.86
947.493	5333.14
947.799	5292.23
948.105	5246.36
948.41	5249.97
948.716	5215.4
949.022	5196.87
949.327	5159.13
949.633	5138.34
949.938	5148.73
950.244	5151.67
950.549	5076.19
950.854	5066.02
951.16	5052.01
951.465	5022.41
951.77	5021.73
952.075	4950.32
952.38	4967.5
952.685	4989.42
952.99	4903.32
953.294	4932.24
953.599	4925.92
953.904	4901.51
954.209	4845.47
954.513	4907.16
954.818	4852.47
955.122	4802.53
955.426	4795.3
955.731	4802.3
956.035	4773.15
956.339	4750.33
956.643	4756.2
956.948	4774.28
957.252	4745.36
957.556	4736.09
957.86	4664.91
958.163	4687.28
958.467	4663.32
958.771	4656.09
959.075	4655.41
959.378	4569.09
959.682	4621.29
959.985	4567.51
960.289	4502.65
960.592	4546.26
960.896	4525.93
961.199	4473.72
961.502	4449.32
961.805	4444.12
962.108	4414.97
962.411	4400.28
962.714	4349.66
963.017	4335.42
963.32	4366.83
963.623	4344.46
963.926	4291.81
964.228	4242.32
964.531	4232.15
964.833	4200.74
965.136	4177.01
965.438	4152.83
965.741	4139.72
966.043	4105.82
966.345	4130.91
966.648	4092.27
966.95	4078.48
967.252	4037.8
967.554	4017.46
967.856	3991.7
968.158	4000.97
968.46	3981.31
968.761	3953.74
969.063	3876.68
969.365	3892.27
969.666	3861.99
969.968	3797.36
970.269	3845.94
970.571	3808.43
970.872	3809.33
971.174	3763.69
971.475	3721.2
971.776	3812.5
972.077	3724.37
972.378	3709.68
972.679	3694.99
972.98	3716.68
973.281	3658.15
973.582	3675.55
973.883	3646.4
974.183	3589.23
974.484	3630.13
974.785	3608.66
975.085	3597.14
975.386	3593.97
975.686	3578.61
975.986	3542.45
976.287	3548.32
976.587	3473.52
976.887	3513.75
977.187	3515.11
977.487	3500.64
977.787	3429.46
978.087	3455.22
978.387	3435.33
978.687	3426.29
978.987	3416.12
979.286	3368.44
979.586	3437.59
979.885	3390.14
980.185	3375.67
980.484	3372.28
980.784	3384.94
981.083	3387.65
981.382	3356.01
981.682	3345.62
981.981	3314.21
982.28	3297.71
982.579	3280.31
982.878	3278.5
983.177	3256.58
983.475	3229.01
983.774	3210.03
984.073	3189.46
984.372	3194.21
984.67	3158.5
984.969	3162.57
985.267	3104.95
985.566	3101.56
985.864	3095.46
986.162	3129.35
986.461	3051.84
986.759	3073.76
987.057	3035.12
987.355	2997.15
987.653	3000.77
987.951	3023.14
988.249	2958.06
988.547	2952.41
988.844	2916.93
989.142	2929.36
989.44	2884.84
989.737	2865.4
990.035	2870.15
990.332	2859.76
990.63	2874.22
990.927	2826.08
991.224	2826.99
991.521	2812.75
991.819	2768.46
992.116	2768.68
992.413	2723.71
992.71	2762.36
993.006	2723.94
993.303	2684.62
993.6	2688.91
993.897	2681.91
994.193	2673.09
994.49	2642.81
994.787	2633.32
995.083	2641.23
995.379	2585.64
995.676	2595.36
995.972	2579.08
996.268	2567.11
996.565	2531.4
996.861	2541.12
997.157	2509.03
997.453	2513.55
997.749	2513.55
998.044	2498.41
998.34	2476.49
998.636	2489.82
998.932	2513.32
999.227	2479.2
999.523	2445.08
999.818	2442.59
1000.114	2442.59
1000.409	2425.64
1000.704	2412.76
1001	2413.44
1001.295	2389.71
1001.59	2389.26
1001.885	2380.67
1002.18	2345.64
1002.475	2339.09
1002.77	2298.64
1003.065	2307.45
1003.359	2300
1003.654	2302.03
1003.949	2292.54
1004.243	2295.48
1004.538	2255.03
1004.832	2219.55
1005.127	2237.4
1005.421	2212.77
1005.715	2221.35
1006.009	2211.41
1006.304	2228.36
1006.598	2191.98
1006.892	2186.1
1007.186	2185.2
1007.48	2136.16
1007.773	2143.84
1008.067	2131.86
1008.361	2133.9
1008.655	2118.08
1008.948	2128.7
1009.242	2088.25
1009.535	2039.44
1009.829	2038.53
1010.122	2072.43
1010.415	2031.53
1010.708	2003.96
1011.001	1992.21
1011.295	1994.24
1011.588	1974.81
1011.881	1923.28
1012.173	1919.44
1012.466	1954.92
1012.759	1906.56
1013.052	1900.01
1013.344	1894.58
1013.637	1886.67
1013.93	1872.66
1014.222	1878.99
1014.514	1804.64
1014.807	1841.25
1015.099	1824.98
1015.391	1830.4
1015.683	1825.88
1015.976	1781.14
1016.268	1802.61
1016.56	1779.33
1016.851	1749.28
1017.143	1709.5
1017.435	1737.98
1017.727	1721.71
1018.018	1718.54
1018.31	1695.04
1018.602	1698.2
1018.893	1671.76
1019.185	1636.96
1019.476	1647.36
1019.767	1600.13
1020.058	1626.12
1020.35	1587.92
1020.641	1585.21
1020.932	1600.13
1021.223	1613.23
1021.514	1567.59
1021.804	1544.76
1022.095	1558.77
1022.386	1553.35
1022.677	1530.52
1022.967	1526.23
1023.258	1498.44
1023.548	1521.71
1023.839	1486.68
1024.129	1454.82
1024.419	1454.82
1024.709	1441.71
1025	1464.76
1025.29	1411.66
1025.58	1391.77
1025.87	1413.47
1026.16	1427.48
1026.449	1402.84
1026.739	1401.26
1027.029	1410.98
1027.319	1390.87
1027.608	1397.42
1027.898	1375.73
1028.187	1370.53
1028.477	1362.39
1028.766	1328.04
1029.055	1322.17
1029.344	1329.63
1029.634	1328.95
1029.923	1286.92
1030.212	1342.51
1030.501	1309.06
1030.79	1286.69
1031.078	1267.48
1031.367	1283.53
1031.656	1264.77
1031.945	1234.49
1032.233	1274.71
1032.522	1237.43
1032.81	1249.85
1033.099	1238.78
1033.387	1201.04
1033.675	1215.96
1033.963	1211.44
1034.251	1199.46
1034.54	1181.83
1034.828	1184.77
1035.116	1154.49
1035.403	1169.18
1035.691	1165.79
1035.979	1132.12
1036.267	1114.49
1036.554	1109.29
1036.842	1100.03
1037.129	1115.62
1037.417	1113.13
1037.704	1103.42
1037.992	1112.46
1038.279	1079.24
1038.566	1058.22
1038.853	1058.22
1039.14	1058.22
