Data from red_shiny_book_FLMS001491_00017.txt Node
Date: Wed Feb 08 15:23:43 GMT 2017
User: dcchb
Spectrometer: FLMS00149
Trigger mode: 0
Integration Time (sec): 2.000000E-2
Scans to average: 10
Electric dark correction enabled: true
Nonlinearity correction enabled: false
Boxcar width: 0
XAxis mode: Wavelengths
Number of Pixels in Spectrum: 2048
>>>>>Begin Spectral Data<<<<<
341.393	-2.82
341.776	-2.82
342.16	-2.82
342.543	-61.81
342.927	-68.36
343.31	-69.94
343.693	-81.24
344.077	-46.21
344.46	-72.2
344.843	-52.09
345.226	-43.05
345.61	-27.46
345.993	-34.46
346.376	1.24
346.759	-0.34
347.142	17.29
347.525	31.52
347.908	79.88
348.291	87.79
348.674	84.18
349.057	125.08
349.44	138.64
349.823	132.31
350.206	171.63
350.588	203.95
350.971	229.49
351.354	231.75
351.737	251.63
352.119	264.06
352.502	289.82
352.884	284.85
353.267	286.89
353.65	293.44
354.032	326.88
354.414	337.73
354.797	328.24
355.179	336.38
355.562	326.66
355.944	344.96
356.326	349.26
356.709	354
357.091	338.86
357.473	363.04
357.855	352.42
358.238	359.2
358.62	350.39
359.002	361.46
359.384	343.15
359.766	347.22
360.148	352.42
360.53	361.01
360.912	347.9
361.294	354.68
361.676	353.32
362.057	359.88
362.439	352.65
362.821	339.77
363.203	338.64
363.584	362.14
363.966	346.09
364.348	330.05
364.729	369.59
365.111	351.97
365.493	323.04
365.874	338.41
366.256	328.47
366.637	338.64
367.019	327.79
367.4	340.89
367.781	344.74
368.163	340.44
368.544	341.8
368.925	316.71
369.306	341.57
369.688	332.76
370.069	345.41
370.45	319.43
370.831	330.27
371.212	326.43
371.593	336.38
371.974	361.23
372.355	358.07
372.736	338.18
373.117	331.18
373.498	347.67
373.879	337.96
374.26	338.18
374.641	356.26
375.021	353.32
375.402	361.01
375.783	348.8
376.163	341.12
376.544	355.81
376.925	373.44
377.305	356.71
377.686	358.3
378.066	368.92
378.447	375.47
378.827	356.71
379.208	345.19
379.588	363.95
379.968	356.04
380.349	376.37
380.729	366.21
381.109	364.85
381.489	375.92
381.87	355.36
382.25	361.46
382.63	366.43
383.01	366.21
383.39	384.74
383.77	367.79
384.15	383.15
384.53	372.08
384.91	374.11
385.29	374.57
385.67	375.47
386.049	394.9
386.429	391.52
386.809	395.81
387.189	395.81
387.568	389.93
387.948	383.15
388.328	403.49
388.707	410.95
389.087	399.65
389.466	421.12
389.846	405.98
390.225	401.46
390.605	424.28
390.984	395.13
391.363	409.59
391.743	414.34
392.122	410.95
392.501	415.24
392.881	415.92
393.26	423.15
393.639	419.54
394.018	428.8
394.397	440.78
394.776	432.87
395.155	419.54
395.534	419.99
395.913	422.93
396.292	428.58
396.671	427.67
397.05	434.23
397.429	426.09
397.808	433.55
398.186	451.17
398.565	448.91
398.944	434.45
399.323	467.9
399.701	476.03
400.08	440.78
400.458	476.94
400.837	465.86
401.215	458.18
401.594	470.16
401.972	456.82
402.351	455.47
402.729	465.64
403.107	479.87
403.486	476.26
403.864	468.35
404.242	483.72
404.62	463.38
404.999	484.17
405.377	498.63
405.755	466.77
406.133	490.04
406.511	495.24
406.889	506.09
407.267	523.04
407.645	484.17
408.023	510.38
408.401	518.52
408.779	503.15
409.156	530.49
409.534	512.87
409.912	523.04
410.29	531.62
410.667	549.25
411.045	546.99
411.422	549.25
411.8	565.07
412.178	549.7
412.555	559.87
412.933	570.72
413.31	581.34
413.687	574.11
414.065	571.62
414.442	602.13
414.819	573.43
415.197	612.07
415.574	631.51
415.951	605.52
416.328	636.25
416.705	606.2
417.082	604.84
417.46	614.56
417.837	612.3
418.214	628.35
418.591	671.06
418.967	642.58
419.344	667.21
419.721	657.72
420.098	653.66
420.475	660.89
420.852	645.29
421.228	666.99
421.605	651.4
421.982	666.99
422.358	686.65
422.735	683.48
423.111	692.75
423.488	700.43
423.864	721
424.241	724.16
424.617	700.43
424.994	718.29
425.37	710.38
425.746	703.82
426.123	713.99
426.499	711.51
426.875	724.16
427.251	760.32
427.627	780.66
428.003	783.6
428.379	769.58
428.756	773.88
429.132	772.75
429.507	803.93
429.883	788.34
430.259	801
430.635	812.97
431.011	815.46
431.387	836.7
431.763	838.74
432.138	828.57
432.514	845.06
432.89	865.17
433.265	890.94
433.641	878.06
434.016	859.07
434.392	858.62
434.767	862.69
435.143	869.24
435.518	902.91
435.894	910.82
436.269	940.43
436.644	925.96
437.02	927.55
437.395	942.91
437.77	962.8
438.145	942.46
438.52	952.18
438.895	953.31
439.271	936.59
439.646	957.83
440.021	964.16
440.395	982.23
440.77	982.91
441.145	1042.57
441.52	1027.88
441.895	1046.87
442.27	1042.57
442.645	1024.94
443.019	993.08
443.394	1031.72
443.769	1008.9
444.143	1010.03
444.518	1000.09
444.892	1052.74
445.267	1067.2
445.641	1060.2
446.016	1076.47
446.39	1078.5
446.764	1092.74
447.139	1032.85
447.513	1083.93
447.887	1072.4
448.262	1041.89
448.636	1067.2
449.01	1087.32
449.384	1088.22
449.758	1079.41
450.132	1127.99
450.506	1136.35
450.88	1119.41
451.254	1138.61
451.628	1146.75
452.002	1170.03
452.376	1170.48
452.75	1124.6
453.123	1143.59
453.497	1100.42
453.871	1126.86
454.244	1174.55
454.618	1144.94
454.992	1218.16
455.365	1193.98
455.739	1252.06
456.112	1271.49
456.486	1258.84
456.859	1250.25
457.232	1245.73
457.606	1239.63
457.979	1231.27
458.352	1210.93
458.725	1230.59
459.099	1232.85
459.472	1293.86
459.845	1269.23
460.218	1333.86
460.591	1321.43
460.964	1373.64
461.337	1393.3
461.71	1371.38
462.083	1369.12
462.456	1328.67
462.829	1330.47
463.201	1341.09
463.574	1342.9
463.947	1346.07
464.32	1389.91
464.692	1384.26
465.065	1389.91
465.438	1454.09
465.81	1466.97
466.183	1520.52
466.555	1505.61
466.928	1510.58
467.3	1500.86
467.672	1495.89
468.045	1513.07
468.417	1479.17
468.789	1494.76
469.161	1514.2
469.534	1520.75
469.906	1593.52
470.278	1620.41
470.65	1611.82
471.022	1699.28
471.394	1732.95
471.766	1738.15
472.138	1743.12
472.51	1735.66
472.882	1708.77
473.253	1701.31
473.625	1703.57
473.997	1738.82
474.369	1740.18
474.74	1749.22
475.112	1843.91
475.484	1853.85
475.855	1910.35
476.227	1954.64
476.598	2008.65
476.97	2021.53
477.341	2050
477.713	2060.17
478.084	2049.55
478.455	2038.48
478.827	2041.42
479.198	2065.6
479.569	2047.52
479.94	2081.19
480.311	2093.17
480.682	2191.69
481.053	2296.55
481.424	2346.49
481.795	2356.66
482.166	2413.38
482.537	2453.38
482.908	2481.4
483.279	2490.22
483.65	2538.58
484.021	2521.4
484.391	2467.39
484.762	2466.71
485.133	2469.2
485.503	2487.28
485.874	2548.75
486.244	2675.75
486.615	2695.86
486.985	2788.06
487.356	2861.28
487.726	2925.69
488.097	3009.75
488.467	3032.8
488.837	3080.71
489.207	3084.1
489.578	3019.47
489.948	2998.9
490.318	3047.04
490.688	3012.24
491.058	3006.14
491.428	3045
491.798	3128.84
492.168	3212.91
492.538	3278.9
492.908	3360.93
493.278	3452.45
493.648	3499.68
494.017	3570.87
494.387	3579.68
494.757	3624.65
495.126	3591.21
495.496	3527.03
495.866	3516.63
496.235	3487.7
496.605	3443.41
496.974	3457.65
497.344	3523.86
497.713	3499.91
498.082	3589.62
498.452	3689.06
498.821	3782.16
499.19	3869.39
499.559	3926.56
499.928	3987.8
500.298	4048.14
500.667	4030.06
501.036	3928.82
501.405	3922.72
501.774	3861.03
502.143	3847.02
502.512	3789.62
502.88	3789.62
503.249	3782.16
503.618	3814.02
503.987	3845.89
504.356	3968.82
504.724	4020.35
505.093	4116.84
505.462	4190.74
505.83	4264.86
506.199	4295.59
506.567	4348.25
506.936	4312.54
507.304	4272.99
507.672	4204.52
508.041	4140.12
508.409	4071.19
508.777	4053.34
509.145	4028.71
509.514	3965.88
509.882	4067.8
510.25	4139.21
510.618	4174.24
510.986	4273.9
511.354	4386.21
511.722	4500.33
512.09	4531.75
512.458	4596.15
512.826	4603.16
513.193	4563.38
513.561	4475.93
513.929	4489.94
514.297	4447.68
514.664	4362.26
515.032	4261.47
515.4	4237.29
515.767	4221.92
516.135	4247.91
516.502	4273.22
516.869	4419.66
517.237	4476.15
517.604	4535.59
517.972	4657.62
518.339	4759.99
518.706	4777.39
519.073	4818.07
519.44	4862.13
519.808	4896.03
520.175	4825.97
520.542	4746.43
520.909	4698.97
521.276	4608.35
521.643	4551.86
522.009	4534.46
522.376	4556.38
522.743	4558.86
523.11	4609.94
523.477	4726.09
523.843	4789.37
524.21	4953.66
524.577	5049.25
524.943	5173.54
525.31	5235.23
525.676	5336.7
526.043	5318.17
526.409	5294.89
526.776	5286.3
527.142	5161.56
527.508	5163.82
527.874	5089.02
528.241	5026.65
528.607	4984.84
528.973	4966.31
529.339	5023.94
529.705	5083.6
530.071	5179.19
530.437	5290.82
530.803	5427.99
531.169	5543.92
531.535	5624.6
531.901	5741.88
532.267	5877.25
532.632	5971.48
532.998	5956.57
533.364	6013.97
533.73	5900.52
534.095	5872.95
534.461	5851.71
534.826	5721.77
535.192	5611.04
535.557	5599.06
535.923	5551.83
536.288	5574.43
536.653	5637.48
537.019	5724.48
537.384	5899.62
537.749	6039.5
538.114	6136.45
538.479	6368.99
538.845	6441.53
539.21	6493.5
539.575	6626.61
539.94	6638.81
540.305	6624.8
540.67	6559.71
541.034	6448.76
541.399	6436.78
541.764	6323.11
542.129	6304.13
542.494	6161.76
542.858	6137.13
543.223	6111.36
543.587	6092.61
543.952	6185.71
544.316	6323.11
544.681	6413.5
545.045	6568.98
545.41	6703.89
545.774	6916.32
546.138	7085.8
546.503	7155.86
546.867	7191.56
547.231	7253.26
547.595	7192.69
547.959	7128.29
548.324	7069.53
548.688	6962.19
549.052	6864.79
549.416	6716.32
549.779	6594.06
550.143	6523.33
550.507	6579.15
550.871	6627.06
551.235	6606.72
551.599	6699.15
551.962	6732.37
552.326	6943.89
552.689	7123.99
553.053	7159.7
553.417	7354.72
553.78	7558.11
554.143	7572.12
554.507	7642.4
554.87	7584.55
555.234	7612.34
555.597	7544.1
555.96	7426.81
556.323	7305.01
556.686	7163.31
557.05	7077.44
557.413	6974.17
557.776	6905.02
558.139	6925.81
558.502	6946.6
558.865	6973.04
559.228	7118.8
559.59	7256.65
559.953	7378.9
560.316	7577.31
560.679	7696.18
561.041	7935.95
561.404	8048.26
561.767	8151.54
562.129	8144.31
562.492	8180.46
562.854	8131.2
563.217	8026.57
563.579	7897.08
563.941	7822.28
564.304	7742.73
564.666	7614.15
565.028	7575.96
565.39	7441.73
565.753	7437.43
566.115	7427.49
566.477	7467.94
566.839	7531.89
567.201	7623.42
567.563	7809.17
567.925	7933.92
568.287	8206.22
568.648	8294.36
569.01	8490.51
569.372	8713.56
569.734	8756.72
570.095	8836.04
570.457	8799.2
570.819	8833.33
571.18	8759.88
571.542	8688.25
571.903	8556.5
572.265	8439.21
572.626	8299.56
572.987	8216.85
573.349	8139.56
573.71	8154.02
574.071	8133.46
574.432	8202.38
574.794	8336.62
575.155	8483.28
575.516	8675.14
575.877	8904.96
576.238	9135.92
576.599	9327.55
576.96	9581.56
577.32	9779.06
577.681	9955.56
578.042	10112.62
578.403	10274.42
578.763	10363.91
579.124	10369.33
579.485	10412.27
579.845	10537.92
580.206	10450.69
580.566	10475.77
580.927	10436.67
581.287	10536.79
581.648	10570.68
582.008	10805.93
582.368	11028.07
582.728	11220.16
583.089	11556.42
583.449	11943.75
583.809	12430.75
584.169	12889.27
584.529	13369.03
584.889	13996.13
585.249	14412.39
585.609	14819.38
585.969	15452.81
586.329	15880.83
586.688	16319.91
587.048	16681.71
587.408	17022.04
587.768	17405.76
588.127	17858.63
588.487	18105.17
588.846	18473.3
589.206	18709.9
589.565	18943.34
589.925	19429.66
590.284	19688.63
590.643	20207.49
591.003	20733.35
591.362	21383.51
591.721	21852.87
592.08	22484.95
592.44	23286.05
592.799	24016.88
593.158	24725.34
593.517	25329.62
593.876	26066.77
594.235	26794.89
594.593	27514.87
594.952	28223.1
595.311	28588.74
595.67	29006.13
596.029	29746.22
596.387	30138.76
596.746	30801.11
597.104	30865.06
597.463	31253.75
597.822	31893.51
598.18	32107.97
598.538	32425.48
598.897	33082.41
599.255	33156.76
599.613	34229.95
599.972	34374.58
600.33	34945.86
600.688	35352.4
601.046	36150.57
601.404	36950.33
601.762	37531.56
602.12	38175.83
602.478	38762.94
602.836	39394.78
603.194	39656.47
603.552	40363.12
603.91	40729.89
604.268	41343.43
604.625	41569.87
604.983	42000.59
605.341	42154.94
605.698	42655.26
606.056	43046.21
606.413	43080.34
606.771	43404.85
607.128	43539.53
607.485	43651.17
607.843	43923.03
608.2	44163.7
608.557	44613.86
608.914	44673.97
609.272	45101.3
609.629	45510.1
609.986	46031.9
610.343	46240.93
610.7	46771.54
611.057	47160
611.414	47415.14
611.771	47821.68
612.127	48188.45
612.484	48528.1
612.841	48819.85
613.198	48789.11
613.554	48937.81
613.911	49342.32
614.267	49469.77
614.624	49518.13
614.98	49612.14
615.337	49744.34
615.693	49815.98
616.05	49678.81
616.406	49919.7
616.762	49789.31
617.118	49852.59
617.475	49923.77
617.831	50073.6
618.187	50166.25
618.543	50288.06
618.899	50537.54
619.255	50554.72
619.611	50757.42
619.967	51056.17
620.323	51327.8
620.678	51274.92
621.034	51344.75
621.39	51594.91
621.746	51742.48
622.101	52226.54
622.457	52044.85
622.812	52118.06
623.168	52225.86
623.523	52270.83
623.879	52472.63
624.234	52174.56
624.589	52337.72
624.945	52262.02
625.3	52255.91
625.655	52183.15
626.01	52152.41
626.365	52057.5
626.72	52050.04
627.075	52010.72
627.43	52016.15
627.785	51857.51
628.14	52071.74
628.495	52079.65
628.85	52131.4
629.205	52159.19
629.559	52539.97
629.914	52424.5
630.269	52506.53
630.623	52632.4
630.978	52641.67
631.332	52906.74
631.687	52976.12
632.041	52945.39
632.396	53067.19
632.75	52942.9
633.104	52949.68
633.459	52775.22
633.813	52775.9
634.167	52750.82
634.521	52739.29
634.875	52687.32
635.229	52536.36
635.583	52312.41
635.937	52230.6
636.291	52115.58
636.645	52067.44
636.999	51885.53
637.352	52063.15
637.706	51829.48
638.06	51988.12
638.413	51809.6
638.767	51868.35
639.121	51905.87
639.474	51832.65
639.828	51921.91
640.181	52104.05
640.534	52270.15
640.888	52093.88
641.241	52216.14
641.594	52267.44
641.947	52429.02
642.301	52380.43
642.654	52419.98
643.007	52469.02
643.36	52402.58
643.713	52316.7
644.066	52368
644.419	52153.32
644.771	51850.73
645.124	51383.17
645.477	51181.82
645.83	51000.81
646.182	50803.75
646.535	50723.75
646.888	50641.04
647.24	50474.27
647.593	50544.55
647.945	50457.32
648.298	50336.87
648.65	50274.27
649.002	50236.08
649.355	50418.67
649.707	50341.61
650.059	50554.04
650.411	51065.21
650.763	50997.87
651.115	51470.85
651.467	51538.87
651.819	51595.82
652.171	51567.8
652.523	51516.95
652.875	51465.88
653.227	51520.79
653.578	51649.15
653.93	51556.27
654.282	51387.91
654.633	51296.39
654.985	51314.92
655.337	51142.05
655.688	51235.6
656.039	51127.36
656.391	50767.59
656.742	50738.44
657.094	50769.85
657.445	50806.91
657.796	50581.16
658.147	50454.15
658.498	50411.44
658.849	50474.49
659.2	50530.31
659.551	50407.38
659.902	50629.06
660.253	50639.01
660.604	50709.06
660.955	50694.37
661.306	50979.34
661.656	50985.44
662.007	50998.55
662.358	51026.79
662.708	51143.18
663.059	51042.39
663.409	51011.88
663.76	51298.65
664.11	51341.36
664.461	51267.92
664.811	51180.24
665.161	51039.22
665.511	50951.54
665.862	50830.64
666.212	50842.17
666.562	50768.95
666.912	50667.48
667.262	50330.99
667.612	50371.22
667.962	50332.57
668.312	50156.76
668.662	50281.5
669.011	50100.94
669.361	50050.1
669.711	49984.34
670.06	49903.43
670.41	49921.06
670.76	49914.73
671.109	50062.07
671.459	49978.01
671.808	50057.78
672.157	50215.97
672.507	50076.54
672.856	50256.19
673.205	50283.08
673.554	50481.72
673.904	50472.91
674.253	50684.43
674.602	50619.35
674.951	50097.78
675.3	49958.12
675.649	50468.84
675.998	50439.24
676.346	50473.59
676.695	50370.54
677.044	50140.26
677.393	50263.88
677.741	50077.44
678.09	49923.09
678.438	49706.38
678.787	49753.83
679.135	49559.04
679.484	49191.81
679.832	49394.29
680.181	49149.56
680.529	49197.92
680.877	48988.43
681.225	48948.66
681.573	49190.01
681.922	48899.62
682.27	48990.69
682.618	49022.1
682.966	48972.38
683.314	49139.16
683.661	49025.49
684.009	49122.66
684.357	49015.55
684.705	49181.42
685.053	49289.21
685.4	49191.36
685.748	49132.61
686.095	49120.86
686.443	49087.18
686.79	49025.04
687.138	49163.34
687.485	49006.06
687.832	48877.92
688.18	48963.12
688.527	48563.81
688.874	48578.95
689.221	48385.51
689.568	48112.07
689.915	47897.16
690.262	47792.53
690.609	47508.47
690.956	47521.35
691.303	47256.95
691.65	47087.91
691.997	47129.5
692.344	46699.45
692.69	46695.61
693.037	46689.96
693.383	46360.02
693.73	46579.91
694.077	46472.79
694.423	46398.44
694.769	46383.53
695.116	46401.83
695.462	46529.74
695.808	46309.4
696.155	46495.84
696.501	46202.51
696.847	46421.94
697.193	46160.48
697.539	46393.7
697.885	46158
698.231	46141.05
698.577	46080.48
698.923	46066.25
699.269	45771.79
699.614	45757.55
699.96	45586.03
700.306	45610.21
700.651	45177.91
700.997	44970.68
701.342	44867.63
701.688	44851.14
702.033	44376.8
702.379	44425.84
702.724	44306.74
703.069	44185.39
703.415	43580.89
703.76	43615.24
704.105	43549.25
704.45	43385.19
704.795	43175.02
705.14	43160.11
705.485	43076.49
705.83	42855.03
706.175	42971.64
706.52	42942.71
706.865	42850.51
707.209	42838.99
707.554	42711.98
707.899	43006.21
708.243	42827.24
708.588	42766.22
708.932	42770.06
709.277	42926.89
709.621	42900.23
709.966	42751.76
710.31	42753.57
710.654	42505.89
710.998	42716.96
711.342	42627.24
711.687	42524.42
712.031	42317.19
712.375	42055.5
712.719	42049.63
713.063	41850.76
713.407	41978.22
713.75	41624.78
714.094	41573.26
714.438	41183.21
714.782	41233.61
715.125	40966.49
715.469	40769.89
715.812	40756.1
716.156	40415.77
716.499	40273.18
716.843	40206.74
717.186	40027.31
717.53	40260.98
717.873	40230.24
718.216	39914.32
718.559	39828.22
718.902	39719.07
719.246	39752.29
719.589	39715
719.932	39717.03
720.275	39806.75
720.617	39844.49
720.96	39802.91
721.303	40029.79
721.646	39936.24
721.989	39849.01
722.331	39994.77
722.674	40059.85
723.016	40091.04
723.359	39997.03
723.701	39953.64
724.044	39773.08
724.386	39587.55
724.729	39705.51
725.071	39578.73
725.413	39472.52
725.755	39306.2
726.097	39189.37
726.439	38968.13
726.782	38922.25
727.124	38865.76
727.465	38566.56
727.807	38459.44
728.149	38373.12
728.491	38134.7
728.833	38088.83
729.175	37768.61
729.516	37661.95
729.858	37712.34
730.199	37664.89
730.541	37583.53
730.882	37416.98
731.224	37515.06
731.565	37324.56
731.906	37388.51
732.248	37482.97
732.589	37277.78
732.93	37297.44
733.271	37321.39
733.612	37485
733.953	37565.68
734.294	37496.3
734.635	37476.64
734.976	37534.27
735.317	37467.6
735.658	37449.52
735.999	37532.91
736.339	37521.84
736.68	37687.94
737.021	37608.62
737.361	37336.53
737.702	37627.82
738.042	37381.5
738.383	37382.86
738.723	37243.65
739.063	37291.79
739.404	37102.41
739.744	36885.47
740.084	36693.61
740.424	36614.07
740.764	36464.01
741.104	36642.54
741.444	36324.36
741.784	36164.13
742.124	36088.43
742.464	35953.74
742.804	35840.3
743.143	35729.79
743.483	35510.14
743.823	35456.36
744.162	35400.99
744.502	35508.11
744.841	35251.16
745.181	35420.2
745.52	35395.57
745.86	35360.77
746.199	35406.19
746.538	35348.11
746.877	35472.4
747.216	35631.94
747.556	35439.86
747.895	35452.97
748.234	35494.55
748.573	35489.35
748.911	35453.64
749.25	35561.89
749.589	35385.4
749.928	35557.6
750.267	35578.61
750.605	35379.3
750.944	35398.73
751.283	35369.35
751.621	35217.94
751.96	35049.81
752.298	35091.62
752.636	35071.51
752.975	34735.92
753.313	34549.04
753.651	34570.96
753.989	34505.42
754.327	34164.64
754.666	34057.3
755.004	34026.34
755.342	33892.56
755.679	33843.74
756.017	33531.66
756.355	33463.87
756.693	33283.76
757.031	33260.71
757.368	32999.47
757.706	32897.33
758.044	32739.37
758.381	32861.4
758.719	32610.78
759.056	32723.32
759.394	32597.22
759.731	32516.55
760.068	32393.39
760.405	32313.16
760.743	32269.32
761.08	32438.81
761.417	32185.48
761.754	32225.48
762.091	32292.37
762.428	32296.21
762.765	32075.65
763.102	32295.99
763.438	32127.4
763.775	31987.29
764.112	32081.98
764.449	32317.23
764.785	32017.58
765.122	31855.09
765.458	31701.65
765.795	31838.6
766.131	31726.28
766.467	31579.17
766.804	31432.28
767.14	31157.03
767.476	31260.76
767.812	31228.9
768.148	31041.1
768.485	30777.38
768.821	30471.85
769.157	30413.32
769.492	30330.16
769.828	30193.22
770.164	29899.67
770.5	29669.39
770.836	29662.38
771.171	29429.62
771.507	29285.44
771.842	29000.03
772.178	29033.93
772.513	28947.6
772.849	28900.14
773.184	28624.9
773.519	28647.5
773.855	28540.83
774.19	28421.96
774.525	28346.71
774.86	28337.67
775.195	28321.63
775.53	28155.98
775.865	28145.59
776.2	27986.72
776.535	27891.81
776.87	27903.33
777.205	27809.78
777.539	27757.8
777.874	27851.13
778.209	27599.61
778.543	27755.32
778.878	27478.03
779.212	27555.32
779.547	27526.39
779.881	27543.57
780.215	27399.17
780.55	27436.23
780.884	27231.49
781.218	27091.83
781.552	27100.87
781.886	26981.32
782.22	26879.63
782.554	26635.8
782.888	26461.79
783.222	26251.63
783.556	26128.24
783.889	26062.93
784.223	25871.07
784.557	25700.91
784.89	25741.58
785.224	25642.6
785.557	25365.77
785.891	25188.38
786.224	25086.69
786.558	25045.33
786.891	24808.27
787.224	24610.99
787.557	24475.18
787.891	24510.43
788.224	24431.34
788.557	24528.28
788.89	24429.3
789.223	24308.4
789.556	24095.98
789.888	24182.53
790.221	24014.17
790.554	23889.43
790.887	23933.95
791.219	23850.11
791.552	23927.62
791.884	23781.41
792.217	23826.38
792.549	23752.48
792.882	23608.31
793.214	23591.81
793.546	23653.73
793.879	23476.56
794.211	23338.26
794.543	23564.01
794.875	23505.71
795.207	23472.49
795.539	23354.75
795.871	23454.64
796.203	23164.48
796.535	23110.01
796.867	23019.85
797.198	23016.46
797.53	22916.57
797.862	22711.83
798.193	22811.72
798.525	22596.13
798.856	22626.18
799.188	22333.31
799.519	22184.16
799.85	22011.51
800.182	22031.17
800.513	21998.63
800.844	21656.72
801.175	21786.43
801.506	21687.23
801.837	21581.24
802.168	21379.21
802.499	21311.64
802.83	21166.56
803.161	21089.73
803.491	21125.21
803.822	21057.41
804.153	20708.72
804.483	20744.2
804.814	20649.51
805.145	20662.39
805.475	20750.3
805.805	20510.76
806.136	20652.45
806.466	20548.95
806.796	20627.59
807.126	20529.29
807.457	20512.79
807.787	20521.38
808.117	20479.12
808.447	20422.4
808.777	20509.86
809.107	20459.69
809.436	20432.57
809.766	20477.31
810.096	20416.53
810.426	20368.62
810.755	20369.07
811.085	20365.91
811.414	20251.78
811.744	20059.7
812.073	20151.67
812.403	20113.71
812.732	20044.56
813.061	19976.08
813.39	19866.71
813.719	19742.64
814.049	19871
814.378	19773.83
814.707	19657.45
815.036	19585.13
815.365	19520.5
815.693	19297.23
816.022	19370.23
816.351	19274.18
816.68	19217.01
817.008	19167.97
817.337	18845.49
817.665	18986.51
817.994	18880.75
818.322	18794.65
818.651	18680.98
818.979	18587.42
819.307	18608.44
819.636	18481.66
819.964	18414.77
820.292	18459.06
820.62	18477.59
820.948	18354.88
821.276	18346.98
821.604	18263.81
821.932	18300.87
822.259	18375.9
822.587	18340.2
822.915	18314.66
823.243	18318.05
823.57	18460.19
823.898	18347.88
824.225	18316.69
824.553	18393.98
824.88	18353.98
825.207	18508.33
825.535	18412.06
825.862	18546.52
826.189	18427.65
826.516	18583.58
826.843	18698.38
827.17	18675.78
827.497	18738.38
827.824	18700.64
828.151	18771.82
828.478	18723.24
828.805	18813.63
829.131	18759.17
829.458	18701.09
829.785	18695.21
830.111	18719.85
830.438	18791.03
830.764	18724.37
831.09	18756.91
831.417	18651.37
831.743	18629.91
832.069	18560.75
832.395	18436.24
832.722	18422.68
833.048	18409.12
833.374	18413.41
833.7	18299.97
834.026	18274.89
834.351	18325.05
834.677	18196.47
835.003	18212.52
835.329	18066.76
835.654	18153.53
835.98	17934.1
836.306	18019.53
836.631	17802.13
836.956	17816.14
837.282	17812.53
837.607	17733.43
837.932	17654.56
838.258	17708.12
838.583	17612.76
838.908	17495.25
839.233	17558.07
839.558	17664.73
839.883	17524.85
840.208	17433.55
840.533	17422.25
840.858	17551.06
841.182	17527.34
841.507	17500.9
841.832	17448.24
842.156	17458.64
842.481	17565.53
842.805	17527.34
843.13	17536.38
843.454	17552.42
843.778	17470.16
844.103	17498.86
844.427	17412.54
844.751	17473.55
845.075	17487.34
845.399	17396.27
845.723	17355.59
846.047	17423.16
846.371	17194.69
846.695	17252.54
847.019	17194.92
847.343	17030.4
847.666	16834.25
847.99	16922.15
848.313	16840.12
848.637	16777.07
848.96	16716.74
849.284	16625.66
849.607	16410.08
849.931	16402.85
850.254	16284.88
850.577	16243.3
850.9	15980.48
851.223	16026.36
851.546	15923.54
851.869	15761.28
852.192	15838.57
852.515	15693.71
852.838	15572.13
853.161	15554.51
853.483	15406.26
853.806	15236.32
854.129	15307.28
854.451	15269.09
854.774	15110.45
855.096	14997.91
855.419	15039.72
855.741	15000.62
856.063	14912.04
856.385	14808.54
856.708	14707.07
857.03	14749.78
857.352	14719.27
857.674	14765.83
857.996	14644.02
858.318	14579.16
858.64	14566.74
858.961	14562.44
859.283	14573.97
859.605	14480.86
859.926	14545.49
860.248	14498.94
860.57	14423.69
860.891	14515.44
861.212	14529
861.534	14482.22
861.855	14408.1
862.176	14457.81
862.498	14426.17
862.819	14555.66
863.14	14341.88
863.461	14372.39
863.782	14410.36
864.103	14383.01
864.424	14440.19
864.745	14377.14
865.065	14410.13
865.386	14253.3
865.707	14249.46
866.027	14265.27
866.348	14179.4
866.668	14138.5
866.989	14159.51
867.309	14104.6
867.63	14141.89
867.95	14145.5
868.27	13938.96
868.59	13989.58
868.91	13872.06
869.23	13887.88
869.55	13766.08
869.87	13768.56
870.19	13778.06
870.51	13814.89
870.83	13758.62
871.15	13524.73
871.469	13477.72
871.789	13615.35
872.109	13483.6
872.428	13425.52
872.748	13470.27
873.067	13408.8
873.386	13432.75
873.706	13318.41
874.025	13215.13
874.344	13220.78
874.663	13203.16
874.982	13178.52
875.301	13157.06
875.62	13131.07
875.939	13093.55
876.258	13121.12
876.577	13104.63
876.896	13022.14
877.214	13010.84
877.533	12998.64
877.852	13066.44
878.17	13049.49
878.489	13032.99
878.807	13036.15
879.125	13078.64
879.444	13112.76
879.762	12994.57
880.08	13086.1
880.398	12944.41
880.716	13016.72
881.034	12996.16
881.352	13018.53
881.67	12996.83
881.988	12951.18
882.306	13037.96
882.624	13008.81
882.941	12911.41
883.259	12969.49
883.577	12931.52
883.894	12838.19
884.212	12813.34
884.529	12882.26
884.846	12821.47
885.164	12839.78
885.481	12805.2
885.798	12812.88
886.115	12677.97
886.432	12765.65
886.75	12609.05
887.067	12669.38
887.383	12484.53
887.7	12533.57
888.017	12357.75
888.334	12545.77
888.651	12387.13
888.967	12286.12
889.284	12280.92
889.6	12210.64
889.917	12015.62
890.233	12088.61
890.55	12021.04
890.866	12058.1
891.182	11918.22
891.498	11889.52
891.815	11763.42
892.131	11771.33
892.447	11651.11
892.763	11656.76
893.079	11580.83
893.395	11582.86
893.71	11526.59
894.026	11442.07
894.342	11503.09
894.657	11400.49
894.973	11362.75
895.289	11401.17
895.604	11320.04
895.92	11271.91
896.235	11198.01
896.55	11211.8
896.865	11236.2
897.181	11101.97
897.496	11119.59
897.811	11106.71
898.126	11142.87
898.441	11116.66
898.756	11070.1
899.071	11048.41
899.386	11080.73
899.7	10984.68
900.015	10912.59
900.33	10905.59
900.644	10975.64
900.959	10947.62
901.273	10891.35
901.588	10840.51
901.902	10811.81
902.216	10783.78
902.531	10807.51
902.845	10756.44
903.159	10653.17
903.473	10685.26
903.787	10687.29
904.101	10569.1
904.415	10565.26
904.729	10552.38
905.042	10468.76
905.356	10407.3
905.67	10423.34
905.984	10376.34
906.297	10343.57
906.611	10273.29
906.924	10298.37
907.237	10165.5
907.551	10113.29
907.864	10116.23
908.177	10040.3
908.491	10042.79
908.804	9944.48
909.117	9786.52
909.43	9819.97
909.743	9734.32
910.056	9755.34
910.368	9673.3
910.681	9676.69
910.994	9526.19
911.307	9508.79
911.619	9487.55
911.932	9378.85
912.244	9313.54
912.557	9239.42
912.869	9284.61
913.181	9169.59
913.494	9111.29
913.806	9055.02
914.118	9055.69
914.43	8982.02
914.742	8978.41
915.054	8904.29
915.366	8853.21
915.678	8884.4
915.99	8845.3
916.302	8756.94
916.613	8717.17
916.925	8733.44
917.236	8740.45
917.548	8652.77
917.859	8657.06
918.171	8589.27
918.482	8542.49
918.794	8530.96
919.105	8559.89
919.416	8520.11
919.727	8547.01
920.038	8485.54
920.349	8405.09
920.66	8408.03
920.971	8404.41
921.282	8420.68
921.593	8321.02
921.903	8311.76
922.214	8297.75
922.525	8301.36
922.835	8238.77
923.146	8186.11
923.456	8121.03
923.767	8164.64
924.077	8135.72
924.387	8050.75
924.697	8105.66
925.008	8016.85
925.318	8032.9
925.628	7991.77
925.938	7886.91
926.248	7913.8
926.558	7767.82
926.867	7796.74
927.177	7758.33
927.487	7775.5
927.796	7685.56
928.106	7644.43
928.416	7611.89
928.725	7620.7
929.034	7548.84
929.344	7513.36
929.653	7538.22
929.962	7441.27
930.271	7418.67
930.581	7314.27
930.89	7262.52
931.199	7221.84
931.508	7227.27
931.817	7171.9
932.125	7171.22
932.434	7094.62
932.743	7055.52
933.051	7040.61
933.36	6946.6
933.669	6954.28
933.977	6869.08
934.286	6920.16
934.594	6853.27
934.902	6777.34
935.21	6742.08
935.519	6732.82
935.827	6662.76
936.135	6646.72
936.443	6585.48
936.751	6569.43
937.059	6526.72
937.367	6555.19
937.674	6565.59
937.982	6495.08
938.29	6433.16
938.597	6477.91
938.905	6359.27
939.213	6381.64
939.52	6357.69
939.827	6352.04
940.135	6296.22
940.442	6301.42
940.749	6312.04
941.056	6287.63
941.363	6227.52
941.67	6261.19
941.977	6220.06
942.284	6160.63
942.591	6140.74
942.898	6109.33
943.205	6138.71
943.511	6091.48
943.818	6136.22
944.125	6059.16
944.431	6076.11
944.738	6053.74
945.044	5986.4
945.35	5986.85
945.657	5981.65
945.963	5993.18
946.269	5989.56
946.575	5961.09
946.881	5933.52
947.187	5933.74
947.493	5861.88
947.799	5873.4
948.105	5824.82
948.41	5719.06
948.716	5721.77
949.022	5767.64
949.327	5682.9
949.633	5650.13
949.938	5631.83
950.244	5584.6
950.549	5526.97
950.854	5555.67
951.16	5520.87
951.465	5491.72
951.77	5461.66
952.075	5452.4
952.38	5434.77
952.685	5371.72
952.99	5320.2
953.294	5278.39
953.599	5244.27
953.904	5240.88
954.209	5205.17
954.513	5194.1
954.818	5116.36
955.122	5177.38
955.426	5080.88
955.731	5065.52
956.035	5054.44
956.339	4995.01
956.643	5031.62
956.948	4972.86
957.252	4966.08
957.556	4933.09
957.86	4868.69
958.163	4876.37
958.467	4825.75
958.771	4797.95
959.075	4810.38
959.378	4761.57
959.682	4762.7
959.985	4732.19
960.289	4759.76
960.592	4686.77
960.896	4649.48
961.199	4653.55
961.502	4623.49
961.805	4571.07
962.108	4528.13
962.411	4530.84
962.714	4527.45
963.017	4567.22
963.32	4568.13
963.623	4539.43
963.926	4516.6
964.228	4500.33
964.531	4501.92
964.833	4467.11
965.136	4417.4
965.438	4443.61
965.741	4393.22
966.043	4374.69
966.345	4383.27
966.648	4432.99
966.95	4374.24
967.252	4354.8
967.554	4323.62
967.856	4348.47
968.158	4289.27
968.46	4271.87
968.761	4258.76
969.063	4292.43
969.365	4244.75
969.666	4242.49
969.968	4207.23
970.269	4211.75
970.571	4169.04
970.872	4156.84
971.174	4137.86
971.475	4123.62
971.776	4067.58
972.077	4080.91
972.378	4083.85
972.679	4024.64
972.98	4047.69
973.281	4019.44
973.582	3989.16
973.883	3954.36
974.183	3982.38
974.484	3918.65
974.785	3897.86
975.085	3922.04
975.386	3888.15
975.686	3835.04
975.986	3865.32
976.287	3822.84
976.587	3757.08
976.887	3749.62
977.187	3719.11
977.487	3717.3
977.787	3686.12
978.087	3693.35
978.387	3621.94
978.687	3659.23
978.987	3592.33
979.286	3610.87
979.586	3584.43
979.885	3553.24
980.185	3567.7
980.484	3522.05
980.784	3507.82
981.083	3445.45
981.382	3456.29
981.682	3444.32
981.981	3433.92
982.28	3400.25
982.579	3384.2
982.878	3405
983.177	3361.61
983.475	3316.64
983.774	3298.78
984.073	3335.17
984.372	3259.01
984.67	3276.86
984.969	3237.54
985.267	3294.26
985.566	3242.29
985.864	3240.03
986.162	3204.32
986.461	3204.77
986.759	3191.67
987.057	3195.06
987.355	3133.82
987.653	3130.2
987.951	3159.13
988.249	3103.99
988.547	3145.57
988.844	3097.43
989.142	3119.58
989.44	3060.37
989.737	3076.87
990.035	3068.28
990.332	3045.46
990.63	2985.57
990.927	3022.18
991.224	3027.15
991.521	3017.43
991.819	3001.16
992.116	2990.09
992.413	3002.29
992.71	2960.04
993.006	2970.43
993.303	2973.14
993.6	2962.97
993.897	2912.58
994.193	2932.47
994.49	2884.78
994.787	2876.42
995.083	2838
995.379	2867.61
995.676	2829.19
995.972	2809.76
996.268	2774.05
996.565	2760.94
996.861	2788.74
997.157	2772.47
997.453	2739.02
997.749	2728.4
998.044	2690.89
998.34	2704.45
998.636	2692.92
998.932	2685.47
999.227	2640.04
999.523	2628.97
999.818	2619.48
1000.114	2599.14
1000.409	2577.67
1000.704	2564.11
1001	2575.41
1001.295	2529.31
1001.59	2530.22
1001.885	2547.84
1002.18	2474.4
1002.475	2491.57
1002.77	2460.61
1003.065	2422.2
1003.359	2418.35
1003.654	2409.32
1003.949	2393.5
1004.243	2398.02
1004.538	2365.47
1004.832	2326.15
1005.127	2325.7
1005.421	2306.49
1005.715	2315.31
1006.009	2295.87
1006.304	2251.81
1006.598	2288.64
1006.892	2262.43
1007.186	2241.18
1007.48	2248.87
1007.773	2208.42
1008.067	2188.08
1008.361	2202.09
1008.655	2167.06
1008.948	2165.25
1009.242	2149.21
1009.535	2124.58
1009.829	2118.93
1010.122	2121.41
1010.415	2066.73
1010.708	2060.17
1011.001	2054.75
1011.295	2046.61
1011.588	2072.83
1011.881	2025.6
1012.173	2011.81
1012.466	1974.75
1012.759	2026.73
1013.052	1991.47
1013.344	1962.1
1013.637	2006.16
1013.93	1971.13
1014.222	1967.29
1014.514	1940.17
1014.807	1928.88
1015.099	1937.92
1015.391	1947.86
1015.683	1923.23
1015.976	1883
1016.268	1909.44
1016.56	1860.18
1016.851	1842.78
1017.143	1840.06
1017.435	1846.62
1017.727	1826.28
1018.018	1825.15
1018.31	1816.34
1018.602	1813.4
1018.893	1806.17
1019.185	1763.91
1019.476	1751.03
1019.767	1798.03
1020.058	1758.48
1020.35	1749.67
1020.641	1736.34
1020.932	1729.33
1021.223	1699.73
1021.514	1672.84
1021.804	1699.05
1022.095	1665.83
1022.386	1658.15
1022.677	1635.78
1022.967	1643.23
1023.258	1618.15
1023.548	1617.02
1023.839	1632.16
1024.129	1599.39
1024.419	1572.5
1024.709	1553.07
1025	1530.24
1025.29	1552.16
1025.58	1534.08
1025.87	1498.38
1026.16	1504.71
1026.449	1490.7
1026.739	1494.31
1027.029	1471.49
1027.319	1452.96
1027.608	1459.74
1027.898	1469.23
1028.187	1457.7
1028.477	1406.18
1028.766	1403.24
1029.055	1380.42
1029.344	1386.29
1029.634	1391.04
1029.923	1392.39
1030.212	1371.15
1030.501	1331.38
1030.79	1326.86
1031.078	1319.4
1031.367	1304.49
1031.656	1289.12
1031.945	1289.57
1032.233	1288.44
1032.522	1275.56
1032.81	1262.9
1033.099	1252.96
1033.387	1241.44
1033.675	1214.32
1033.963	1218.39
1034.251	1217.26
1034.54	1205.73
1034.828	1210.7
1035.116	1179.74
1035.403	1203.7
1035.691	1163.02
1035.979	1180.65
1036.267	1181.78
1036.554	1152.85
1036.842	1159.4
1037.129	1150.82
1037.417	1129.35
1037.704	1135.22
1037.992	1110.37
1038.279	1106.98
1038.566	1107.2
1038.853	1107.2
1039.14	1107.2
