Data from red_cardboard_box_FLMS001491_00023.txt Node
Date: Wed Feb 08 11:31:46 GMT 2017
User: dcchb
Spectrometer: FLMS00149
Trigger mode: 0
Integration Time (sec): 2.000000E-2
Scans to average: 10
Electric dark correction enabled: true
Nonlinearity correction enabled: false
Boxcar width: 0
XAxis mode: Wavelengths
Number of Pixels in Spectrum: 2048
>>>>>Begin Spectral Data<<<<<
341.393	-14.62
341.776	-14.62
342.16	-14.62
342.543	-43.32
342.927	-73.15
343.31	-60.94
343.693	-61.62
344.077	-82.41
344.46	-50.1
344.843	-50.1
345.226	-53.49
345.61	-26.6
345.993	-22.75
346.376	-27.5
346.759	11.14
347.142	25.38
347.525	47.98
347.908	69.67
348.291	80.07
348.674	96.11
349.057	105.15
349.44	117.58
349.823	132.95
350.206	170.46
350.588	192.38
350.971	223.34
351.354	227.41
351.737	233.74
352.119	255.88
352.502	276.22
352.884	262.44
353.267	284.81
353.65	295.43
354.032	312.15
354.414	294.3
354.797	298.82
355.179	323.23
355.562	327.75
355.944	323
356.326	332.72
356.709	331.59
357.091	333.17
357.473	344.92
357.855	366.39
358.238	350.34
358.62	362.09
359.002	346.73
359.384	353.28
359.766	360.97
360.148	358.48
360.53	343.79
360.912	318.48
361.294	344.02
361.676	350.12
362.057	338.14
362.439	360.97
362.821	311.25
363.203	318.71
363.584	344.47
363.966	329.33
364.348	329.1
364.729	322.55
365.111	320.97
365.493	304.7
365.874	320.29
366.256	312.15
366.637	310.8
367.019	336.11
367.4	337.24
367.781	323.23
368.163	321.87
368.544	305.37
368.925	316.67
369.306	342.89
369.688	342.43
370.069	335.66
370.45	308.31
370.831	324.13
371.212	307.18
371.593	323.45
371.974	308.76
372.355	294.53
372.736	339.27
373.117	331.81
373.498	328.65
373.879	314.41
374.26	333.4
374.641	320.51
375.021	281.19
375.402	325.26
375.783	320.51
376.163	324.13
376.544	348.99
376.925	345.37
377.305	329.1
377.686	316.9
378.066	315.32
378.447	311.7
378.827	332.27
379.208	322.77
379.588	351.93
379.968	353.96
380.349	340.17
380.729	342.89
381.109	344.24
381.489	332.49
381.87	339.04
382.25	348.31
382.63	352.15
383.01	334.75
383.39	349.89
383.77	351.93
384.15	354.19
384.53	348.31
384.91	355.77
385.29	353.73
385.67	339.72
386.049	353.73
386.429	337.24
386.809	334.98
387.189	346.5
387.568	344.02
387.948	355.09
388.328	367.74
388.707	353.51
389.087	338.37
389.466	363
389.846	358.71
390.225	354.41
390.605	370.46
390.984	378.37
391.363	372.94
391.743	368.87
392.122	364.35
392.501	377.69
392.881	358.93
393.26	367.52
393.639	365.48
394.018	363.22
394.397	381.08
394.776	375.2
395.155	388.76
395.534	370
395.913	362.32
396.292	390.12
396.671	376.33
397.05	371.36
397.429	388.53
397.808	368.42
398.186	386.5
398.565	396.9
398.944	370.68
399.323	379.72
399.701	366.39
400.08	393.28
400.458	392.15
400.837	378.82
401.215	406.16
401.594	397.57
401.972	404.81
402.351	390.57
402.729	381.76
403.107	400.96
403.486	395.09
403.864	404.13
404.242	405.48
404.62	423.79
404.999	401.64
405.377	416.56
405.755	409.1
406.133	400.96
406.511	394.18
406.889	399.16
407.267	412.94
407.645	425.6
408.023	428.99
408.401	435.54
408.779	430.79
409.156	415.43
409.534	422.66
409.912	414.75
410.29	438.03
410.667	439.83
411.045	459.95
411.422	435.31
411.8	451.81
412.178	437.57
412.555	446.84
412.933	452.94
413.31	441.19
413.687	487.74
414.065	478.25
414.442	441.64
414.819	456.1
415.197	473.96
415.574	458.82
415.951	485.03
416.328	473.96
416.705	471.7
417.082	485.03
417.46	478.02
417.837	490.91
418.214	494.97
418.591	484.8
418.967	487.97
419.344	494.75
419.721	493.39
420.098	493.62
420.475	505.82
420.852	512.6
421.228	494.52
421.605	495.2
421.982	493.62
422.358	508.76
422.735	529.1
423.111	513.28
423.488	508.98
423.864	515.09
424.241	530.45
424.617	520.51
424.994	525.71
425.37	530.45
425.746	533.16
426.123	541.53
426.499	550.34
426.875	506.5
427.251	551.02
427.627	538.36
428.003	551.69
428.379	540.62
428.756	549.21
429.132	579.04
429.507	562.09
429.883	579.04
430.259	575.2
430.635	553.73
431.011	567.97
431.387	584.91
431.763	597.57
432.138	594.63
432.514	587.85
432.89	593.5
433.265	614.74
433.641	596.89
434.016	620.85
434.392	616.78
434.767	610.45
435.143	642.54
435.518	652.93
435.894	632.82
436.269	639.83
436.644	660.62
437.02	667.4
437.395	640.05
437.77	664.91
438.145	662.88
438.52	646.38
438.895	675.76
439.271	666.27
439.646	679.83
440.021	685.93
440.395	668.75
440.77	656.78
441.145	678.24
441.52	719.6
441.895	682.76
442.27	702.88
442.645	695.19
443.019	721.18
443.394	690.45
443.769	672.37
444.143	706.49
444.518	716.21
444.892	726.15
445.267	712.37
445.641	700.62
446.016	733.61
446.39	744.23
446.764	704.01
447.139	720.73
447.513	720.96
447.887	724.8
448.262	729.99
448.636	774.74
449.01	739.26
449.384	746.04
449.758	775.19
450.132	739.03
450.506	776.1
450.88	750.11
451.254	751.92
451.628	783.33
452.002	786.94
452.376	792.37
452.75	793.04
453.123	774.06
453.497	779.49
453.871	811.35
454.244	811.8
454.618	803.67
454.992	813.61
455.365	802.76
455.739	823.1
456.112	830.11
456.486	852.03
456.859	853.16
457.232	835.53
457.606	854.29
457.979	866.71
458.352	899.93
458.725	864.68
459.099	881.4
459.472	895.87
459.845	909.2
460.218	903.1
460.591	938.8
460.964	920.27
461.337	932.93
461.71	907.17
462.083	935.64
462.456	955.98
462.829	921.63
463.201	954.85
463.574	968.86
463.947	976.54
464.32	988.97
464.692	971.57
465.065	989.88
465.438	1007.73
465.81	1005.47
466.183	1014.96
466.555	1011.12
466.928	1034.85
467.3	1033.72
467.672	1050.66
468.045	1058.57
468.417	1093.15
468.789	1071
469.161	1065.81
469.534	1130.66
469.906	1120.72
470.278	1103.54
470.65	1128.85
471.022	1165.92
471.394	1158.01
471.766	1166.14
472.138	1165.24
472.51	1170.21
472.882	1219.7
473.253	1217.67
473.625	1230.77
473.997	1241.85
474.369	1246.59
474.74	1271
475.112	1288.4
475.484	1284.56
475.855	1291.34
476.227	1336.53
476.598	1340.15
476.97	1361.62
477.341	1404.55
477.713	1380.6
478.084	1381.05
478.455	1406.59
478.827	1426.7
479.198	1457.89
479.569	1467.6
479.94	1501.05
480.311	1529.97
480.682	1513.03
481.053	1567.49
481.424	1548.28
481.795	1601.16
482.166	1618.79
482.537	1659.46
482.908	1658.11
483.279	1680.25
483.65	1656.75
484.021	1742.62
484.391	1753.7
484.762	1733.58
485.133	1776.3
485.503	1783.53
485.874	1834.6
486.244	1843.41
486.615	1836.41
486.985	1866.01
487.356	1927.48
487.726	1915.27
488.097	1960.25
488.467	1940.81
488.837	2019.45
489.207	2021.49
489.578	2034.37
489.948	2073.01
490.318	2101.71
490.688	2078.89
491.058	2138.09
491.428	2156.17
491.798	2204.08
492.168	2219.9
492.538	2215.61
492.908	2214.02
493.278	2267.13
493.648	2270.52
494.017	2298.32
494.387	2308.71
494.757	2332.44
495.126	2383.74
495.496	2345.09
495.866	2381.93
496.235	2418.99
496.605	2427.58
496.974	2433.9
497.344	2445.2
497.713	2480.23
498.082	2509.38
498.452	2518.87
498.821	2519.78
499.19	2549.83
499.559	2559.55
499.928	2577.86
500.298	2594.58
500.667	2651.75
501.036	2606.33
501.405	2652.2
501.774	2667.57
502.143	2654.46
502.512	2715.25
502.88	2720.23
503.249	2739.66
503.618	2784.63
503.987	2751.18
504.356	2747.79
504.724	2810.84
505.093	2782.14
505.462	2787.12
505.83	2814.91
506.199	2866.66
506.567	2949.82
506.936	2911.63
507.304	2970.39
507.672	2992.76
508.041	2942.37
508.409	3025.75
508.777	3038.41
509.145	3021.23
509.514	3066.66
509.882	3107.56
510.25	3097.39
510.618	3110.5
510.986	3137.16
511.354	3166.09
511.722	3150.72
512.09	3218.52
512.458	3201.57
512.826	3254.9
513.193	3257.84
513.561	3287.89
513.929	3307.33
514.297	3343.49
514.664	3360.66
515.032	3443.82
515.4	3385.74
515.767	3416.25
516.135	3441.11
516.502	3417.83
516.869	3488.57
517.237	3510.03
517.604	3499.64
517.972	3534.21
518.339	3556.14
518.706	3594.78
519.073	3598.62
519.44	3663.03
519.808	3677.04
520.175	3665.28
520.542	3719.29
520.909	3724.27
521.276	3761.1
521.643	3790.03
522.009	3853.3
522.376	3851.72
522.743	3890.36
523.11	3916.13
523.477	3966.07
523.843	4011.49
524.21	4020.53
524.577	4043.13
524.943	4051.72
525.31	4102.56
525.676	4097.82
526.043	4162.9
526.409	4215.33
526.776	4257.13
527.142	4254.42
527.508	4260.3
527.874	4318.83
528.241	4332.61
528.607	4371.03
528.973	4384.59
529.339	4408.32
529.705	4479.05
530.071	4485.83
530.437	4496.68
530.803	4477.02
531.169	4571.02
531.535	4584.58
531.901	4575.54
532.267	4646.95
532.632	4643.11
532.998	4707.97
533.364	4708.2
533.73	4731.47
534.095	4796.55
534.461	4828.42
534.826	4840.17
535.192	4846.5
535.557	4936.89
535.923	4906.61
536.288	4893.28
536.653	4921.3
537.019	4952.71
537.384	4973.95
537.749	5034.74
538.114	4969.21
538.479	5058.92
538.845	5092.37
539.21	5097.34
539.575	5097.79
539.94	5109.31
540.305	5185.25
540.67	5176.88
541.034	5211.91
541.399	5249.2
541.764	5264.11
542.129	5265.24
542.494	5281.06
542.858	5379.82
543.223	5318.8
543.587	5367.39
543.952	5390.44
544.316	5424.11
544.681	5439.48
545.045	5451
545.41	5523.99
545.774	5528.29
546.138	5541.62
546.503	5556.31
546.867	5605.35
547.231	5623.43
547.595	5643.99
547.959	5673.59
548.324	5696.19
548.688	5693.71
549.052	5769.64
549.416	5797.43
549.779	5834.72
550.143	5830.2
550.507	5928.05
550.871	5887.6
551.235	5961.04
551.599	6007.82
551.962	6043.3
552.326	6045.79
552.689	6063.64
553.053	6054.83
553.417	6095.96
553.78	6176.18
554.143	6169.85
554.507	6247.59
554.87	6266.57
555.234	6413.69
555.597	6386.12
555.96	6368.49
556.323	6417.75
556.686	6426.34
557.05	6505.21
557.413	6577.3
557.776	6576.85
558.139	6671.31
558.502	6665.43
558.865	6761.25
559.228	6808.48
559.59	6831.53
559.953	6856.84
560.316	6991.53
560.679	6968.02
561.041	7127.57
561.404	7128.7
561.767	7231.29
562.129	7193.55
562.492	7304.74
562.854	7257.51
563.217	7371.18
563.579	7409.59
563.941	7532.53
564.304	7637.61
564.666	7678.29
565.028	7779.3
565.39	7816.59
565.753	7904.72
566.115	7995.79
566.477	8013.65
566.839	8038.05
567.201	8125.05
567.563	8232.62
567.925	8339.74
568.287	8336.35
568.648	8418.15
569.01	8522.11
569.372	8584.7
569.734	8597.81
570.095	8734.08
570.457	8773.63
570.819	8932.94
571.18	8895.43
571.542	9074.41
571.903	9174.52
572.265	9208.42
572.626	9336.77
572.987	9391.24
573.349	9557.56
573.71	9567.5
574.071	9647.5
574.432	9831.9
574.794	10002.29
575.155	9958
575.516	10059.47
575.877	10157.54
576.238	10313.47
576.599	10399.8
576.96	10547.14
577.32	10641.15
577.681	10740.13
578.042	10883.17
578.403	10950.97
578.763	11177.63
579.124	11260.57
579.485	11369.72
579.845	11536.49
580.206	11632.31
580.566	11785.52
580.927	11926.54
581.287	12125.4
581.648	12208.56
582.008	12447.43
582.368	12596.12
582.728	12767.42
583.089	12894.42
583.449	13094.87
583.809	13299.61
584.169	13514.74
584.529	13699.82
584.889	13972.36
585.249	14112.47
585.609	14299.58
585.969	14630.19
586.329	14846.69
586.688	14953.58
587.048	15256.39
587.408	15541.36
587.768	15676.72
588.127	16015.02
588.487	16280.09
588.846	16508.79
589.206	16842.79
589.565	17124.37
589.925	17447.3
590.284	17626.73
590.643	18024.46
591.003	18351.45
591.362	18714.61
591.721	18919.8
592.08	19298.55
592.44	19690.85
592.799	19971.52
593.158	20240.89
593.517	20613.99
593.876	21041.78
594.235	21283.58
594.593	21692.83
594.952	22117.46
595.311	22414.62
595.67	22854.38
596.029	23305.67
596.387	23829.5
596.746	24152.43
597.104	24374.57
597.463	24847.1
597.822	25398.72
598.18	25499.06
598.538	25997.58
598.897	26525.47
599.255	26704.23
599.613	27424.66
599.972	27561.83
600.33	28061.48
600.688	28263.51
601.046	28921.57
601.404	29409.01
601.762	29586.86
602.12	30288.31
602.478	30699.6
602.836	30936.88
603.194	31172.13
603.552	31714.26
603.91	31951.09
604.268	32439.9
604.625	32842.82
604.983	33324.17
605.341	33455.01
605.698	34036.69
606.056	34410.24
606.413	34654.07
606.771	35121.63
607.128	35492.47
607.485	35581.51
607.843	35960.93
608.2	36449.06
608.557	36920.46
608.914	37054.92
609.272	37531.74
609.629	37824.39
609.986	38243.36
610.343	38279.29
610.7	38817.36
611.057	39150.68
611.414	39284.69
611.771	39535.08
612.127	39935.07
612.484	40120.37
612.841	40514.49
613.198	40666.35
613.554	40880.35
613.911	41205.99
614.267	41393.56
614.624	41505.42
614.98	41810.04
615.337	42338.62
615.693	42288.9
616.05	42521.89
616.406	42933.18
616.762	42980.18
617.118	43022.22
617.475	43276.45
617.831	43634.18
618.187	43878.01
618.543	43928.63
618.899	44297.66
619.255	44454.04
619.611	44511.67
619.967	44665.11
620.323	44833.47
620.678	44979
621.034	45054.03
621.39	45089.51
621.746	45281.82
622.101	45680.45
622.457	45537.63
622.812	45806.78
623.168	45908.69
623.523	45931.52
623.879	46139.2
624.234	46094.68
624.589	46251.96
624.945	46385.52
625.3	46363.6
625.655	46527.89
626.01	46736.02
626.365	46717.26
626.72	46809.01
627.075	46933.53
627.43	46893.53
627.785	46957.71
628.14	47039.29
628.495	47328.77
628.85	47134.2
629.205	47208.32
629.559	47385.72
629.914	47315.21
630.269	47384.59
630.623	47319.05
630.978	47354.98
631.332	47437.92
631.687	47632.26
632.041	47581.64
632.396	47665.94
632.75	47519.05
633.104	47576.45
633.459	47439.73
633.813	47612.38
634.167	47587.52
634.521	47629.78
634.875	47711.58
635.229	47572.83
635.583	47472.04
635.937	47562.44
636.291	47637.46
636.645	47746.16
636.999	47634.75
637.352	47655.99
637.706	47499.39
638.06	47669.1
638.413	47577.12
638.767	47527.18
639.121	47813.73
639.474	47519.95
639.828	47688.76
640.181	47561.31
640.534	47780.96
640.888	47634.98
641.241	47450.12
641.594	47616.9
641.947	47667.97
642.301	47586.16
642.654	47718.59
643.007	47626.84
643.36	47632.94
643.713	47555.2
644.066	47827.74
644.419	47524.7
644.771	47201.77
645.124	46713.19
645.477	46787.77
645.83	46599.75
646.182	46460.32
646.535	46484.72
646.888	46626.42
647.24	46422.35
647.593	46637.04
647.945	46520.88
648.298	46383.48
648.65	46403.14
649.002	46314.56
649.355	46572.18
649.707	46283.37
650.059	46633.19
650.411	46963.58
650.763	47105.05
651.115	47461.87
651.467	47332.16
651.819	47419.84
652.171	47315.89
652.523	47315.66
652.875	47307.98
653.227	47162.22
653.578	47402.44
653.93	47376.45
654.282	47094.88
654.633	47174.2
654.985	47298.49
655.337	47239.73
655.688	47213.29
656.039	47272.27
656.391	46988.21
656.742	47244.03
657.094	47175.78
657.445	47353.63
657.796	47258.72
658.147	47135.78
658.498	47154.76
658.849	47253.52
659.2	47004.94
659.551	46967.42
659.902	47112.73
660.253	47094.43
660.604	47120.64
660.955	46920.64
661.306	47035.44
661.656	46958.84
662.007	47150.24
662.358	47109.11
662.708	47046.07
663.059	47027.53
663.409	46909.57
663.76	47160.19
664.11	47232.28
664.461	47274.08
664.811	47178.49
665.161	47111.15
665.511	47055.56
665.862	47111.6
666.212	47128.55
666.562	47154.99
666.912	46934.43
667.262	47116.12
667.612	47116.57
667.962	47063.01
668.312	46920.64
668.662	47107.31
669.011	47102.56
669.361	47096.01
669.711	47110.02
670.06	47039.51
670.41	46958.61
670.76	46755.45
671.109	46947.54
671.459	46884.71
671.808	46882.23
672.157	46997.7
672.507	46657.83
672.856	46724.04
673.205	46757.71
673.554	46861.44
673.904	46788.44
674.253	47009.23
674.602	46770.59
674.951	46312.98
675.3	46019.88
675.649	46664.61
675.998	46625.29
676.346	46620.31
676.695	46724.27
677.044	46471.39
677.393	46544.16
677.741	46525.85
678.09	46487.21
678.438	46400.66
678.787	46462.58
679.135	46503.25
679.484	46279.53
679.832	46431.62
680.181	46290.6
680.529	46295.58
680.877	46189.82
681.225	46119.08
681.573	46401.11
681.922	45945.98
682.27	46050.61
682.618	45987.34
682.966	45942.14
683.314	45923.38
683.661	45769.94
684.009	45622.37
684.357	45526.78
684.705	45549.61
685.053	45544.18
685.4	45422.83
685.748	45277.75
686.095	45315.49
686.443	45178.77
686.79	45204.76
687.138	45135.83
687.485	45071.88
687.832	45038.89
688.18	45063.29
688.527	44894.03
688.874	44774.03
689.221	44773.13
689.568	44621.72
689.915	44545.34
690.262	44580.59
690.609	44357.32
690.956	44235.74
691.303	44207.95
691.65	43951.91
691.997	44037.33
692.344	43903.1
692.69	43892.93
693.037	43999.14
693.383	43493.16
693.73	43685.02
694.077	43392.15
694.423	43371.59
694.769	43269.44
695.116	43221.53
695.462	43148.99
695.808	42974.76
696.155	43004.59
696.501	42880.98
696.847	42850.7
697.193	42514.21
697.539	42636.46
697.885	42239.19
698.231	42272.63
698.577	42166.87
698.923	42208.23
699.269	41940.44
699.614	41789.03
699.96	41826.77
700.306	41735.47
700.651	41616.15
700.997	41556.72
701.342	41394.01
701.688	41311.3
702.033	41267.46
702.379	41120.35
702.724	40999.22
703.069	41145.2
703.415	40746.34
703.76	40642.39
704.105	40740.02
704.45	40680.13
704.795	40312.91
705.14	40332.34
705.485	40391.55
705.83	40147.72
706.175	40106.36
706.52	40009.41
706.865	39927.83
707.209	40057.55
707.554	39816.65
707.899	39792.92
708.243	39743.66
708.588	39734.17
708.932	39395.64
709.277	39410.56
709.621	39440.62
709.966	39047.18
710.31	39203.56
710.654	38945.94
710.998	39110
711.342	39039.95
711.687	38804.47
712.031	38648.55
712.375	38614.87
712.719	38588.66
713.063	38552.73
713.407	38844.7
713.75	38507.76
714.094	38575.33
714.438	38310.48
714.782	38397.48
715.125	38107.54
715.469	38324.03
715.812	37943.48
716.156	37844.5
716.499	37950.03
716.843	37917.04
717.186	37640.66
717.53	37865.06
717.873	37762.02
718.216	37646.99
718.559	37425.3
718.902	37290.16
719.246	37423.49
719.589	37296.04
719.932	37229.37
720.275	37122.26
720.617	37178.53
720.96	37170.62
721.303	37098.53
721.646	37092.65
721.989	36859.89
722.331	36957.52
722.674	36852.21
723.016	36851.76
723.359	36722.27
723.701	36827.35
724.044	36558.66
724.386	36351.66
724.729	36573.8
725.071	36470.75
725.413	36273.69
725.755	36299.91
726.097	36120.02
726.439	35921.61
726.782	36134.71
727.124	36284.09
727.465	35955.74
727.807	35995.06
728.149	35909.86
728.491	35915.74
728.833	35915.51
729.175	35783.31
729.516	35475.3
729.858	35585.35
730.199	35649.98
730.541	35696.99
730.882	35516.42
731.224	35596.2
731.565	35355.07
731.906	35504.45
732.248	35458.35
732.589	35295.41
732.93	35132.71
733.271	35042.99
733.612	35114.85
733.953	35111.69
734.294	35079.37
734.635	34947.17
734.976	35031.92
735.317	34898.36
735.658	34872.15
735.999	34813.17
736.339	34600.06
736.68	34794.86
737.021	34604.36
737.361	34525.26
737.702	34735.65
738.042	34500.86
738.383	34464.25
738.723	34490.69
739.063	34392.39
739.404	34378.83
739.744	34324.82
740.084	34304.03
740.424	34355.33
740.764	34252.05
741.104	34257.7
741.444	34026.75
741.784	33953.53
742.124	34135.9
742.464	34047.99
742.804	34004.15
743.143	33852.51
743.483	33900.87
743.823	33710.14
744.162	33616.14
744.502	33650.49
744.841	33650.26
745.181	33716.92
745.52	33494.11
745.86	33621.11
746.199	33367.55
746.538	33541.11
746.877	33448.91
747.216	33513.09
747.556	33313.09
747.895	33327.33
748.234	33194.9
748.573	33208.24
748.911	33171.4
749.25	33212.3
749.589	32989.94
749.928	33091.86
750.267	33039.88
750.605	32934.12
750.944	32871.52
751.283	32706.1
751.621	32785.42
751.96	32613.22
752.298	32684.41
752.636	32709.95
752.975	32436.51
753.313	32407.81
753.651	32529.61
753.989	32282.39
754.327	32308.15
754.666	32143.18
755.004	32139.79
755.342	32179.79
755.679	32105.67
756.017	31819.57
756.355	31913.13
756.693	31847.82
757.031	31825.45
757.368	31665.45
757.706	31643.53
758.044	31528.73
758.381	31473.14
758.719	31306.37
759.056	31523.08
759.394	31379.13
759.731	31059.37
760.068	31035.41
760.405	31016.88
760.743	30865.47
761.08	31006.94
761.417	30685.14
761.754	30811.01
762.091	30596.1
762.428	30486.05
762.765	30437.01
763.102	30533.28
763.438	30483.79
763.775	30150.46
764.112	30132.16
764.449	30109.34
764.785	29952.96
765.122	29721.1
765.458	29788.21
765.795	29654.88
766.131	29682.68
766.467	29558.16
766.804	29442.69
767.14	29276.14
767.476	29234.33
767.812	29244.05
768.148	29116.37
768.485	28954.56
768.821	28941.46
769.157	28770.84
769.492	28733.1
769.828	28697.17
770.164	28354.58
770.5	28508.02
770.836	28476.84
771.171	28175.37
771.507	28068.49
771.842	27893.57
772.178	27977.41
772.513	27925.66
772.849	27811.77
773.184	27752.11
773.519	27715.27
773.855	27555.28
774.19	27438.45
774.525	27312.35
774.86	27353.02
775.195	27324.55
775.53	27047.95
775.865	27080.71
776.2	26811.12
776.535	26739.71
776.87	26659.93
777.205	26561.63
777.539	26407.74
777.874	26461.97
778.209	26342.88
778.543	26178.37
778.878	26088.88
779.212	26150.8
779.547	26028.54
779.881	25930.01
780.215	25764.14
780.55	25766.17
780.884	25752.61
781.218	25743.12
781.552	25504.26
781.886	25377.93
782.22	25263.59
782.554	25301.33
782.888	24972.3
783.222	24926.42
783.556	24832.19
783.889	24772.53
784.223	24617.05
784.557	24593.1
784.89	24615.02
785.224	24376.6
785.557	24311.07
785.891	24200.56
786.224	24182.49
786.558	24142.94
786.891	23883.74
787.224	23886.9
787.557	23881.48
787.891	23809.61
788.224	23761.25
788.557	23672.22
788.89	23544.31
789.223	23635.38
789.556	23392.22
789.888	23286.92
790.221	23074.72
790.554	23090.76
790.887	23073.59
791.219	23031.1
791.552	22904.78
791.884	22936.19
792.217	22732.58
792.549	22778
792.882	22597.67
793.214	22505.02
793.546	22491.23
793.879	22350.44
794.211	22241.52
794.543	22137.12
794.875	22106.61
795.207	22374.4
795.539	22023.67
795.871	22049.43
796.203	21884.47
796.535	21745.94
796.867	21868.87
797.198	21691.25
797.53	21626.62
797.862	21592.05
798.193	21649.9
798.525	21411.03
798.856	21472.05
799.188	21171.72
799.519	21190.93
799.85	21044.94
800.182	21122.45
800.513	21076.58
800.844	20840.65
801.175	20987.77
801.506	20882.91
801.837	20823.03
802.168	20705.06
802.499	20661.9
802.83	20554.78
803.161	20407.67
803.491	20496.93
803.822	20380.55
804.153	20284.73
804.483	20249.93
804.814	20129.03
805.145	20211.06
805.475	20169.03
805.805	20059.88
806.136	20073.67
806.466	19977.17
806.796	19993.9
807.126	19777.4
807.457	19691.08
807.787	19798.65
808.117	19665.32
808.447	19704.19
808.777	19637.97
809.107	19528.82
809.436	19430.97
809.766	19478.2
810.096	19458.99
810.426	19303.29
810.755	19284.31
811.085	19253.35
811.414	19113.47
811.744	19065.78
812.073	19006.12
812.403	19116.63
812.732	18881.16
813.061	18890.2
813.39	18871.66
813.719	18653.59
814.049	18824.21
814.378	18780.14
814.707	18669.64
815.036	18664.21
815.365	18547.15
815.693	18403.88
816.022	18327.72
816.351	18262.42
816.68	18225.58
817.008	18283.88
817.337	18164.11
817.665	18102.65
817.994	18154.85
818.322	18197.33
818.651	18096.09
818.979	17929.09
819.307	18155.75
819.636	17989.43
819.964	17835.99
820.292	17962.99
820.62	17877.34
820.948	17859.04
821.276	17900.39
821.604	17894.29
821.932	17907.4
822.259	17968.19
822.587	17827.85
822.915	17766.61
823.243	17760.06
823.57	17757.57
823.898	17801.64
824.225	17678.93
824.553	17807.06
824.88	17818.59
825.207	17783.11
825.535	17770.9
825.862	17865.36
826.189	17704.92
826.516	17737.23
826.843	17802.31
827.17	17680.74
827.497	17819.26
827.824	17866.95
828.151	17771.58
828.478	17725.71
828.805	17843.67
829.131	17676.67
829.458	17688.42
829.785	17621.53
830.111	17718.93
830.438	17782.2
830.764	17726.61
831.09	17803.44
831.417	17617.23
831.743	17651.13
832.069	17693.16
832.395	17495.2
832.722	17657.23
833.048	17624.47
833.374	17621.98
833.7	17572.94
834.026	17520.97
834.351	17646.61
834.677	17581.53
835.003	17620.62
835.329	17614.3
835.654	17588.53
835.98	17400.74
836.306	17449.33
836.631	17389.9
836.956	17420.63
837.282	17390.35
837.607	17267.87
837.932	17417.92
838.258	17259.96
838.583	17358.94
838.908	17165.95
839.233	17215.66
839.558	17163.69
839.883	17076.23
840.208	17123.01
840.533	17083.92
840.858	17095.67
841.182	17019.96
841.507	16999.85
841.832	16918.72
842.156	16963.24
842.481	16899.51
842.805	16826.29
843.13	16838.5
843.454	16716.24
843.778	16691.16
844.103	16694.09
844.427	16665.85
844.751	16677.37
845.075	16585.17
845.399	16481.9
845.723	16473.76
846.047	16450.26
846.371	16257.5
846.695	16361
847.019	16111.29
847.343	16116.93
847.666	16016.37
847.99	16060.89
848.313	16061.34
848.637	15941.12
848.96	15951.29
849.284	15712.2
849.607	15637.4
849.931	15629.04
850.254	15580
850.577	15496.16
850.9	15350.4
851.223	15365.54
851.546	15293.23
851.869	15265.21
852.192	15292.1
852.515	15123.06
852.838	15070.86
853.161	14988.6
853.483	14978.66
853.806	14984.54
854.129	14909.28
854.451	14936.4
854.774	14737.31
855.096	14716.07
855.419	14712.68
855.741	14644.21
856.063	14582.29
856.385	14568.28
856.708	14477.2
857.03	14466.81
857.352	14437.66
857.674	14436.3
857.996	14430.88
858.318	14269.98
858.64	14293.25
858.961	14151.11
859.283	14182.3
859.605	14124.9
859.926	14132.81
860.248	14111.34
860.57	14057.1
860.891	13970.1
861.212	13939.59
861.534	13952.25
861.855	13901.85
862.176	13852.81
862.498	13856.66
862.819	13843.1
863.14	13799.26
863.461	13701.41
863.782	13625.48
864.103	13701.86
864.424	13668.64
864.745	13711.8
865.065	13687.39
865.386	13684.91
865.707	13591.58
866.027	13651.46
866.348	13486.5
866.668	13485.82
866.989	13405.82
867.309	13361.75
867.63	13438.59
867.95	13406.95
868.27	13358.14
868.59	13396.55
868.91	13389.32
869.23	13342.32
869.55	13173.51
869.87	13255.54
870.19	13283.34
870.51	13260.74
870.83	13241.76
871.15	13073.63
871.469	13198.82
871.789	13191.81
872.109	13137.58
872.428	12950.01
872.748	13091.48
873.067	13038.82
873.386	13067.52
873.706	13022.78
874.025	13003.57
874.344	12943.69
874.663	12958.37
874.982	12877.02
875.301	12980.75
875.62	12876.34
875.939	12817.13
876.258	12885.83
876.577	12849
876.896	12802.22
877.214	12808.32
877.533	12734.43
877.852	12794.31
878.17	12786.85
878.489	12716.35
878.807	12667.76
879.125	12607.65
879.444	12590.47
879.762	12581.21
880.08	12598.16
880.398	12498.95
880.716	12530.14
881.034	12578.95
881.352	12481.78
881.67	12430.93
881.988	12441.55
882.306	12468.22
882.624	12424.15
882.941	12413.76
883.259	12282.46
883.577	12280.43
883.894	12318.62
884.212	12284.49
884.529	12218.05
884.846	12214.44
885.164	12231.16
885.481	12159.52
885.798	12169.02
886.115	12034.1
886.432	12118.17
886.75	11893.54
887.067	12055.12
887.383	11983.94
887.7	11980.09
888.017	11907.55
888.334	11849.48
888.651	11837.5
888.967	11821.91
889.284	11726.09
889.6	11706.66
889.917	11686.99
890.233	11702.14
890.55	11645.19
890.866	11580.33
891.182	11589.37
891.498	11485.19
891.815	11447.91
892.131	11476.61
892.447	11541.46
892.763	11504.4
893.079	11378.08
893.395	11320
893.71	11354.8
894.026	11290.17
894.342	11274.12
894.657	11154.58
894.973	11121.13
895.289	11129.72
895.604	11115.26
895.92	11089.04
896.235	10995.26
896.55	11005.43
896.865	10916.85
897.181	10934.25
897.496	10882.27
897.811	10851.54
898.126	10785.78
898.441	10718.66
898.756	10731.77
899.071	10730.18
899.386	10723.86
899.7	10526.12
900.015	10548.72
900.33	10448.38
900.644	10423.98
900.959	10499.23
901.273	10374.94
901.588	10373.81
901.902	10321.38
902.216	10333.81
902.531	10249.97
902.845	10267.15
903.159	10222.63
903.473	10168.62
903.787	10036.64
904.101	10073.25
904.415	10017.89
904.729	10076.64
905.042	9994.84
905.356	9974.72
905.67	9983.31
905.984	9906.48
906.297	9900.38
906.611	9762.75
906.924	9772.92
907.237	9736.31
907.551	9694.05
907.864	9675.75
908.177	9588.52
908.491	9638.91
908.804	9521.63
909.117	9447.28
909.43	9410.22
909.743	9424.23
910.056	9395.3
910.368	9356.89
910.681	9332.48
910.994	9325.48
911.307	9203.44
911.619	9135.2
911.932	9189.89
912.244	9080.06
912.557	9075.99
912.869	9044.35
913.181	9013.17
913.494	9039.61
913.806	8930.91
914.118	8833.96
914.43	8872.83
914.742	8810.01
915.054	8810.46
915.366	8689.79
915.678	8808.65
915.99	8697.24
916.302	8634.65
916.613	8597.81
916.925	8556.91
917.236	8472.39
917.548	8490.47
917.859	8469.9
918.171	8473.52
918.482	8399.85
918.794	8289.34
919.105	8275.79
919.416	8266.75
919.727	8222.45
920.038	8236.92
920.349	8199.18
920.66	8142.46
920.971	8151.72
921.282	8100.87
921.593	8012.97
921.903	7973.42
922.214	7985.17
922.525	7888.9
922.835	7880.09
923.146	7909.69
923.456	7758.96
923.767	7796.02
924.077	7827.44
924.387	7758.51
924.697	7669.47
925.008	7598.06
925.318	7615.69
925.628	7605.29
925.938	7597.16
926.248	7548.8
926.558	7477.16
926.867	7445.98
927.177	7442.59
927.487	7337.5
927.796	7308.35
928.106	7372.98
928.416	7332.76
928.725	7274.91
929.034	7243.04
929.344	7234.23
929.653	7193.55
929.962	7105.65
930.271	7054.8
930.581	7105.19
930.89	7041.92
931.199	6980.45
931.508	6959.21
931.817	6984.75
932.125	6926.67
932.434	6915.37
932.743	6831.3
933.051	6805.09
933.36	6814.35
933.669	6741.59
933.977	6740.91
934.286	6688.03
934.594	6632.66
934.902	6641.93
935.21	6620.46
935.519	6621.59
935.827	6573.46
936.135	6482.39
936.443	6448.49
936.751	6444.42
937.059	6429.05
937.367	6370.07
937.674	6412.78
937.982	6366.91
938.29	6316.97
938.597	6361.94
938.905	6331.88
939.213	6282.17
939.52	6230.87
939.827	6200.36
940.135	6114.71
940.442	6097.09
940.749	6101.38
941.056	6144.09
941.363	6081.49
941.67	6080.14
941.977	6019.8
942.284	5954.72
942.591	5922.17
942.898	5916.3
943.205	5917.43
943.511	5920.82
943.818	5856.41
944.125	5822.29
944.431	5784.55
944.738	5794.27
945.044	5718.34
945.35	5698.45
945.657	5725.12
945.963	5650.77
946.269	5582.52
946.575	5643.99
946.881	5604.44
947.187	5648.06
947.493	5583.43
947.799	5555.4
948.105	5482.86
948.41	5436.54
948.716	5514.28
949.022	5435.86
949.327	5429.08
949.633	5405.35
949.938	5408.29
950.244	5361.96
950.549	5269.99
950.854	5300.27
951.16	5263.21
951.465	5226.6
951.77	5225.47
952.075	5164.68
952.38	5168.07
952.685	5176.43
952.99	5113.16
953.294	5136.66
953.599	5085.59
953.904	5099.37
954.209	4991.35
954.513	5069.77
954.818	5034.97
955.122	5011.24
955.426	4932.6
955.731	4941.64
956.035	4931.92
956.339	4871.58
956.643	4895.08
956.948	4845.59
957.252	4855.08
957.556	4838.59
957.86	4747.06
958.163	4742.77
958.467	4747.52
958.771	4715.65
959.075	4691.92
959.378	4695.09
959.682	4668.2
959.985	4645.37
960.289	4603.11
960.592	4611.47
960.896	4575.32
961.199	4557.92
961.502	4546.39
961.805	4511.82
962.108	4496.68
962.411	4434.76
962.714	4421.2
963.017	4440.86
963.32	4451.25
963.623	4383.01
963.926	4385.04
964.228	4377.58
964.531	4323.35
964.833	4333.97
965.136	4281.99
965.438	4264.37
965.741	4293.74
966.043	4280.41
966.345	4226.63
966.648	4227.53
966.95	4214.65
967.252	4176.23
967.554	4157.02
967.856	4148.44
968.158	4139.85
968.46	4056.91
968.761	4062.34
969.063	4055.78
969.365	4058.27
969.666	4038.38
969.968	4039.74
970.269	4004.49
970.571	3971.49
970.872	3965.39
971.174	3942.34
971.475	3911.15
971.776	3885.17
972.077	3884.71
972.378	3868.22
972.679	3867.99
972.98	3811.5
973.281	3826.86
973.582	3832.29
973.883	3726.07
974.183	3780.08
974.484	3722.46
974.785	3733.76
975.085	3720.65
975.386	3734.21
975.686	3702.8
975.986	3677.04
976.287	3664.83
976.587	3616.25
976.887	3638.62
977.187	3625.06
977.487	3601.33
977.787	3566.53
978.087	3563.82
978.387	3575.57
978.687	3553.88
978.987	3497.61
979.286	3484.05
979.586	3459.64
979.885	3469.36
980.185	3466.87
980.484	3404.5
980.784	3383.94
981.083	3420.32
981.382	3403.14
981.682	3376.7
981.981	3346.65
982.28	3327.44
982.579	3318.85
982.878	3316.14
983.177	3293.54
983.475	3259.87
983.774	3245.86
984.073	3237.27
984.372	3220.78
984.67	3226.65
984.969	3177.61
985.267	3232.75
985.566	3154.34
985.864	3078.86
986.162	3161.12
986.461	3177.39
986.759	3091.29
987.057	3110.27
987.355	3086.77
987.653	3057.84
987.951	3060.1
988.249	3020.33
988.547	3004.06
988.844	3015.58
989.142	3003.61
989.44	2983.04
989.737	2957.06
990.035	2967.22
990.332	2935.59
990.63	2949.6
990.927	2902.14
991.224	2865.98
991.521	2893.33
991.819	2917.96
992.116	2857.62
992.413	2853.78
992.71	2844.74
993.006	2834.57
993.303	2779.66
993.6	2807.68
993.897	2771.52
994.193	2790.73
994.49	2741.02
994.787	2729.26
995.083	2742.37
995.379	2719.1
995.676	2680.9
995.972	2718.19
996.268	2700.11
996.565	2663.5
996.861	2664.63
997.157	2633.67
997.453	2638.42
997.749	2630.74
998.044	2577.18
998.34	2585.54
998.636	2575.37
998.932	2571.75
999.227	2547.57
999.523	2545.77
999.818	2508.25
1000.114	2499.21
1000.409	2484.98
1000.704	2478.2
1001	2421.25
1001.295	2423.96
1001.59	2430.06
1001.885	2423.96
1002.18	2409.72
1002.475	2419.44
1002.77	2370.86
1003.065	2380.12
1003.359	2382.83
1003.654	2381.25
1003.949	2335.38
1004.243	2301.25
1004.538	2302.16
1004.832	2333.34
1005.127	2275.72
1005.421	2258.77
1005.715	2252.44
1006.009	2245.44
1006.304	2229.62
1006.598	2190.52
1006.892	2192.1
1007.186	2175.83
1007.48	2175.83
1007.773	2174.25
1008.067	2172.22
1008.361	2140.81
1008.655	2141.03
1008.948	2092.22
1009.242	2121.6
1009.535	2114.37
1009.829	2082.05
1010.122	2067.59
1010.415	2058.55
1010.708	2048.38
1011.001	2040.92
1011.295	2014.03
1011.588	2017.64
1011.881	1979.45
1012.173	1985.78
1012.466	1977.65
1012.759	1947.14
1013.052	1926.12
1013.344	1948.72
1013.637	1925.67
1013.93	1904.65
1014.222	1924.09
1014.514	1887.25
1014.807	1892.9
1015.099	1885.22
1015.391	1840.25
1015.683	1820.14
1015.976	1819.46
1016.268	1799.35
1016.56	1799.8
1016.851	1818.78
1017.143	1788.5
1017.435	1783.3
1017.727	1774.94
1018.018	1741.27
1018.31	1727.71
1018.602	1741.49
1018.893	1710.76
1019.185	1689.52
1019.476	1709.18
1019.767	1689.29
1020.058	1673.25
1020.35	1650.65
1020.641	1631.67
1020.932	1630.08
1021.223	1623.76
1021.514	1615.17
1021.804	1576.3
1022.095	1588.05
1022.386	1560.26
1022.677	1568.84
1022.967	1564.55
1023.258	1543.08
1023.548	1537.43
1023.839	1533.14
1024.129	1532.91
1024.419	1526.81
1024.709	1512.12
1025	1511.67
1025.29	1482.07
1025.58	1490.2
1025.87	1468.51
1026.16	1425.12
1026.449	1438
1026.739	1427.83
1027.029	1402.97
1027.319	1398.45
1027.608	1395.74
1027.898	1405.23
1028.187	1372.92
1028.477	1379.24
1028.766	1362.75
1029.055	1320.71
1029.344	1343.54
1029.634	1328.62
1029.923	1302.64
1030.212	1315.74
1030.501	1311.67
1030.79	1314.84
1031.078	1284.1
1031.367	1288.85
1031.656	1259.02
1031.945	1253.82
1032.233	1229.42
1032.522	1230.09
1032.81	1218.12
1033.099	1236.42
1033.387	1239.13
1033.675	1223.09
1033.963	1207.95
1034.251	1175.86
1034.54	1187.84
1034.828	1171.57
1035.116	1169.53
1035.403	1174.73
1035.691	1151
1035.979	1157.1
1036.267	1136.54
1036.554	1129.98
1036.842	1105.58
1037.129	1092.25
1037.417	1095.41
1037.704	1098.8
1037.992	1096.99
1038.279	1093.6
1038.566	1069.42
1038.853	1069.42
1039.14	1069.42
