Data from red_shiny_book_FLMS001491_00038.txt Node
Date: Wed Feb 08 15:24:47 GMT 2017
User: dcchb
Spectrometer: FLMS00149
Trigger mode: 0
Integration Time (sec): 2.000000E-2
Scans to average: 10
Electric dark correction enabled: true
Nonlinearity correction enabled: false
Boxcar width: 0
XAxis mode: Wavelengths
Number of Pixels in Spectrum: 2048
>>>>>Begin Spectral Data<<<<<
341.393	-15.52
341.776	-15.52
342.16	-15.52
342.543	-57.1
342.927	-53.04
343.31	-67.5
343.693	-74.05
344.077	-67.5
344.46	-71.11
344.843	-75.18
345.226	-42.41
345.61	-22.3
345.993	-19.36
346.376	0.97
346.759	11.6
347.142	37.13
347.525	42.78
347.908	66.06
348.291	79.39
348.674	90.92
349.057	110.58
349.44	130.24
349.823	141.99
350.206	148.09
350.588	179.27
350.971	207.07
351.354	216.34
351.737	257.24
352.119	267.86
352.502	276.67
352.884	285.26
353.267	289.55
353.65	294.98
354.032	292.04
354.414	319.84
354.797	330.01
355.179	300.18
355.562	328.2
355.944	331.59
356.326	342.43
356.709	327.97
357.091	351.47
357.473	352.83
357.855	339.72
358.238	358.48
358.62	341.76
359.002	337.91
359.384	334.98
359.766	365.71
360.148	325.71
360.53	343.79
360.912	344.69
361.294	331.36
361.676	326.84
362.057	343.34
362.439	332.27
362.821	332.72
363.203	330.68
363.584	325.03
363.966	323
364.348	338.37
364.729	318.93
365.111	335.2
365.493	311.02
365.874	328.2
366.256	318.71
366.637	299.95
367.019	332.04
367.4	354.41
367.781	297.46
368.163	332.27
368.544	291.14
368.925	336.56
369.306	323
369.688	327.52
370.069	314.86
370.45	325.49
370.831	316.9
371.212	311.93
371.593	307.86
371.974	307.41
372.355	322.55
372.736	302.44
373.117	329.33
373.498	305.6
373.879	319.84
374.26	325.26
374.641	317.58
375.021	331.14
375.402	315.32
375.783	337.24
376.163	322.55
376.544	344.24
376.925	335.43
377.305	325.71
377.686	330.68
378.066	332.04
378.447	339.95
378.827	344.24
379.208	330.23
379.588	343.34
379.968	349.44
380.349	317.35
380.729	356.9
381.109	331.36
381.489	342.89
381.87	338.37
382.25	326.16
382.63	335.43
383.01	354.19
383.39	349.44
383.77	335.43
384.15	328.42
384.53	342.21
384.91	347.63
385.29	357.12
385.67	377.91
386.049	352.6
386.429	325.71
386.809	341.53
387.189	343.56
387.568	347.18
387.948	367.74
388.328	370
388.707	350.12
389.087	372.49
389.466	356.22
389.846	367.74
390.225	386.95
390.605	375.88
390.984	375.43
391.363	378.37
391.743	366.84
392.122	362.09
392.501	373.39
392.881	377.46
393.26	364.35
393.639	384.02
394.018	376.11
394.397	379.72
394.776	389.44
395.155	378.14
395.534	378.82
395.913	376.78
396.292	370.23
396.671	384.92
397.05	374.07
397.429	389.89
397.808	374.52
398.186	374.3
398.565	408.65
398.944	370.46
399.323	396.9
399.701	395.54
400.08	398.7
400.458	379.04
400.837	393.73
401.215	396.22
401.594	374.3
401.972	417.01
402.351	424.01
402.729	374.3
403.107	396.44
403.486	403
403.864	391.92
404.242	410
404.62	447.74
404.999	404.81
405.377	423.11
405.755	416.1
406.133	424.92
406.511	427.86
406.889	423.79
407.267	401.87
407.645	405.94
408.023	433.51
408.401	432.38
408.779	418.82
409.156	458.36
409.534	466.73
409.912	448.65
410.29	431.92
410.667	451.36
411.045	471.02
411.422	461.3
411.8	459.04
412.178	465.14
412.555	487.29
412.933	486.84
413.31	497.46
413.687	489.55
414.065	491.81
414.442	472.15
414.819	480.28
415.197	504.46
415.574	482.77
415.951	494.75
416.328	499.27
416.705	508.76
417.082	515.54
417.46	514.41
417.837	536.55
418.214	526.61
418.591	534.07
418.967	545.59
419.344	513.28
419.721	532.03
420.098	541.07
420.475	523.9
420.852	541.3
421.228	556.67
421.605	542.66
421.982	563.22
422.358	557.34
422.735	550.11
423.111	562.54
423.488	560.06
423.864	559.38
424.241	574.97
424.617	577
424.994	582.88
425.37	613.84
425.746	578.81
426.123	586.95
426.499	591.02
426.875	604.12
427.251	614.74
427.627	616.33
428.003	624.46
428.379	620.17
428.756	612.71
429.132	638.92
429.507	640.28
429.883	626.72
430.259	683.22
430.635	658.36
431.011	643.44
431.387	652.93
431.763	685.25
432.138	675.08
432.514	677.34
432.89	648.87
433.265	680.28
433.641	673.95
434.016	686.15
434.392	678.47
434.767	685.93
435.143	696.1
435.518	717.57
435.894	705.14
436.269	697
436.644	716.44
437.02	717.34
437.395	722.76
437.77	734.74
438.145	714.63
438.52	738.58
438.895	760.28
439.271	733.16
439.646	770.22
440.021	786.26
440.395	760.28
440.77	773.38
441.145	751.01
441.52	795.3
441.895	752.37
442.27	799.37
442.645	791.46
443.019	792.59
443.394	809.09
443.769	822.42
444.143	815.64
444.518	809.09
444.892	814.29
445.267	836.66
445.641	852.03
446.016	819.26
446.39	813.16
446.764	822.2
447.139	816.09
447.513	822.2
447.887	834.4
448.262	838.24
448.636	834.4
449.01	872.36
449.384	854.74
449.758	841.4
450.132	845.47
450.506	863.78
450.88	882.99
451.254	866.49
451.628	857.22
452.002	903.78
452.376	853.83
452.75	867.84
453.123	895.41
453.497	886.15
453.871	914.4
454.244	888.18
454.618	903.55
454.992	895.87
455.365	918.46
455.739	937.9
456.112	916.66
456.486	931.57
456.859	941.51
457.232	922.53
457.606	951.23
457.979	955.75
458.352	944
458.725	969.08
459.099	973.15
459.472	973.38
459.845	990.1
460.218	955.98
460.591	977.67
460.964	982.87
461.337	982.87
461.71	1008.63
462.083	1041.4
462.456	1003.89
462.829	1015.41
463.201	1041.85
463.574	1029.65
463.947	1021.51
464.32	1046.37
464.692	1036.88
465.065	1049.53
465.438	1041.4
465.81	1064.22
466.183	1051.12
466.555	1089.08
466.928	1082.3
467.3	1079.59
467.672	1123.66
468.045	1134.28
468.417	1127.72
468.789	1120.72
469.161	1122.3
469.534	1139.7
469.906	1132.92
470.278	1170.89
470.65	1166.82
471.022	1158.46
471.394	1207.27
471.766	1209.53
472.138	1227.38
472.51	1238.46
472.882	1248.4
473.253	1263.77
473.625	1307.61
473.997	1312.8
474.369	1297.44
474.74	1296.99
475.112	1321.62
475.484	1345.57
475.855	1343.54
476.227	1363.65
476.598	1374.27
476.97	1383.76
477.341	1433.03
477.713	1446.13
478.084	1422.41
478.455	1478.68
478.827	1492.46
479.198	1527.94
479.569	1559.13
479.94	1556.41
480.311	1595.28
480.682	1590.54
481.053	1556.64
481.424	1637.77
481.795	1609.97
482.166	1629.63
482.537	1659.46
482.908	1692.46
483.279	1741.72
483.65	1738.1
484.021	1781.27
484.391	1813.81
484.762	1846.12
485.133	1849.51
485.503	1867.82
485.874	1881.15
486.244	1892.22
486.615	1917.31
486.985	1915.27
487.356	1955.5
487.726	1922.28
488.097	2000.7
488.467	2033.46
488.837	2072.11
489.207	2111.43
489.578	2150.52
489.948	2202.05
490.318	2212.22
490.688	2235.04
491.058	2286.34
491.428	2265.77
491.798	2254.02
492.168	2268.71
492.538	2284.08
492.908	2300.12
493.278	2354.36
493.648	2347.35
494.017	2379.44
494.387	2408.82
494.757	2428.71
495.126	2500.57
495.496	2491.3
495.866	2560
496.235	2561.36
496.605	2571.08
496.974	2590.51
497.344	2558.65
497.713	2580.34
498.082	2570.17
498.452	2607.01
498.821	2582.15
499.19	2604.07
499.559	2624.86
499.928	2636.84
500.298	2664.86
500.667	2712.54
501.036	2743.95
501.405	2781.24
501.774	2799.55
502.143	2797.96
502.512	2844.97
502.88	2793.67
503.249	2774.69
503.618	2774.01
503.987	2784.4
504.356	2762.26
504.724	2771.3
505.093	2792.99
505.462	2807.68
505.83	2809.26
506.199	2864.63
506.567	2857.85
506.936	2883.16
507.304	2926.1
507.672	2943.5
508.041	2938.3
508.409	3014
508.777	3016.49
509.145	3014.23
509.514	2952.54
509.882	2934.46
510.25	2958.41
510.618	2948.69
510.986	2904.85
511.354	2928.13
511.722	2940.11
512.09	2939.88
512.458	2974.68
512.826	2991.63
513.193	3061.23
513.561	3050.16
513.929	3069.82
514.297	3110.27
514.664	3134
515.032	3143.26
515.4	3124.06
515.767	3133.77
516.135	3091.06
516.502	3026.21
516.869	3050.16
517.237	3017.84
517.604	3005.19
517.972	3016.71
518.339	3058.75
518.706	3104.85
519.073	3137.84
519.44	3188.69
519.808	3189.59
520.175	3223.26
520.542	3231.62
520.909	3267.78
521.276	3290.15
521.643	3275.46
522.009	3251.96
522.376	3282.02
522.743	3280.66
523.11	3214.22
523.477	3185.75
523.843	3232.75
524.21	3232.3
524.577	3225.97
524.943	3254.67
525.31	3336.48
525.676	3379.19
526.043	3416.03
526.409	3446.53
526.776	3499.41
527.142	3544.84
527.508	3557.27
527.874	3566.76
528.241	3585.97
528.607	3571.95
528.973	3565.63
529.339	3596.36
529.705	3566.98
530.071	3550.71
530.437	3570.6
530.803	3560.43
531.169	3571.28
531.535	3611.73
531.901	3653.76
532.267	3701.67
532.632	3745.51
532.998	3853.3
533.364	3896.69
533.73	3867.99
534.095	3976.92
534.461	3994.77
534.826	4028.89
535.192	4001.32
535.557	3997.71
535.923	3973.75
536.288	3974.66
536.653	4015.11
537.019	3921.1
537.384	3977.37
537.749	4001.32
538.114	3942.57
538.479	4026.63
538.845	4047.2
539.21	4075.22
539.575	4116.12
539.94	4168.77
540.305	4239.73
540.67	4245.38
541.034	4336.45
541.399	4365.38
541.764	4398.6
542.129	4438.15
542.494	4420.75
542.858	4385.04
543.223	4355.21
543.587	4349.56
543.952	4345.27
544.316	4319.51
544.681	4303.91
545.045	4306.17
545.41	4346.17
545.774	4369.45
546.138	4447.64
546.503	4442.89
546.867	4546.17
547.231	4600.4
547.595	4652.15
547.959	4684.24
548.324	4725.82
548.688	4750.68
549.052	4723.56
549.416	4709.1
549.779	4685.15
550.143	4678.37
550.507	4675.88
550.871	4653.96
551.235	4572.38
551.599	4569.67
551.962	4528.77
552.326	4556.33
552.689	4545.04
553.053	4538.48
553.417	4610.12
553.78	4679.27
554.143	4694.18
554.507	4801.3
554.87	4766.95
555.234	4922.88
555.597	4864.58
555.96	4928.08
556.323	4913.61
556.686	4888.53
557.05	4907.96
557.413	4897.12
557.776	4822.09
558.139	4832.03
558.502	4771.24
558.865	4769.21
559.228	4726.5
559.59	4714.97
559.953	4686.5
560.316	4768.98
560.679	4806.05
561.041	4830.9
561.404	4916.55
561.767	4978.02
562.129	4973.73
562.492	5096.89
562.854	5096.43
563.217	5122.65
563.579	5177.34
563.941	5220.05
564.304	5201.97
564.666	5203.1
565.028	5206.49
565.39	5154.51
565.753	5115.42
566.115	5048.53
566.477	5014.4
566.839	5006.49
567.201	4997.68
567.563	4943.44
567.925	5013.27
568.287	5030.9
568.648	5106.6
569.01	5156.77
569.372	5263.44
569.734	5307.73
570.095	5373.49
570.457	5422.75
570.819	5505.46
571.18	5515.18
571.542	5556.08
571.903	5611.45
572.265	5613.71
572.626	5612.13
572.987	5578.23
573.349	5616.65
573.71	5590.88
574.071	5563.54
574.432	5523.54
574.794	5580.49
575.155	5526.03
575.516	5582.75
575.877	5636.98
576.238	5749.3
576.599	5894.6
576.96	5928.28
577.32	6039.91
577.681	6201.94
578.042	6400.58
578.403	6476.96
578.763	6636.05
579.124	6773.45
579.485	6932.32
579.845	6998.08
580.206	7130.28
580.566	7213.44
580.927	7431.97
581.287	7529.59
581.648	7579.08
582.008	7753.31
582.368	7942.01
582.728	8084.83
583.089	8247.99
583.449	8503.35
583.809	8738.37
584.169	9014.97
584.529	9312.82
584.889	9683.66
585.249	9990.32
585.609	10380.81
585.969	10841.37
586.329	11118.87
586.688	11612.19
587.048	12108.23
587.408	12436.13
587.768	12983.23
588.127	13293.51
588.487	13656.21
588.846	14123.09
589.206	14402.18
589.565	14771.21
589.925	15299.1
590.284	15599.89
590.643	15893.44
591.003	16449.13
591.362	16932.05
591.721	17395.77
592.08	17739.27
592.44	18298.8
592.799	19004.09
593.158	19426.9
593.517	19914.58
593.876	20557.95
594.235	20984.83
594.593	21661.65
594.952	22231.35
595.311	22718.8
595.67	23364.65
596.029	23871.76
596.387	24462.93
596.746	24877.61
597.104	25301.1
597.463	25695.21
597.822	26394.4
598.18	26567.96
598.538	27060.6
598.897	27591.89
599.255	27899.22
599.613	28647
599.972	28742.59
600.33	29253.09
600.688	29658.27
601.046	30068.88
601.404	30810.56
601.762	31190.66
602.12	31870.42
602.478	32289.17
602.836	32798.53
603.194	32935.02
603.552	33640.32
603.91	33885.51
604.268	34624.24
604.625	34806.16
604.983	35409.99
605.341	35479.14
605.698	36133.81
606.056	36550.07
606.413	36699.22
606.771	37164.97
607.128	37531.51
607.485	37601.79
607.843	37908.68
608.2	38373.52
608.557	38640.64
608.914	38821.42
609.272	39095.99
609.629	39422.08
609.986	39776.65
610.343	39921.96
610.7	40626.57
611.057	40773.46
611.414	41032.44
611.771	41322.37
612.127	41778.18
612.484	41921.91
612.841	42301.33
613.198	42348.11
613.554	42730.47
613.911	43083.01
614.267	43322.55
614.624	43407.97
614.98	43512.37
615.337	43920.72
615.693	43990.1
616.05	43962.76
616.406	44299.24
616.762	44322.75
617.118	44412.69
617.475	44306.7
617.831	44605.23
618.187	44860.59
618.543	44946.69
618.899	45177.87
619.255	45140.13
619.611	45201.37
619.967	45468.25
620.323	45804.06
620.678	45741.24
621.034	45895.36
621.39	46009.71
621.746	46184.84
622.101	46731.5
622.457	46509.58
622.812	46656.92
623.168	46785.96
623.523	46927.65
623.879	47157.93
624.234	46885.84
624.589	47006.29
624.945	47097.36
625.3	47190.47
625.655	47106.18
626.01	47030.25
626.365	47225.5
626.72	47115.67
627.075	47077.48
627.43	47069.79
627.785	47060.75
628.14	47279.73
628.495	47314.76
628.85	47198.38
629.205	47056.01
629.559	47439.5
629.914	47295.1
630.269	47492.16
630.623	47411.03
630.978	47453.06
631.332	47683.79
631.687	47747.74
632.041	47713.62
632.396	47889.88
632.75	47853.73
633.104	47897.12
633.459	47653.51
633.813	47761.75
634.167	47795.2
634.521	47722.21
634.875	47733.28
635.229	47550.68
635.583	47471.14
635.937	47326.06
636.291	47388.2
636.645	47283.57
636.999	47134.65
637.352	47332.61
637.706	46870.25
638.06	47090.36
638.413	47013.07
638.767	47060.75
639.121	47063.69
639.474	46874.32
639.828	46994.32
640.181	47157.7
640.534	47365.83
640.888	47093.52
641.241	47074.09
641.594	47031.83
641.947	47286.74
642.301	47323.57
642.654	47258.94
643.007	47280.64
643.36	47264.14
643.713	47141.88
644.066	47274.99
644.419	47024.37
644.771	46697.37
645.124	46116.82
645.477	46228.23
645.83	45888.58
646.182	45778.75
646.535	45571.08
646.888	45605.2
647.24	45279.33
647.593	45589.38
647.945	45451.08
648.298	45257.86
648.65	45068.94
649.002	44952.56
649.355	45261.71
649.707	45100.13
650.059	45383.74
650.411	45803.84
650.763	45982.82
651.115	46442.92
651.467	46312.98
651.819	46264.39
652.171	46395.01
652.523	46303.26
652.875	46267.55
653.227	46139.2
653.578	46507.1
653.93	46328.34
654.282	46154.79
654.633	45931.52
654.985	46108.69
655.337	46045.64
655.688	45952.31
656.039	45980.56
656.391	45619.89
656.742	45611.98
657.094	45530.4
657.445	45710.96
657.796	45552.77
658.147	45359.56
658.498	45504.41
658.849	45554.35
659.2	45362.27
659.551	45426.67
659.902	45456.95
660.253	45560.23
660.604	45659.44
660.955	45461.02
661.306	45623.28
661.656	45739.66
662.007	45552.55
662.358	45633.45
662.708	45727.23
663.059	45727.46
663.409	45540.12
663.76	45938.07
664.11	45911.18
664.461	45857.85
664.811	45803.16
665.161	45729.72
665.511	45571.3
665.862	45586.67
666.212	45711.86
666.562	45542.15
666.912	45418.54
667.262	45327.24
667.612	45183.29
667.962	45229.16
668.312	45009.06
668.662	45159.56
669.011	45054.93
669.361	44958.21
669.711	44926.57
670.06	44771.55
670.41	44834.37
670.76	44931.77
671.109	45008.38
671.459	45026.01
671.808	44904.43
672.157	45119.79
672.507	44717.76
672.856	44955.5
673.205	45001.83
673.554	45113.46
673.904	44995.27
674.253	45171.54
674.602	45131.09
674.951	44678.22
675.3	44407.04
675.649	45093.12
675.998	44940.81
676.346	45014.71
676.695	45029.62
677.044	44709.18
677.393	44744.88
677.741	44776.75
678.09	44495.62
678.438	44372.92
678.787	44349.64
679.135	44323.42
679.484	43981.51
679.832	44120.72
680.181	43887.28
680.529	43958.69
680.877	43805.92
681.225	43928.63
681.573	44081.62
681.922	43812.93
682.27	43682.54
682.618	43791.24
682.966	43696.32
683.314	43831.23
683.661	43904
684.009	43556.67
684.357	43642.99
684.705	43706.72
685.053	43839.82
685.4	43700.39
685.748	43492.94
686.095	43652.26
686.443	43424.01
686.79	43433.05
687.138	43465.14
687.485	43390.34
687.832	43192.16
688.18	43268.76
688.527	42914.42
688.874	42924.82
689.221	42776.8
689.568	42502.68
689.915	42347.66
690.262	42249.58
690.609	42198.28
690.956	42049.13
691.303	41894.34
691.65	41594.01
691.997	41755.13
692.344	41543.61
692.69	41330.74
693.037	41447.12
693.383	41072.89
693.73	41305.65
694.077	41046.9
694.423	41154.02
694.769	41123.06
695.116	41101.14
695.462	41066.11
695.808	41026.11
696.155	40953.12
696.501	40798.77
696.847	40907.7
697.193	40675.16
697.539	40735.72
697.885	40539.8
698.231	40394.26
698.577	40281.27
698.923	40277.43
699.269	40125.57
699.614	39993.37
699.96	39808.74
700.306	39874.5
700.651	39484.91
700.997	39405.81
701.342	39399.94
701.688	39214.63
702.033	39008.99
702.379	38992.94
702.724	38800.86
703.069	38715.66
703.415	38366.75
703.76	38387.99
704.105	38339.63
704.45	38283.36
704.795	37951.16
705.14	37961.33
705.485	37926.76
705.83	37776.48
706.175	37848.34
706.52	37725.86
706.865	37713.2
707.209	37705.29
707.554	37761.79
707.899	37767.44
708.243	37617.61
708.588	37614.67
708.932	37541.23
709.277	37508.24
709.621	37479.31
709.966	37220.56
710.31	37289.71
710.654	37065.76
710.998	37026.67
711.342	37143.27
711.687	36896.73
712.031	36808.37
712.375	36634.36
712.719	36758.43
713.063	36530.64
713.407	36451.77
713.75	36144.66
714.094	36233.47
714.438	35953.48
714.782	36057.65
715.125	35846.13
715.469	35857.21
715.812	35533.15
716.156	35471
716.499	35292.93
716.843	35376.32
717.186	35251.8
717.53	35435.3
717.873	35254.96
718.216	35246.6
718.559	35191.01
718.902	34965.48
719.246	35134.06
719.589	34923.45
719.932	34868.31
720.275	34992.14
720.617	34924.58
720.96	34958.7
721.303	35007.51
721.646	34965.25
721.989	34795.31
722.331	34962.09
722.674	34884.13
723.016	34795.09
723.359	34686.39
723.701	34751.25
724.044	34376.79
724.386	34309.68
724.729	34414.53
725.071	34347.64
725.413	34207.76
725.755	34086.18
726.097	34156.23
726.439	33762.57
726.782	33862.23
727.124	33871.27
727.465	33626.76
727.807	33452.3
728.149	33464.28
728.491	33316.71
728.833	33353.32
729.175	33216.37
729.516	33136.15
729.858	33076.94
730.199	33154.23
730.541	32974.34
730.882	32991.75
731.224	33123.72
731.565	32879.43
731.906	32945.87
732.248	32947
732.589	32837.4
732.93	32784.97
733.271	32731.64
733.612	32937.28
733.953	32979.09
734.294	32964.85
734.635	32815.7
734.976	32945.87
735.317	32726.44
735.658	32776.38
735.999	32827.68
736.339	32665.88
736.68	32727.57
737.021	32605.54
737.361	32454.13
737.702	32482.61
738.042	32318.32
738.383	32365.1
738.723	32268.83
739.063	32130.3
739.404	32163.52
739.744	32059.79
740.084	31731.67
740.424	31938.67
740.764	31858.89
741.104	31849.63
741.444	31645.11
741.784	31382.3
742.124	31417.55
742.464	31456.19
742.804	31315.63
743.143	31306.82
743.483	31235.18
743.823	31149.53
744.162	30957.9
744.502	31187.27
744.841	30978.92
745.181	31174.39
745.52	31097.33
745.86	31088.07
746.199	31057.33
746.538	31134.17
746.877	31183.88
747.216	31175.97
747.556	31206.93
747.895	31194.5
748.234	30999.26
748.573	30967.84
748.911	30914.29
749.25	30996.09
749.589	30772.59
749.928	30848.53
750.267	30847.85
750.605	30752.26
750.944	30745.93
751.283	30509.32
751.621	30505.03
751.96	30369.44
752.298	30330.8
752.636	30298.93
752.975	30063.91
753.313	29888.32
753.651	29941.88
753.989	29741.44
754.327	29772.85
754.666	29571.5
755.004	29489.92
755.342	29544.38
755.679	29357.49
756.017	29218.74
756.355	29229.58
756.693	29065.07
757.031	29091.74
757.368	28955.47
757.706	28988.69
758.044	28785.3
758.381	28786.21
758.719	28748.69
759.056	28717.51
759.394	28679.09
759.731	28557.51
760.068	28525.87
760.405	28436.84
760.743	28407.46
761.08	28519.09
761.417	28310.06
761.754	28359.32
762.091	28307.35
762.428	28386.89
762.765	28179.89
763.102	28259.44
763.438	28126.79
763.775	28013.12
764.112	28021.93
764.449	28016.51
764.785	27826.91
765.122	27636.41
765.458	27524.77
765.795	27499.69
766.131	27452.91
766.467	27319.58
766.804	27110.77
767.14	26947.61
767.476	27044.33
767.812	26676.88
768.148	26762.3
768.485	26548.98
768.821	26338.14
769.157	26380.17
769.492	26274.41
769.828	26173.39
770.164	25877.81
770.5	25929.33
770.836	25800.75
771.171	25639.17
771.507	25648.89
771.842	25376.13
772.178	25399.63
772.513	25388.33
772.849	25328.67
773.184	25178.17
773.519	25255.9
773.855	25127.09
774.19	25186.08
774.525	25025.4
774.86	25064.72
775.195	25016.36
775.53	24813.88
775.865	24690.95
776.2	24542.93
776.535	24455.7
776.87	24500.44
777.205	24472.42
777.539	24373.89
777.874	24432.65
778.209	24239.66
778.543	24096.61
778.878	23942.27
779.212	23939.1
779.547	23906.33
779.881	23818.88
780.215	23647.81
780.55	23754.93
780.884	23497.76
781.218	23489.62
781.552	23388.16
781.886	23276.29
782.22	23119.01
782.554	23069.97
782.888	22702.75
783.222	22607.84
783.556	22500.5
783.889	22465.24
784.223	22282.2
784.557	22319.94
784.89	22291.46
785.224	22173.5
785.557	21972.83
785.891	21971.24
786.224	21842.21
786.558	21893.73
786.891	21633.85
787.224	21582.78
787.557	21574.87
787.891	21518.6
788.224	21486.29
788.557	21430.02
788.89	21356.57
789.223	21430.02
789.556	21314.31
789.888	21206.29
790.221	21184.6
790.554	21154.77
790.887	21131.72
791.219	21036.13
791.552	20978.28
791.884	20924.49
792.217	20957.03
792.549	20874.32
792.882	20763.37
793.214	20697.15
793.546	20656.7
793.879	20562.69
794.211	20370.38
794.543	20517.05
794.875	20312.98
795.207	20422.13
795.539	20270.5
795.871	20313.43
796.203	20092.42
796.535	19974.46
796.867	19821.47
797.198	19906.67
797.53	19759.1
797.862	19609.05
798.193	19607.24
798.525	19490.41
798.856	19360.24
799.188	19274.37
799.519	19209.51
799.85	19011.1
800.182	19099
800.513	19013.81
800.844	18810.65
801.175	18924.32
801.506	18821.72
801.837	18744.44
802.168	18718.9
802.499	18630.32
802.83	18525.46
803.161	18469.64
803.491	18400.26
803.822	18499.47
804.153	18369.08
804.483	18286.6
804.814	18256.99
805.145	18202.98
805.475	18239.37
805.805	18306.71
806.136	18296.31
806.466	18216.31
806.796	18218.12
807.126	18090.67
807.457	18099.03
807.787	18077.79
808.117	17979.94
808.447	18040.05
808.777	18103.1
809.107	17916.66
809.436	17868.3
809.766	17835.31
810.096	17814.97
810.426	17653.62
810.755	17757.8
811.085	17662.21
811.414	17576.33
811.744	17406.39
812.073	17324.59
812.403	17403.23
812.732	17301.08
813.061	17240.3
813.39	17141.99
813.719	17007.53
814.049	17167.53
814.378	16990.81
814.707	16938.61
815.036	16899.29
815.365	16723.25
815.693	16634.44
816.022	16612.52
816.351	16542.01
816.68	16519.41
817.008	16379.98
817.337	16370.26
817.665	16287.55
817.994	16352.41
818.322	16345.4
818.651	16297.95
818.979	16163.49
819.307	16243.71
819.636	16175.92
819.964	16092.75
820.292	16135.92
820.62	16136.6
820.948	16199.19
821.276	16179.53
821.604	16129.14
821.932	16166.65
822.259	16167.56
822.587	16136.14
822.915	16145.63
823.243	16266.08
823.57	16159.19
823.898	16285.52
824.225	16217.27
824.553	16246.42
824.88	16185.86
825.207	16332.3
825.535	16219.76
825.862	16376.59
826.189	16187.22
826.516	16307.44
826.843	16255.46
827.17	16272.41
827.497	16266.99
827.824	16309.25
828.151	16381.33
828.478	16314.9
828.805	16311.73
829.131	16186.76
829.458	16200.55
829.785	16031.97
830.111	16210.04
830.438	16133.88
830.764	16151.06
831.09	16039.65
831.417	15985.64
831.743	16028.12
832.069	15941.57
832.395	15908.13
832.722	15921.46
833.048	15822.03
833.374	15778.19
833.7	15720.34
834.026	15741.13
834.351	15756.27
834.677	15697.51
835.003	15789.94
835.329	15693.67
835.654	15737.96
835.98	15639.21
836.306	15680.79
836.631	15566.21
836.956	15739.32
837.282	15646.89
837.607	15550.17
837.932	15523.96
838.258	15591.07
838.583	15584.29
838.908	15484.41
839.233	15496.61
839.558	15509.49
839.883	15504.3
840.208	15432.66
840.533	15411.87
840.858	15463.62
841.182	15485.31
841.507	15555.59
841.832	15408.71
842.156	15368.25
842.481	15478.76
842.805	15418.65
843.13	15345.88
843.454	15259.1
843.778	15257.52
844.103	15247.35
844.427	15210.52
844.751	15167.36
845.075	15068.83
845.399	15107.7
845.723	14995.61
846.047	15015.5
846.371	14893.24
846.695	14819.79
847.019	14713.81
847.343	14700.48
847.666	14569.63
847.99	14564.21
848.313	14522.4
848.637	14292.12
848.96	14277.44
849.284	14271.79
849.607	14186.82
849.931	14119.02
850.254	13948.4
850.577	13906.6
850.9	13822.31
851.223	13821.63
851.546	13719.71
851.869	13634.74
852.192	13643.55
852.515	13566.95
852.838	13470.9
853.161	13512.94
853.483	13477.91
853.806	13365.59
854.129	13343.67
854.451	13245.15
854.774	13251.47
855.096	13134.64
855.419	13188.88
855.741	13184.81
856.063	13060.29
856.385	13051.7
856.708	13101.65
857.03	13041.31
857.352	13066.62
857.674	12980.07
857.996	12917.92
858.318	12884.93
858.64	12981.2
858.961	12924.48
859.283	12824.14
859.605	12872.5
859.926	12943.69
860.248	12803.35
860.57	12836.34
860.891	12831.82
861.212	12696.46
861.534	12742.79
861.855	12744.37
862.176	12674.77
862.498	12606.52
862.819	12606.07
863.14	12543.7
863.461	12499.85
863.782	12543.02
864.103	12485.62
864.424	12426.41
864.745	12419.18
865.065	12264.61
865.386	12333.31
865.707	12273.42
866.027	12231.84
866.348	12155.46
866.668	12161.33
866.989	12145.97
867.309	12047.21
867.63	12078.85
867.95	12039.75
868.27	11920.89
868.59	11969.02
868.91	11865.75
869.23	11827.56
869.55	11757.73
869.87	11828.01
870.19	11781
870.51	11818.06
870.83	11818.74
871.15	11777.16
871.469	11756.82
871.789	11876.82
872.109	11762.93
872.428	11666.2
872.748	11681.8
873.067	11652.42
873.386	11777.61
873.706	11626.43
874.025	11589.82
874.344	11610.39
874.663	11619.88
874.982	11656.26
875.301	11666.88
875.62	11623.27
875.939	11632.31
876.258	11616.71
876.577	11579.65
876.896	11562.93
877.214	11527.9
877.533	11590.5
877.852	11532.2
878.17	11558.86
878.489	11513.21
878.807	11588.69
879.125	11535.81
879.444	11485.19
879.762	11435.48
880.08	11489.26
880.398	11436.83
880.716	11472.54
881.034	11357.74
881.352	11447.91
881.67	11359.55
881.988	11340.34
882.306	11250.85
882.624	11216.27
882.941	11148.25
883.259	11189.38
883.577	11161.13
883.894	11148.03
884.212	11058.54
884.529	11022.61
884.846	11001.82
885.164	10974.47
885.481	10848.15
885.798	10951.65
886.115	10907.81
886.432	10803.85
886.75	10757.75
887.067	10745.1
887.383	10680.92
887.7	10699.9
888.017	10623.52
888.334	10669.39
888.651	10659.68
888.967	10640.02
889.284	10507.82
889.6	10433.24
889.917	10329.29
890.233	10377.2
890.55	10380.36
890.866	10372.45
891.182	10380.14
891.498	10312.34
891.815	10267.6
892.131	10267.82
892.447	10259.24
892.763	10189.18
893.079	10190.31
893.395	10192.34
893.71	10179.24
894.026	10101.5
894.342	10114.61
894.657	10015.17
894.973	10026.47
895.289	10044.78
895.604	10086.59
895.92	9987.38
896.235	9958.45
896.55	9957.32
896.865	9935.4
897.181	9974.5
897.496	9878.68
897.811	9888.85
898.126	9854.95
898.441	9831.45
898.756	9770.21
899.071	9746.93
899.386	9758.68
899.7	9652.47
900.015	9675.52
900.33	9631.46
900.644	9610.21
900.959	9589.2
901.273	9548.29
901.588	9486.37
901.902	9438.01
902.216	9371.35
902.531	9321.86
902.845	9355.53
903.159	9174.52
903.473	9180.85
903.787	9174.97
904.101	9112.83
904.415	9101.3
904.729	9051.13
905.042	9030.12
905.356	8950.57
905.67	8892.27
905.984	8878.93
906.297	8903.79
906.611	8805.49
906.924	8758.26
907.237	8716.9
907.551	8678.49
907.864	8618.6
908.177	8610.47
908.491	8525.95
908.804	8513.52
909.117	8514.42
909.43	8476.68
909.743	8431.26
910.056	8391.04
910.368	8289.12
910.681	8330.47
910.994	8302.45
911.307	8277.82
911.619	8171.61
911.932	8176.13
912.244	8167.77
912.557	8100.87
912.869	8046.64
913.181	8054.32
913.494	8042.35
913.806	8026.07
914.118	8011.84
914.43	7880.54
914.742	7956.47
915.054	7858.17
915.366	7864.04
915.678	7883.93
915.99	7839.19
916.302	7832.63
916.613	7704.27
916.925	7755.8
917.236	7740.43
917.548	7630.15
917.859	7697.95
918.171	7624.73
918.482	7623.6
918.794	7648.91
919.105	7590.61
919.416	7525.97
919.727	7523.26
920.038	7497.27
920.349	7415.69
920.66	7449.14
920.971	7422.25
921.282	7419.99
921.593	7308.8
921.903	7281.69
922.214	7277.39
922.525	7265.19
922.835	7194.01
923.146	7146.32
923.456	7086.66
923.767	7077.62
924.077	7060.22
924.387	7019.55
924.697	7018.64
925.008	6949.94
925.318	6901.36
925.628	6891.87
925.938	6863.39
926.248	6784.07
926.558	6758.76
926.867	6702.49
927.177	6657.52
927.487	6618.65
927.796	6608.71
928.106	6617.07
928.416	6485.55
928.725	6515.61
929.034	6503.18
929.344	6470.63
929.653	6456.4
929.962	6340.69
930.271	6353.35
930.581	6335.95
930.89	6316.51
931.199	6268.61
931.508	6267.25
931.817	6246.23
932.125	6177.31
932.434	6211.21
932.743	6116.29
933.051	6107.71
933.36	6097.76
933.669	6051.44
933.977	6043.75
934.286	6030.19
934.594	6030.42
934.902	5929.63
935.21	5968.05
935.519	5943.87
935.827	5881.95
936.135	5853.02
936.443	5887.83
936.751	5847.83
937.059	5841.95
937.367	5807.15
937.674	5855.96
937.982	5795.85
938.29	5736.42
938.597	5676.08
938.905	5632.92
939.213	5746.81
939.52	5710.43
939.827	5710.2
940.135	5656.87
940.442	5650.32
940.749	5624.1
941.056	5602.86
941.363	5506.14
941.67	5549.08
941.977	5531
942.284	5469.53
942.591	5481.28
942.898	5451.45
943.205	5412.36
943.511	5414.39
943.818	5357.44
944.125	5325.35
944.431	5325.58
944.738	5280.38
945.044	5249.42
945.35	5257.33
945.657	5223.21
945.963	5224.79
946.269	5206.26
946.575	5151.57
946.881	5165.13
947.187	5100.5
947.493	5065.02
947.799	5014.4
948.105	4970.79
948.41	4997.91
948.716	4962.65
949.022	4895.76
949.327	4924.69
949.633	4891.69
949.938	4811.47
950.244	4830.23
950.549	4771.47
950.854	4749.55
951.16	4781.64
951.465	4735.09
951.77	4684.69
952.075	4688.31
952.38	4658.25
952.685	4695.31
952.99	4600.63
953.294	4604.02
953.599	4616.45
953.904	4503.91
954.209	4527.18
954.513	4529.44
954.818	4510.23
955.122	4463.91
955.426	4453.06
955.731	4445.6
956.035	4464.13
956.339	4423.46
956.643	4427.3
956.948	4361.54
957.252	4358.83
957.556	4334.42
957.86	4380.75
958.163	4293.52
958.467	4305.72
958.771	4286.74
959.075	4254.87
959.378	4231.15
959.682	4239.96
959.985	4254.87
960.289	4232.05
960.592	4234.99
960.896	4196.12
961.199	4182.33
961.502	4156.8
961.805	4117.02
962.108	4136.46
962.411	4107.99
962.714	4096.01
963.017	4101.43
963.32	4069.34
963.623	4040.19
963.926	4056.01
964.228	4072.05
964.531	4038.61
964.833	4022.34
965.136	4001.55
965.438	3997.71
965.741	3952.74
966.043	3920.42
966.345	3874.09
966.648	3897.82
966.95	3849.91
967.252	3811.04
967.554	3853.53
967.856	3814.21
968.158	3790.25
968.46	3760.88
968.761	3763.36
969.063	3722.91
969.365	3728.11
969.666	3730.82
969.968	3642.69
970.269	3651.73
970.571	3663.03
970.872	3610.82
971.174	3592.97
971.475	3545.06
971.776	3551.16
972.077	3509.36
972.378	3515.46
972.679	3507.1
972.98	3523.37
973.281	3447.44
973.582	3435.01
973.883	3432.07
974.183	3424.16
974.484	3379.42
974.785	3355.91
975.085	3403.37
975.386	3397.27
975.686	3341
975.986	3327.67
976.287	3302.58
976.587	3263.04
976.887	3276.82
977.187	3258.74
977.487	3219.65
977.787	3257.39
978.087	3185.52
978.387	3188.69
978.687	3201.79
978.987	3160.89
979.286	3156.37
979.586	3169.7
979.885	3132.42
980.185	3131.97
980.484	3123.15
980.784	3122.02
981.083	3126.32
981.382	3098.52
981.682	3088.35
981.981	3069.59
982.28	3049.48
982.579	3015.81
982.878	3023.95
983.177	3011.74
983.475	3025.75
983.774	3008.35
984.073	2997.05
984.372	2948.24
984.67	2923.38
984.969	2966.09
985.267	2936.49
985.566	2947.11
985.864	2932.65
986.162	2888.58
986.461	2863.27
986.759	2897.62
987.057	2869.15
987.355	2843.39
987.653	2850.84
987.951	2826.44
988.249	2841.8
988.547	2825.08
988.844	2774.91
989.142	2783.05
989.44	2762.03
989.737	2787.12
990.035	2711.86
990.332	2754.57
990.63	2703.95
990.927	2674.12
991.224	2660.79
991.521	2701.69
991.819	2651.3
992.116	2656.5
992.413	2612.88
992.71	2625.99
993.006	2605.88
993.303	2617.18
993.6	2601.13
993.897	2573.11
994.193	2581.92
994.49	2546.22
994.787	2491.53
995.083	2488.14
995.379	2481.81
995.676	2461.02
995.972	2456.73
996.268	2394.13
996.565	2466.67
996.861	2427.35
997.157	2417.63
997.453	2411.53
997.749	2352.33
998.044	2381.48
998.34	2341.48
998.636	2367.69
998.932	2327.47
999.227	2303.29
999.523	2296.96
999.818	2280.91
1000.114	2286.11
1000.409	2270.07
1000.704	2265.32
1001	2256.06
1001.295	2258.32
1001.59	2238.88
1001.885	2230.29
1002.18	2201.37
1002.475	2191.88
1002.77	2193.91
1003.065	2200.46
1003.359	2160.47
1003.654	2134.7
1003.949	2152.78
1004.243	2099.45
1004.538	2123.86
1004.832	2076.85
1005.127	2077.3
1005.421	2081.15
1005.715	2062.62
1006.009	2091.54
1006.304	2020.81
1006.598	2036.63
1006.892	2028.27
1007.186	2015.61
1007.48	1991.2
1007.773	1978.32
1008.067	2020.58
1008.361	1966.57
1008.655	1983.3
1008.948	1957.53
1009.242	1939.23
1009.535	1939
1009.829	1911.66
1010.122	1913.24
1010.415	1921.15
1010.708	1904.2
1011.001	1884.31
1011.295	1863.07
1011.588	1884.77
1011.881	1875.5
1012.173	1849.74
1012.466	1838.89
1012.759	1823.53
1013.052	1826.69
1013.344	1803.86
1013.637	1804.99
1013.93	1787.82
1014.222	1772
1014.514	1766.35
1014.807	1745.79
1015.099	1733.36
1015.391	1727.26
1015.683	1729.06
1015.976	1718.9
1016.268	1696.98
1016.56	1672.57
1016.851	1699.23
1017.143	1666.24
1017.435	1665.11
1017.727	1647.26
1018.018	1638.45
1018.31	1588.96
1018.602	1599.35
1018.893	1610.65
1019.185	1586.02
1019.476	1584.66
1019.767	1574.94
1020.058	1558.45
1020.35	1549.86
1020.641	1534.27
1020.932	1527.94
1021.223	1491.1
1021.514	1499.92
1021.804	1488.62
1022.095	1487.94
1022.386	1459.92
1022.677	1460.37
1022.967	1449.07
1023.258	1426.7
1023.548	1425.12
1023.839	1423.99
1024.129	1402.52
1024.419	1400.49
1024.709	1403.65
1025	1389.41
1025.29	1356.65
1025.58	1385.12
1025.87	1361.16
1026.16	1345.57
1026.449	1314.39
1026.739	1316.65
1027.029	1309.41
1027.319	1301.05
1027.608	1302.18
1027.898	1307.61
1028.187	1288.17
1028.477	1252.47
1028.766	1296.08
1029.055	1234.61
1029.344	1263.31
1029.634	1243.65
1029.923	1232.13
1030.212	1217.89
1030.501	1212.92
1030.79	1205.24
1031.078	1200.94
1031.367	1202.75
1031.656	1183.32
1031.945	1159.36
1032.233	1174.95
1032.522	1144.67
1032.81	1150.55
1033.099	1142.87
1033.387	1114.62
1033.675	1136.99
1033.963	1139.02
1034.251	1132.7
1034.54	1110.32
1034.828	1110.55
1035.116	1099.93
1035.403	1113.94
1035.691	1083.88
1035.979	1081.62
1036.267	1065.58
1036.554	1055.18
1036.842	1044.56
1037.129	1050.21
1037.417	1027.61
1037.704	1024.45
1037.992	1039.82
1038.279	1029.65
1038.566	1010.89
1038.853	1010.89
1039.14	1010.89
