Data from red_cardboard_box_FLMS001491_00064.txt Node
Date: Wed Feb 08 11:32:56 GMT 2017
User: dcchb
Spectrometer: FLMS00149
Trigger mode: 0
Integration Time (sec): 2.000000E-2
Scans to average: 10
Electric dark correction enabled: true
Nonlinearity correction enabled: false
Boxcar width: 0
XAxis mode: Wavelengths
Number of Pixels in Spectrum: 2048
>>>>>Begin Spectral Data<<<<<
341.393	1.47
341.776	1.47
342.16	1.47
342.543	-58.87
342.927	-62.71
343.31	-69.72
343.693	-66.1
344.077	-90.73
344.46	-65.42
344.843	-28.59
345.226	-46.67
345.61	-26.78
345.993	-13.45
346.376	-3.73
346.759	11.41
347.142	13.67
347.525	52.32
347.908	65.42
348.291	70.85
348.674	94.12
349.057	103.39
349.44	145.87
349.823	136.38
350.206	175.02
350.588	217.06
350.971	205.31
351.354	232.65
351.737	271.07
352.119	248.92
352.502	273.78
352.884	288.92
353.267	284.63
353.65	301.57
354.032	303.38
354.414	320.1
354.797	321.23
355.179	301.12
355.562	325.3
355.944	336.15
356.326	362.59
356.709	334.12
357.091	338.18
357.473	359.65
357.855	331.18
358.238	347.22
358.62	346.32
359.002	360.33
359.384	337.28
359.766	338.64
360.148	343.61
360.53	360.33
360.912	341.12
361.294	355.81
361.676	320.78
362.057	355.36
362.439	344.74
362.821	341.8
363.203	325.98
363.584	325.3
363.966	337.28
364.348	323.04
364.729	325.75
365.111	330.05
365.493	331.86
365.874	308.81
366.256	332.31
366.637	331.63
367.019	289.37
367.4	315.58
367.781	333.44
368.163	311.29
368.544	333.44
368.925	305.87
369.306	315.58
369.688	305.42
370.069	323.72
370.45	319.65
370.831	303.83
371.212	325.08
371.593	326.66
371.974	319.88
372.355	326.66
372.736	326.43
373.117	310.84
373.498	344.74
373.879	305.19
374.26	316.49
374.641	286.43
375.021	330.5
375.402	313.1
375.783	313.1
376.163	334.34
376.544	322.82
376.925	315.58
377.305	327.56
377.686	306.55
378.066	324.85
378.447	337.73
378.827	323.04
379.208	344.51
379.588	337.96
379.968	344.51
380.349	341.8
380.729	347.67
381.109	341.35
381.489	339.77
381.87	339.31
382.25	341.57
382.63	331.86
383.01	338.86
383.39	337.96
383.77	358.97
384.15	330.73
384.53	349.93
384.91	342.25
385.29	334.57
385.67	339.77
386.049	349.71
386.429	339.54
386.809	348.58
387.189	350.84
387.568	348.13
387.948	359.88
388.328	346.32
388.707	355.58
389.087	329.14
389.466	342.93
389.846	353.1
390.225	331.4
390.605	336.38
390.984	356.71
391.363	344.74
391.743	357.84
392.122	356.94
392.501	361.01
392.881	363.49
393.26	343.38
393.639	338.18
394.018	355.36
394.397	352.19
394.776	351.06
395.155	343.15
395.534	379.31
395.913	358.3
396.292	362.36
396.671	380.89
397.05	359.43
397.429	376.37
397.808	373.89
398.186	384.74
398.565	384.06
398.944	373.89
399.323	396.26
399.701	355.36
400.08	379.76
400.458	373.44
400.837	406.2
401.215	363.04
401.594	362.82
401.972	366.21
402.351	402.14
402.729	358.07
403.107	401.01
403.486	384.06
403.864	391.29
404.242	363.72
404.62	418.63
404.999	388.35
405.377	380.22
405.755	389.93
406.133	408.24
406.511	396.71
406.889	392.19
407.267	375.02
407.645	391.06
408.023	388.8
408.401	397.62
408.779	405.98
409.156	413.66
409.534	417.5
409.912	402.36
410.29	406.43
410.667	407.33
411.045	409.59
411.422	433.32
411.8	414.79
412.178	401.91
412.555	420.89
412.933	431.29
413.31	416.37
413.687	415.92
414.065	425.86
414.442	416.6
414.819	428.12
415.197	444.62
415.574	434
415.951	432.64
416.328	433.55
416.705	436.94
417.082	442.81
417.46	458.18
417.837	442.81
418.214	450.95
418.591	451.4
418.967	435.36
419.344	450.5
419.721	467.9
420.098	438.52
420.475	454.56
420.852	469.25
421.228	457.95
421.605	483.04
421.982	460.89
422.358	460.89
422.735	472.42
423.111	488.01
423.488	472.87
423.864	465.64
424.241	464.06
424.617	487.78
424.994	497.73
425.37	481
425.746	489.59
426.123	484.85
426.499	491.63
426.875	483.94
427.251	494.56
427.627	501.12
428.003	493.21
428.379	516.03
428.756	497.05
429.132	522.81
429.507	518.29
429.883	527.78
430.259	526.2
430.635	516.71
431.011	523.49
431.387	532.3
431.763	509.03
432.138	524.17
432.514	512.87
432.89	546.77
433.265	550.83
433.641	538.86
434.016	525.97
434.392	564.62
434.767	548.8
435.143	578.18
435.518	556.03
435.894	592.41
436.269	570.04
436.644	560.55
437.02	569.36
437.395	561.91
437.77	609.59
438.145	561.23
438.52	604.84
438.895	594.9
439.271	614.79
439.646	595.35
440.021	596.03
440.395	625.18
440.77	595.13
441.145	603.03
441.52	605.97
441.895	631.06
442.27	617.72
442.645	623.83
443.019	630.83
443.394	610.27
443.769	592.41
444.143	628.8
444.518	619.53
444.892	638.51
445.267	652.98
445.641	635.8
446.016	612.07
446.39	619.08
446.764	639.42
447.139	650.04
447.513	641.9
447.887	642.58
448.262	639.19
448.636	642.13
449.01	654.11
449.384	637.38
449.758	664.95
450.132	667.21
450.506	652.75
450.88	658.17
451.254	670.83
451.628	666.31
452.002	676.71
452.376	694.78
452.75	678.06
453.123	690.49
453.497	676.71
453.871	703.6
454.244	706.99
454.618	698.17
454.992	691.85
455.365	681.45
455.739	714.22
456.112	719.42
456.486	717.16
456.859	748.12
457.232	747.21
457.606	749.7
457.979	732.75
458.352	769.58
458.725	769.13
459.099	765.97
459.472	772.3
459.845	776.36
460.218	782.69
460.591	793.54
460.964	778.62
461.337	789.7
461.71	808.91
462.083	800.09
462.456	785.18
462.829	818.17
463.201	836.02
463.574	816.81
463.947	828.57
464.32	820.2
464.692	803.93
465.065	857.27
465.438	853.88
465.81	894.78
466.183	857.27
466.555	866.98
466.928	857.27
467.3	874.67
467.672	897.04
468.045	877.15
468.417	902.46
468.789	908.34
469.161	929.13
469.534	930.71
469.906	918.28
470.278	942.01
470.65	927.77
471.022	948.79
471.394	968.68
471.766	970.26
472.138	983.36
472.51	1024.94
472.882	1006.64
473.253	999.41
473.625	1027.43
473.997	1032.63
474.369	1017.71
474.74	1061.55
475.112	1031.27
475.484	1077.6
475.855	1095.68
476.227	1089.58
476.598	1103.81
476.97	1099.97
477.341	1128.9
477.713	1147.65
478.084	1143.36
478.455	1197.37
478.827	1179.29
479.198	1239.85
479.569	1217.48
479.94	1220.65
480.311	1264.26
480.682	1275.11
481.053	1284.6
481.424	1271.04
481.795	1301.77
482.166	1353.75
482.537	1340.64
482.908	1346.52
483.279	1374.31
483.65	1377.25
484.021	1405.73
484.391	1407.76
484.762	1433.52
485.133	1402.11
485.503	1461.54
485.874	1486.85
486.244	1484.14
486.615	1521.43
486.985	1551.03
487.356	1553.52
487.726	1558.49
488.097	1588.77
488.467	1594.87
488.837	1614.08
489.207	1625.38
489.578	1641.88
489.948	1673.06
490.318	1704.7
490.688	1673.52
491.058	1710.12
491.428	1745.6
491.798	1740.86
492.168	1804.13
492.538	1767.07
492.908	1824.25
493.278	1796.45
493.648	1830.8
494.017	1864.7
494.387	1870.8
494.757	1887.52
495.126	1880.97
495.496	1909.67
495.866	1906.73
496.235	1934.98
496.605	1925.49
496.974	1957.35
497.344	1974.52
497.713	1983.11
498.082	1991.02
498.452	2017.24
498.821	2024.24
499.19	2060.85
499.559	2059.27
499.928	2092.94
500.298	2097.01
500.667	2087.74
501.036	2119.38
501.405	2124.58
501.774	2128.64
502.143	2157.8
502.512	2156.89
502.88	2174.97
503.249	2163.45
503.618	2183.33
503.987	2226.5
504.356	2276.21
504.724	2227.17
505.093	2228.53
505.462	2302.43
505.83	2292.03
506.199	2305.14
506.567	2324.57
506.936	2296.32
507.304	2338.13
507.672	2336.1
508.041	2373.61
508.409	2387.62
508.777	2400.28
509.145	2426.72
509.514	2413.83
509.882	2450.67
510.25	2443.21
510.618	2482.76
510.986	2492.25
511.354	2517.56
511.722	2511.23
512.09	2552.59
512.458	2537.9
512.826	2543.55
513.193	2553.27
513.561	2593.27
513.929	2639.14
514.297	2663.09
514.664	2660.61
515.032	2683.88
515.4	2700.83
515.767	2729.53
516.135	2721.17
516.502	2688.4
516.869	2772.24
517.237	2773.83
517.604	2746.93
517.972	2807.27
518.339	2825.35
518.706	2852.92
519.073	2879.81
519.44	2893.6
519.808	2881.17
520.175	2884.56
520.542	2890.66
520.909	2962.29
521.276	2969.07
521.643	2996.64
522.009	3018.34
522.376	2996.42
522.743	3067.83
523.11	3062.41
523.477	3148.96
523.843	3110.54
524.21	3178.79
524.577	3200.48
524.943	3222.18
525.31	3237.09
525.676	3248.84
526.043	3297.2
526.409	3243.19
526.776	3309.4
527.142	3323.87
527.508	3306.47
527.874	3388.95
528.241	3423.3
528.607	3386.69
528.973	3468.5
529.339	3441.6
529.705	3552.11
530.071	3507.59
530.437	3539.91
530.803	3572
531.169	3567.48
531.535	3578.32
531.901	3600.02
532.267	3602.28
532.632	3649.06
532.998	3663.97
533.364	3693.8
533.73	3696.51
534.095	3740.81
534.461	3769.51
534.826	3804.53
535.192	3807.7
535.557	3830.29
535.923	3837.07
536.288	3902.61
536.653	3898.77
537.019	3873.23
537.384	3904.19
537.749	3906.22
538.114	3943.06
538.479	3959.78
538.845	4010.63
539.21	3973.79
539.575	3985.77
539.94	3977.18
540.305	4060.35
540.67	4023.51
541.034	4081.81
541.399	4105.32
541.764	4129.04
542.129	4153.9
542.494	4122.94
542.858	4178.76
543.223	4176.95
543.587	4195.26
543.952	4240.23
544.316	4232.54
544.681	4241.81
545.045	4275.03
545.41	4322.71
545.774	4321.81
546.138	4326.78
546.503	4376.72
546.867	4381.69
547.231	4427.79
547.595	4419.88
547.959	4422.82
548.324	4465.08
548.688	4428.92
549.052	4508.02
549.416	4497.62
549.779	4541.01
550.143	4502.59
550.507	4568.81
550.871	4588.24
551.235	4616.71
551.599	4683.61
551.962	4673.66
552.326	4699.42
552.689	4734.68
553.053	4724.28
553.417	4786.43
553.78	4863.49
554.143	4824.39
554.507	4851.51
554.87	4952.75
555.234	4980.32
555.597	4993.88
555.96	4988.23
556.323	4997.5
556.686	5039.75
557.05	5053.99
557.413	5084.05
557.776	5116.14
558.139	5222.8
558.502	5189.58
558.865	5274.55
559.228	5309.35
559.59	5255.34
559.953	5383.25
560.316	5421.67
560.679	5405.39
561.041	5470.03
561.404	5472.06
561.767	5545.05
562.129	5568.33
562.492	5647.65
562.854	5701.21
563.217	5715.89
563.579	5736.69
563.941	5808.77
564.304	5860.52
564.666	5919.51
565.028	5978.71
565.39	5987.3
565.753	6090.57
566.115	6116.56
566.477	6141.42
566.839	6191.59
567.201	6328.53
567.563	6288.31
567.925	6379.61
568.287	6470
568.648	6489.21
569.01	6486.5
569.372	6634.06
569.734	6619.37
570.095	6716.32
570.457	6773.72
570.819	6786.38
571.18	6857.79
571.542	6926.71
571.903	6995.86
572.265	7088.06
572.626	7089.64
572.987	7175.29
573.349	7263.2
573.71	7330.99
574.071	7442.86
574.432	7451.44
574.794	7540.25
575.155	7574.38
575.516	7603.3
575.877	7757.42
576.238	7776.41
576.599	7965.55
576.96	8002.61
577.32	8052.56
577.681	8118.54
578.042	8249.84
578.403	8313.34
578.763	8343.85
579.124	8486.44
579.485	8602.82
579.845	8751.97
580.206	8883.95
580.566	8890.27
580.927	9017.95
581.287	9126.65
581.648	9257.95
582.008	9385.85
582.368	9506.76
582.728	9605.51
583.089	9741.55
583.449	9815.67
583.809	9974.09
584.169	10125.27
584.529	10228.09
584.889	10469.89
585.249	10454.3
585.609	10675.09
585.969	10866.95
586.329	10940.62
586.688	11160.05
587.048	11322.3
587.408	11421.73
587.768	11669.18
588.127	11900.82
588.487	12023.07
588.846	12336.51
589.206	12423.06
589.565	12725.65
589.925	12941.47
590.284	13093.33
590.643	13395.24
591.003	13586.87
591.362	13917.94
591.721	14147.99
592.08	14272.96
592.44	14693.51
592.799	14942.77
593.158	15100.05
593.517	15381.63
593.876	15683.77
594.235	15988.62
594.593	16216.86
594.952	16656.4
595.311	16806
595.67	17171.64
596.029	17490.5
596.387	17966.65
596.746	18254.1
597.104	18445.73
597.463	18714.2
597.822	19226.73
598.18	19392.37
598.538	19637.56
598.897	20182.86
599.255	20310.54
599.613	20839.34
599.972	21195.71
600.33	21576.27
600.688	21787.11
601.046	22222.13
601.404	22604.26
601.762	22829.34
602.12	23379.16
602.478	23549.55
602.836	24005.13
603.194	24260.72
603.552	24512.01
603.91	24824.77
604.268	25392.21
604.625	25645.31
604.983	26092.53
605.341	26225.64
605.698	26722.8
606.056	26963.92
606.413	27266.51
606.771	27698.37
607.128	28031.92
607.485	28104.01
607.843	28536.54
608.2	28939.92
608.557	29303.98
608.914	29382.17
609.272	29857.41
609.629	30176.27
609.986	30503.49
610.343	30784.39
610.7	31207.88
611.057	31326.75
611.414	31633.63
611.771	31741.65
612.127	32186.39
612.484	32317.46
612.841	32698.24
613.198	32841.51
613.554	32968.51
613.911	33419.12
614.267	33589.06
614.624	33857.3
614.98	34032.44
615.337	34358.31
615.693	34477.4
616.05	34654.34
616.406	34972.53
616.762	34961.23
617.118	35099.98
617.475	35284.83
617.831	35715.11
618.187	35907.64
618.543	36160.97
618.899	36305.15
619.255	36492.49
619.611	36539.94
619.967	36911.46
620.323	37030.78
620.678	36992.13
621.034	37105.58
621.39	37266.03
621.746	37470.99
622.101	37742.17
622.457	37589.18
622.812	37828.5
623.168	38059.9
623.523	38127.7
623.879	38369.05
624.234	38158.88
624.589	38444.75
624.945	38533.11
625.3	38728.81
625.655	38804.74
626.01	38844.52
626.365	38940.11
626.72	38982.59
627.075	39163.6
627.43	39060.78
627.785	39096.49
628.14	39297.38
628.495	39413.31
628.85	39488.79
629.205	39327.89
629.559	39714.32
629.914	39614.89
630.269	39631.39
630.623	39565.85
630.978	39638.17
631.332	39902.34
631.687	39983.02
632.041	39970.36
632.396	40067.76
632.75	39915.22
633.104	40102.79
633.459	39924.49
633.813	39978.04
634.167	39981.89
634.521	40060.98
634.875	40185.5
635.229	40012.85
635.583	39994.32
635.937	39897.14
636.291	39999.74
636.645	39996.12
636.999	40082.67
637.352	40232.05
637.706	39926.52
638.06	40219.17
638.413	40112.5
638.767	39984.6
639.121	40173.97
639.474	39967.2
639.828	40044.94
640.181	40377.58
640.534	40265.04
640.888	40184.59
641.241	39980.3
641.594	40205.38
641.947	40287.87
642.301	40364.02
642.654	40304.82
643.007	40371.03
643.36	40186.17
643.713	40184.14
644.066	40358.6
644.419	40072.96
644.771	39816.47
645.124	39513.42
645.477	39395.91
645.83	39240.89
646.182	39224.39
646.535	39163.83
646.888	39384.16
647.24	39068.46
647.593	39398.4
647.945	39321.11
648.298	39107.56
648.65	39151.85
649.002	39102.59
649.355	39191.62
649.707	39129.93
650.059	39406.31
650.411	39710.48
650.763	39808.11
651.115	40226.4
651.467	39973.53
651.819	40125.16
652.171	39997.25
652.523	40095.78
652.875	39950.93
653.227	39807.2
653.578	40199.73
653.93	40159.06
654.282	39848.1
654.633	39796.35
654.985	39862.79
655.337	40030.47
655.688	39979.17
656.039	40118.38
656.391	39911.38
656.742	39839.52
657.094	39913.87
657.445	39998.16
657.796	40034.54
658.147	39846.52
658.498	39895.56
658.849	39854.88
659.2	39896.69
659.551	39810.59
659.902	39963.58
660.253	39946.63
660.604	39883.81
660.955	39771.27
661.306	39848.78
661.656	39908.67
662.007	39928.1
662.358	39847.2
662.708	39903.7
663.059	39859.4
663.409	39703.02
663.76	39861.21
664.11	39804.26
664.461	39909.35
664.811	39867.09
665.161	39909.8
665.511	39814.21
665.862	39900.76
666.212	39884.49
666.562	39872.06
666.912	39875.9
667.262	40025.5
667.612	39851.72
667.962	39795.22
668.312	39773.76
668.662	40054.65
669.011	39863.47
669.361	39832.96
669.711	39868.22
670.06	39867.54
670.41	39823.92
670.76	39722.68
671.109	39860.99
671.459	39874.09
671.808	39675.68
672.157	39797.03
672.507	39644.95
672.856	39648.79
673.205	39789.35
673.554	39776.24
673.904	39564.95
674.253	39818.5
674.602	39741.67
674.951	39210.16
675.3	38899.2
675.649	39666.87
675.998	39547.32
676.346	39549.58
676.695	39676.58
677.044	39285.63
677.393	39453.99
677.741	39635.91
678.09	39299.19
678.438	39362.02
678.787	39391.17
679.135	39336.25
679.484	39188.91
679.832	39373.54
680.181	39200.21
680.529	39064.85
680.877	39145.52
681.225	39119.08
681.573	39212.64
681.922	39035.02
682.27	38853.78
682.618	38963.83
682.966	38854.46
683.314	38863.72
683.661	38653.79
684.009	38677.29
684.357	38597.97
684.705	38483.39
685.053	38569.49
685.4	38524.52
685.748	38424.19
686.095	38329.5
686.443	38174.48
686.79	38249.28
687.138	38282.72
687.485	38209.05
687.832	38010.64
688.18	38039.79
688.527	37878.89
688.874	37776.29
689.221	37849.74
689.568	37647.94
689.915	37471.44
690.262	37568.39
690.609	37582.4
690.956	37333.14
691.303	37308.74
691.65	37223.32
691.997	37191.68
692.344	37113.04
692.69	36940.16
693.037	37016.99
693.383	36682.31
693.73	36894.28
694.077	36535.2
694.423	36578.81
694.769	36547.85
695.116	36448.87
695.462	36341.53
695.808	36203.91
696.155	36320.97
696.501	36132.95
696.847	36037.58
697.193	35896.8
697.539	35875.78
697.885	35573.87
698.231	35714.65
698.577	35695.67
698.923	35667.42
699.269	35494.32
699.614	35189.02
699.96	35302.46
700.306	35346.98
700.651	35028.34
700.997	34957.61
701.342	34853.43
701.688	34811.63
702.033	34677.85
702.379	34664.51
702.724	34625.87
703.069	34682.36
703.415	34278.31
703.76	34359.21
704.105	34432.2
704.45	34226.33
704.795	34000.57
705.14	34032.89
705.485	33947.02
705.83	33847.58
706.175	33790.41
706.52	33803.29
706.865	33615.95
707.209	33610.75
707.554	33555.39
707.899	33604.43
708.243	33429.74
708.588	33369.41
708.932	33112.24
709.277	33128.73
709.621	33127.6
709.966	32932.81
710.31	32813.94
710.654	32771.45
710.998	32815.52
711.342	32729.42
711.687	32747.73
712.031	32525.13
712.375	32407.85
712.719	32595.41
713.063	32499.37
713.407	32509.09
713.75	32389.32
714.094	32224.12
714.438	32162.88
714.782	32290.79
715.125	32019.16
715.469	32188.65
715.812	31984.81
716.156	31881.31
716.499	31760.86
716.843	31878.82
717.186	31633.41
717.53	31914.08
717.873	31762.44
718.216	31720.63
718.559	31464.6
718.902	31308.44
719.246	31463.24
719.589	31239.97
719.932	31332.62
720.275	31171.5
720.617	31157.49
720.96	31048.11
721.303	31129.01
721.646	30998.85
721.989	30875.91
722.331	31174.21
722.674	30828.68
723.016	30861.45
723.359	30972.63
723.701	30831.62
724.044	30620.78
724.386	30567.44
724.729	30700.32
725.071	30572.64
725.413	30558.86
725.755	30514.34
726.097	30403.83
726.439	30345.53
726.782	30339.2
727.124	30367.9
727.465	30166.1
727.807	30257.4
728.149	30175.14
728.491	30168.81
728.833	30137.4
729.175	30004.52
729.516	29971.53
729.858	29970.17
730.199	29975.82
730.541	29939.89
730.882	29865.32
731.224	30057.18
731.565	29739.9
731.906	29829.84
732.248	29798.2
732.589	29725.89
732.93	29515.5
733.271	29466.46
733.612	29564.99
733.953	29582.84
734.294	29459.23
734.635	29462.84
734.976	29523.18
735.317	29303.52
735.658	29227.82
735.999	29342.84
736.339	29243.64
736.68	29390.07
737.021	29250.87
737.361	29076.18
737.702	29203.41
738.042	29046.81
738.383	29093.81
738.723	29079.8
739.063	28904.21
739.404	29082.74
739.744	28955.51
740.084	28810.88
740.424	28838.22
740.764	28835.74
741.104	28823.54
741.444	28741.73
741.784	28636.42
742.124	28767.94
742.464	28746.25
742.804	28698.12
743.143	28601.17
743.483	28526.14
743.823	28295.41
744.162	28431.23
744.502	28393.49
744.841	28316.66
745.181	28427.61
745.52	28294.06
745.86	28327.28
746.199	28301.29
746.538	28222.65
746.877	28280.05
747.216	28203.89
747.556	28178.36
747.895	28130.67
748.234	27989.21
748.573	28116.21
748.911	27864.24
749.25	28028.98
749.589	27699.05
749.928	27912.83
750.267	27925.25
750.605	27852.71
750.944	27722.55
751.283	27651.59
751.621	27764.58
751.96	27544.25
752.298	27549.45
752.636	27608.65
752.975	27455.44
753.313	27353.52
753.651	27550.58
753.989	27217.25
754.327	27268.1
754.666	27144.71
755.004	27125.5
755.342	27156.01
755.679	27085.28
756.017	26935.9
756.355	26938.61
756.693	26977.26
757.031	26963.25
757.368	26810.71
757.706	26733.42
758.044	26580.88
758.381	26638.73
758.719	26497.04
759.056	26524.39
759.394	26497.04
759.731	26312.87
760.068	26189.48
760.405	26261.57
760.743	26129.14
761.08	26083.95
761.417	26140.22
761.754	25943.61
762.091	25972.99
762.428	25796.27
762.765	25742.49
763.102	25789.27
763.438	25660
763.775	25483.51
764.112	25478.99
764.449	25507.69
764.785	25338.43
765.122	25123.07
765.458	25237.19
765.795	25052.11
766.131	25036.97
766.467	24940.25
766.804	24834.26
767.14	24693.7
767.476	24838.1
767.812	24763.08
768.148	24676.53
768.485	24488.06
768.821	24419.81
769.157	24329.87
769.492	24295.07
769.828	24250.1
770.164	24061.18
770.5	24056.88
770.836	24054.17
771.171	23907.06
771.507	23870.67
771.842	23700.51
772.178	23787.28
772.513	23551.13
772.849	23585.03
773.184	23378.48
773.519	23413.73
773.855	23297.81
774.19	23240.86
774.525	23226.62
774.86	23188.88
775.195	23059.85
775.53	22964.25
775.865	22924.26
776.2	22709.57
776.535	22678.16
776.87	22674.55
777.205	22419.86
777.539	22345.74
777.874	22482.46
778.209	22212.86
778.543	22159.3
778.878	21995.69
779.212	22098.06
779.547	21943.26
779.881	21993.43
780.215	21822.82
780.55	21925.41
780.884	21763.38
781.218	21685.42
781.552	21643.84
781.886	21414.47
782.22	21438.42
782.554	21330.17
782.888	21205.43
783.222	21030.97
783.556	21019.45
783.889	20940.81
784.223	20801.37
784.557	20826.91
784.89	20819
785.224	20732
785.557	20564.77
785.891	20580.81
786.224	20440.93
786.558	20430.54
786.891	20278.68
787.224	20201.39
787.557	20138.57
787.891	20178.57
788.224	20123.65
788.557	20014.28
788.89	20068.06
789.223	19894.05
789.556	19801.63
789.888	19705.13
790.221	19683.21
790.554	19468.53
790.887	19473.95
791.219	19528.64
791.552	19467.85
791.884	19348.53
792.217	19226.73
792.549	19162.1
792.882	18914.64
793.214	19070.12
793.546	18975.66
793.879	18838.26
794.211	18758.04
794.543	18921.42
794.875	18774.99
795.207	18811.82
795.539	18757.81
795.871	18619.96
796.203	18527.99
796.535	18395.34
796.867	18405.96
797.198	18355.11
797.53	18339.97
797.862	18262.01
798.193	18240.09
798.525	18120.09
798.856	18117.6
799.188	17940.88
799.519	17867.44
799.85	17837.38
800.182	17829.02
800.513	17846.42
800.844	17691.4
801.175	17774.79
801.506	17693.21
801.837	17561.91
802.168	17542.93
802.499	17516.26
802.83	17387.9
803.161	17367.11
803.491	17328.7
803.822	17392.42
804.153	17234.46
804.483	17133.67
804.814	17064.07
805.145	17024.3
805.475	17086.22
805.805	16933
806.136	16880.12
806.466	16960.35
806.796	16849.61
807.126	16718.09
807.457	16653.69
807.787	16616.63
808.117	16596.51
808.447	16534.59
808.777	16575.27
809.107	16440.81
809.436	16422.05
809.766	16390.19
810.096	16436.07
810.426	16328.95
810.755	16267.03
811.085	16277.43
811.414	16267.26
811.744	16121.27
812.073	16024.55
812.403	16071.33
812.732	16024.78
813.061	16024.78
813.39	15914.5
813.719	15813.03
814.049	15954.04
814.378	15884.44
814.707	15666.59
815.036	15735.74
815.365	15640.15
815.693	15520.16
816.022	15512.02
816.351	15490.78
816.68	15346.83
817.008	15521.06
817.337	15402.19
817.665	15417.33
817.994	15428.86
818.322	15364.45
818.651	15225.48
818.979	15234.51
819.307	15364.68
819.636	15351.57
819.964	15073.61
820.292	15194.74
820.62	15144.8
820.948	15112.94
821.276	15126.04
821.604	15070
821.932	15202.65
822.259	15169.21
822.587	15058.25
822.915	15037.68
823.243	15088.3
823.57	14988.65
823.898	15026.16
824.225	15011.02
824.553	15030.9
824.88	15075.2
825.207	15061.64
825.535	15019.83
825.862	15003.11
826.189	15027.74
826.516	15010.34
826.843	15166.04
827.17	15029.55
827.497	15000.17
827.824	15033.84
828.151	15076.55
828.478	15022.32
828.805	15058.25
829.131	14960.62
829.458	14993.62
829.785	14888.99
830.111	14970.79
830.438	14978.48
830.764	14999.72
831.09	14939.83
831.417	14837.01
831.743	14952.49
832.069	14968.31
832.395	14869.55
832.722	14882.89
833.048	14884.24
833.374	14950.45
833.7	14803.11
834.026	14877.91
834.351	14861.42
834.677	14890.57
835.003	14866.16
835.329	14774.64
835.654	14837.01
835.98	14750.23
836.306	14841.3
836.631	14771.7
836.956	14800.63
837.282	14744.58
837.607	14631.14
837.932	14662.1
838.258	14655.09
838.583	14571.71
838.908	14598.15
839.233	14606.06
839.558	14559.96
839.883	14492.16
840.208	14507.53
840.533	14538.26
840.858	14465.27
841.182	14562.22
841.507	14380.98
841.832	14411.03
842.156	14307.76
842.481	14371.03
842.805	14292.17
843.13	14217.14
843.454	14266.4
843.778	14105.05
844.103	14091.04
844.427	14161.77
844.751	14130.59
845.075	14112.28
845.399	14022.12
845.723	13935.11
846.047	13977.6
846.371	13710.49
846.695	13834.1
847.019	13728.57
847.343	13642.92
847.666	13534.9
847.99	13472.75
848.313	13538.51
848.637	13437.73
848.96	13395.24
849.284	13349.14
849.607	13251.97
849.931	13274.57
850.254	13204.74
850.577	13154.12
850.9	13040.9
851.223	12980.79
851.546	12944.86
851.869	12906.44
852.192	12952.31
852.515	12756.61
852.838	12755.94
853.161	12738.08
853.483	12741.47
853.806	12643.4
854.129	12677.97
854.451	12538.54
854.774	12546.9
855.096	12428.94
855.419	12497.19
855.741	12507.13
856.063	12330.64
856.385	12310.07
856.708	12307.36
857.03	12261.71
857.352	12294.03
857.674	12237.08
857.996	12078.67
858.318	12107.82
858.64	12096.74
858.961	12050.42
859.283	11957.09
859.605	11993.47
859.926	11962.96
860.248	11963.41
860.57	11904.88
860.891	11927.71
861.212	11781.72
861.534	11798.9
861.855	11762.97
862.176	11758.67
862.498	11774.27
862.819	11767.26
863.14	11681.16
863.461	11719.8
863.782	11623.08
864.103	11512.58
864.424	11558.23
864.745	11645.46
865.065	11598.68
865.386	11566.59
865.707	11539.24
866.027	11509.41
866.348	11497.66
866.668	11416.31
866.989	11405.01
867.309	11333.83
867.63	11353.71
867.95	11405.24
868.27	11379.47
868.59	11393.26
868.91	11327.27
869.23	11350.55
869.55	11226.03
869.87	11236.88
870.19	11223.77
870.51	11225.13
870.83	11243.89
871.15	11143.1
871.469	11196.65
871.789	11252.25
872.109	11185.81
872.428	11018.13
872.748	11110.56
873.067	11055.19
873.386	11058.35
873.706	11046.38
874.025	11043.21
874.344	11041.18
874.663	11042.53
874.982	11015.42
875.301	10988.07
875.62	10906.94
875.939	10955.76
876.258	10899.49
876.577	10818.13
876.896	10906.27
877.214	10791.69
877.533	10839.83
877.852	10798.02
878.17	10875.76
878.489	10761.64
878.807	10752.82
879.125	10803.9
879.444	10723.67
879.762	10757.34
880.08	10731.81
880.398	10693.39
880.716	10690.23
881.034	10642.09
881.352	10669.44
881.67	10550.8
881.988	10648.87
882.306	10579.72
882.624	10584.92
882.941	10482.78
883.259	10460.63
883.577	10448.65
883.894	10361.42
884.212	10393.06
884.529	10376.11
884.846	10372.72
885.164	10364.81
885.481	10273.06
885.798	10274.87
886.115	10217.92
886.432	10296.57
886.75	10126.17
887.067	10228.54
887.383	10189.9
887.7	10139.96
888.017	10098.83
888.334	10065.16
888.651	10031.94
888.967	9995.56
889.284	9998.49
889.6	9985.39
889.917	9884.15
890.233	9944.71
890.55	9901.32
890.866	9847.99
891.182	9853.87
891.498	9787.43
891.815	9807.09
892.131	9711.5
892.447	9717.6
892.763	9683.93
893.079	9637.6
893.395	9600.09
893.71	9677.82
894.026	9587.21
894.342	9578.84
894.657	9438.51
894.973	9443.71
895.289	9459.53
895.604	9490.26
895.92	9333.2
896.235	9369.81
896.55	9308.12
896.865	9314.67
897.181	9197.39
897.496	9271.06
897.811	9220.89
898.126	9125.97
898.441	9149.48
898.756	9108.12
899.071	9110.61
899.386	9052.08
899.7	9023.15
900.015	8975.24
900.33	8930.73
900.644	8876.72
900.959	8858.19
901.273	8819.99
901.588	8801.69
901.902	8777.28
902.216	8767.11
902.531	8750.17
902.845	8734.8
903.159	8718.98
903.473	8626.1
903.787	8635.14
904.101	8528.25
904.415	8581.81
904.729	8557.63
905.042	8499.1
905.356	8499.55
905.67	8460
905.984	8496.84
906.297	8372.32
906.611	8357.18
906.924	8338.42
907.237	8242.16
907.551	8204.42
907.864	8245.09
908.177	8173.23
908.491	8190.41
908.804	8134.36
909.117	8069.73
909.43	8052.1
909.743	8095.95
910.056	7993.12
910.368	7923.07
910.681	7853.01
910.994	7879.91
911.307	7889.85
911.619	7850.75
911.932	7813.69
912.244	7709.97
912.557	7785.45
912.869	7681.04
913.181	7656.41
913.494	7668.16
913.806	7621.61
914.118	7530.99
914.43	7501.16
914.742	7438.56
915.054	7451.67
915.366	7388.62
915.678	7329.41
915.99	7405.34
916.302	7338.9
916.613	7279.7
916.925	7330.54
917.236	7295.29
917.548	7241.05
917.859	7201.28
918.171	7160.15
918.482	7167.61
918.794	7129.42
919.105	7119.25
919.416	7032.7
919.727	7004.22
920.038	6957.67
920.349	6940.04
920.66	6911.12
920.971	6912.93
921.282	6867.73
921.593	6835.87
921.903	6777.34
922.214	6781.63
922.525	6729.43
922.835	6739.37
923.146	6675.42
923.456	6661.41
923.767	6587.96
924.077	6579.38
924.387	6594.29
924.697	6545.25
925.008	6507.74
925.318	6431.58
925.628	6495.99
925.938	6451.02
926.248	6408.53
926.558	6379.83
926.867	6380.51
927.177	6339.16
927.487	6284.92
927.796	6169.22
928.106	6258.25
928.416	6253.51
928.725	6171.02
929.034	6189.33
929.344	6196.56
929.653	6156.56
929.962	6100.07
930.271	6012.61
930.581	6039.95
930.89	5956.57
931.199	5974.65
931.508	5968.32
931.817	5928.54
932.125	5936.45
932.434	5886.29
932.743	5828.66
933.051	5835.21
933.36	5854.65
933.669	5740.75
933.977	5767.64
934.286	5674.31
934.594	5672.28
934.902	5683.35
935.21	5656.46
935.519	5629.12
935.827	5618.04
936.135	5621.43
936.443	5586.63
936.751	5506.41
937.059	5479.97
937.367	5528.78
937.674	5467.09
937.982	5441.1
938.29	5434.09
938.597	5401.78
938.905	5368.11
939.213	5371.27
939.52	5292.86
939.827	5309.13
940.135	5257.6
940.442	5217.6
940.749	5242.01
941.056	5240.43
941.363	5197.72
941.67	5157.04
941.977	5166.53
942.284	5106.87
942.591	5059.87
942.898	5037.72
943.205	5097.15
943.511	5044.27
943.818	5056.93
944.125	4998.63
944.431	4977.84
944.738	4978.74
945.044	4922.47
945.35	4865.07
945.657	4874.11
945.963	4832.3
946.269	4882.47
946.575	4826.65
946.881	4858.74
947.187	4769.71
947.493	4798.63
947.799	4772.64
948.105	4729.71
948.41	4709.37
948.716	4668.01
949.022	4667.79
949.327	4665.08
949.633	4615.36
949.938	4615.13
950.244	4622.82
950.549	4588.01
950.854	4531.29
951.16	4569.26
951.465	4517.73
951.77	4511.18
952.075	4448.36
952.38	4461.01
952.685	4403.16
952.99	4427.12
953.294	4401.13
953.599	4309.15
953.904	4366.55
954.209	4318.42
954.513	4320.45
954.818	4303.28
955.122	4317.74
955.426	4274.8
955.731	4230.74
956.035	4198.65
956.339	4160
956.643	4193.45
956.948	4174.01
957.252	4167.24
957.556	4151.42
957.86	4071.42
958.163	4123.85
958.467	4089.5
958.771	4067.8
959.075	4039.33
959.378	4014.7
959.682	4044.53
959.985	3967.47
960.289	3956.39
960.592	3949.16
960.896	3915.26
961.199	3923.85
961.502	3882.27
961.805	3908.26
962.108	3846.11
962.411	3835.94
962.714	3857.19
963.017	3854.7
963.32	3821.93
963.623	3806.57
963.926	3756.62
964.228	3736.74
964.531	3721.37
964.833	3711.88
965.136	3692.45
965.438	3690.64
965.741	3651.32
966.043	3633.92
966.345	3597.31
966.648	3579.91
966.95	3612.9
967.252	3581.26
967.554	3559.79
967.856	3561.83
968.158	3520.7
968.46	3472.11
968.761	3498.1
969.063	3486.12
969.365	3445.22
969.666	3491.32
969.968	3424.43
970.269	3418.55
970.571	3429.85
970.872	3395.28
971.174	3387.14
971.475	3366.13
971.776	3363.87
972.077	3321.83
972.378	3329.07
972.679	3316.64
972.98	3337.43
973.281	3316.86
973.582	3285
973.883	3306.69
974.183	3217.2
974.484	3231.44
974.785	3245
975.085	3201.61
975.386	3170.88
975.686	3180.59
975.986	3174.27
976.287	3150.54
976.587	3115.51
976.887	3116.64
977.187	3123.87
977.487	3071.22
977.787	3057.66
978.087	3093.59
978.387	3042.29
978.687	3057.21
978.987	3020.82
979.286	3033.25
979.586	2995.74
979.885	2970.2
980.185	2961.17
980.484	2960.71
980.784	2930.21
981.083	2928.4
981.382	2892.69
981.682	2874.16
981.981	2928.17
982.28	2878.68
982.579	2867.83
982.878	2869.87
983.177	2828.29
983.475	2807.27
983.774	2803.43
984.073	2802.07
984.372	2799.59
984.67	2760.04
984.969	2801.62
985.267	2799.81
985.566	2783.99
985.864	2705.8
986.162	2745.58
986.461	2686.82
986.759	2723.66
987.057	2691.12
987.355	2722.3
987.653	2635.07
987.951	2634.17
988.249	2629.87
988.547	2615.19
988.844	2616.77
989.142	2605.02
989.44	2591.01
989.737	2591.23
990.035	2550.33
990.332	2573.83
990.63	2567.05
990.927	2520.05
991.224	2505.58
991.521	2498.8
991.819	2523.89
992.116	2462.2
992.413	2474.85
992.71	2458.13
993.006	2438.69
993.303	2430.78
993.6	2438.92
993.897	2406.38
994.193	2419.26
994.49	2412.48
994.787	2393.72
995.083	2381.29
995.379	2349.43
995.676	2348.3
995.972	2334.51
996.268	2315.98
996.565	2316.21
996.861	2317.57
997.157	2266.27
997.453	2266.04
997.749	2274.18
998.044	2254.74
998.34	2201.64
998.636	2238.02
998.932	2233.5
999.227	2202.99
999.523	2181.07
999.818	2197.12
1000.114	2177.23
1000.409	2170.9
1000.704	2117.12
1001	2162.32
1001.295	2127.29
1001.59	2128.19
1001.885	2093.17
1002.18	2079.61
1002.475	2068.31
1002.77	2057.69
1003.065	2008.42
1003.359	2025.82
1003.654	2036.44
1003.949	2009.78
1004.243	2037.35
1004.538	2000.51
1004.832	1994.64
1005.127	1971.81
1005.421	1970
1005.715	1960.51
1006.009	1953.73
1006.304	1920.06
1006.598	1946.95
1006.892	1930.01
1007.186	1922.55
1007.48	1892.27
1007.773	1877.13
1008.067	1867.63
1008.361	1846.17
1008.655	1841.87
1008.948	1860.86
1009.242	1845.49
1009.535	1841.87
1009.829	1814.08
1010.122	1830.8
1010.415	1791.03
1010.708	1763.68
1011.001	1781.76
1011.295	1769.56
1011.588	1761.65
1011.881	1748.32
1012.173	1759.61
1012.466	1734.98
1012.759	1705.38
1013.052	1696.11
1013.344	1732.5
1013.637	1685.94
1013.93	1672.16
1014.222	1658.15
1014.514	1628.09
1014.807	1660.86
1015.099	1624.7
1015.391	1628.32
1015.683	1612.27
1015.976	1624.25
1016.268	1595.55
1016.56	1591.94
1016.851	1556.68
1017.143	1548.55
1017.435	1548.55
1017.727	1549
1018.018	1539.96
1018.31	1532.5
1018.602	1531.6
1018.893	1491.37
1019.185	1476.91
1019.476	1478.04
1019.767	1472.16
1020.058	1492.28
1020.35	1469.23
1020.641	1464.48
1020.932	1437.59
1021.223	1433.97
1021.514	1429.91
1021.804	1399.85
1022.095	1409.34
1022.386	1405.05
1022.677	1382.22
1022.967	1358.95
1023.258	1369.12
1023.548	1353.98
1023.839	1344.48
1024.129	1331.38
1024.419	1332.28
1024.709	1320.3
1025	1317.59
1025.29	1304.94
1025.58	1284.37
1025.87	1250.7
1026.16	1291.38
1026.449	1292.06
1026.739	1247.99
1027.029	1269.91
1027.319	1244.15
1027.608	1257.26
1027.898	1241.21
1028.187	1237.14
1028.477	1224.04
1028.766	1204.83
1029.055	1217.03
1029.344	1199.18
1029.634	1188.78
1029.923	1165.28
1030.212	1148.33
1030.501	1158.5
1030.79	1182.23
1031.078	1154.88
1031.367	1135.9
1031.656	1136.81
1031.945	1130.48
1032.233	1097.71
1032.522	1095.9
1032.81	1087.77
1033.099	1103.59
1033.387	1058.62
1033.675	1077.37
1033.963	1062.23
1034.251	1066.75
1034.54	1082.12
1034.828	1049.12
1035.116	1039.18
1035.403	1038.28
1035.691	1042.57
1035.979	1024.72
1036.267	1011.61
1036.554	1008
1036.842	1003.25
1037.129	1002.57
1037.417	1013.42
1037.704	994.21
1037.992	990.37
1038.279	981.1
1038.566	962.35
1038.853	962.35
1039.14	962.35
