Data from red_cardboard_box_FLMS001491_00068.txt Node
Date: Wed Feb 08 11:32:57 GMT 2017
User: dcchb
Spectrometer: FLMS00149
Trigger mode: 0
Integration Time (sec): 2.000000E-2
Scans to average: 10
Electric dark correction enabled: true
Nonlinearity correction enabled: false
Boxcar width: 0
XAxis mode: Wavelengths
Number of Pixels in Spectrum: 2048
>>>>>Begin Spectral Data<<<<<
341.393	-22.22
341.776	-22.22
342.16	-22.22
342.543	-48.66
342.927	-89.56
343.31	-56.57
343.693	-66.28
344.077	-83.91
344.46	-53.4
344.843	-50.01
345.226	-36.23
345.61	-32.61
345.993	-26.74
346.376	-1.2
346.759	17.56
347.142	29.99
347.525	38.57
347.908	48.06
348.291	76.09
348.674	100.27
349.057	96.42
349.44	111.79
349.823	147.04
350.206	151.11
350.588	207.61
350.971	218.23
351.354	219.13
351.737	223.43
352.119	251.9
352.502	286.02
352.884	265.01
353.267	293.93
353.65	275.18
354.032	302.52
354.414	314.95
354.797	313.59
355.179	314.72
355.562	324.44
355.944	338.68
356.326	321.73
356.709	320.15
357.091	341.62
357.473	339.58
357.855	343.2
358.238	353.82
358.62	354.5
359.002	355.4
359.384	352.46
359.766	324.89
360.148	349.07
360.53	331.67
360.912	358.11
361.294	339.58
361.676	341.84
362.057	323.76
362.439	347.72
362.821	322.18
363.203	307.49
363.584	321.5
363.966	322.86
364.348	334.84
364.729	318.57
365.111	317.66
365.493	332.12
365.874	330.32
366.256	328.73
366.637	317.44
367.019	309.3
367.4	321.5
367.781	321.95
368.163	311.79
368.544	316.98
368.925	302.52
369.306	311.79
369.688	308.85
370.069	319.92
370.45	310.2
370.831	303.42
371.212	303.2
371.593	295.29
371.974	316.53
372.355	326.25
372.736	304.1
373.117	305.46
373.498	326.7
373.879	320.6
374.26	306.59
374.641	321.73
375.021	317.66
375.402	322.63
375.783	302.52
376.163	326.47
376.544	332.12
376.925	316.98
377.305	307.49
377.686	315.18
378.066	323.76
378.447	340.26
378.827	323.08
379.208	309.3
379.588	313.37
379.968	339.13
380.349	326.47
380.729	327.83
381.109	334.38
381.489	323.99
381.87	317.89
382.25	327.6
382.63	352.01
383.01	330.54
383.39	321.73
383.77	342.07
384.15	310.88
384.53	329.86
384.91	339.13
385.29	336.42
385.67	324.67
386.049	330.77
386.429	315.18
386.809	326.7
387.189	342.52
387.568	337.32
387.948	335.74
388.328	370.54
388.707	342.75
389.087	353.59
389.466	355.17
389.846	356.08
390.225	351.78
390.605	347.26
390.984	316.98
391.363	327.38
391.743	340.49
392.122	331.45
392.501	351.11
392.881	378.9
393.26	356.08
393.639	361.5
394.018	339.36
394.397	349.75
394.776	356.76
395.155	361.05
395.534	355.4
395.913	354.5
396.292	377.55
396.671	350.43
397.05	361.28
397.429	356.53
397.808	368.51
398.186	361.95
398.565	349.07
398.944	378.68
399.323	369.19
399.701	351.33
400.08	371.22
400.458	386.59
400.837	361.05
401.215	381.16
401.594	371.45
401.972	370.77
402.351	367.38
402.729	390.2
403.107	378.68
403.486	363.08
403.864	370.54
404.242	365.34
404.62	376.87
404.999	363.99
405.377	388.39
405.755	384.1
406.133	387.94
406.511	380.94
406.889	399.47
407.267	377.77
407.645	391.56
408.023	392.91
408.401	388.62
408.779	404.44
409.156	406.7
409.534	403.31
409.912	405.34
410.29	426.58
410.667	412.12
411.045	408.96
411.422	416.19
411.8	401.27
412.178	406.25
412.555	405.79
412.933	434.27
413.31	436.53
413.687	399.24
414.065	416.87
414.442	430.43
414.819	412.57
415.197	421.84
415.574	427.94
415.951	451.44
416.328	468.62
416.705	436.3
417.082	417.09
417.46	429.3
417.837	429.75
418.214	449.41
418.591	456.19
418.967	456.41
419.344	454.83
419.721	443.08
420.098	467.94
420.475	454.38
420.852	434.04
421.228	445.79
421.605	456.64
421.982	464.55
422.358	447.38
422.735	456.87
423.111	472.23
423.488	484.21
423.864	449.18
424.241	479.24
424.617	476.75
424.994	475.85
425.37	482.85
425.746	477.43
426.123	471.33
426.499	492.12
426.875	465.91
427.251	469.3
427.627	500.93
428.003	503.19
428.379	512.46
428.756	494.61
429.132	498.67
429.507	514.49
429.883	501.39
430.259	519.24
430.635	516.07
431.011	512.91
431.387	526.24
431.763	530.54
432.138	531.67
432.514	542.29
432.89	528.73
433.265	547.94
433.641	524.44
434.016	553.59
434.392	544.77
434.767	554.49
435.143	574.38
435.518	566.69
435.894	551.33
436.269	571.67
436.644	551.33
437.02	575.96
437.395	562.85
437.77	594.72
438.145	568.28
438.52	554.94
438.895	560.37
439.271	581.61
439.646	582.96
440.021	588.61
440.395	588.84
440.77	589.74
441.145	611.21
441.52	613.92
441.895	605.11
442.27	596.75
442.645	613.02
443.019	612.34
443.394	611.66
443.769	593.36
444.143	606.24
444.518	611.21
444.892	619.8
445.267	619.57
445.641	625.9
446.016	617.99
446.39	624.77
446.764	652.57
447.139	629.29
447.513	622.29
447.887	643.75
448.262	629.52
448.636	649.63
449.01	632.91
449.384	671.32
449.758	619.12
450.132	651.44
450.506	655.96
450.88	663.64
451.254	645.56
451.628	673.58
452.002	672.45
452.376	680.14
452.75	674.04
453.123	662.06
453.497	672.91
453.871	672.91
454.244	693.92
454.618	675.62
454.992	702.96
455.365	700.7
455.739	706.8
456.112	735.73
456.486	703.19
456.859	744.77
457.232	754.49
457.606	733.47
457.979	744.77
458.352	730.53
458.725	733.7
459.099	733.47
459.472	773.02
459.845	771.21
460.218	775.5
460.591	773.69
460.964	759.01
461.337	784.32
461.71	798.33
462.083	807.14
462.456	793.13
462.829	798.33
463.201	829.74
463.574	778.89
463.947	819.12
464.32	845.56
464.692	836.07
465.065	844.88
465.438	844.2
465.81	848.95
466.183	857.53
466.555	886.91
466.928	885.78
467.3	866.57
467.672	889.62
468.045	895.95
468.417	901.37
468.789	901.15
469.161	902.28
469.534	929.17
469.906	944.54
470.278	912.9
470.65	957.64
471.022	935.72
471.394	934.82
471.766	987.02
472.138	997.64
472.51	987.25
472.882	1016.4
473.253	1023.86
473.625	1022.95
473.997	1047.59
474.369	1041.48
474.74	1021.82
475.112	1079.68
475.484	1061.37
475.855	1080.35
476.227	1116.28
476.598	1095.72
476.97	1123.06
477.341	1144.53
477.713	1164.19
478.084	1143.63
478.455	1177.3
478.827	1191.08
479.198	1196.73
479.569	1215.72
479.94	1221.82
480.311	1235.83
480.682	1268.37
481.053	1280.57
481.424	1306.79
481.795	1335.71
482.166	1299.56
482.537	1324.41
482.908	1335.49
483.279	1356.5
483.65	1401.7
484.021	1422.72
484.391	1439.21
484.762	1417.07
485.133	1440.8
485.503	1445.77
485.874	1518.53
486.244	1468.37
486.615	1496.39
486.985	1519.89
487.356	1565.09
487.726	1558.08
488.097	1633.56
488.467	1579.1
488.837	1636.04
489.207	1623.62
489.578	1642.6
489.948	1671.07
490.318	1722.14
490.688	1688.7
491.058	1760.34
491.428	1738.41
491.798	1773.22
492.168	1732.99
492.538	1777.74
492.908	1826.1
493.278	1820.67
493.648	1819.09
494.017	1855.25
494.387	1844.63
494.757	1853.21
495.126	1914.68
495.496	1892.99
495.866	1871.97
496.235	1924.85
496.605	1917.85
496.974	1951.06
497.344	1978.41
497.713	1978.63
498.082	1996.26
498.452	2022.25
498.821	2004.62
499.19	2019.76
499.559	2066.99
499.928	2056.6
500.298	2074
500.667	2108.57
501.036	2095.02
501.405	2138.4
501.774	2146.77
502.143	2175.24
502.512	2171.85
502.88	2167.56
503.249	2182.47
503.618	2203.49
503.987	2238.06
504.356	2248.46
504.724	2228.8
505.093	2208.46
505.462	2254.33
505.83	2294.11
506.199	2299.3
506.567	2301.11
506.936	2322.58
507.304	2335.46
507.672	2389.7
508.041	2386.99
508.409	2353.99
508.777	2393.31
509.145	2425.4
509.514	2403.93
509.882	2460.43
510.25	2444.16
510.618	2480.09
510.986	2461.11
511.354	2501.33
511.722	2505.4
512.09	2558.28
512.458	2528.9
512.826	2574.1
513.193	2573.87
513.561	2575
513.929	2609.58
514.297	2628.33
514.664	2662.91
515.032	2641.89
515.4	2678.5
515.767	2710.59
516.135	2725.73
516.502	2709.69
516.869	2742.68
517.237	2758.05
517.604	2784.04
517.972	2836.92
518.339	2847.31
518.706	2854.09
519.073	2852.74
519.44	2889.34
519.808	2920.76
520.175	2900.87
520.542	2929.8
520.909	2941.55
521.276	2957.59
521.643	3001.66
522.009	3011.83
522.376	3028.1
522.743	3073.29
523.11	3094.09
523.477	3125.95
523.843	3124.37
524.21	3146.97
524.577	3153.97
524.943	3233.06
525.31	3250.92
525.676	3265.83
526.043	3270.8
526.409	3310.58
526.776	3313.51
527.142	3290.46
527.508	3374.53
527.874	3375.66
528.241	3413.17
528.607	3422.21
528.973	3480.29
529.339	3464.25
529.705	3478.03
530.071	3552.38
530.437	3548.08
530.803	3580.85
531.169	3574.75
531.535	3572.72
531.901	3611.36
532.267	3635.77
532.632	3717.12
532.998	3635.09
533.364	3664.24
533.73	3734.97
534.095	3749.89
534.461	3718.02
534.826	3762.09
535.192	3815.42
535.557	3806.38
535.923	3808.19
536.288	3832.15
536.653	3867.85
537.019	3843.9
537.384	3884.8
537.749	3896.32
538.114	3953.72
538.479	3933.39
538.845	3963.22
539.21	4003.89
539.575	3993.95
539.94	4026.94
540.305	4024.91
540.67	4070.78
541.034	4061.74
541.399	4108.52
541.764	4110.1
542.129	4115.75
542.494	4188.97
542.858	4168.18
543.223	4158.24
543.587	4181.06
543.952	4247.28
544.316	4197.56
544.681	4256.31
545.045	4294.28
545.41	4284.56
545.774	4298.8
546.138	4354.39
546.503	4359.14
546.867	4388.74
547.231	4376.09
547.595	4371.11
547.959	4423.54
548.324	4458.12
548.688	4463.31
549.052	4481.85
549.416	4511.22
549.779	4546.93
550.143	4517.32
550.507	4611.56
550.871	4614.05
551.235	4593.03
551.599	4677.32
551.962	4685.68
552.326	4680.26
552.689	4694.5
553.053	4796.41
553.417	4742.4
553.78	4842.97
554.143	4881.83
554.507	4875.96
554.87	4887.26
555.234	4953.25
555.597	4935.39
555.96	4969.97
556.323	5008.61
556.686	5025.56
557.05	5096.07
557.413	5096.29
557.776	5163.41
558.139	5204.31
558.502	5191.43
558.865	5235.95
559.228	5268.94
559.59	5293.8
559.953	5362.05
560.316	5431.88
560.679	5435.94
561.041	5491.08
561.404	5480.01
561.767	5566.34
562.129	5656.96
562.492	5673.9
562.854	5688.14
563.217	5742.83
563.579	5771.98
563.941	5810.17
564.304	5888.59
564.666	5959.09
565.028	5947.12
565.39	6009.49
565.753	6080.45
566.115	6132.65
566.477	6159.77
566.839	6188.69
567.201	6343.49
567.563	6367.67
567.925	6359.31
568.287	6461.68
568.648	6476.14
569.01	6587.78
569.372	6576.93
569.734	6651.05
570.095	6687.44
570.457	6747.1
570.819	6841.33
571.18	6903.93
571.542	6964.49
571.903	6995.23
572.265	7079.97
572.626	7179.63
572.987	7134.43
573.349	7251.72
573.71	7305.5
574.071	7422.11
574.432	7474.54
574.794	7516.57
575.155	7642.21
575.516	7639.73
575.877	7759.73
576.238	7823.45
576.599	7833.62
576.96	8011.02
577.32	8053.28
577.681	8169.88
578.042	8245.59
578.403	8306.6
578.763	8374.17
579.124	8559.03
579.485	8579.36
579.845	8681.74
580.206	8802.41
580.566	8855.52
580.927	9030.43
581.287	9217.54
581.648	9172.57
582.008	9319.91
582.368	9394.71
582.728	9641.03
583.089	9729.17
583.449	9801.71
583.809	10042.83
584.169	10082.6
584.529	10215.93
584.889	10502.03
585.249	10518.52
585.609	10697.28
585.969	10892.52
586.329	10994.89
586.688	11181.33
587.048	11439.63
587.408	11418.39
587.768	11702.22
588.127	11876.68
588.487	12031.93
588.846	12423.11
589.206	12503.1
589.565	12630.56
589.925	12962.3
590.284	13216.98
590.643	13409.75
591.003	13680.93
591.362	13871.2
591.721	14076.62
592.08	14381.7
592.44	14651.75
592.799	14957.5
593.158	15118.18
593.517	15407.66
593.876	15667.54
594.235	15882.22
594.593	16208.54
594.952	16634.07
595.311	16796.55
595.67	17166.94
596.029	17543.65
596.387	17846.69
596.746	18162.84
597.104	18438.09
597.463	18696.39
597.822	19150.84
598.18	19421.79
598.538	19719.41
598.897	20096.8
599.255	20284.59
599.613	20946.27
599.972	21105.36
600.33	21496.99
600.688	21681.39
601.046	22149.86
601.404	22591.43
601.762	22880.91
602.12	23305.08
602.478	23631.17
602.836	24015.12
603.194	24177.6
603.552	24637.02
603.91	24795.21
604.268	25356.1
604.625	25605.58
604.983	26039.7
605.341	26088.06
605.698	26510.19
606.056	26981.82
606.413	27231.3
606.771	27649.15
607.128	27923.49
607.485	28050.27
607.843	28325.96
608.2	28833.97
608.557	29339.72
608.914	29506.27
609.272	29869.43
609.629	30104.67
609.986	30540.37
610.343	30613.81
610.7	31112.78
611.057	31341.03
611.414	31530.4
611.771	31884.51
612.127	32063.72
612.484	32311.62
612.841	32639.98
613.198	32705.51
613.554	32985.73
613.911	33336
614.267	33608.09
614.624	33717.23
614.98	34038.81
615.337	34245.13
615.693	34502.07
616.05	34653.03
616.406	34919.92
616.762	34955.39
617.118	35210.98
617.475	35396.96
617.831	35841.47
618.187	35927.8
618.543	36027
618.899	36412.98
619.255	36438.07
619.611	36544.05
619.967	36870.15
620.323	37023.14
620.678	37033.08
621.034	37240.31
621.39	37268.1
621.746	37446.85
622.101	37835.54
622.457	37628.32
622.812	37824.7
623.168	38080.28
623.523	38159.83
623.879	38224.24
624.234	38176.78
624.589	38492.7
624.945	38697.22
625.3	38882.52
625.655	38835.07
626.01	38921.17
626.365	38986.7
626.72	39096.75
627.075	39106.02
627.43	39129.07
627.785	39176.75
628.14	39266.69
628.495	39381.27
628.85	39522.73
629.205	39423.3
629.559	39685.67
629.914	39636.63
630.269	39823.74
630.623	39767.25
630.978	39682.5
631.332	39947.13
631.687	40084.53
632.041	39798.2
632.396	40127.24
632.75	39815.38
633.104	40072.1
633.459	39957.3
633.813	39887.69
634.167	40103.73
634.521	40067.8
634.875	40143.73
635.229	40070.51
635.583	40039.33
635.937	40126.78
636.291	40145.54
636.645	40327
636.999	40181.02
637.352	40279.55
637.706	39990.52
638.06	40153.68
638.413	40104.19
638.767	40091.08
639.121	40254.92
639.474	40142.83
639.828	40104.41
640.181	40241.13
640.534	40309.38
640.888	40185.77
641.241	40103.06
641.594	40088.59
641.947	40423.05
642.301	40253.79
642.654	40300.34
643.007	40207.69
643.36	40271.19
643.713	40170.17
644.066	40232.77
644.419	40087.91
644.771	39799.33
645.124	39499
645.477	39561.38
645.83	39234.6
646.182	39081.16
646.535	39180.82
646.888	39372.68
647.24	39195.73
647.593	39484.09
647.945	39296.52
648.298	39099.47
648.65	39286.81
649.002	39118
649.355	39247.26
649.707	39152.12
650.059	39328.61
650.411	39654.93
650.763	39809.96
651.115	40237.06
651.467	40228.7
651.819	40097.86
652.171	40136.73
652.523	40067.58
652.875	40094.24
653.227	39825.55
653.578	40272.77
653.93	40190.51
654.282	40103.51
654.633	39903.51
654.985	40017.86
655.337	39988.71
655.688	40054.02
656.039	40095.82
656.391	39787.81
656.742	39853.12
657.094	39962.04
657.445	40013.57
657.796	39904.64
658.147	39909.61
658.498	39886.79
658.849	40008.14
659.2	39833.91
659.551	39773.12
659.902	39946.68
660.253	39950.97
660.604	39920.01
660.955	39757.08
661.306	39966.11
661.656	39912.33
662.007	40001.36
662.358	39967.47
662.708	39990.97
663.059	39953
663.409	39562.5
663.76	39858.77
664.11	39866
664.461	39924.3
664.811	39831.88
665.161	39972.21
665.511	39781.71
665.862	39947.58
666.212	40036.84
666.562	40084.07
666.912	39932.44
667.262	39944.64
667.612	39868.49
667.962	39923.17
668.312	39807.02
668.662	40065.77
669.011	40000.69
669.361	39869.39
669.711	39799.11
670.06	39852.21
670.41	39770.86
670.76	39697.19
671.109	39821.03
671.459	39882.27
671.808	39718.66
672.157	39988.03
672.507	39529.29
672.856	39627.14
673.205	39683.41
673.554	39735.16
673.904	39610.41
674.253	39786.68
674.602	39542.84
674.951	39181.05
675.3	38956.87
675.649	39578.1
675.998	39626.91
676.346	39555.05
676.695	39673.46
677.044	39245.68
677.393	39392.57
677.741	39485.9
678.09	39437.31
678.438	39330.87
678.787	39493.81
679.135	39535.61
679.484	39147.37
679.832	39459.23
680.181	39236.64
680.529	39317.77
680.877	39179.24
681.225	39213.36
681.573	39293.59
681.922	39098.56
682.27	38930.43
682.618	38935.63
682.966	38912.13
683.314	38911.67
683.661	38851.34
684.009	38708.52
684.357	38546.03
684.705	38615.86
685.053	38570.67
685.4	38564.11
685.748	38467.39
686.095	38403.89
686.443	38336.55
686.79	38159.83
687.138	38240.51
687.485	38266.95
687.832	37996.22
688.18	38059.72
688.527	37955.54
688.874	37845.26
689.221	37971.81
689.568	37770.24
689.915	37596
690.262	37674.64
690.609	37559.17
690.956	37369.34
691.303	37311.49
691.65	37306.52
691.997	37262.45
692.344	36987.21
692.69	36828.11
693.037	36988.11
693.383	36687.78
693.73	36787.89
694.077	36666.99
694.423	36697.72
694.769	36664.73
695.116	36511.29
695.462	36485.52
695.808	36398.75
696.155	36419.08
696.501	36095.03
696.847	36213.67
697.193	35898.87
697.539	36017.06
697.885	35688.03
698.231	35676.51
698.577	35824.52
698.923	35632.89
699.269	35382.28
699.614	35252.79
699.96	35179.12
700.306	35331.43
700.651	35109.74
700.997	34868.62
701.342	34948.39
701.688	34931.89
702.033	34775.74
702.379	34796.75
702.724	34701.39
703.069	34737.55
703.415	34339.82
703.76	34391.57
704.105	34402.87
704.45	34270.67
704.795	34023.22
705.14	33969.66
705.485	34028.64
705.83	33828.42
706.175	34024.12
706.52	33899.38
706.865	33837.91
707.209	33740.29
707.554	33549.56
707.899	33640.63
708.243	33451.71
708.588	33364.25
708.932	33111.83
709.277	33157.02
709.621	33253.74
709.966	32898.95
710.31	33125.61
710.654	32755.23
710.998	32840.42
711.342	32816.24
711.687	32792.29
712.031	32686.3
712.375	32423.71
712.719	32485.4
713.063	32499.41
713.407	32624.38
713.75	32280.66
714.094	32276.82
714.438	32305.75
714.782	32176.48
715.125	32112.76
715.469	32223.71
715.812	32045.19
716.156	31745.31
716.499	31699.66
716.843	31905.76
717.186	31682.71
717.53	31837.96
717.873	31801.13
718.216	31534.24
718.559	31540.79
718.902	31434.58
719.246	31428.93
719.589	31352.1
719.932	31346.9
720.275	31149.62
720.617	31204.08
720.96	31015.39
721.303	31160.92
721.646	31177.87
721.989	30957.08
722.331	31106
722.674	31041.6
723.016	31052.67
723.359	30885.9
723.701	31019.9
724.044	30720.03
724.386	30527.94
724.729	30752.12
725.071	30590.99
725.413	30594.83
725.755	30557.32
726.097	30392.35
726.439	30337.89
726.782	30362.75
727.124	30491.33
727.465	30317.55
727.807	30298.12
728.149	30238.23
728.491	30179.02
728.833	30319.36
729.175	30010.21
729.516	30008.86
729.858	29970.67
730.199	30157.33
730.541	29943.55
730.882	29923.89
731.224	30057.22
731.565	29819.94
731.906	29683.44
732.248	29877.56
732.589	29661.52
732.93	29498.14
733.271	29483.22
733.612	29584.69
733.953	29703.56
734.294	29435.99
734.635	29434.86
734.976	29575.42
735.317	29240.06
735.658	29347.63
735.999	29371.81
736.339	29260.85
736.68	29259.73
737.021	29167.98
737.361	29139.95
737.702	29178.82
738.042	29159.84
738.383	29026.96
738.723	29072.16
739.063	28950.58
739.404	29102.22
739.744	28864.26
740.084	28900.41
740.424	28931.37
740.764	28843.01
741.104	28905.16
741.444	28834.88
741.784	28690.25
742.124	28637.37
742.464	28770.7
742.804	28599.4
743.143	28568.44
743.483	28629.23
743.823	28426.98
744.162	28406.41
744.502	28502.91
744.841	28286.64
745.181	28491.16
745.52	28412.52
745.86	28289.58
746.199	28280.54
746.538	28289.13
746.877	28344.95
747.216	28200.09
747.556	28149.02
747.895	28205.97
748.234	28153.09
748.573	27996.03
748.911	28003.26
749.25	28009.81
749.589	27857.73
749.928	27783.83
750.267	27842.14
750.605	27766.43
750.944	27728.69
751.283	27699.54
751.621	27710.84
751.96	27561.24
752.298	27549.04
752.636	27565.31
752.975	27423.16
753.313	27354.69
753.651	27506.32
753.989	27283.05
754.327	27222.72
754.666	27217.97
755.004	27180.46
755.342	27236.73
755.679	27068.37
756.017	27003.06
756.355	27123.74
756.693	26986.11
757.031	27022.72
757.368	26857.53
757.706	26706.35
758.044	26736.63
758.381	26748.83
758.719	26561.49
759.056	26513.36
759.394	26500.93
759.731	26303.64
760.068	26356.98
760.405	26175.96
760.743	26117.89
761.08	26198.11
761.417	26155.85
761.754	25989.98
762.091	25947.95
762.428	25788.86
762.765	25741.4
763.102	25742.3
763.438	25711.34
763.775	25402.43
764.112	25534.85
764.449	25590.22
764.785	25395.65
765.122	25236.55
765.458	25138.93
765.795	25076.78
766.131	24969.22
766.467	24983
766.804	24888.31
767.14	24797.92
767.476	24762.89
767.812	24627.3
768.148	24664.82
768.485	24524.93
768.821	24459.85
769.157	24417.14
769.492	24283.13
769.828	24284.71
770.164	24186.19
770.5	23997.26
770.836	24133.08
771.171	23980.09
771.507	23823.26
771.842	23637.05
772.178	23647.44
772.513	23584.62
772.849	23631.85
773.184	23410.84
773.519	23482.25
773.855	23364.06
774.19	23294.01
774.525	23185.08
774.86	23054.92
775.195	23104.41
775.53	22959.78
775.865	22920
776.2	22780.8
776.535	22615.61
776.87	22527.92
777.205	22451.77
777.539	22449.28
777.874	22443.18
778.209	22293.13
778.543	22187.59
778.878	21987.83
779.212	21969.97
779.547	22036.19
779.881	22008.62
780.215	21772.92
780.55	21943.76
780.884	21687.95
781.218	21640.94
781.552	21610.66
781.886	21536.54
782.22	21460.83
782.554	21269.43
782.888	21103.1
783.222	21076.89
783.556	20937.01
783.889	20977
784.223	20768.65
784.557	20741.76
784.89	20816.78
785.224	20718.48
785.557	20587.18
785.891	20470.58
786.224	20412.5
786.558	20498.15
786.891	20356.68
787.224	20230.13
787.557	20141.55
787.891	20098.38
788.224	20069.91
788.557	20063.36
788.89	19967.99
789.223	20010.48
789.556	19810.48
789.888	19747.43
790.221	19739.3
790.554	19565.06
790.887	19629.7
791.219	19490.72
791.552	19395.8
791.884	19318.07
792.217	19246.43
792.549	19288.24
792.882	19072.65
793.214	19026.55
793.546	19055.02
793.879	18853.44
794.211	18803.73
794.543	18944.52
794.875	18753.11
795.207	18826.1
795.539	18741.58
795.871	18676.73
796.203	18556.73
796.535	18406.68
796.867	18453.23
797.198	18387.02
797.53	18397.41
797.862	18241.03
798.193	18309.96
798.525	18135.72
798.856	18185.21
799.188	17933.47
799.519	17947.48
799.85	17771.44
800.182	17857.31
800.513	17918.55
800.844	17683.76
801.175	17743.42
801.506	17676.07
801.837	17605.34
802.168	17578.45
802.499	17447.61
802.83	17389.53
803.161	17418.45
803.491	17416.65
803.822	17418.45
804.153	17301.17
804.483	17100.95
804.814	17072.93
805.145	17012.82
805.475	17006.94
805.805	16936.66
806.136	16889.88
806.466	16936.21
806.796	16840.16
807.126	16675.65
807.457	16733.95
807.787	16696.21
808.117	16597.23
808.447	16590.45
808.777	16640.4
809.107	16506.61
809.436	16469.33
809.766	16389.55
810.096	16294.64
810.426	16328.77
810.755	16274.76
811.085	16191.82
811.414	16192.95
811.744	16112.95
812.073	16159.5
812.403	16162.89
812.732	16064.37
813.061	15946.63
813.39	15907.99
813.719	15787.54
814.049	15896.46
814.378	15823.47
814.707	15822.34
815.036	15759.06
815.365	15728.78
815.693	15570.59
816.022	15587.77
816.351	15581.44
816.68	15472.29
817.008	15551.38
817.337	15419.41
817.665	15346.19
817.994	15313.2
818.322	15355.46
818.651	15342.35
818.979	15343.48
819.307	15386.64
819.636	15213.09
819.964	15206.31
820.292	15235.01
820.62	15190.72
820.948	15136.25
821.276	15190.72
821.604	15166.31
821.932	15087.22
822.259	15155.01
822.587	15120.89
822.915	15064.62
823.243	15055.13
823.57	15022.59
823.898	15086.54
824.225	15008.35
824.553	15031.4
824.88	15041.57
825.207	15037.95
825.535	15098.29
825.862	15164.73
826.189	14981.46
826.516	15023.94
826.843	15028.91
827.17	15078.85
827.497	14989.37
827.824	15133.99
828.151	15034.79
828.478	15016.71
828.805	15098.06
829.131	14873.66
829.458	14979.2
829.785	14927.9
830.111	14971.97
830.438	15078.63
830.764	14954.56
831.09	14962.25
831.417	14917.5
831.743	15007.9
832.069	14920.22
832.395	14862.36
832.722	15036.6
833.048	14864.62
833.374	14868.46
833.7	14803.16
834.026	14887.67
834.351	14934.68
834.677	14969.03
835.003	14918.41
835.329	14847
835.654	14845.64
835.98	14778.3
836.306	14749.82
836.631	14717.51
836.956	14813.55
837.282	14711.86
837.607	14664.18
837.932	14643.39
838.258	14727.68
838.583	14689.26
838.908	14508.7
839.233	14594.12
839.558	14594.57
839.883	14452.43
840.208	14470.28
840.533	14444.3
840.858	14493.11
841.182	14521.81
841.507	14451.07
841.832	14380.79
842.156	14353.68
842.481	14314.81
842.805	14311.64
843.13	14344.18
843.454	14270.51
843.778	14200.69
844.103	14142.16
844.427	14113.68
844.751	14131.76
845.075	14036.62
845.399	14055.38
845.723	13967.02
846.047	13959.11
846.371	13804.31
846.695	13851.77
847.019	13712.11
847.343	13654.49
847.666	13608.16
847.99	13527.03
848.313	13500.82
848.637	13405
848.96	13412.91
849.284	13366.13
849.607	13371.33
849.931	13269.86
850.254	13163.65
850.577	13042.98
850.9	13052.69
851.223	12978.35
851.546	12977.44
851.869	12873.72
852.192	13002.07
852.515	12837.33
852.838	12739.03
853.161	12736.32
853.483	12746.26
853.806	12581.97
854.129	12597.56
854.451	12566.38
854.774	12517.79
855.096	12546.49
855.419	12482.09
855.741	12442.99
856.063	12309.66
856.385	12359.15
856.708	12318.25
857.03	12242.32
857.352	12204.13
857.674	12202.55
857.996	12213.85
858.318	12132.27
858.64	12036.45
858.961	12017.47
859.283	12028.09
859.605	11979.5
859.926	12046.84
860.248	11918.49
860.57	11891.14
860.891	11945.83
861.212	11853.85
861.534	11790.13
861.855	11813.18
862.176	11786.51
862.498	11811.6
862.819	11774.54
863.14	11681.66
863.461	11607.53
863.782	11620.19
864.103	11689.79
864.424	11588.55
864.745	11607.53
865.065	11572.28
865.386	11505.84
865.707	11544.94
866.027	11530.47
866.348	11514.2
866.668	11461.1
866.989	11415.9
867.309	11263.36
867.63	11433.75
867.95	11406.64
868.27	11338.16
868.59	11341.1
868.91	11368.67
869.23	11236.92
869.55	11242.12
869.87	11236.7
870.19	11200.31
870.51	11209.13
870.83	11256.13
871.15	11143.82
871.469	11225.17
871.789	11176.81
872.109	11163.7
872.428	11091.39
872.748	11084.38
873.067	11013.88
873.386	11052.29
873.706	11055.01
874.025	10975.01
874.344	11025.85
874.663	10988.12
874.982	10925.74
875.301	11008
875.62	10870.83
875.939	10868.57
876.258	10953.99
876.577	10873.09
876.896	10906.54
877.214	10848.68
877.533	10808.46
877.852	10847.33
878.17	10830.15
878.489	10810.94
878.807	10828.12
879.125	10735.69
879.444	10828.35
879.762	10702.92
880.08	10734.11
880.398	10611.63
880.716	10687.78
881.034	10598.75
881.352	10631.51
881.67	10499.31
881.988	10611.85
882.306	10506.77
882.624	10609.37
882.941	10502.7
883.259	10472.42
883.577	10457.73
883.894	10424.74
884.212	10345.65
884.529	10352.43
884.846	10353.78
885.164	10360.11
885.481	10334.12
885.798	10363.5
886.115	10232.2
886.432	10218.42
886.75	10204.18
887.067	10180.45
887.383	10118.08
887.7	10162.83
888.017	10066.11
888.334	10093.45
888.651	10061.36
888.967	10087.57
889.284	10023.85
889.6	9971.64
889.917	9963.06
890.233	9895.04
890.55	9823.4
890.866	9885.77
891.182	9863.17
891.498	9784.3
891.815	9720.58
892.131	9734.59
892.447	9711.31
892.763	9664.76
893.079	9686.68
893.395	9657.3
893.71	9598.32
894.026	9576.63
894.342	9560.58
894.657	9423.86
894.973	9395.16
895.289	9494.82
895.604	9419.79
895.92	9354.71
896.235	9356.29
896.55	9365.11
896.865	9320.36
897.181	9215.28
897.496	9288.95
897.811	9202.63
898.126	9186.13
898.441	9180.7
898.756	9096.19
899.071	9098
899.386	9076.75
899.7	9010.77
900.015	8952.24
900.33	8849.87
900.644	8865.46
900.959	8919.92
901.273	8876.76
901.588	8825.69
901.902	8791.11
902.216	8764.44
902.531	8736.2
902.845	8757.21
903.159	8670.44
903.473	8659.81
903.787	8547.73
904.101	8578.01
904.415	8547.5
904.729	8554.73
905.042	8470.67
905.356	8442.19
905.67	8452.14
905.984	8426.6
906.297	8451.46
906.611	8280.62
906.924	8341.86
907.237	8257.57
907.551	8227.51
907.864	8155.65
908.177	8180.51
908.491	8150
908.804	8117
909.117	8069.77
909.43	8014.86
909.743	7982.77
910.056	8002.66
910.368	7950.68
910.681	7969.89
910.994	7877.69
911.307	7861.87
911.619	7800.4
911.932	7731.7
912.244	7683.57
912.557	7717.47
912.869	7685.6
913.181	7672.5
913.494	7681.08
913.806	7570.35
914.118	7534.42
914.43	7495.78
914.742	7476.12
915.054	7435.21
915.366	7449.68
915.678	7453.29
915.99	7420.53
916.302	7306.18
916.613	7383.92
916.925	7288.33
917.236	7333.3
917.548	7185.28
917.859	7225.05
918.171	7182.11
918.482	7133.53
918.794	7091.95
919.105	7066.86
919.416	6942.12
919.727	6975.79
920.038	6962.01
920.349	6957.49
920.66	6942.8
920.971	6933.53
921.282	6870.48
921.593	6821.44
921.903	6771.28
922.214	6733.99
922.525	6734.67
922.835	6684.5
923.146	6667.32
923.456	6650.15
923.767	6649.25
924.077	6631.39
924.387	6593.65
924.697	6500.78
925.008	6593.65
925.318	6546.2
925.628	6492.87
925.938	6495.35
926.248	6388.91
926.558	6362.02
926.867	6316.83
927.177	6356.15
927.487	6292.42
927.796	6187.11
928.106	6220.33
928.416	6216.72
928.725	6195.25
929.034	6195.25
929.344	6207.9
929.653	6138.3
929.962	6100.11
930.271	6112.99
930.581	6037.96
930.89	6028.7
931.199	5955.7
931.508	5986.66
931.817	5975.37
932.125	5921.81
932.434	5905.31
932.743	5830.74
933.051	5816.5
933.36	5830.74
933.669	5782.6
933.977	5674.36
934.286	5741.93
934.594	5731.08
934.902	5633.23
935.21	5600.23
935.519	5640.69
935.827	5620.12
936.135	5643.62
936.443	5542.61
936.751	5579.44
937.059	5514.13
937.367	5464.87
937.674	5416.51
937.982	5448.15
938.29	5453.8
938.597	5416.06
938.905	5360.01
939.213	5374.93
939.52	5272.33
939.827	5300.35
940.135	5253.35
940.442	5218.32
940.749	5224.2
941.056	5255.38
941.363	5229.4
941.67	5175.16
941.977	5127.93
942.284	5117.76
942.591	5106.46
942.898	5082.96
943.205	5054.94
943.511	5088.38
943.818	5025.33
944.125	5052.23
944.431	4991.89
944.738	4998.89
945.044	4925
945.35	4881.38
945.657	4892.23
945.963	4863.53
946.269	4829.41
946.575	4864.21
946.881	4834.83
947.187	4805.68
947.493	4797.09
947.799	4755.96
948.105	4741.5
948.41	4711.22
948.716	4691.11
949.022	4614.72
949.327	4627.38
949.633	4621.28
949.938	4635.51
950.244	4642.29
950.549	4574.27
950.854	4500.38
951.16	4523.65
951.465	4486.14
951.77	4482.98
952.075	4430.55
952.38	4439.36
952.685	4459.7
952.99	4414.5
953.294	4380.61
953.599	4331.57
953.904	4326.14
954.209	4302.19
954.513	4314.39
954.818	4277.11
955.122	4253.6
955.426	4252.92
955.731	4235.75
956.035	4187.84
956.339	4174.28
956.643	4201.17
956.948	4210.21
957.252	4129.76
957.556	4140.16
957.86	4119.6
958.163	4116.21
958.467	4062.65
958.771	4052.03
959.075	4071.69
959.378	4038.24
959.682	4000.28
959.985	3983.78
960.289	3965.02
960.592	3934.29
960.896	3944.23
961.199	3920.5
961.502	3901.3
961.805	3880.05
962.108	3876.21
962.411	3885.48
962.714	3840.28
963.017	3865.82
963.32	3820.39
963.623	3796.89
963.926	3773.39
964.228	3728.42
964.531	3734.52
964.833	3755.08
965.136	3725.93
965.438	3678.02
965.741	3653.17
966.043	3650.23
966.345	3648.2
966.648	3631.47
966.95	3623.56
967.252	3577.46
967.554	3559.61
967.856	3579.95
968.158	3540.85
968.46	3537.69
968.761	3508.76
969.063	3496.11
969.365	3422.89
969.666	3450.46
969.968	3442.32
970.269	3451.82
970.571	3401.87
970.872	3431.25
971.174	3400.29
971.475	3398.71
971.776	3342.21
972.077	3362.33
972.378	3320.52
972.679	3301.99
972.98	3295.89
973.281	3296.79
973.582	3307.64
973.883	3245.95
974.183	3192.84
974.484	3241.88
974.785	3199.62
975.085	3207.53
975.386	3231.93
975.686	3183.35
975.986	3167.53
976.287	3175.21
976.587	3116.01
976.887	3150.81
977.187	3122.11
977.487	3128.43
977.787	3063.58
978.087	3015.67
978.387	3037.36
978.687	3067.65
978.987	3039.62
979.286	3006.18
979.586	2945.16
979.885	2950.36
980.185	2934.99
980.484	2953.52
980.784	2946.97
981.083	2920.08
981.382	2897.93
981.682	2926.41
981.981	2884.15
982.28	2913.07
982.579	2862.23
982.878	2870.36
983.177	2853.41
983.475	2824.94
983.774	2796.24
984.073	2797.6
984.372	2811.83
984.67	2784.04
984.969	2798.95
985.267	2751.72
985.566	2729.12
985.864	2730.93
986.162	2722.8
986.461	2718.05
986.759	2691.38
987.057	2636.7
987.355	2630.37
987.653	2620.65
987.951	2633.31
988.249	2641.22
988.547	2602.8
988.844	2608.22
989.142	2577.26
989.44	2579.3
989.737	2544.27
990.035	2565.74
990.332	2509.47
990.63	2513.31
990.927	2515.34
991.224	2514.44
991.521	2515.34
991.819	2488.68
992.116	2471.73
992.413	2519.64
992.71	2451.62
993.006	2414.78
993.303	2432.41
993.6	2405.29
993.897	2401.45
994.193	2408.91
994.49	2373.65
994.787	2349.02
995.083	2372.75
995.379	2362.81
995.676	2317.16
995.972	2310.15
996.268	2300.43
996.565	2323.03
996.861	2311.28
997.157	2287.78
997.453	2267.89
997.749	2262.24
998.044	2255.24
998.34	2236.03
998.636	2238.06
998.932	2201.91
999.227	2202.13
999.523	2171.85
999.818	2176.82
1000.114	2175.69
1000.409	2134.11
1000.704	2145.64
1001	2113.55
1001.295	2105.41
1001.59	2104.96
1001.885	2138.4
1002.18	2107.9
1002.475	2069.03
1002.77	2075.58
1003.065	2043.94
1003.359	2026.99
1003.654	2028.12
1003.949	2016.37
1004.243	2017.05
1004.538	1996.49
1004.832	2011.18
1005.127	1971.85
1005.421	1972.53
1005.715	1937.73
1006.009	1923.49
1006.304	1931.18
1006.598	1917.17
1006.892	1928.01
1007.186	1902.48
1007.48	1905.42
1007.773	1890.5
1008.067	1871.29
1008.361	1841.46
1008.655	1853.89
1008.948	1800.56
1009.242	1808.92
1009.535	1810.5
1009.829	1787.23
1010.122	1795.81
1010.415	1798.98
1010.708	1800.33
1011.001	1759.66
1011.295	1742.71
1011.588	1761.46
1011.881	1750.62
1012.173	1749.49
1012.466	1708.59
1012.759	1698.42
1013.052	1686.66
1013.344	1695.48
1013.637	1660.45
1013.93	1653.9
1014.222	1656.16
1014.514	1630.39
1014.807	1641.47
1015.099	1608.7
1015.391	1612.09
1015.683	1580.68
1015.976	1632.65
1016.268	1626.55
1016.56	1610.06
1016.851	1565.99
1017.143	1559.44
1017.435	1552.2
1017.727	1528.93
1018.018	1509.72
1018.31	1520.57
1018.602	1539.55
1018.893	1478.99
1019.185	1524.41
1019.476	1453.22
1019.767	1488.93
1020.058	1460.46
1020.35	1461.13
1020.641	1469.04
1020.932	1410.51
1021.223	1407.8
1021.514	1429.27
1021.804	1375.26
1022.095	1363.96
1022.386	1383.17
1022.677	1365.54
1022.967	1351.08
1023.258	1363.51
1023.548	1344.53
1023.839	1360.57
1024.129	1339.33
1024.419	1298.2
1024.709	1337.07
1025	1309.73
1025.29	1301.36
1025.58	1296.62
1025.87	1297.75
1026.16	1270.63
1026.449	1253.23
1026.739	1268.14
1027.029	1275.15
1027.319	1233.34
1027.608	1235.83
1027.898	1229.5
1028.187	1223.63
1028.477	1176.17
1028.766	1227.24
1029.055	1207.58
1029.344	1190.41
1029.634	1177.75
1029.923	1167.36
1030.212	1151.31
1030.501	1144.31
1030.79	1131.65
1031.078	1151.76
1031.367	1126.23
1031.656	1119.22
1031.945	1142.05
1032.233	1114.93
1032.522	1116.51
1032.81	1083.06
1033.099	1076.96
1033.387	1087.13
1033.675	1081.26
1033.963	1059.79
1034.251	1054.59
1034.54	1038.55
1034.828	1046.46
1035.116	1012.11
1035.403	1035.83
1035.691	1017.76
1035.979	1024.54
1036.267	1003.52
1036.554	1040.35
1036.842	1013.91
1037.129	1004.42
1037.417	993.12
1037.704	1000.36
1037.992	981.15
1038.279	976.17
1038.566	961.94
1038.853	961.94
1039.14	961.94
