Data from red_cardboard_box_FLMS001491_00010.txt Node
Date: Wed Feb 08 11:31:25 GMT 2017
User: dcchb
Spectrometer: FLMS00149
Trigger mode: 0
Integration Time (sec): 2.000000E-2
Scans to average: 10
Electric dark correction enabled: true
Nonlinearity correction enabled: false
Boxcar width: 0
XAxis mode: Wavelengths
Number of Pixels in Spectrum: 2048
>>>>>Begin Spectral Data<<<<<
341.393	1.16
341.776	1.16
342.16	1.16
342.543	-46.52
342.927	-56.47
343.31	-76.35
343.693	-48.78
344.077	-66.64
344.46	-89.23
344.843	-60.31
345.226	-34.32
345.61	-24.83
345.993	-30.03
346.376	-3.81
346.759	-0.2
347.142	45
347.525	51.55
347.908	57.88
348.291	56.52
348.674	117.09
349.057	106.47
349.44	118.22
349.823	133.81
350.206	143.75
350.588	185.79
350.971	215.39
351.354	232.34
351.737	247.25
352.119	259.46
352.502	271.43
352.884	266.91
353.267	290.42
353.65	297.2
354.032	303.07
354.414	302.85
354.797	329.29
355.179	336.97
355.562	332.67
355.944	327.93
356.326	348.72
356.709	335.61
357.091	315.95
357.473	347.36
357.855	352.34
358.238	348.95
358.62	342.84
359.002	355.5
359.384	330.19
359.766	330.42
360.148	340.81
360.53	343.3
360.912	335.16
361.294	322.51
361.676	318.44
362.057	353.47
362.439	342.62
362.821	306.23
363.203	350.3
363.584	312.34
363.966	326.8
364.348	320.92
364.729	322.73
365.111	322.51
365.493	344.65
365.874	320.92
366.256	338.1
366.637	327.25
367.019	335.84
367.4	337.65
367.781	301.72
368.163	299
368.544	317.08
368.925	321.83
369.306	332.45
369.688	314.82
370.069	313.69
370.45	314.82
370.831	300.81
371.212	309.62
371.593	293.81
371.974	314.14
372.355	313.01
372.736	304.2
373.117	325.44
373.498	304.88
373.879	342.84
374.26	319.12
374.641	330.64
375.021	324.77
375.402	324.99
375.783	328.16
376.163	327.48
376.544	338.78
376.925	327.03
377.305	336.97
377.686	354.37
378.066	343.97
378.447	336.29
378.827	326.35
379.208	356.63
379.588	325.9
379.968	325.22
380.349	324.77
380.729	317.99
381.109	344.43
381.489	340.81
381.87	323.18
382.25	346.46
382.63	329.96
383.01	325.9
383.39	343.97
383.77	339.91
384.15	336.06
384.53	340.36
384.91	333.8
385.29	361.37
385.67	346.23
386.049	344.65
386.429	367.25
386.809	333.8
387.189	348.04
387.568	352.11
387.948	330.87
388.328	333.35
388.707	361.37
389.087	349.17
389.466	361.83
389.846	360.47
390.225	372.22
390.605	356.4
390.984	370.64
391.363	342.62
391.743	350.53
392.122	362.5
392.501	376.74
392.881	337.19
393.26	361.37
393.639	354.82
394.018	362.05
394.397	371.54
394.776	359.34
395.155	382.62
395.534	362.73
395.913	382.17
396.292	376.29
396.671	369.96
397.05	368.61
397.429	391.66
397.808	374.71
398.186	360.7
398.565	374.26
398.944	380.58
399.323	371.32
399.701	361.83
400.08	385.1
400.458	368.38
400.837	376.29
401.215	383.07
401.594	395.72
401.972	399.34
402.351	385.55
402.729	398.44
403.107	406.35
403.486	400.24
403.864	411.99
404.242	388.04
404.62	393.69
404.999	400.47
405.377	384.2
405.755	404.54
406.133	404.76
406.511	399.34
406.889	427.81
407.267	397.76
407.645	413.35
408.023	407.93
408.401	427.14
408.779	421.03
409.156	407.25
409.534	421.49
409.912	402.5
410.29	430.3
410.667	418.32
411.045	424.42
411.422	416.06
411.8	413.35
412.178	435.27
412.555	426.01
412.933	435.05
413.31	448.6
413.687	437.76
414.065	427.59
414.442	413.8
414.819	444.08
415.197	455.38
415.574	469.85
415.951	445.21
416.328	437.08
416.705	451.54
417.082	443.41
417.46	456.29
417.837	445.89
418.214	466.91
418.591	453.35
418.967	451.54
419.344	471.65
419.721	467.59
420.098	477.3
420.475	461.03
420.852	480.92
421.228	488.6
421.605	495.61
421.982	469.17
422.358	446.8
422.735	480.92
423.111	462.39
423.488	494.7
423.864	475.04
424.241	488.38
424.617	493.8
424.994	489.28
425.37	499
425.746	493.35
426.123	515.04
426.499	488.15
426.875	506.91
427.251	509.62
427.627	532.22
428.003	529.51
428.379	513.46
428.756	536.29
429.132	532.22
429.507	528.83
429.883	537.19
430.259	530.64
430.635	557.08
431.011	555.27
431.387	546.91
431.763	558.66
432.138	560.92
432.514	549.84
432.89	571.76
433.265	557.53
433.641	544.42
434.016	558.21
434.392	556.4
434.767	569.5
435.143	567.7
435.518	569.96
435.894	561.6
436.269	596.62
436.644	590.52
437.02	607.02
437.395	591.2
437.77	606.11
438.145	587.13
438.52	618.54
438.895	620.8
439.271	605.21
439.646	621.93
440.021	639.33
440.395	630.75
440.77	636.62
441.145	639.11
441.52	633.91
441.895	611.09
442.27	632.33
442.645	638.43
443.019	655.15
443.394	638.66
443.769	636.4
444.143	658.77
444.518	638.66
444.892	651.99
445.267	651.08
445.641	681.14
446.016	655.6
446.39	682.04
446.764	651.08
447.139	651.08
447.513	682.95
447.887	673.68
448.262	669.39
448.636	681.37
449.01	704.87
449.384	671.87
449.758	667.58
450.132	672.78
450.506	698.77
450.88	666.23
451.254	708.48
451.628	686.56
452.002	725.66
452.376	690.63
452.75	705.09
453.123	696.73
453.497	698.31
453.871	724.53
454.244	749.84
454.618	723.4
454.992	749.61
455.365	734.02
455.739	760.69
456.112	729.5
456.486	746
456.859	755.49
457.232	757.97
457.606	750.52
457.979	776.28
458.352	799.56
458.725	761.82
459.099	799.1
459.472	792.78
459.845	780.57
460.218	815.15
460.591	808.37
460.964	795.94
461.337	831.64
461.71	825.77
462.083	817.63
462.456	841.36
462.829	861.25
463.201	855.37
463.574	870.51
463.947	881.14
464.32	865.77
464.692	901.47
465.065	905.54
465.438	881.81
465.81	899.44
466.183	910.29
466.555	922.49
466.928	918.42
467.3	906.45
467.672	957.74
468.045	962.49
468.417	947.57
468.789	962.04
469.161	955.48
469.534	985.54
469.906	968.36
470.278	993.45
470.65	976.95
471.022	1015.37
471.394	1031.64
471.766	1014.46
472.138	1030.06
472.51	1030.51
472.882	1069.15
473.253	1035.48
473.625	1092.2
473.997	1086.33
474.369	1076.38
474.74	1100.56
475.112	1093.78
475.484	1110.73
475.855	1143.05
476.227	1149.6
476.598	1185.99
476.97	1170.84
477.341	1177.17
477.713	1195.93
478.084	1207.23
478.455	1220.79
478.827	1255.14
479.198	1269.15
479.569	1295.14
479.94	1290.39
480.311	1290.62
480.682	1313.67
481.053	1341.01
481.424	1355.02
481.795	1376.94
482.166	1395.7
482.537	1406.77
482.908	1442.93
483.279	1435.24
483.65	1494.23
484.021	1498.29
484.391	1489.03
484.762	1505.75
485.133	1532.87
485.503	1552.98
485.874	1548.91
486.244	1556.37
486.615	1596.14
486.985	1641.12
487.356	1624.39
487.726	1648.12
488.097	1679.08
488.467	1679.76
488.837	1731.06
489.207	1721.11
489.578	1733.09
489.948	1752.3
490.318	1784.39
490.688	1796.37
491.058	1815.12
491.428	1826.65
491.798	1856.48
492.168	1870.04
492.538	1882.92
492.908	1882.24
493.278	1923.37
493.648	1931.95
494.017	1942.35
494.387	1974.21
494.757	1973.99
495.126	2008.11
495.496	2010.6
495.866	2035.23
496.235	2061.89
496.605	2034.55
496.974	2087.43
497.344	2077.71
497.713	2126.98
498.082	2123.81
498.452	2117.49
498.821	2152.29
499.19	2159.07
499.559	2202.23
499.928	2187.09
500.298	2211.72
500.667	2238.39
501.036	2214.66
501.405	2247.2
501.774	2269.12
502.143	2311.83
502.512	2323.36
502.88	2316.8
503.249	2332.85
503.618	2342.34
503.987	2355.9
504.356	2375.11
504.724	2382.34
505.093	2392.06
505.462	2398.61
505.83	2399.74
506.199	2439.51
506.567	2416.69
506.936	2473.64
507.304	2491.71
507.672	2506.4
508.041	2524.71
508.409	2542.11
508.777	2554.99
509.145	2569.45
509.514	2577.36
509.882	2601.09
510.25	2574.88
510.618	2639.73
510.986	2648.32
511.354	2617.13
511.722	2647.64
512.09	2700.3
512.458	2717.02
512.826	2731.48
513.193	2727.64
513.561	2758.83
513.929	2794.31
514.297	2788.2
514.664	2797.69
515.032	2786.17
515.4	2853.51
515.767	2873.4
516.135	2873.17
516.502	2879.27
516.869	2919.95
517.237	2903.45
517.604	2936.9
517.972	2985.26
518.339	2999.27
518.706	3003.34
519.073	3021.64
519.44	3027.97
519.808	3080.85
520.175	3113.62
520.542	3130.34
520.909	3124.24
521.276	3116.1
521.643	3172.6
522.009	3211.24
522.376	3242.43
522.743	3236.55
523.11	3251.92
523.477	3292.37
523.843	3332.6
524.21	3311.81
524.577	3348.64
524.943	3394.29
525.31	3405.59
525.676	3473.16
526.043	3490.78
526.409	3467.96
526.776	3530.33
527.142	3540.5
527.508	3539.14
527.874	3612.36
528.241	3633.15
528.607	3647.16
528.973	3652.36
529.339	3682.42
529.705	3690.1
530.071	3721.74
530.437	3781.85
530.803	3775.07
531.169	3829.98
531.535	3821.17
531.901	3846.48
532.267	3827.05
532.632	3893.49
532.998	3901.17
533.364	3916.08
533.73	3941.39
534.095	3982.97
534.461	4014.84
534.826	3991.11
535.192	4033.37
535.557	4086.93
535.923	4045.8
536.288	4105.68
536.653	4119.69
537.019	4111.78
537.384	4130.99
537.749	4148.17
538.114	4166.02
538.479	4192.91
538.845	4192.46
539.21	4239.69
539.575	4239.01
539.94	4244.44
540.305	4286.24
540.67	4309.07
541.034	4319.91
541.399	4322.63
541.764	4436.07
542.129	4387.26
542.494	4401.95
542.858	4427.03
543.223	4471.55
543.587	4412.34
543.952	4505.67
544.316	4508.38
544.681	4546.58
545.045	4551.77
545.41	4596.97
545.774	4594.71
546.138	4568.04
546.503	4635.84
546.867	4644.88
547.231	4658.89
547.595	4688.72
547.959	4709.06
548.324	4686.91
548.688	4758.32
549.052	4767.36
549.416	4753.12
549.779	4832.9
550.143	4816.17
550.507	4885.1
550.871	4886.68
551.235	4888.26
551.599	4979.33
551.962	5025.43
552.326	4974.13
552.689	5024.53
553.053	5033.57
553.417	5085.09
553.78	5107.92
554.143	5113.11
554.507	5213
554.87	5192.21
555.234	5235.14
555.597	5259.1
555.96	5285.31
556.323	5340.9
556.686	5388.36
557.05	5345.42
557.413	5375.03
557.776	5444.4
558.139	5442.15
558.502	5538.41
558.865	5514.91
559.228	5616.38
559.59	5642.14
559.953	5697.05
560.316	5755.36
560.679	5742.25
561.041	5764.85
561.404	5873.55
561.767	5925.52
562.129	5944.73
562.492	6007.55
562.854	6025.86
563.217	6056.82
563.579	6111.05
563.941	6205.51
564.304	6240.32
564.666	6261.56
565.028	6330.26
565.39	6333.2
565.753	6449.58
566.115	6459.07
566.477	6570.93
566.839	6587.43
567.201	6633.75
567.563	6730.02
567.925	6769.12
568.287	6784.26
568.648	6875.1
569.01	6959.85
569.372	6914.42
569.734	7062.22
570.095	7122.1
570.457	7215.43
570.819	7260.85
571.18	7303.79
571.542	7415.43
571.903	7447.74
572.265	7592.6
572.626	7602.09
572.987	7651.8
573.349	7736.55
573.71	7799.6
574.071	7851.57
574.432	7900.84
574.794	8166.14
575.155	8101.28
575.516	8114.17
575.877	8254.73
576.238	8302.63
576.599	8506.47
576.96	8535.4
577.32	8650.65
577.681	8748.27
578.042	8844.54
578.403	8994.59
578.763	9076.17
579.124	9117.08
579.485	9186.45
579.845	9319.33
580.206	9471.87
580.566	9598.87
580.927	9693.11
581.287	9839.09
581.648	9910.28
582.008	10097.39
582.368	10219.19
582.728	10347.33
583.089	10473.65
583.449	10582.35
583.809	10763.59
584.169	10875.9
584.529	11068.66
584.889	11287.42
585.249	11344.81
585.609	11573.06
585.969	11755.2
586.329	11870.45
586.688	12105.25
587.048	12298.91
587.408	12449.19
587.768	12656.87
588.127	12815.96
588.487	13072
588.846	13345.67
589.206	13495.04
589.565	13742.94
589.925	13975.48
590.284	14251.86
590.643	14461.12
591.003	14686.42
591.362	15062.91
591.721	15168.44
592.08	15424.26
592.44	15756.45
592.799	16069.66
593.158	16314.4
593.517	16560.04
593.876	16830.77
594.235	17146.7
594.593	17503.07
594.952	17723.86
595.311	18021.02
595.67	18400.22
596.029	18875.01
596.387	19096.48
596.746	19416.47
597.104	19583.92
597.463	19917.92
597.822	20328.76
598.18	20523.56
598.538	20882.19
598.897	21382.06
599.255	21493.47
599.613	22140.01
599.972	22319.22
600.33	22686.66
600.688	22929.59
601.046	23236.25
601.404	23710.59
601.762	24081.2
602.12	24417.24
602.478	24720.06
602.836	25184.45
603.194	25205.47
603.552	25641.39
603.91	25951.44
604.268	26306
604.625	26564.53
604.983	26899.43
605.341	27379.42
605.698	27554.78
606.056	28003.36
606.413	28250.81
606.771	28534.19
607.128	28834.98
607.485	29106.61
607.843	29387.5
608.2	29708.17
608.557	30151.55
608.914	30127.15
609.272	30688.26
609.629	30886
609.986	31321.69
610.343	31383.84
610.7	31757.84
611.057	31964.84
611.414	32130.03
611.771	32391.04
612.127	32803.23
612.484	32992.38
612.841	33164.58
613.198	33334.74
613.554	33661.52
613.911	33866.48
614.267	34094.05
614.624	34270.77
614.98	34459.24
615.337	34882.95
615.693	34807.7
616.05	35036.4
616.406	35349.61
616.762	35447.91
617.118	35635.93
617.475	35777.62
617.831	36079.08
618.187	36166.76
618.543	36367.43
618.899	36608.78
619.255	36721.77
619.611	36924.26
619.967	37018.72
620.323	37318.82
620.678	37267.52
621.034	37286.28
621.39	37480.4
621.746	37500.96
622.101	37930.78
622.457	37851.24
622.812	38044.9
623.168	38254.16
623.523	38222.3
623.879	38437.89
624.234	38193.6
624.589	38500.48
624.945	38571.44
625.3	38917.88
625.655	38834.94
626.01	38896.86
626.365	38822.51
626.72	39000.13
627.075	39132.56
627.43	39133.01
627.785	39187.25
628.14	39307.47
628.495	39436.05
628.85	39416.39
629.205	39440.12
629.559	39657.06
629.914	39541.14
630.269	39754.24
630.623	39521.47
630.978	39629.49
631.332	39787
631.687	39827
632.041	39844.86
632.396	39874.01
632.75	39791.3
633.104	39925.98
633.459	39839.88
633.813	39844.4
634.167	39842.6
634.521	39834.69
634.875	39947.23
635.229	40023.83
635.583	39947
635.937	39885.99
636.291	39977.51
636.645	40064.06
636.999	39876.72
637.352	40020.67
637.706	39845.76
638.06	40031.07
638.413	39963.27
638.767	39927.79
639.121	40028.13
639.474	39860.22
639.828	39856.38
640.181	40052.99
640.534	40008.02
640.888	39887.12
641.241	39880.34
641.594	39874.01
641.947	40080.1
642.301	39954.91
642.654	39965.31
643.007	39938.41
643.36	39933.22
643.713	40000.11
644.066	40054.79
644.419	39784.29
644.771	39657.06
645.124	39102.05
645.477	39236.06
645.83	38876.97
646.182	38882.62
646.535	38880.59
646.888	39078.55
647.24	38860.93
647.593	39200.81
647.945	38927.82
648.298	38812.12
648.65	38778.22
649.002	38685.56
649.355	39014.37
649.707	38832
650.059	39039.45
650.411	39434.47
650.763	39521.47
651.115	39965.98
651.467	39856.61
651.819	39844.18
652.171	39709.94
652.523	39852.09
652.875	39719.21
653.227	39579.1
653.578	39781.13
653.93	39717.63
654.282	39547.24
654.633	39610.29
654.985	39747.68
655.337	39642.6
655.688	39680.57
656.039	39732.77
656.391	39481.93
656.742	39652.32
657.094	39514.24
657.445	39859.77
657.796	39719.21
658.147	39743.84
658.498	39550.4
658.849	39622.94
659.2	39461.59
659.551	39393.79
659.902	39597.41
660.253	39476.96
660.604	39530.06
660.955	39351.99
661.306	39630.17
661.656	39568.48
662.007	39581.59
662.358	39514.92
662.708	39521.02
663.059	39475.6
663.409	39317.19
663.76	39592.66
664.11	39609.61
664.461	39544.53
664.811	39570.29
665.161	39502.72
665.511	39486.45
665.862	39467.92
666.212	39518.76
666.562	39587.69
666.912	39395.83
667.262	39455.04
667.612	39430.63
667.962	39419.1
668.312	39285.55
668.662	39684.41
669.011	39541.59
669.361	39484.64
669.711	39430.4
670.06	39335.94
670.41	39321.03
670.76	39142.28
671.109	39568.93
671.459	39306.34
671.808	39388.15
672.157	39335.04
672.507	39145.89
672.856	39168.49
673.205	39111.09
673.554	39343.4
673.904	39081.71
674.253	39448.48
674.602	39147.7
674.951	38782.74
675.3	38584.55
675.649	39120.13
675.998	39244.65
676.346	39215.04
676.695	39234.7
677.044	38929.85
677.393	38946.8
677.741	39052.11
678.09	39023.18
678.438	38941.15
678.787	38977.76
679.135	39125.1
679.484	38850.53
679.832	38944.77
680.181	38766.47
680.529	38802.17
680.877	38643.76
681.225	38595.17
681.573	38812.57
681.922	38627.94
682.27	38531.44
682.618	38456.64
682.966	38384.78
683.314	38558.11
683.661	38320.38
684.009	38138.23
684.357	38063.43
684.705	38074.28
685.053	38156.09
685.4	37938.47
685.748	37830.67
686.095	37981.63
686.443	37767.85
686.79	37705.03
687.138	37885.81
687.485	37792.03
687.832	37668.42
688.18	37675.87
688.527	37442.21
688.874	37364.47
689.221	37270.01
689.568	37366.28
689.915	37157.47
690.262	37272.49
690.609	37066.17
690.956	37005.61
691.303	36987.76
691.65	36830.02
691.997	36719.29
692.344	36632.51
692.69	36663.25
693.037	36584.6
693.383	36293.76
693.73	36336.25
694.077	36154.33
694.423	36221.45
694.769	36109.81
695.116	36034.11
695.462	36077.72
695.808	35897.16
696.155	35908.24
696.501	35642.25
696.847	35628.02
697.193	35286.78
697.539	35592.76
697.885	35203.85
698.231	35338.76
698.577	35200.46
698.923	35210.85
699.269	34935.83
699.614	34825.55
699.96	34756.63
700.306	34932.44
700.651	34743.07
700.997	34600.02
701.342	34709.4
701.688	34476.41
702.033	34393.7
702.379	34324.1
702.724	34199.81
703.069	34275.29
703.415	33907.16
703.76	34013.82
704.105	33944.67
704.45	33856.99
704.795	33549.88
705.14	33571.35
705.485	33611.12
705.83	33345.14
706.175	33564.34
706.52	33325.03
706.865	33259.49
707.209	33250
707.554	33204.58
707.899	33234.18
708.243	33081.42
708.588	32999.61
708.932	32744.7
709.277	32685.27
709.621	32732.5
709.966	32355.11
710.31	32506.29
710.654	32200.31
710.998	32427.88
711.342	32433.3
711.687	32369.57
712.031	32127.09
712.375	32126.87
712.719	32038.96
713.063	32054.33
713.407	32036.7
713.75	31969.13
714.094	31943.6
714.438	31830.83
714.782	31900.88
715.125	31659.53
715.469	31740.21
715.812	31549.93
716.156	31375.7
716.499	31410.28
716.843	31530.72
717.186	31350.16
717.53	31515.13
717.873	31392.2
718.216	31189.49
718.559	31111.98
718.902	31023.17
719.246	31112.2
719.589	30908.82
719.932	30891.42
720.275	30800.8
720.617	30746.79
720.96	30812.55
721.303	30824.75
721.646	30797.86
721.989	30748.37
722.331	30712.44
722.674	30660.24
723.016	30522.39
723.359	30431.54
723.701	30464.31
724.044	30250.08
724.386	30140.03
724.729	30487.14
725.071	30323.3
725.413	30243.53
725.755	30152.68
726.097	30057.54
726.439	29947.04
726.782	29861.39
727.124	30054.15
727.465	29952.46
727.807	29881.73
728.149	29857.55
728.491	29720.6
728.833	29713.6
729.175	29634.5
729.516	29569.87
729.858	29544.34
730.199	29607.16
730.541	29427.5
730.882	29543.88
731.224	29591.79
731.565	29427.28
731.906	29389.54
732.248	29298.47
732.589	29271.12
732.93	29190.22
733.271	29137.34
733.612	29229.09
733.953	29154.06
734.294	29074.29
734.635	29108.64
734.976	29103.9
735.317	28891.02
735.658	28918.14
735.999	28992.71
736.339	28760.85
736.68	28950
737.021	28802.66
737.361	28725.37
737.702	28923.79
738.042	28710.69
738.383	28598.6
738.723	28756.33
739.063	28494.42
739.404	28638.15
739.744	28462.1
740.084	28449.68
740.424	28506.85
740.764	28514.76
741.104	28605.38
741.444	28212.17
741.784	28260.3
742.124	28394.99
742.464	28369.45
742.804	28207.87
743.143	28176.24
743.483	28291.71
743.823	28109.57
744.162	27965.62
744.502	28160.87
744.841	27881.56
745.181	28083.36
745.52	28028.44
745.86	27927.66
746.199	27943.02
746.538	27894.21
746.877	27951.61
747.216	27854.66
747.556	27677.94
747.895	27869.35
748.234	27633.43
748.573	27637.95
748.911	27571.28
749.25	27532.41
749.589	27447.67
749.928	27459.65
750.267	27520.66
750.605	27356.6
750.944	27394.56
751.283	27279.99
751.621	27337.61
751.96	27162.93
752.298	27239.76
752.636	27181.46
752.975	27044.74
753.313	27028.92
753.651	27058.53
753.989	26867.57
754.327	26913.67
754.666	26694.24
755.004	26735.82
755.342	26702.15
755.679	26664.41
756.017	26631.87
756.355	26696.95
756.693	26416.28
757.031	26538.09
757.368	26368.15
757.706	26284.08
758.044	26237.76
758.381	26270.98
758.719	26162.73
759.056	26149.85
759.394	26162.73
759.731	25904.43
760.068	25977.42
760.405	25842.74
760.743	25827.37
761.08	25793.25
761.417	25725.91
761.754	25525.23
762.091	25553.71
762.428	25480.71
762.765	25249.99
763.102	25510.32
763.438	25238.23
763.775	25249.31
764.112	25197.56
764.449	25134.51
764.785	25047.73
765.122	24972.25
765.458	24887.74
765.795	24753.73
766.131	24683.45
766.467	24694.75
766.804	24526.61
767.14	24428.99
767.476	24462.89
767.812	24393.06
768.148	24430.8
768.485	24109
768.821	24031.26
769.157	24174.53
769.492	24006.18
769.828	24010.92
770.164	23734.09
770.5	23702.91
770.836	23695.9
771.171	23516.92
771.507	23514.89
771.842	23487.55
772.178	23294.78
772.513	23193.32
772.849	23259.53
773.184	23124.17
773.519	23085.97
773.855	22963.94
774.19	22922.59
774.525	22875.36
774.86	22795.36
775.195	22703.39
775.53	22536.38
775.865	22494.8
776.2	22512.2
776.535	22298.65
776.87	22224.3
777.205	22180.24
777.539	22042.16
777.874	22177.98
778.209	21955.16
778.543	21915.61
778.878	21695.73
779.212	21810.53
779.547	21577.54
779.881	21698.21
780.215	21491.67
780.55	21474.94
780.884	21363.76
781.218	21391.1
781.552	21289.86
781.886	21175.52
782.22	21081.06
782.554	21044.9
782.888	20861.85
783.222	20701.86
783.556	20620.95
783.889	20656.21
784.223	20434.07
784.557	20515.42
784.89	20520.84
785.224	20348.65
785.557	20196.11
785.891	20230.91
786.224	20203.79
786.558	20187.07
786.891	19943.91
787.224	20011.48
787.557	19883.12
787.891	19914.08
788.224	19724.26
788.557	19853.29
788.89	19696.91
789.223	19714.09
789.556	19543.92
789.888	19457.14
790.221	19340.08
790.554	19294.44
790.887	19317.94
791.219	19199.07
791.552	19150.94
791.884	19056.02
792.217	18893.32
792.549	18903.03
792.882	18752.76
793.214	18736.94
793.546	18726.54
793.879	18526.09
794.211	18588.47
794.543	18576.04
794.875	18440.45
795.207	18576.26
795.539	18388.92
795.871	18398.64
796.203	18301.24
796.535	18199.55
796.867	18199.1
797.198	18037.75
797.53	18087.46
797.862	18011.76
798.193	17925.88
798.525	17862.16
798.856	17864.64
799.188	17738.54
799.519	17701.03
799.85	17619.68
800.182	17597.76
800.513	17593.69
800.844	17396.41
801.175	17612.45
801.506	17496.29
801.837	17386.69
802.168	17377.88
802.499	17347.37
802.83	17148.96
803.161	17160.03
803.491	17047.49
803.822	17098.34
804.153	16901.05
804.483	16823.99
804.814	16836.65
805.145	16831
805.475	16760.94
805.805	16765.46
806.136	16671
806.466	16743.32
806.796	16690.89
807.126	16560.04
807.457	16414.29
807.787	16507.39
808.117	16354.4
808.447	16344.68
808.777	16420.61
809.107	16192.82
809.436	16253.61
809.766	16232.14
810.096	16175.87
810.426	16093.62
810.755	16106.95
811.085	15958.93
811.414	16027.18
811.744	15888.65
812.073	15909.67
812.403	15784.47
812.732	15746.28
813.061	15791.93
813.39	15703.57
813.719	15615.89
814.049	15701.31
814.378	15574.99
814.707	15606.4
815.036	15553.97
815.365	15463.12
815.693	15284.6
816.022	15336.57
816.351	15328.66
816.68	15239.18
817.008	15305.84
817.337	15211.61
817.665	15104.26
817.994	15193.75
818.322	15135.45
818.651	15061.33
818.979	14990.82
819.307	15130.03
819.636	15046.41
819.964	14899.07
820.292	15089.57
820.62	14988.56
820.948	14966.64
821.276	15011.38
821.604	14908.34
821.932	14956.47
822.259	14918.51
822.587	14926.87
822.915	14919.41
823.243	14906.3
823.57	14863.59
823.898	14844.61
824.225	14795.12
824.553	14852.52
824.88	14862.69
825.207	14965.06
825.535	14827.89
825.862	14870.6
826.189	14735.01
826.516	14925.74
826.843	14860.2
827.17	14942.91
827.497	14796.25
827.824	14885.06
828.151	14917.83
828.478	14822.24
828.805	14889.81
829.131	14793.09
829.458	14755.57
829.785	14758.51
830.111	14782.46
830.438	14810.49
830.764	14769.36
831.09	14780.43
831.417	14756.7
831.743	14819.3
832.069	14731.84
832.395	14728.68
832.722	14713.99
833.048	14687.33
833.374	14742.69
833.7	14718.96
834.026	14660.89
834.351	14669.47
834.677	14657.5
835.003	14715.57
835.329	14689.13
835.654	14644.84
835.98	14559.42
836.306	14627.89
836.631	14507.9
836.956	14548.12
837.282	14585.63
837.607	14556.26
837.932	14392.42
838.258	14431.06
838.583	14520.78
838.908	14391.29
839.233	14428.35
839.558	14392.42
839.883	14337.73
840.208	14275.59
840.533	14226.09
840.858	14199.43
841.182	14251.18
841.507	14267.22
841.832	14218.86
842.156	14092.31
842.481	14124.18
842.805	14083.27
843.13	14036.5
843.454	14053.22
843.778	13961.24
844.103	13937.74
844.427	13831.75
844.751	13900.68
845.075	13852.09
845.399	13803.51
845.723	13773
846.047	13690.29
846.371	13638.54
846.695	13568.03
847.019	13533.46
847.343	13458.21
847.666	13436.96
847.99	13369.17
848.313	13365.1
848.637	13189.74
848.96	13287.36
849.284	13186.35
849.607	13085.11
849.931	13085.33
850.254	13052.57
850.577	12893.25
850.9	12820.93
851.223	12872.68
851.546	12787.49
851.869	12717.89
852.192	12804.89
852.515	12606.93
852.838	12630.43
853.161	12615.29
853.483	12614.39
853.806	12552.24
854.129	12507.72
854.451	12405.13
854.774	12342.3
855.096	12335.3
855.419	12352.25
855.741	12354.05
856.063	12203.1
856.385	12189.76
856.708	12113.38
857.03	12051.69
857.352	12152.93
857.674	11989.09
857.996	11935.08
858.318	11931.47
858.64	11901.64
858.961	11918.81
859.283	11765.14
859.605	11778.93
859.926	11881.52
860.248	11707.52
860.57	11742.77
860.891	11730.79
861.212	11659.38
861.534	11564.92
861.855	11679.5
862.176	11579.61
862.498	11591.59
862.819	11566.28
863.14	11499.16
863.461	11480.18
863.782	11442.21
864.103	11414.87
864.424	11406.51
864.745	11418.49
865.065	11423.91
865.386	11419.39
865.707	11312.95
866.027	11413.51
866.348	11298.26
866.668	11275.44
866.989	11220.75
867.309	11227.53
867.63	11222.78
867.95	11207.64
868.27	11235.21
868.59	11176.91
868.91	11129.91
869.23	11134.42
869.55	11083.58
869.87	11086.06
870.19	11026.18
870.51	11093.75
870.83	11137.59
871.15	11069.79
871.469	11018.95
871.789	11109.11
872.109	11007.2
872.428	10956.35
872.748	10934.66
873.067	10866.64
873.386	10926.75
873.706	10866.18
874.025	10889.01
874.344	10829.8
874.663	10878.61
874.982	10858.5
875.301	10880.65
875.62	10796.81
875.939	10724.72
876.258	10761.78
876.577	10743.47
876.896	10776.24
877.214	10698.28
877.533	10735.79
877.852	10664.61
878.17	10659.41
878.489	10657.6
878.807	10651.5
879.125	10619.18
879.444	10653.08
879.762	10529.02
880.08	10603.14
880.398	10540.09
880.716	10520.66
881.034	10497.15
881.352	10478.62
881.67	10430.26
881.988	10479.53
882.306	10443.82
882.624	10424.16
882.941	10418.74
883.259	10378.51
883.577	10276.37
883.894	10239.76
884.212	10254.9
884.529	10261.45
884.846	10169.25
885.164	10179.2
885.481	10221.68
885.798	10149.37
886.115	10109.14
886.432	10067.11
886.75	10015.13
887.067	10029.82
887.383	10019.65
887.7	10027.56
888.017	10005.41
888.334	9986.21
888.651	9926.09
888.967	9897.17
889.284	9810.39
889.6	9832.31
889.917	9829.15
890.233	9779.43
890.55	9706.89
890.866	9728.59
891.182	9748.25
891.498	9616.5
891.815	9646.33
892.131	9600
892.447	9560
892.763	9539.21
893.079	9509.38
893.395	9483.17
893.71	9500.34
894.026	9424.19
894.342	9446.11
894.657	9350.06
894.973	9400.91
895.289	9332.66
895.604	9327.92
895.92	9247.47
896.235	9268.03
896.55	9253.8
896.865	9156.62
897.181	9156.62
897.496	9120.47
897.811	9154.36
898.126	9052.9
898.441	9030.75
898.756	8983.75
899.071	8960.24
899.386	8949.85
899.7	8892
900.015	8861.49
900.33	8759.57
900.644	8776.75
900.959	8800.47
901.273	8798.44
901.588	8715.51
901.902	8703.75
902.216	8628.95
902.531	8642.06
902.845	8618.78
903.159	8567.49
903.473	8547.6
903.787	8488.39
904.101	8408.62
904.415	8506.47
904.729	8436.42
905.042	8360.71
905.356	8301.05
905.67	8424.44
905.984	8350.54
906.297	8250.66
906.611	8175.63
906.924	8226.03
907.237	8180.6
907.551	8171.11
907.864	8064.9
908.177	8087.5
908.491	8065.58
908.804	8038.23
909.117	7995.75
909.43	7933.15
909.743	7953.27
910.056	7892.25
910.368	7883.21
910.681	7810.67
910.994	7797.56
911.307	7757.11
911.619	7733.61
911.932	7718.7
912.244	7590.11
912.557	7614.52
912.869	7624.01
913.181	7560.28
913.494	7527.29
913.806	7456.78
914.118	7438.48
914.43	7470.11
914.742	7384.47
915.054	7346.28
915.366	7347.41
915.678	7250.01
915.99	7270.8
916.302	7250.91
916.613	7236
916.925	7206.62
917.236	7196
917.548	7134.98
917.859	7137.24
918.171	7065.15
918.482	7021.54
918.794	7004.82
919.105	6971.37
919.416	6882.79
919.727	6895.89
920.038	6865.38
920.349	6865.38
920.66	6868.1
920.971	6817.25
921.282	6781.54
921.593	6712.17
921.903	6687.76
922.214	6709.68
922.525	6652.28
922.835	6659.29
923.146	6613.41
923.456	6617.71
923.767	6573.41
924.077	6526.64
924.387	6477.82
924.697	6483.7
925.008	6466.52
925.318	6408.9
925.628	6425.62
925.938	6337.26
926.248	6291.84
926.558	6301.78
926.867	6301.56
927.177	6232.86
927.487	6274.44
927.796	6170.49
928.106	6176.36
928.416	6189.7
928.725	6115.8
929.034	6096.14
929.344	6148.34
929.653	6107.44
929.962	5973.2
930.271	5991.06
930.581	5953.77
930.89	5885.07
931.199	5909.7
931.508	5898.4
931.817	5862.92
932.125	5869.48
932.434	5837.39
932.743	5782.02
933.051	5742.25
933.36	5733.21
933.669	5716.04
933.977	5630.84
934.286	5603.27
934.594	5672.2
934.902	5604.4
935.21	5561.24
935.519	5574.57
935.827	5581.12
936.135	5556.27
936.443	5526.89
936.751	5437.63
937.059	5455.7
937.367	5485.08
937.674	5404.18
937.982	5420.9
938.29	5383.16
938.597	5356.72
938.905	5320.11
939.213	5350.85
939.52	5260.45
939.827	5254.35
940.135	5209.61
940.442	5184.52
940.749	5179.78
941.056	5225.43
941.363	5118.09
941.67	5130.51
941.977	5106.79
942.284	5068.37
942.591	5070.86
942.898	5008.71
943.205	4990.86
943.511	4947.47
943.818	4963.29
944.125	4939.79
944.431	4927.81
944.738	4935.04
945.044	4921.71
945.35	4860.47
945.657	4791.77
945.963	4804.65
946.269	4803.52
946.575	4784.31
946.881	4693.46
947.187	4708.15
947.493	4681.94
947.799	4738.43
948.105	4643.97
948.41	4647.59
948.716	4622.05
949.022	4648.95
949.327	4653.92
949.633	4589.74
949.938	4584.99
950.244	4544.99
950.549	4481.49
950.854	4442.4
951.16	4464.77
951.465	4421.83
951.77	4431.55
952.075	4419.35
952.38	4417.99
952.685	4462.28
952.99	4349.29
953.294	4368.95
953.599	4366.02
953.904	4314.94
954.209	4257.77
954.513	4212.57
954.818	4233.14
955.122	4225
955.426	4214.38
955.731	4228.17
956.035	4185.23
956.339	4139.35
956.643	4132.12
956.948	4109.3
957.252	4102.29
957.556	4103.65
957.86	4087.83
958.163	4060.49
958.467	4041.5
958.771	4006.93
959.075	4054.84
959.378	3974.61
959.682	4017.55
959.985	3975.29
960.289	3912.69
960.592	3905.01
960.896	3915.86
961.199	3852.81
961.502	3849.42
961.805	3869.53
962.108	3821.85
962.411	3800.15
962.714	3809.19
963.017	3851.23
963.32	3802.19
963.623	3768.52
963.926	3705.69
964.228	3692.59
964.531	3689.65
964.833	3696.88
965.136	3655.3
965.438	3674.06
965.741	3643.1
966.043	3597.22
966.345	3582.53
966.648	3602.19
966.95	3581.85
967.252	3537.56
967.554	3553.16
967.856	3526.04
968.158	3475.19
968.46	3451.91
968.761	3477.68
969.063	3449.88
969.365	3449.66
969.666	3431.8
969.968	3422.99
970.269	3429.09
970.571	3403.78
970.872	3402.2
971.174	3353.39
971.475	3349.32
971.776	3333.05
972.077	3319.49
972.378	3295.31
972.679	3314.97
972.98	3263.45
973.281	3283.33
973.582	3231.58
973.883	3197.46
974.183	3188.42
974.484	3197.91
974.785	3181.87
975.085	3185.03
975.386	3185.48
975.686	3140.74
975.986	3173.73
976.287	3113.84
976.587	3101.64
976.887	3079.5
977.187	3058.48
977.487	3090.12
977.787	3021.19
978.087	3053.28
978.387	3021.87
978.687	3031.81
978.987	3004.47
979.286	2988.88
979.586	2958.59
979.885	2910.01
980.185	2930.35
980.484	2890.8
980.784	2889.44
981.083	2887.86
981.382	2935.77
981.682	2872.95
981.981	2853.51
982.28	2846.96
982.579	2823.91
982.878	2789.33
983.177	2807.86
983.475	2803.8
983.774	2787.07
984.073	2759.05
984.372	2729.9
984.67	2744.59
984.969	2713.63
985.267	2734.65
985.566	2714.99
985.864	2730.35
986.162	2722.22
986.461	2686.96
986.759	2659.17
987.057	2620.07
987.355	2644.7
987.653	2615.55
987.951	2649.22
988.249	2588.66
988.547	2641.31
988.844	2570.58
989.142	2555.67
989.44	2548.21
989.737	2569.68
990.035	2535.33
990.332	2522
990.63	2515.67
990.927	2482.9
991.224	2487.65
991.521	2470.25
991.819	2476.12
992.116	2460.3
992.413	2430.7
992.71	2396.58
993.006	2447.42
993.303	2396.12
993.6	2386.86
993.897	2405.61
994.193	2390.25
994.49	2353.19
994.787	2371.04
995.083	2330.81
995.379	2342.57
995.676	2311.38
995.972	2301.44
996.268	2288.78
996.565	2283.81
996.861	2262.57
997.157	2262.34
997.453	2201.55
997.749	2225.96
998.044	2227.54
998.34	2221.89
998.636	2216.24
998.932	2183.25
999.227	2202
999.523	2180.54
999.818	2147.54
1000.114	2129.46
1000.409	2138.5
1000.704	2130.14
1001	2096.47
1001.295	2106.41
1001.59	2085.17
1001.885	2104.15
1002.18	2061.44
1002.475	2037.04
1002.77	2015.79
1003.065	2018.96
1003.359	2025.29
1003.654	2002.91
1003.949	2009.01
1004.243	2002.69
1004.538	1996.81
1004.832	1958.39
1005.127	1970.82
1005.421	1978.28
1005.715	1937.6
1006.009	1923.59
1006.304	1939.86
1006.598	1900.32
1006.892	1903.71
1007.186	1884.5
1007.48	1866.65
1007.773	1865.74
1008.067	1858.28
1008.361	1873.43
1008.655	1861
1008.948	1820.77
1009.242	1799.53
1009.535	1803.82
1009.829	1818.29
1010.122	1789.59
1010.415	1780.32
1010.708	1759.08
1011.001	1736.25
1011.295	1749.13
1011.588	1728.12
1011.881	1718.85
1012.173	1706.2
1012.466	1733.99
1012.759	1709.81
1013.052	1681.57
1013.344	1667.78
1013.637	1665.75
1013.93	1661.23
1014.222	1657.84
1014.514	1621.68
1014.807	1644.73
1015.099	1612.42
1015.391	1600.44
1015.683	1595.24
1015.976	1579.42
1016.268	1549.59
1016.56	1537.61
1016.851	1529.03
1017.143	1579.65
1017.435	1550.27
1017.727	1522.25
1018.018	1548.69
1018.31	1505.75
1018.602	1487.9
1018.893	1502.36
1019.185	1482.93
1019.476	1473.21
1019.767	1483.15
1020.058	1440.22
1020.35	1458.07
1020.641	1425.98
1020.932	1424.85
1021.223	1427.56
1021.514	1375.59
1021.804	1387.56
1022.095	1402.7
1022.386	1408.8
1022.677	1358.86
1022.967	1343.5
1023.258	1333.1
1023.548	1330.39
1023.839	1345.08
1024.129	1320.22
1024.419	1312.31
1024.709	1320.9
1025	1299.43
1025.29	1276.15
1025.58	1283.38
1025.87	1255.81
1026.16	1272.09
1026.449	1253.55
1026.739	1284.74
1027.029	1203.84
1027.319	1241.13
1027.608	1208.81
1027.898	1224.63
1028.187	1196.15
1028.477	1196.83
1028.766	1208.36
1029.055	1184.86
1029.344	1163.84
1029.634	1166.33
1029.923	1138.08
1030.212	1156.38
1030.501	1150.51
1030.79	1118.64
1031.078	1125.65
1031.367	1140.34
1031.656	1119.09
1031.945	1102.37
1032.233	1124.74
1032.522	1118.64
1032.81	1104.63
1033.099	1085.65
1033.387	1085.65
1033.675	1064.18
1033.963	1077.51
1034.251	1050.4
1034.54	1058.76
1034.828	1056.95
1035.116	1025.09
1035.403	1052.2
1035.691	1017.85
1035.979	1000.68
1036.267	983.28
1036.554	991.41
1036.842	1012.43
1037.129	1013.79
1037.417	995.26
1037.704	974.24
1037.992	984.86
1038.279	965.2
1038.566	934.01
1038.853	934.01
1039.14	934.01
