Data from red_shiny_book_FLMS001491_00066.txt Node
Date: Wed Feb 08 15:25:13 GMT 2017
User: dcchb
Spectrometer: FLMS00149
Trigger mode: 0
Integration Time (sec): 2.000000E-2
Scans to average: 10
Electric dark correction enabled: true
Nonlinearity correction enabled: false
Boxcar width: 0
XAxis mode: Wavelengths
Number of Pixels in Spectrum: 2048
>>>>>Begin Spectral Data<<<<<
341.393	-20.96
341.776	-20.96
342.16	-20.96
342.543	-62.09
342.927	-75.2
343.31	-75.87
343.693	-58.7
344.077	-53.95
344.46	-65.93
344.843	-45.59
345.226	-11.92
345.61	-34.29
345.993	-9.21
346.376	9.77
346.759	-8.53
347.142	22.65
347.525	39.38
347.908	50.9
348.291	62.65
348.674	71.92
349.057	106.72
349.44	119.83
349.823	142.88
350.206	165.93
350.588	191.46
350.971	198.02
351.354	208.41
351.737	236.21
352.119	221.75
352.502	262.65
352.884	271.24
353.267	268.07
353.65	283.44
354.032	297
354.414	294.96
354.797	306.94
355.179	333.16
355.562	298.58
355.944	334.74
356.326	313.04
356.709	310.33
357.091	340.84
357.473	327.96
357.855	334.28
358.238	340.84
358.62	332.7
359.002	327.96
359.384	345.81
359.766	352.59
360.148	333.61
360.53	309.88
360.912	348.97
361.294	336.09
361.676	330.22
362.057	340.84
362.439	319.6
362.821	327.05
363.203	302.87
363.584	330.9
363.966	336.77
364.348	319.37
364.729	325.25
365.111	312.82
365.493	310.78
365.874	308.3
366.256	309.65
366.637	307.85
367.019	298.58
367.4	313.72
367.781	324.12
368.163	311.01
368.544	292.25
368.925	284.12
369.306	305.59
369.688	305.36
370.069	324.12
370.45	295.64
370.831	296.77
371.212	292.93
371.593	301.97
371.974	317.79
372.355	308.07
372.736	299.48
373.117	291.8
373.498	319.14
373.879	312.82
374.26	311.69
374.641	340.84
375.021	317.11
375.402	318.47
375.783	299.26
376.163	292.93
376.544	326.15
376.925	332.48
377.305	331.12
377.686	302.42
378.066	331.35
378.447	327.51
378.827	337.22
379.208	301.52
379.588	339.03
379.968	334.51
380.349	317.56
380.729	325.25
381.109	320.73
381.489	337.9
381.87	332.93
382.25	312.59
382.63	334.06
383.01	325.47
383.39	326.6
383.77	334.51
384.15	325.02
384.53	332.48
384.91	329.09
385.29	326.15
385.67	341.97
386.049	320.73
386.429	301.74
386.809	346.71
387.189	338.13
387.568	346.26
387.948	341.06
388.328	351.69
388.707	328.86
389.087	336.09
389.466	331.57
389.846	367.5
390.225	352.14
390.605	314.17
390.984	346.49
391.363	355.53
391.743	336.77
392.122	350.33
392.501	359.37
392.881	359.82
393.26	345.81
393.639	346.04
394.018	324.57
394.397	342.42
394.776	354.4
395.155	339.26
395.534	357.34
395.913	349.2
396.292	369.99
396.671	343.1
397.05	362.31
397.429	361.63
397.808	350.56
398.186	350.1
398.565	382.65
398.944	367.73
399.323	367.73
399.701	368.18
400.08	368.86
400.458	350.1
400.837	360.05
401.215	377
401.594	380.16
401.972	373.15
402.351	359.37
402.729	359.6
403.107	373.61
403.486	365.47
403.864	377
404.242	363.66
404.62	395.53
404.999	394.85
405.377	367.05
405.755	367.28
406.133	397.11
406.511	391.91
406.889	385.81
407.267	392.81
407.645	401.4
408.023	379.71
408.401	393.04
408.779	416.77
409.156	401.85
409.534	410.89
409.912	391.23
410.29	428.97
410.667	413.15
411.045	416.99
411.422	442.53
411.8	375.41
412.178	409.76
412.555	412.25
412.933	400.27
413.31	427.84
413.687	436.43
414.065	446.37
414.442	428.52
414.819	443.89
415.197	428.52
415.574	470.33
415.951	452.47
416.328	457.67
416.705	461.29
417.082	427.16
417.46	437.11
417.837	471.23
418.214	466.71
418.591	470.55
418.967	461.51
419.344	480.5
419.721	461.06
420.098	474.85
420.475	485.47
420.852	490.89
421.228	480.5
421.605	480.95
421.982	483.43
422.358	491.79
422.735	505.58
423.111	484.34
423.488	514.17
423.864	496.99
424.241	503.09
424.617	502.42
424.994	497.22
425.37	502.19
425.746	520.04
426.123	509.42
426.499	506.48
426.875	513.49
427.251	542.19
427.627	525.01
428.003	538.8
428.379	547.61
428.756	541.51
429.132	549.65
429.507	556.65
429.883	536.54
430.259	539.03
430.635	551
431.011	544.9
431.387	565.47
431.763	554.84
432.138	547.39
432.514	578.35
432.89	578.57
433.265	580.61
433.641	567.27
434.016	568.18
434.392	572.24
434.767	595.52
435.143	599.14
435.518	605.01
435.894	590.78
436.269	584.9
436.644	604.79
437.02	619.48
437.395	616.09
437.77	620.15
438.145	634.62
438.52	619.48
438.895	610.89
439.271	628.51
439.646	619.93
440.021	620.38
440.395	615.86
440.77	647.5
441.145	649.76
441.52	655.18
441.895	655.63
442.27	649.08
442.645	644.33
443.019	672.81
443.394	634.39
443.769	636.65
444.143	626.25
444.518	652.47
444.892	640.27
445.267	654.28
445.641	654.5
446.016	645.92
446.39	655.18
446.764	671
447.139	679.59
447.513	679.13
447.887	696.99
448.262	667.61
448.636	671.68
449.01	663.54
449.384	672.13
449.758	659.02
450.132	665.35
450.506	685.91
450.88	691.56
451.254	684.78
451.628	724.78
452.002	713.71
452.376	720.94
452.75	721.85
453.123	712.35
453.497	711.9
453.871	716.65
454.244	703.54
454.618	728.17
454.992	739.7
455.365	709.87
455.739	727.27
456.112	741.51
456.486	739.7
456.859	748.74
457.232	772.92
457.606	762.07
457.979	735.86
458.352	760.26
458.725	761.84
459.099	745.8
459.472	763.88
459.845	744.9
460.218	751.68
460.591	757.1
460.964	759.13
461.337	780.6
461.71	781.5
462.083	771.79
462.456	815.63
462.829	802.75
463.201	796.87
463.574	776.53
463.947	777.89
464.32	795.97
464.692	767.04
465.065	772.69
465.438	796.65
465.81	805.69
466.183	823.76
466.555	841.16
466.928	855.85
467.3	839.36
467.672	833.93
468.045	860.37
468.417	853.37
468.789	844.33
469.161	869.41
469.534	842.07
469.906	860.15
470.278	843.88
470.65	861.28
471.022	874.16
471.394	887.94
471.766	893.37
472.138	935.17
472.51	948.73
472.882	926.13
473.253	949.86
473.625	954.38
473.997	960.71
474.369	937.88
474.74	952.12
475.112	950.99
475.484	950.77
475.855	990.31
476.227	963.65
476.598	988.96
476.97	998.9
477.341	1030.54
477.713	1049.52
478.084	1042.29
478.455	1089.52
478.827	1078.67
479.198	1114.15
479.569	1087.71
479.94	1094.72
480.311	1091.55
480.682	1134.72
481.053	1108.5
481.424	1113.47
481.795	1123.42
482.166	1159.57
482.537	1164.55
482.908	1211.32
483.279	1238.67
483.65	1259.46
484.021	1262.62
484.391	1298.55
484.762	1299.23
485.133	1290.87
485.503	1316.18
485.874	1302.17
486.244	1286.8
486.615	1321.83
486.985	1309.17
487.356	1346.01
487.726	1365.9
488.097	1368.83
488.467	1429.62
488.837	1465.33
489.207	1466.91
489.578	1475.95
489.948	1540.35
490.318	1565.67
490.688	1559.79
491.058	1564.99
491.428	1555.72
491.798	1563.86
492.168	1561.37
492.538	1562.73
492.908	1600.01
493.278	1608.83
493.648	1600.92
494.017	1624.19
494.387	1637.08
494.757	1695.61
495.126	1698.77
495.496	1715.27
495.866	1752.1
496.235	1777.18
496.605	1750.52
496.974	1763.63
497.344	1776.28
497.713	1781.48
498.082	1739.22
498.452	1762.04
498.821	1727.24
499.19	1741.25
499.559	1746
499.928	1770.86
500.298	1825.09
500.667	1848.82
501.036	1844.98
501.405	1851.76
501.774	1880.46
502.143	1906.67
502.512	1899.89
502.88	1906.22
503.249	1931.76
503.618	1869.84
503.987	1907.35
504.356	1897.63
504.724	1848.14
505.093	1849.73
505.462	1857.63
505.83	1843.4
506.199	1884.3
506.567	1926.11
506.936	1897.86
507.304	1958.2
507.672	2002.94
508.041	1997.07
508.409	1969.04
508.777	1983.51
509.145	2018.53
509.514	1967.46
509.882	1971.08
510.25	1966.33
510.618	1928.82
510.986	1938.54
511.354	1913.45
511.722	1917.52
512.09	1903.96
512.458	1910.29
512.826	1933.11
513.193	1977.63
513.561	1986.22
513.929	2004.3
514.297	2041.36
514.664	2083.39
515.032	2037.74
515.4	2064.41
515.767	2087.23
516.135	2049.95
516.502	1997.74
516.869	1995.94
517.237	1975.37
517.604	1951.42
517.972	1937.86
518.339	1907.12
518.706	1909.38
519.073	1894.24
519.44	1947.58
519.808	1955.26
520.175	1975.37
520.542	2009.5
520.909	2044.52
521.276	2045.65
521.643	2076.84
522.009	2075.26
522.376	2090.85
522.743	2056.05
523.11	2062.83
523.477	2049.27
523.843	2049.04
524.21	2010.4
524.577	2007.46
524.943	1961.59
525.31	2016.73
525.676	2007.46
526.043	2017.86
526.409	2014.47
526.776	2062.38
527.142	2107.8
527.508	2148.93
527.874	2169.26
528.241	2193.67
528.607	2195.25
528.973	2233.9
529.339	2262.37
529.705	2259.88
530.071	2255.82
530.437	2261.69
530.803	2215.59
531.169	2211.3
531.535	2185.76
531.901	2183.73
532.267	2203.39
532.632	2193.67
532.998	2212.65
533.364	2249.04
533.73	2267.57
534.095	2364.97
534.461	2368.81
534.826	2437.73
535.192	2444.29
535.557	2468.01
535.923	2468.47
536.288	2525.19
536.653	2498.75
537.019	2505.75
537.384	2481.35
537.749	2479.54
538.114	2458.97
538.479	2413.78
538.845	2428.92
539.21	2404.29
539.575	2425.76
539.94	2436.38
540.305	2461.69
540.67	2487.9
541.034	2517.05
541.399	2574.9
541.764	2609.03
542.129	2674.34
542.494	2690.16
542.858	2736.03
543.223	2743.71
543.587	2746.88
543.952	2766.54
544.316	2729.93
544.681	2717.73
545.045	2689.93
545.41	2700.55
545.774	2655.58
546.138	2678.18
546.503	2642.02
546.867	2647.22
547.231	2648.57
547.595	2685.41
547.959	2680.89
548.324	2698.29
548.688	2757.72
549.052	2771.28
549.416	2839.08
549.779	2834.33
550.143	2880.43
550.507	2938.28
550.871	2895.35
551.235	2895.57
551.599	2868.46
551.962	2884.27
552.326	2894.22
552.689	2818.74
553.053	2800.21
553.417	2770.61
553.78	2730.61
554.143	2735.35
554.507	2669.59
554.87	2678.63
555.234	2685.86
555.597	2729.93
555.96	2773.99
556.323	2790.49
556.686	2828.91
557.05	2895.8
557.413	2906.42
557.776	2917.72
558.139	2985.51
558.502	2991.84
558.865	2973.09
559.228	3000.43
559.59	2924.05
559.953	2922.69
560.316	2945.06
560.679	2893.99
561.041	2838.4
561.404	2836.82
561.767	2824.84
562.129	2801.11
562.492	2789.36
562.854	2809.47
563.217	2766.31
563.579	2819.64
563.941	2832.52
564.304	2891.96
564.666	2934.67
565.028	2991.39
565.39	3018.51
565.753	3033.42
566.115	3064.16
566.477	3149.35
566.839	3100.77
567.201	3122.23
567.563	3114.1
567.925	3116.58
568.287	3051.05
568.648	3026.19
569.01	3032.97
569.372	3001.79
569.734	2916.14
570.095	2951.62
570.457	2982.12
570.819	2969.47
571.18	2982.12
571.542	3042.69
571.903	3045.4
572.265	3100.09
572.626	3139.63
572.987	3220.08
573.349	3292.63
573.71	3328.1
574.071	3370.82
574.432	3450.59
574.794	3502.79
575.155	3534.65
575.516	3571.04
575.877	3598.15
576.238	3580.3
576.599	3651.71
576.96	3637.02
577.32	3653.29
577.681	3630.92
578.042	3716.12
578.403	3750.69
578.763	3826.85
579.124	3872.27
579.485	3994.08
579.845	4118.37
580.206	4261.64
580.566	4388.42
580.927	4522.2
581.287	4796.31
581.648	4902.07
582.008	5126.93
582.368	5334.83
582.728	5513.81
583.089	5698.66
583.449	5949.05
583.809	6110.63
584.169	6315.37
584.529	6589.04
584.889	6801.23
585.249	6938.86
585.609	7216.59
585.969	7491.84
586.329	7726.18
586.688	7983.35
587.048	8306.05
587.408	8607.97
587.768	8948.07
588.127	9283.65
588.487	9593.7
588.846	10078.66
589.206	10392.1
589.565	10817.17
589.925	11310.04
590.284	11682.69
590.643	12132.84
591.003	12667.29
591.362	13074.51
591.721	13477.44
592.08	13946.58
592.44	14430.41
592.799	14726
593.158	15220.67
593.517	15568.23
593.876	16048.45
594.235	16349.91
594.593	16752.84
594.952	17109.44
595.311	17512.36
595.67	17972.24
596.029	18440.7
596.387	18814.03
596.746	19331.75
597.104	19742.14
597.463	20059.19
597.822	20662.79
598.18	20954.76
598.538	21386.16
598.897	22003.55
599.255	22216.2
599.613	23009.17
599.972	23383.17
600.33	23851.18
600.688	24285.29
601.046	24684.15
601.404	25185.16
601.762	25495.43
602.12	26022.2
602.478	26362.75
602.836	26566.82
603.194	26897.88
603.552	27191.21
603.91	27322.05
604.268	27810.85
604.625	28152.08
604.983	28409.03
605.341	28688.57
605.698	29035.23
606.056	29515.21
606.413	29696.9
606.771	30170.79
607.128	30521.29
607.485	30663.21
607.843	31075.17
608.2	31503.63
608.557	31753.57
608.914	32084.41
609.272	32494.34
609.629	32822.92
609.986	33210.26
610.343	33354.89
610.7	33774.31
611.057	33824.03
611.414	34163.68
611.771	34335.42
612.127	34537
612.484	34713.27
612.841	34970.89
613.198	34930.21
613.554	35204.55
613.911	35481.84
614.267	35515.51
614.624	35664.88
614.98	35879.34
615.337	36061.03
615.693	36221.03
616.05	36382.15
616.406	36729.26
616.762	36749.82
617.118	36984.39
617.475	37126.31
617.831	37338.74
618.187	37700.76
618.543	37764.04
618.899	38142.33
619.255	38112.73
619.611	38180.52
619.967	38570.12
620.323	38799.94
620.678	38681.98
621.034	38663.45
621.39	38704.58
621.746	38714.74
622.101	39264.56
622.457	38987.28
622.812	38994.51
623.168	39093.27
623.523	39158.12
623.879	39342.07
624.234	38994.51
624.589	39240.15
624.945	39377.78
625.3	39451.9
625.655	39353.6
626.01	39467.04
626.365	39587.72
626.72	39641.95
627.075	39610.54
627.43	39874.49
627.785	39836.98
628.14	40068.38
628.495	40095.95
628.85	40236.06
629.205	40234.93
629.559	40502.72
629.914	40322.16
630.269	40387.47
630.623	40386.79
630.978	40370.07
631.332	40514.25
631.687	40445.09
632.041	40375.27
632.396	40528.48
632.75	40214.14
633.104	40118.78
633.459	40137.31
633.813	40064.31
634.167	40080.13
634.521	39881.95
634.875	40053.92
635.229	40045.78
635.583	39845.11
635.937	39919.01
636.291	39820.03
636.645	40013.02
636.999	39771.89
637.352	40089.4
637.706	39863.64
638.06	40048.04
638.413	40147.93
638.767	39922.62
639.121	40050.3
639.474	39923.98
639.828	39941.38
640.181	40125.33
640.534	40241.26
640.888	39949.51
641.241	39838.33
641.594	39925.56
641.947	39892.57
642.301	39871.1
642.654	39784.77
643.007	39835.85
643.36	39699.13
643.713	39679.24
644.066	39709.52
644.419	39274.73
644.771	39141.4
645.124	38690.11
645.477	38576.44
645.83	38322.21
646.182	38336.9
646.535	38218.94
646.888	38280.18
647.24	38153.4
647.593	38417.35
647.945	38321.31
648.298	38257.58
648.65	38253.06
649.002	38161.76
649.355	38320.63
649.707	38285.6
650.059	38480.63
650.411	38919.94
650.763	38945.7
651.115	39362.86
651.467	39155.86
651.819	39154.96
652.171	39062.53
652.523	39087.84
652.875	38900.95
653.227	38725.37
653.578	38941.18
653.93	38671.36
654.282	38555.88
654.633	38401.76
654.985	38645.82
655.337	38426.62
655.688	38576.67
656.039	38531.25
656.391	38207.19
656.742	38216.45
657.094	38328.31
657.445	38517.46
657.796	38317.02
658.147	38269.78
658.498	38281.31
658.849	38517.91
659.2	38459.61
659.551	38494.41
659.902	38495.99
660.253	38437.69
660.604	38645.82
660.955	38438.37
661.306	38577.8
661.656	38531.02
662.007	38500.74
662.358	38519.95
662.708	38649.21
663.059	38520.63
663.409	38291.48
663.76	38501.87
664.11	38316.11
664.461	38409.89
664.811	38320.4
665.161	38215.77
665.511	38044.03
665.862	38014.65
666.212	38164.7
666.562	38170.13
666.912	37919.96
667.262	37952.28
667.612	37846.97
667.962	37883.58
668.312	37839.51
668.662	37864.15
669.011	38013.07
669.361	37909.57
669.711	37909.12
670.06	37910.92
670.41	37818.5
670.76	37793.41
671.109	38161.54
671.459	37916.35
671.808	37898.5
672.157	38011.26
672.507	37750.25
672.856	37888.33
673.205	37981.2
673.554	37967.65
673.904	37904.6
674.253	38227.75
674.602	37859.63
674.951	37292.64
675.3	37141.23
675.649	37677.03
675.998	37586.64
676.346	37604.94
676.695	37639.07
677.044	37327.89
677.393	37500.77
677.741	37254.67
678.09	37249.92
678.438	37025.07
678.787	37157.27
679.135	37204.73
679.484	36916.37
679.832	37037.05
680.181	36823.27
680.529	36957.95
680.877	36943.04
681.225	36886.32
681.573	37179.64
681.922	36847.68
682.27	36932.87
682.618	36863.27
682.966	36977.62
683.314	36999.31
683.661	36955.69
684.009	36772.42
684.357	36709.15
684.705	36655.59
685.053	36842.25
685.4	36655.14
685.748	36570.62
686.095	36505.54
686.443	36342.38
686.79	36200.69
687.138	36332.43
687.485	36275.71
687.832	35969.73
688.18	35943.52
688.527	35767.7
688.874	35725.44
689.221	35506.24
689.568	35475.73
689.915	35393.93
690.262	35317.55
690.609	35307.83
690.956	35027.38
691.303	35039.81
691.65	34894.05
691.997	34867.39
692.344	34805.02
692.69	34743.32
693.037	34741.06
693.383	34499.94
693.73	34560.05
694.077	34490.45
694.423	34498.81
694.769	34394.63
695.116	34445.48
695.462	34437.57
695.808	34176.56
696.155	34412.26
696.501	33960.52
696.847	34177.46
697.193	33801.2
697.539	34091.14
697.885	33745.84
698.231	33752.62
698.577	33677.82
698.923	33577.25
699.269	33401.89
699.614	33296.36
699.96	33154.21
700.306	33058.85
700.651	32883.49
700.997	32786.54
701.342	32780.44
701.688	32577.05
702.033	32543.16
702.379	32310.17
702.724	32531.4
703.069	32370.05
703.415	32009.38
703.76	32005.77
704.105	31931.19
704.45	31963.06
704.795	31756.96
705.14	31812.1
705.485	31698.66
705.83	31597.64
706.175	31700.69
706.52	31580.7
706.865	31523.3
707.209	31477.65
707.554	31402.62
707.899	31603.29
708.243	31328.27
708.588	31268.16
708.932	31215.96
709.277	31182.97
709.621	31107.71
709.966	30936.87
710.31	30909.53
710.654	30780.72
710.998	30818.91
711.342	30869.75
711.687	30700.27
712.031	30503.89
712.375	30272.93
712.719	30354.29
713.063	30420.95
713.407	30377.79
713.75	30036.55
714.094	30090.11
714.438	29943.9
714.782	29834.98
715.125	29696.9
715.469	29788.65
715.812	29590.01
716.156	29541.2
716.499	29485.83
716.843	29568.77
717.186	29376.91
717.53	29331.49
717.873	29446.06
718.216	29353.18
718.559	29389.57
718.902	29023.47
719.246	29257.14
719.589	29155.9
719.932	29033.64
720.275	29054.89
720.617	29071.61
720.96	29002.23
721.303	29175.33
721.646	29136.01
721.989	28877.94
722.331	29011.72
722.674	28925.4
723.016	28931.95
723.359	28948
723.701	28964.49
724.044	28701.67
724.386	28567.44
724.729	28648.12
725.071	28468.23
725.413	28385.52
725.755	28479.99
726.097	28287.45
726.439	28143.05
726.782	28126.1
727.124	28265.08
727.465	27993.22
727.807	27960.23
728.149	27871.64
728.491	27843.17
728.833	27920.9
729.175	27624.87
729.516	27649.95
729.858	27510.29
730.199	27652.66
730.541	27490.18
730.882	27419.9
731.224	27646.11
731.565	27267.36
731.906	27303.29
732.248	27395.04
732.589	27321.15
732.93	27282.28
733.271	27233.69
733.612	27400.01
733.953	27336.06
734.294	27160.47
734.635	27188.72
734.976	27277.31
735.317	27227.82
735.658	27266.01
735.999	27113.02
736.339	27114.82
736.68	27164.54
737.021	27020.14
737.361	26982.17
737.702	27128.61
738.042	26965
738.383	26842.74
738.723	26881.84
739.063	26816.07
739.404	26788.05
739.744	26651.33
740.084	26520.04
740.424	26538.34
740.764	26440.04
741.104	26522.52
741.444	26439.59
741.784	26280.5
742.124	26296.09
742.464	26236.65
742.804	26181.06
743.143	26108.3
743.483	26083.66
743.823	25837.57
744.162	25893.39
744.502	25982.88
744.841	25761.86
745.181	25969.32
745.52	25791.92
745.86	25803.45
746.199	25816.78
746.538	25811.58
746.877	25799.6
747.216	25856.55
747.556	25726.84
747.895	25718.48
748.234	25562.1
748.573	25652.94
748.911	25650.23
749.25	25584.47
749.589	25490.91
749.928	25626.5
750.267	25593.51
750.605	25554.86
750.944	25559.84
751.283	25428.09
751.621	25436.9
751.96	25178.15
752.298	25210.47
752.636	25149.23
752.975	25052.28
753.313	24840.53
753.651	24974.54
753.989	24911.72
754.327	24708.33
754.666	24603.25
755.004	24746.3
755.342	24729.12
755.679	24502.24
756.017	24314.67
756.355	24386.31
756.693	24194.9
757.031	24267.67
757.368	23984.74
757.706	24090.72
758.044	24011.4
758.381	24020.44
758.719	23744.97
759.056	23883.72
759.394	23807.57
759.731	23690.51
760.068	23592.43
760.405	23546.33
760.743	23630.85
761.08	23497.07
761.417	23447.58
761.754	23492.09
762.091	23429.72
762.428	23340.46
762.765	23182.27
763.102	23232.21
763.438	23203.06
763.775	23011.65
764.112	23151.54
764.449	23176.85
764.785	23014.82
765.122	22883.75
765.458	22861.83
765.795	22889.85
766.131	22790.87
766.467	22627.94
766.804	22589.29
767.14	22466.58
767.476	22478.34
767.812	22338.9
768.148	22380.94
768.485	22194.73
768.821	21990.66
769.157	21959.71
769.492	21858.46
769.828	21887.84
770.164	21682.42
770.5	21546.61
770.836	21548.42
771.171	21412.15
771.507	21313.17
771.842	21117.69
772.178	21196.34
772.513	21085.83
772.849	20949.56
773.184	20924.93
773.519	20971.48
773.855	20681.32
774.19	20692.85
774.525	20555.67
774.86	20545.05
775.195	20528.33
775.53	20554.32
775.865	20454.43
776.2	20331.5
776.535	20151.84
776.87	20208.79
777.205	20077.49
777.539	20035.46
777.874	20027.55
778.209	19992.3
778.543	19965.63
778.878	19779.65
779.212	19891.51
779.547	19734.9
779.881	19883.83
780.215	19625.3
780.55	19720.44
780.884	19578.75
781.218	19504.4
781.552	19494.01
781.886	19384.41
782.22	19290.17
782.554	19314.35
782.888	19049.05
783.222	18954.81
783.556	18843.63
783.889	18792.56
784.223	18669.62
784.557	18666.68
784.89	18658.32
785.224	18539.68
785.557	18445.9
785.891	18319.8
786.224	18320.25
786.558	18175.85
786.891	17985.35
787.224	17898.12
787.557	17882.98
787.891	17882.07
788.224	17836.88
788.557	17841.17
788.89	17726.6
789.223	17760.95
789.556	17536.32
789.888	17549.2
790.221	17442.76
790.554	17335.19
790.887	17358.02
791.219	17394.63
791.552	17247.96
791.884	17184.01
792.217	17282.77
792.549	17138.36
792.882	16948.99
793.214	16868.31
793.546	17019.04
793.879	16846.39
794.211	16874.19
794.543	16872.38
794.875	16782.44
795.207	16847.3
795.539	16760.07
795.871	16770.46
796.203	16575.89
796.535	16509.45
796.867	16538.15
797.198	16478.49
797.53	16451.6
797.862	16395.56
798.193	16322.34
798.525	16261.1
798.856	16283.02
799.188	16037.6
799.519	16011.16
799.85	15988.11
800.182	15998.28
800.513	15895.23
800.844	15734.33
801.175	15798.51
801.506	15713.54
801.837	15596.26
802.168	15580.89
802.499	15539.76
802.83	15476.03
803.161	15400.56
803.491	15403.72
803.822	15255.47
804.153	15271.52
804.483	15114.91
804.814	15055.48
805.145	15059.32
805.475	15138.42
805.805	14944.52
806.136	15018.42
806.466	14917.18
806.796	14883.28
807.126	14796.73
807.457	14819.1
807.787	14816.62
808.117	14745.66
808.447	14702.49
808.777	14795.6
809.107	14646.23
809.436	14627.69
809.766	14620.91
810.096	14557.41
810.426	14555.61
810.755	14516.74
811.085	14479.68
811.414	14536.85
811.744	14417.3
812.073	14365.55
812.403	14396.74
812.732	14313.35
813.061	14314.48
813.39	14163.07
813.719	14229.51
814.049	14245.33
814.378	14185.67
814.707	14164.2
815.036	14151.77
815.365	14004.21
815.693	13937.32
816.022	13884.66
816.351	13908.39
816.68	13778.9
817.008	13874.27
817.337	13722.41
817.665	13641.51
817.994	13674.5
818.322	13705.01
818.651	13558.34
818.979	13574.39
819.307	13575.07
819.636	13525.58
819.964	13365.58
820.292	13418.91
820.62	13355.64
820.948	13346.37
821.276	13346.6
821.604	13289.2
821.932	13324.68
822.259	13349.31
822.587	13292.59
822.915	13347.05
823.243	13311.8
823.57	13305.92
823.898	13270.44
824.225	13214.17
824.553	13353.6
824.88	13255.3
825.207	13250.33
825.535	13268.63
825.862	13334.85
826.189	13273.15
826.516	13370.78
826.843	13417.78
827.17	13399.03
827.497	13369.42
827.824	13419.82
828.151	13423.66
828.478	13417.1
828.805	13388.18
829.131	13425.69
829.458	13405.81
829.785	13291.23
830.111	13361.74
830.438	13450.1
830.764	13405.13
831.09	13385.69
831.417	13415.75
831.743	13364
832.069	13338.24
832.395	13292.36
832.722	13305.47
833.048	13256.21
833.374	13256.43
833.7	13173.5
834.026	13261.4
834.351	13321.97
834.677	13217.79
835.003	13197.68
835.329	13208.97
835.654	13114.06
835.98	13027.06
836.306	13034.52
836.631	13003.1
836.956	13018.25
837.282	12935.54
837.607	12985.48
837.932	12881.53
838.258	12905.03
838.583	12893.28
838.908	12798.82
839.233	12806.5
839.558	12852.6
839.883	12799.95
840.208	12731.7
840.533	12669.33
840.858	12633.85
841.182	12634.53
841.507	12650.12
841.832	12534.87
842.156	12625.71
842.481	12566.05
842.805	12554.98
843.13	12563.12
843.454	12542.1
843.778	12524.25
844.103	12478.15
844.427	12463.01
844.751	12471.59
845.075	12449.22
845.399	12464.59
845.723	12392.95
846.047	12424.59
846.371	12271.82
846.695	12331.48
847.019	12182.11
847.343	12100.76
847.666	12079.51
847.99	12094.43
848.313	12097.37
848.637	12007.65
848.96	11994.32
849.284	11906.86
849.607	11870.03
849.931	11806.07
850.254	11745.06
850.577	11670.26
850.9	11711.39
851.223	11508
851.546	11593.42
851.869	11453.54
852.192	11409.93
852.515	11368.57
852.838	11321.34
853.161	11301.23
853.483	11241.12
853.806	11191.17
854.129	11152.53
854.451	11110.95
854.774	11071.63
855.096	11018.52
855.419	10967.68
855.741	10973.78
856.063	10837.06
856.385	10786.89
856.708	10725.88
857.03	10750.73
857.352	10792.09
857.674	10693.56
857.996	10700.57
858.318	10619.66
858.64	10584.64
858.961	10599.33
859.283	10590.51
859.605	10448.82
859.926	10505.32
860.248	10498.09
860.57	10456.73
860.891	10438.2
861.212	10341.93
861.534	10338.77
861.855	10342.16
862.176	10372.44
862.498	10363.63
862.819	10320.92
863.14	10250.41
863.461	10315.27
863.782	10276.62
864.103	10272.33
864.424	10287.92
864.745	10267.13
865.065	10256.96
865.386	10228.71
865.707	10184.2
866.027	10270.07
866.348	10230.07
866.668	10140.58
866.989	10176.06
867.309	10073.69
867.63	10170.86
867.95	10155.04
868.27	10109.85
868.59	10132.67
868.91	10042.05
869.23	9967.03
869.55	9971.77
869.87	10013.35
870.19	10040.02
870.51	10071.66
870.83	10032.34
871.15	9924.54
871.469	9909.17
871.789	9966.35
872.109	9865.11
872.428	9775.62
872.748	9881.15
873.067	9811.32
873.386	9845.67
873.706	9770.87
874.025	9681.16
874.344	9676.64
874.663	9616.98
874.982	9621.27
875.301	9630.09
875.62	9560.26
875.939	9596.19
876.258	9605.23
876.577	9442.07
876.896	9488.39
877.214	9516.42
877.533	9454.27
877.852	9498.56
878.17	9484.33
878.489	9477.1
878.807	9415.4
879.125	9424.67
879.444	9412.46
879.762	9338.34
880.08	9349.87
880.398	9323.2
880.716	9316.87
881.034	9353.48
881.352	9339.92
881.67	9337.89
881.988	9316.2
882.306	9264.9
882.624	9247.95
882.941	9252.02
883.259	9207.5
883.577	9219.93
883.894	9207.27
884.212	9204.56
884.529	9192.13
884.846	9182.41
885.164	9144.22
885.481	9186.03
885.798	9093.15
886.115	9044.34
886.432	9035.3
886.75	9060.84
887.067	9083.89
887.383	8920.27
887.7	8996.66
888.017	9007.28
888.334	8921.86
888.651	8966.37
888.967	8899.94
889.284	8877.11
889.6	8880.27
889.917	8765.48
890.233	8835.08
890.55	8713.95
890.866	8784.46
891.182	8691.13
891.498	8648.19
891.815	8701.75
892.131	8617.46
892.447	8618.81
892.763	8498.59
893.079	8512.83
893.395	8540.17
893.71	8480.51
894.026	8452.49
894.342	8429.89
894.657	8334.75
894.973	8316.45
895.289	8335.88
895.604	8331.59
895.92	8224.7
896.235	8224.92
896.55	8137.47
896.865	8206.62
897.181	8141.76
897.496	8142.22
897.811	8064.03
898.126	8103.12
898.441	8054.76
898.756	8043.69
899.071	7983.12
899.386	8002.11
899.7	7879.85
900.015	7830.13
900.33	7817.7
900.644	7800.08
900.959	7834.65
901.273	7752.17
901.588	7704.94
901.902	7753.07
902.216	7751.72
902.531	7706.07
902.845	7662.23
903.159	7601.89
903.473	7589.24
903.787	7506.3
904.101	7569.12
904.415	7580.65
904.729	7549.01
905.042	7499.75
905.356	7515.57
905.67	7424.49
905.984	7450.03
906.297	7389.47
906.611	7364.61
906.924	7382.69
907.237	7329.58
907.551	7327.55
907.864	7255.91
908.177	7287.55
908.491	7271.5
908.804	7214.1
909.117	7181.34
909.43	7138.63
909.743	7053.88
910.056	7091.17
910.368	7010.27
910.681	6929.14
910.994	6955.13
911.307	6949.03
911.619	6865.19
911.932	6920.33
912.244	6832.42
912.557	6855.7
912.869	6823.38
913.181	6733.89
913.494	6744.96
913.806	6725.3
914.118	6660.45
914.43	6644.4
914.742	6581.35
915.054	6537.74
915.366	6519.66
915.678	6514.91
915.99	6500.68
916.302	6422.94
916.613	6421.36
916.925	6369.38
917.236	6380.45
917.548	6291.42
917.859	6315.37
918.171	6279.44
918.482	6247.8
918.794	6172.55
919.105	6206.9
919.416	6171.65
919.727	6155.6
920.038	6084.42
920.349	6059.56
920.66	6094.81
920.971	6073.34
921.282	6069.73
921.593	5956.28
921.903	5979.33
922.214	5954.25
922.525	5907.7
922.835	5903.63
923.146	5879.22
923.456	5872.44
923.767	5815.27
924.077	5855.72
924.387	5794.48
924.697	5761.94
925.008	5761.03
925.318	5738.89
925.628	5743.63
925.938	5715.84
926.248	5639.46
926.558	5641.26
926.867	5583.19
927.177	5607.59
927.487	5575.73
927.796	5558.1
928.106	5559.91
928.416	5516.97
928.725	5485.56
929.034	5466.35
929.344	5439.24
929.653	5440.14
929.962	5327.83
930.271	5368.5
930.581	5358.33
930.89	5356.3
931.199	5297.32
931.508	5288.05
931.817	5251.67
932.125	5216.19
932.434	5244.89
932.743	5180.49
933.051	5176.87
933.36	5172.58
933.669	5125.57
933.977	5062.3
934.286	5118.11
934.594	5068.17
934.902	5001.73
935.21	4987.95
935.519	4972.36
935.827	4981.17
936.135	4926.48
936.443	4900.04
936.751	4880.61
937.059	4868.4
937.367	4876.76
937.674	4795.86
937.982	4752.7
938.29	4750.44
938.597	4764.45
938.905	4703.44
939.213	4715.19
939.52	4686.26
939.827	4706.83
940.135	4656.21
940.442	4635.64
940.749	4632.48
941.056	4591.8
941.363	4520.62
941.67	4587.51
941.977	4499.37
942.284	4487.62
942.591	4538.02
942.898	4450.56
943.205	4486.27
943.511	4466.15
943.818	4471.13
944.125	4381.18
944.431	4426.38
944.738	4336.21
945.044	4315.2
945.35	4304.35
945.657	4352.48
945.963	4312.71
946.269	4281.98
946.575	4280.85
946.881	4258.25
947.187	4239.49
947.493	4216.22
947.799	4227.97
948.105	4232.94
948.41	4151.59
948.716	4190
949.022	4168.53
949.327	4132.15
949.633	4128.31
949.938	4113.85
950.244	4124.24
950.549	4051.25
950.854	4031.36
951.16	4027.97
951.465	3997.47
951.77	3980.97
952.075	3985.49
952.38	3959.27
952.685	3974.42
952.99	3914.3
953.294	3902.1
953.599	3898.49
953.904	3873.85
954.209	3852.16
954.513	3836.34
954.818	3860.07
955.122	3809.22
955.426	3776.68
955.731	3760.18
956.035	3767.19
956.339	3725.83
956.643	3735.1
956.948	3680.19
957.252	3665.72
957.556	3680.64
957.86	3667.76
958.163	3682.22
958.467	3649.9
958.771	3582.79
959.075	3587.53
959.378	3581.66
959.682	3564.03
959.985	3526.97
960.289	3544.37
960.592	3517.48
960.896	3479.96
961.199	3466.86
961.502	3420.76
961.805	3475.67
962.108	3446.29
962.411	3394.32
962.714	3394.32
963.017	3362.45
963.32	3350.7
963.623	3350.7
963.926	3341.89
964.228	3307.31
964.531	3303.25
964.833	3303.25
965.136	3241.1
965.438	3244.72
965.741	3243.14
966.043	3237.49
966.345	3231.38
966.648	3214.44
966.95	3227.32
967.252	3184.15
967.554	3211.72
967.856	3164.04
968.158	3129.92
968.46	3145.96
968.761	3126.98
969.063	3125.17
969.365	3098.28
969.666	3067.77
969.968	3078.62
970.269	3043.82
970.571	3030.71
970.872	2998.4
971.174	2998.4
971.475	3016.7
971.776	3008.56
972.077	2995.01
972.378	2984.38
972.679	2953.65
972.98	2941.67
973.281	2911.84
973.582	2933.09
973.883	2939.41
974.183	2920.21
974.484	2889.47
974.785	2872.3
975.085	2877.95
975.386	2876.82
975.686	2822.36
975.986	2857.16
976.287	2807.67
976.587	2838.85
976.887	2779.87
977.187	2806.31
977.487	2803.82
977.787	2754.11
978.087	2748.01
978.387	2755.46
978.687	2691.29
978.987	2748.23
979.286	2718.86
979.586	2713.66
979.885	2670.04
980.185	2664.62
980.484	2661.23
980.784	2638.86
981.083	2644.28
981.382	2573.32
981.682	2604.51
981.981	2587.56
982.28	2596.82
982.579	2523.83
982.878	2543.27
983.177	2557.96
983.475	2534.68
983.774	2504.85
984.073	2523.61
984.372	2520.22
984.67	2490.84
984.969	2497.62
985.267	2470.05
985.566	2451.29
985.864	2426.66
986.162	2426.89
986.461	2391.41
986.759	2399.09
987.057	2360.22
987.355	2372.42
987.653	2360.22
987.951	2359.99
988.249	2345.31
988.547	2317.96
988.844	2323.61
989.142	2297.62
989.44	2291.97
989.737	2295.59
990.035	2279.77
990.332	2300.56
990.63	2234.12
990.927	2257.17
991.224	2256.72
991.521	2232.99
991.819	2244.52
992.116	2196.83
992.413	2203.39
992.71	2196.83
993.006	2209.94
993.303	2192.99
993.6	2185.08
993.897	2141.02
994.193	2165.88
994.49	2120
994.787	2125.65
995.083	2121.81
995.379	2119.1
995.676	2098.76
995.972	2083.39
996.268	2085.43
996.565	2034.58
996.861	2050.62
997.157	2073.22
997.453	2057.4
997.749	2019.44
998.044	1974.47
998.34	2051.53
998.636	2008.37
998.932	1986.22
999.227	1996.61
999.523	1976.95
999.818	1963.39
1000.114	1971.53
1000.409	1950.51
1000.704	1917.75
1001	1932.21
1001.295	1954.36
1001.59	1924.75
1001.885	1890.18
1002.18	1906.67
1002.475	1874.81
1002.77	1903.51
1003.065	1873
1003.359	1864.19
1003.654	1841.36
1003.949	1826.68
1004.243	1820.12
1004.538	1839.78
1004.832	1802.95
1005.127	1821.25
1005.421	1787.58
1005.715	1771.54
1006.009	1759.78
1006.304	1775.6
1006.598	1766.56
1006.892	1755.26
1007.186	1733.8
1007.48	1699.45
1007.773	1692.89
1008.067	1696.96
1008.361	1656.96
1008.655	1680.69
1008.948	1656.74
1009.242	1658.09
1009.535	1633.69
1009.829	1626.45
1010.122	1624.65
1010.415	1613.8
1010.708	1605.21
1011.001	1584.87
1011.295	1574.93
1011.588	1579.9
1011.881	1580.35
1012.173	1564.08
1012.466	1576.06
1012.759	1572.22
1013.052	1509.17
1013.344	1527.7
1013.637	1512.11
1013.93	1494.93
1014.222	1516.4
1014.514	1489.51
1014.807	1477.98
1015.099	1480.7
1015.391	1459.91
1015.683	1438.44
1015.976	1424.2
1016.268	1441.83
1016.56	1448.61
1016.851	1420.13
1017.143	1402.05
1017.435	1397.08
1017.727	1397.53
1018.018	1380.81
1018.31	1395.73
1018.602	1383.07
1018.893	1367.93
1019.185	1341.94
1019.476	1357.99
1019.767	1334.26
1020.058	1332.9
1020.35	1319.57
1020.641	1318.44
1020.932	1307.14
1021.223	1291.1
1021.514	1272.79
1021.804	1279.34
1022.095	1264.43
1022.386	1252
1022.677	1239.8
1022.967	1257.2
1023.258	1247.03
1023.548	1234.37
1023.839	1231.66
1024.129	1214.04
1024.419	1214.94
1024.709	1209.97
1025	1199.57
1025.29	1178.56
1025.58	1187.37
1025.87	1178.1
1026.16	1147.82
1026.449	1175.17
1026.739	1142.17
1027.029	1143.08
1027.319	1115.06
1027.608	1162.96
1027.898	1115.96
1028.187	1114.38
1028.477	1096.07
1028.766	1110.08
1029.055	1099.01
1029.344	1081.61
1029.634	1089.29
1029.923	1054.04
1030.212	1084.1
1030.501	1059.01
1030.79	1031.44
1031.078	1035.51
1031.367	1019.69
1031.656	1036.64
1031.945	1041.39
1032.233	1033.48
1032.522	1042.29
1032.81	996.64
1033.099	1003.19
1033.387	987.83
1033.675	1001.16
1033.963	956.87
1034.251	969.52
1034.54	986.92
1034.828	970.88
1035.116	953.25
1035.403	967.71
1035.691	949.64
1035.979	920.26
1036.267	920.03
1036.554	919.58
1036.842	925.23
1037.129	939.69
1037.417	905.57
1037.704	921.61
1037.992	883.88
1038.279	891.78
1038.566	913.7
1038.853	913.7
1039.14	913.7
