Data from red_shiny_book_FLMS001491_00049.txt Node
Date: Wed Feb 08 15:24:55 GMT 2017
User: dcchb
Spectrometer: FLMS00149
Trigger mode: 0
Integration Time (sec): 2.000000E-2
Scans to average: 10
Electric dark correction enabled: true
Nonlinearity correction enabled: false
Boxcar width: 0
XAxis mode: Wavelengths
Number of Pixels in Spectrum: 2048
>>>>>Begin Spectral Data<<<<<
341.393	-19.82
341.776	-19.82
342.16	-19.82
342.543	-44.9
342.927	-69.31
343.31	-68.63
343.693	-72.02
344.077	-73.37
344.46	-72.02
344.843	-61.4
345.226	-30.89
345.61	-45.8
345.993	-27.05
346.376	-2.42
346.759	25.15
347.142	34.65
347.525	55.44
347.908	50.92
348.291	82.33
348.674	96.11
349.057	108.99
349.44	135.89
349.823	147.86
350.206	154.42
350.588	195.77
350.971	209.33
351.354	225.15
351.737	244.13
352.119	258.37
352.502	262.89
352.884	272.61
353.267	283.9
353.65	290.01
354.032	304.02
354.414	310.8
354.797	308.09
355.179	328.42
355.562	329.55
355.944	355.54
356.326	349.21
356.709	329.1
357.091	337.01
357.473	334.07
357.855	362.09
358.238	341.3
358.62	366.61
359.002	339.95
359.384	344.24
359.766	335.43
360.148	351.02
360.53	358.93
360.912	328.65
361.294	342.43
361.676	357.12
362.057	316.67
362.439	328.65
362.821	347.18
363.203	344.69
363.584	333.85
363.966	344.02
364.348	333.85
364.729	315.77
365.111	313.96
365.493	340.63
365.874	328.65
366.256	324.81
366.637	314.19
367.019	313.96
367.4	319.84
367.781	308.76
368.163	324.81
368.544	309.67
368.925	337.24
369.306	336.11
369.688	316.22
370.069	322.55
370.45	344.47
370.831	311.93
371.212	316.67
371.593	306.28
371.974	318.71
372.355	331.59
372.736	316.67
373.117	332.04
373.498	327.75
373.879	324.36
374.26	327.75
374.641	323
375.021	338.59
375.402	349.44
375.783	333.4
376.163	349.21
376.544	353.73
376.925	315.09
377.305	313.51
377.686	332.94
378.066	339.95
378.447	342.66
378.827	320.97
379.208	349.44
379.588	347.41
379.968	339.95
380.349	349.67
380.729	341.98
381.109	342.43
381.489	357.12
381.87	349.89
382.25	348.76
382.63	349.44
383.01	362.55
383.39	353.96
383.77	336.56
384.15	357.35
384.53	366.61
384.91	357.12
385.29	365.26
385.67	365.94
386.049	362.77
386.429	374.98
386.809	389.66
387.189	335.43
387.568	345.6
387.948	358.48
388.328	359.16
388.707	357.12
389.087	361.42
389.466	359.38
389.846	375.65
390.225	393.73
390.605	393.05
390.984	376.33
391.363	364.58
391.743	368.42
392.122	391.02
392.501	400.06
392.881	389.89
393.26	386.05
393.639	391.47
394.018	387.41
394.397	392.38
394.776	396.44
395.155	385.6
395.534	406.84
395.913	393.96
396.292	413.39
396.671	408.2
397.05	393.28
397.429	412.26
397.808	394.18
398.186	408.42
398.565	416.78
398.944	411.36
399.323	416.33
399.701	419.04
400.08	433.51
400.458	415.43
400.837	424.47
401.215	402.32
401.594	426.5
401.972	417.01
402.351	417.23
402.729	427.4
403.107	437.35
403.486	438.7
403.864	427.86
404.242	445.26
404.62	449.32
404.999	458.59
405.377	451.13
405.755	434.86
406.133	448.19
406.511	441.64
406.889	448.19
407.267	460.4
407.645	466.05
408.023	484.35
408.401	445.93
408.779	470.79
409.156	468.53
409.534	466.73
409.912	476.89
410.29	481.87
410.667	469.44
411.045	487.06
411.422	482.09
411.8	482.32
412.178	505.14
412.555	532.49
412.933	517.57
413.31	533.62
413.687	527.29
414.065	535.42
414.442	512.83
414.819	517.35
415.197	539.72
415.574	546.72
415.951	568.87
416.328	574.29
416.705	569.32
417.082	547.4
417.46	555.31
417.837	550.34
418.214	554.63
418.591	577.68
418.967	583.78
419.344	599.38
419.721	594.41
420.098	613.39
420.475	609.09
420.852	601.18
421.228	593.28
421.605	587.4
421.982	587.63
422.358	618.36
422.735	618.13
423.111	616.78
423.488	611.58
423.864	624.91
424.241	663.78
424.617	657.23
424.994	632.14
425.37	631.47
425.746	610.45
426.123	631.69
426.499	658.81
426.875	663.1
427.251	669.21
427.627	670.56
428.003	678.7
428.379	691.13
428.756	710.11
429.132	708.07
429.507	721.86
429.883	704.46
430.259	702.2
430.635	706.94
431.011	706.27
431.387	708.3
431.763	748.3
432.138	729.77
432.514	741.52
432.89	755.53
433.265	786.26
433.641	778.81
434.016	772.93
434.392	769.09
434.767	768.41
435.143	759.82
435.518	779.94
435.894	771.8
436.269	800.5
436.644	805.47
437.02	818.13
437.395	835.53
437.77	840.05
438.145	827.62
438.52	832.37
438.895	843.66
439.271	854.51
439.646	844.79
440.021	845.7
440.395	872.59
440.77	881.86
441.145	870.33
441.52	906.04
441.895	908.97
442.27	912.59
442.645	905.58
443.019	924.11
443.394	898.8
443.769	892.48
444.143	884.12
444.518	923.21
444.892	923.44
445.267	887.28
445.641	948.75
446.016	953.27
446.39	949.88
446.764	994.17
447.139	952.59
447.513	962.31
447.887	958.69
448.262	937
448.636	943.55
449.01	948.52
449.384	955.07
449.758	960.72
450.132	954.4
450.506	1008.41
450.88	1033.04
451.254	1025.13
451.628	1006.15
452.002	1020.83
452.376	1027.39
452.75	1035.75
453.123	1011.57
453.497	991.46
453.871	989.42
454.244	1027.16
454.618	1026.94
454.992	1041.85
455.365	1053.15
455.739	1084.34
456.112	1098.8
456.486	1109.65
456.859	1119.59
457.232	1090.21
457.606	1093.6
457.979	1100.38
458.352	1098.57
458.725	1092.25
459.099	1110.78
459.472	1088.86
459.845	1146.48
460.218	1160.94
460.591	1176.31
460.964	1193.71
461.337	1225.35
461.71	1199.59
462.083	1198.68
462.456	1227.16
462.829	1192.81
463.201	1195.29
463.574	1176.54
463.947	1189.42
464.32	1202.52
464.692	1236.87
465.065	1239.59
465.438	1280.26
465.81	1303.99
466.183	1334.72
466.555	1369.53
466.928	1351.67
467.3	1337.66
467.672	1343.76
468.045	1335.85
468.417	1337.21
468.789	1325.69
469.161	1352.35
469.534	1346.48
469.906	1377.66
470.278	1431.67
470.65	1454.27
471.022	1473.25
471.394	1500.14
471.766	1525.68
472.138	1523.65
472.51	1524.78
472.882	1535.85
473.253	1541.05
473.625	1525.68
473.997	1522.74
474.369	1544.89
474.74	1536.75
475.112	1577.43
475.484	1637.54
475.855	1646.81
476.227	1728.61
476.598	1785.56
476.97	1753.92
477.341	1834.6
477.713	1805.67
478.084	1785.56
478.455	1805.67
478.827	1820.59
479.198	1814.71
479.569	1827.82
479.94	1856.07
480.311	1882.51
480.682	1917.31
481.053	1997.76
481.424	2094.93
481.795	2106.91
482.166	2148.94
482.537	2137.87
482.908	2232.78
483.279	2249.28
483.65	2257.41
484.021	2231.88
484.391	2225.1
484.762	2227.36
485.133	2220.8
485.503	2232.33
485.874	2296.06
486.244	2332.44
486.615	2436.84
486.985	2501.47
487.356	2559.55
487.726	2627.57
488.097	2690.17
488.467	2708.02
488.837	2711.64
489.207	2689.27
489.578	2695.82
489.948	2696.95
490.318	2696.5
490.688	2666.89
491.058	2715.03
491.428	2727
491.798	2831.63
492.168	2870.28
492.538	2937.39
492.908	2998.86
493.278	3111.4
493.648	3108.46
494.017	3171.29
494.387	3174.45
494.757	3193.66
495.126	3171.96
495.496	3207.22
495.866	3135.58
496.235	3106.88
496.605	3096.94
496.974	3103.04
497.344	3133.77
497.713	3173.09
498.082	3254.67
498.452	3340.77
498.821	3439.3
499.19	3491.28
499.559	3528.57
499.928	3552.97
500.298	3601.78
500.667	3572.86
501.036	3535.12
501.405	3505.06
501.774	3474.78
502.143	3378.96
502.512	3408.79
502.88	3410.15
503.249	3381.22
503.618	3461.67
503.987	3528.11
504.356	3604.27
504.724	3680.2
505.093	3763.81
505.462	3798.39
505.83	3876.13
506.199	3873.42
506.567	3914.32
506.936	3833.42
507.304	3834.55
507.672	3757.71
508.041	3685.4
508.409	3690.82
508.777	3681.56
509.145	3636.59
509.514	3677.94
509.882	3752.51
510.25	3795.23
510.618	3848.33
510.986	3968.1
511.354	4062.11
511.722	4097.36
512.09	4158.38
512.458	4131.49
512.826	4100.75
513.193	4107.08
513.561	4053.75
513.929	3969.23
514.297	4003.13
514.664	3924.04
515.032	3853.98
515.4	3911.61
515.767	3884.26
516.135	3947.54
516.502	3968.55
516.869	4067.76
517.237	4185.5
517.604	4249.9
517.972	4353.18
518.339	4428.65
518.706	4404.25
519.073	4442.67
519.44	4444.7
519.808	4349.56
520.175	4250.13
520.542	4191.15
520.909	4207.42
521.276	4140.07
521.643	4115.44
522.009	4158.83
522.376	4185.05
522.743	4245.16
523.11	4329.22
523.477	4424.36
523.843	4490.12
524.21	4652.83
524.577	4688.53
524.943	4765.82
525.31	4870.9
525.676	4809.44
526.043	4849.21
526.409	4796.55
526.776	4766.05
527.142	4678.14
527.508	4646.28
527.874	4593.62
528.241	4542.1
528.607	4568.76
528.973	4581.19
529.339	4608.31
529.705	4789.55
530.071	4935.08
530.437	5058.02
530.803	5153.16
531.169	5261.18
531.535	5320.61
531.901	5416.65
532.267	5400.38
532.632	5396.99
532.998	5329.87
533.364	5346.82
533.73	5303.43
534.095	5219.82
534.461	5187.28
534.826	5055.08
535.192	5073.84
535.557	5128.52
535.923	5189.54
536.288	5209.2
536.653	5377.1
537.019	5486.03
537.384	5575.07
537.749	5671.33
538.114	5834.27
538.479	5900.71
538.845	5992.23
539.21	5964.21
539.575	5999.69
539.94	5921.5
540.305	5928.28
540.67	5852.35
541.034	5768.28
541.399	5629.3
541.764	5653.48
542.129	5586.82
542.494	5605.12
542.858	5683.99
543.223	5677.89
543.587	5767.83
543.952	5915.85
544.316	6053.24
544.681	6152.9
545.045	6298.89
545.41	6412.56
545.774	6472.44
546.138	6569.84
546.503	6544.53
546.867	6486.45
547.231	6439.68
547.595	6410.98
547.959	6322.16
548.324	6194.71
548.688	6153.81
549.052	6039.01
549.416	5951.1
549.779	5982.51
550.143	6046.47
550.507	6097.09
550.871	6226.8
551.235	6278.78
551.599	6388.83
551.962	6518.09
552.326	6613.23
552.689	6806.45
553.053	6797.18
553.417	6884.18
553.78	6923.96
554.143	6894.35
554.507	6861.13
554.87	6707.92
555.234	6721.48
555.597	6569.39
555.96	6487.58
556.323	6376.63
556.686	6270.87
557.05	6320.81
557.413	6276.29
557.776	6330.07
558.139	6476.28
558.502	6530.29
558.865	6660.23
559.228	6815.03
559.59	6918.76
559.953	7049.83
560.316	7209.6
560.679	7214.57
561.041	7359.43
561.404	7351.29
561.767	7352.42
562.129	7260.67
562.492	7193.78
562.854	7080.79
563.217	6969.83
563.579	6874.01
563.941	6794.02
564.304	6753.57
564.666	6746.11
565.028	6747.24
565.39	6763.51
565.753	6864.75
566.115	6959.21
566.477	7075.82
566.839	7235.13
567.201	7448.01
567.563	7487.33
567.925	7702.69
568.287	7823.37
568.648	7872.41
569.01	7905.17
569.372	7958.73
569.734	7836.93
570.095	7794.22
570.457	7665.41
570.819	7577.5
571.18	7514.45
571.542	7419.99
571.903	7333.66
572.265	7331.86
572.626	7224.06
572.987	7223.84
573.349	7326.21
573.71	7464.28
574.071	7595.13
574.432	7792.18
574.794	7996.7
575.155	8181.55
575.516	8384.93
575.877	8574.31
576.238	8768.2
576.599	8880.97
576.96	8985.37
577.32	8972.94
577.681	9102.2
578.042	9034.86
578.403	9049.55
578.763	8981.76
579.124	8955.09
579.485	8987.63
579.845	9021.3
580.206	9002.09
580.566	9047.97
580.927	9257.91
581.287	9433.95
581.648	9602.08
582.008	9881.84
582.368	10153.7
582.728	10610.64
583.089	10902.83
583.449	11328.13
583.809	11783.49
584.169	12156.36
584.529	12508.22
584.889	12910.01
585.249	13129.89
585.609	13405.82
585.969	13764.68
586.329	13985.69
586.688	14218.91
587.048	14518.11
587.408	14759.68
587.768	14986.34
588.127	15396.5
588.487	15569.38
588.846	16081.91
589.206	16351.28
589.565	16736.58
589.925	17344.25
590.284	17892.48
590.643	18418.12
591.003	19096.29
591.362	19743.28
591.721	20195.02
592.08	20928.79
592.44	21584.36
592.799	22234.06
593.158	22680.38
593.517	23305.9
593.876	23801.25
594.235	24267
594.593	24721
594.952	25196.02
595.311	25442.57
595.67	25853.18
596.029	26322.09
596.387	26758.69
596.746	27122.3
597.104	27335.85
597.463	27819.9
597.822	28534.69
598.18	28741.24
598.538	29292.86
598.897	29862.79
599.255	30224.13
599.613	31338.91
599.972	31685.11
600.33	32486.45
600.688	33004.85
601.046	33656.59
601.404	34339.73
601.762	34734.98
602.12	35351.91
602.478	35746.25
602.836	36282.28
603.194	36388.49
603.552	36694.02
603.91	37026.89
604.268	37456.94
604.625	37570.83
604.983	38040.88
605.341	38106.87
605.698	38558.83
606.056	38766.96
606.413	38967.41
606.771	39561.97
607.128	39853.71
607.485	40042.18
607.843	40383.42
608.2	41058.88
608.557	41473.56
608.914	41851.4
609.272	42429.24
609.629	42903.12
609.986	43394.41
610.343	43571.58
610.7	44082.08
611.057	44423.31
611.414	44528.84
611.771	44865.78
612.127	45167.02
612.484	45242.95
612.841	45498.08
613.198	45377.63
613.554	45564.3
613.911	45875.47
614.267	45709.83
614.624	45850.62
614.98	45979.88
615.337	46182.13
615.693	46110.5
616.05	46334.67
616.406	46706.87
616.762	46627.77
617.118	46823.02
617.475	47037.25
617.831	47416.45
618.187	47686.05
618.543	47901.64
618.899	48362.64
619.255	48439.7
619.611	48507.95
619.967	48848.5
620.323	49065.67
620.678	49146.57
621.034	49059.8
621.39	49076.07
621.746	49213.01
622.101	49708.82
622.457	49167.59
622.812	49306.57
623.168	49264.99
623.523	49226.57
623.879	49353.58
624.234	49142.06
624.589	49116.07
624.945	49124.65
625.3	49194.03
625.655	49267.7
626.01	49240.36
626.365	49327.59
626.72	49517.41
627.075	49476.28
627.43	49827.01
627.785	49785.2
628.14	49898.19
628.495	50031.52
628.85	50228.35
629.205	50176.6
629.559	50493.88
629.914	50446.88
630.269	50532.98
630.623	50387.67
630.978	50323.04
631.332	50579.98
631.687	50516.48
632.041	50340.22
632.396	50324.62
632.75	50112.65
633.104	50049.15
633.459	49831.53
633.813	49817.29
634.167	49808.03
634.521	49692.78
634.875	49755.37
635.229	49606.22
635.583	49478.54
635.937	49540.91
636.291	49583.85
636.645	49651.65
636.999	49658.2
637.352	49822.72
637.706	49733.9
638.06	50048.47
638.413	49915.82
638.767	49975.93
639.121	50030.17
639.474	50009.38
639.828	50066.78
640.181	50181.58
640.534	50139.77
640.888	50078.98
641.241	49846.67
641.594	49911.98
641.947	49907.91
642.301	49706.11
642.654	49793.79
643.007	49576.62
643.36	49452.56
643.713	49271.09
644.066	49384.99
644.419	49048.5
644.771	48760.82
645.124	48300.27
645.477	48217.79
645.83	48079.26
646.182	48057.34
646.535	47976.21
646.888	48113.61
647.24	47835.42
647.593	48282.42
647.945	48312.7
648.298	48123.55
648.65	48215.53
649.002	48208.29
649.355	48443.77
649.707	48344.11
650.059	48434.28
650.411	49045.11
650.763	49009.18
651.115	49407.36
651.467	49137.76
651.819	49161.49
652.171	48948.16
652.523	48835.17
652.875	48672.46
653.227	48438.8
653.578	48705.91
653.93	48420.49
654.282	48316.99
654.633	48146.38
654.985	48128.3
655.337	48231.57
655.688	48186.37
656.039	48115.42
656.391	47886.5
656.742	47957
657.094	48048.98
657.445	48244.68
657.796	48123.78
658.147	48311.12
658.498	48344.11
658.849	48558.12
659.2	48516.08
659.551	48480.38
659.902	48677.43
660.253	48695.74
660.604	48888.5
660.955	48568.51
661.306	48723.54
661.656	48586.36
662.007	48585.01
662.358	48497.55
662.708	48483.32
663.059	48370.55
663.409	47931.47
663.76	48235.19
664.11	48080.61
664.461	47928.3
664.811	47935.31
665.161	47724.47
665.511	47641.53
665.862	47703.45
666.212	47674.52
666.562	47685.82
666.912	47608.31
667.262	47398.6
667.612	47582.32
667.962	47643.11
668.312	47607.18
668.662	47860.73
669.011	47717.23
669.361	47825.25
669.711	47953.16
670.06	47951.13
670.41	47966.04
670.76	47938.25
671.109	48241.51
671.459	48017.57
671.808	48079.71
672.157	48124.23
672.507	47933.27
672.856	47887.4
673.205	47912.03
673.554	47873.39
673.904	47880.85
674.253	47834.97
674.602	47578.03
674.951	47033.41
675.3	46740.31
675.649	47252.39
675.998	47072.73
676.346	47036.8
676.695	47098.27
677.044	46680.43
677.393	46871.15
677.741	46865.28
678.09	46708.9
678.438	46700.99
678.787	46757.71
679.135	46813.53
679.484	46640.43
679.832	46863.02
680.181	46672.29
680.529	46805.17
680.877	46900.98
681.225	46884.71
681.573	47296.91
681.922	46973.3
682.27	47052.39
682.618	47017.82
682.966	47105.05
683.314	47077.25
683.661	47002.9
684.009	46789.12
684.357	46674.78
684.705	46523.37
685.053	46486.08
685.4	46219.42
685.748	46059.2
686.095	46017.84
686.443	45816.49
686.79	45692.43
687.138	45726.1
687.485	45602.71
687.832	45234.14
688.18	45244.53
688.527	45088.83
688.874	44994.37
689.221	44817.2
689.568	44715.96
689.915	44780.59
690.262	44768.16
690.609	44645.22
690.956	44643.64
691.303	44681.61
691.65	44649.07
691.997	44685
692.344	44480.03
692.69	44435.96
693.037	44637.54
693.383	44365.23
693.73	44582.18
694.077	44281.39
694.423	44494.72
694.769	44202.3
695.116	44250.43
695.462	44228.29
695.808	44030.1
696.155	43859.93
696.501	43529.32
696.847	43530.23
697.193	43323.45
697.539	43186.51
697.885	42872.62
698.231	42724.37
698.577	42688.89
698.923	42432.85
699.269	42194.22
699.614	41917.16
699.96	41810.72
700.306	41923.49
700.651	41497.06
700.997	41359.21
701.342	41467.45
701.688	41380
702.033	41281.25
702.379	41226.11
702.724	41261.81
703.069	41263.17
703.415	40911.76
703.76	41018.88
704.105	41177.74
704.45	41236.27
704.795	40902.27
705.14	40981.14
705.485	40995.38
705.83	40928.71
706.175	41099.33
706.52	40853.01
706.865	40886
707.209	40742.95
707.554	40633.58
707.899	40659.11
708.243	40383.19
708.588	40321.95
708.932	39991.56
709.277	39987.95
709.621	39847.16
709.966	39600.61
710.31	39458.92
710.654	39098.03
710.998	39068.87
711.342	39017.35
711.687	38813.74
712.031	38652.84
712.375	38377.14
712.719	38457.59
713.063	38314.32
713.407	38472.28
713.75	38292.4
714.094	38221.66
714.438	38170.82
714.782	38162.68
715.125	38081.78
715.469	38228.9
715.812	37978.06
716.156	37889.7
716.499	38049.47
716.843	38172.63
717.186	37987.32
717.53	38211.27
717.873	38230.03
718.216	38102.12
718.559	38227.77
718.902	37795.01
719.246	38147.09
719.589	37799.3
719.932	37618.52
720.275	37896.7
720.617	37856.02
720.96	37589.14
721.303	37585.07
721.646	37380.56
721.989	37250.39
722.331	37231.41
722.674	36960.91
723.016	36950.96
723.359	36789.61
723.701	36695.83
724.044	36452.22
724.386	36211.55
724.729	36299.46
725.071	36045.45
725.413	35983.08
725.755	35895.85
726.097	35725.23
726.439	35557.55
726.782	35723.43
727.124	35810.88
727.465	35664.22
727.807	35676.65
728.149	35680.49
728.491	35551.9
728.833	35662.41
729.175	35693.82
729.516	35677.78
729.858	35635.29
730.199	35759.13
730.541	35732.01
730.882	35805.23
731.224	35836.87
731.565	35750.99
731.906	35854.72
732.248	35829.41
732.589	35700.15
732.93	35550.32
733.271	35578.12
733.612	35660.15
733.953	35525.46
734.294	35333.83
734.635	35159.37
734.976	35138.81
735.317	34990.34
735.658	34892.26
735.999	34714.64
736.339	34531.14
736.68	34600.74
737.021	34443.46
737.361	34124.15
737.702	34243.24
738.042	33994.43
738.383	33948.33
738.723	34012.96
739.063	33768
739.404	33914.66
739.744	33782.23
740.084	33660.65
740.424	33760.54
740.764	33601.22
741.104	33774.1
741.444	33725.96
741.784	33638.51
742.124	33715.57
742.464	33843.7
742.804	33718.28
743.143	33669.47
743.483	33831.5
743.823	33655.91
744.162	33792.4
744.502	33706.98
744.841	33858.16
745.181	33840.31
745.52	33671.95
745.86	33744.04
746.199	33702.69
746.538	33656.36
746.877	33672.86
747.216	33575.68
747.556	33479.87
747.895	33473.77
748.234	33316.26
748.573	33121.23
748.911	33140.89
749.25	32912.65
749.589	32799.21
749.928	32758.53
750.267	32645.09
750.605	32545.43
750.944	32270.18
751.283	32226.79
751.621	32275.15
751.96	32026.8
752.298	31835.62
752.636	31887.37
752.975	31672.91
753.313	31508.85
753.651	31631.33
753.989	31452.8
754.327	31362.41
754.666	31366.25
755.004	31372.35
755.342	31355.63
755.679	31435.85
756.017	31271.11
756.355	31260.27
756.693	31233.37
757.031	31381.84
757.368	31212.58
757.706	31347.72
758.044	31229.08
758.381	31356.53
758.719	31226.37
759.056	31223.88
759.394	31190.66
759.731	31062.76
760.068	30992.48
760.405	30898.02
760.743	30668.87
761.08	30877.9
761.417	30603.79
761.754	30444.69
762.091	30418.71
762.428	30392.27
762.765	30093.52
763.102	30086.74
763.438	29952.05
763.775	29640.2
764.112	29562.46
764.449	29583.25
764.785	29326.76
765.122	29121.34
765.458	28969.93
765.795	28956.15
766.131	28777.17
766.467	28632.09
766.804	28583.05
767.14	28394.13
767.476	28443.84
767.812	28259.67
768.148	28348.25
768.485	28122.72
768.821	28125.21
769.157	28047.92
769.492	27905.1
769.828	27872.11
770.164	27710.3
770.5	27726.35
770.836	27767.7
771.171	27515.05
771.507	27728.83
771.842	27519.57
772.178	27480.48
772.513	27548.05
772.849	27450.87
773.184	27379.46
773.519	27445.68
773.855	27276.64
774.19	27236.42
774.525	27144.22
774.86	27180.37
775.195	27091.79
775.53	26962.98
775.865	26694.96
776.2	26529.99
776.535	26477.57
776.87	26252.49
777.205	26164.13
777.539	25982.89
777.874	26060.85
778.209	25834.19
778.543	25550.81
778.878	25429.01
779.212	25424.71
779.547	25211.61
779.881	25184.27
780.215	25011.16
780.55	24946.31
780.884	24693.66
781.218	24730.72
781.552	24636.71
781.886	24531.18
782.22	24332.31
782.554	24236.04
782.888	24097.74
783.222	24047.57
783.556	23973.45
783.889	24008.25
784.223	23827.47
784.557	23706.57
784.89	23831.31
785.224	23633.12
785.557	23672.89
785.891	23718.09
786.224	23605.1
786.558	23634.93
786.891	23528.04
787.224	23415.05
787.557	23402.62
787.891	23337.99
788.224	23405.56
788.557	23302.51
788.89	23260.25
789.223	23235.17
789.556	23100.93
789.888	23080.59
790.221	22969.18
790.554	22820.04
790.887	22855.74
791.219	22595.41
791.552	22711.11
791.884	22431.12
792.217	22422.53
792.549	22337.34
792.882	22064.58
793.214	22035.65
793.546	21919.72
793.879	21775.09
794.211	21654.64
794.543	21588.66
794.875	21551.37
795.207	21586.4
795.539	21280.64
795.871	21297.14
796.203	21131.49
796.535	21049.23
796.867	20795.23
797.198	20842.46
797.53	20764.27
797.862	20624.16
798.193	20651.73
798.525	20619.87
798.856	20572.41
799.188	20444.73
799.519	20293.77
799.85	20271.85
800.182	20285.86
800.513	20310.72
800.844	20102.82
801.175	20319.08
801.506	20304.4
801.837	20155.92
802.168	20198.64
802.499	20053.55
802.83	20038.41
803.161	20017.62
803.491	20049.26
803.822	20082.03
804.153	19979.66
804.483	19882.49
804.814	19730.63
805.145	19796.61
805.475	19770.62
805.805	19733.79
806.136	19851.3
806.466	19743.05
806.796	19649.27
807.126	19533.34
807.457	19482.5
807.787	19527.24
808.117	19384.65
808.447	19205.89
808.777	19237.76
809.107	19097.87
809.436	19035.5
809.766	18948.05
810.096	18802.06
810.426	18838.9
810.755	18710.54
811.085	18590.32
811.414	18475.29
811.744	18413.82
812.073	18320.49
812.403	18207.28
812.732	18117.56
813.061	18114.62
813.39	17954.63
813.719	17945.59
814.049	18057.67
814.378	17948.07
814.707	17916.89
815.036	17848.87
815.365	17809.55
815.693	17649.55
816.022	17711.7
816.351	17755.99
816.68	17537.91
817.008	17664.46
817.337	17577.01
817.665	17635.09
817.994	17694.97
818.322	17559.83
818.651	17525.94
818.979	17553.06
819.307	17603
819.636	17508.08
819.964	17491.59
820.292	17542.21
820.62	17541.53
820.948	17512.83
821.276	17629.66
821.604	17590.12
821.932	17477.58
822.259	17427.18
822.587	17586.5
822.915	17487.07
823.243	17539.04
823.57	17466.73
823.898	17486.84
824.225	17462.21
824.553	17469.22
824.88	17290.24
825.207	17276
825.535	17232.84
825.862	17268.77
826.189	17331.37
826.516	17265.15
826.843	17297.24
827.17	17185.38
827.497	17208.21
827.824	17209.34
828.151	17108.55
828.478	17123.69
828.805	17127.76
829.131	16979.29
829.458	16925.5
829.785	16909.68
830.111	16889.34
830.438	17024.71
830.764	16919.17
831.09	16922.11
831.417	16888.89
831.743	16869.68
832.069	16981.55
832.395	16851.38
832.722	16949
833.048	16873.3
833.374	16922.56
833.7	16859.29
834.026	16896.58
834.351	16929.12
834.677	16976.57
835.003	16998.49
835.329	16977.93
835.654	16898.38
835.98	16982.67
836.306	17040.75
836.631	16883.24
836.956	16975.9
837.282	17029.45
837.607	16899.51
837.932	16835.11
838.258	16944.71
838.583	16911.26
838.908	16805.05
839.233	16855.22
839.558	16888.89
839.883	16808.67
840.208	16685.28
840.533	16698.39
840.858	16632.85
841.182	16650.03
841.507	16648.22
841.832	16555.12
842.156	16471.05
842.481	16491.61
842.805	16403.48
843.13	16302.69
843.454	16219.08
843.778	16186.76
844.103	16106.54
844.427	16157.61
844.751	16101.12
845.075	15977.05
845.399	15947.67
845.723	15795.14
846.047	15869.03
846.371	15607.12
846.695	15618.19
847.019	15531.64
847.343	15505.88
847.666	15415.26
847.99	15265.43
848.313	15277.64
848.637	15137.98
848.96	15189.05
849.284	15018.21
849.607	14989.06
849.931	14960.58
850.254	14879.23
850.577	14833.8
850.9	14660.48
851.223	14692.79
851.546	14681.94
851.869	14590.87
852.192	14660.02
852.515	14512.23
852.838	14535.06
853.161	14560.82
853.483	14537.54
853.806	14474.27
854.129	14414.61
854.451	14349.3
854.774	14413.48
855.096	14288.28
855.419	14314.95
855.741	14282.18
856.063	14230.88
856.385	14156.76
856.708	14253.71
857.03	14163.77
857.352	14154.73
857.674	14091.9
857.996	13992.25
858.318	14005.58
858.64	13938.01
858.961	13944.79
859.283	13850.1
859.605	13794.06
859.926	13730.33
860.248	13705.02
860.57	13611.24
860.891	13709.99
861.212	13559.49
861.534	13540.96
861.855	13520.17
862.176	13419.38
862.498	13349.1
862.819	13320.85
863.14	13210.34
863.461	13211.25
863.782	13156.56
864.103	13103.91
864.424	13164.02
864.745	13106.39
865.065	13044.7
865.386	12947.3
865.707	12889.68
866.027	12851.03
866.348	12897.58
866.668	12845.38
866.989	12776.23
867.309	12746.18
867.63	12815.55
867.95	12804.48
868.27	12728.1
868.59	12665.5
868.91	12722.67
869.23	12761.99
869.55	12631.15
869.87	12710.47
870.19	12641.55
870.51	12686.97
870.83	12738.27
871.15	12656.91
871.469	12768.1
871.789	12726.74
872.109	12704.14
872.428	12671.38
872.748	12722
873.067	12764.48
873.386	12743.92
873.706	12722.67
874.025	12611.72
874.344	12625.95
874.663	12660.3
874.982	12607.65
875.301	12632.28
875.62	12631.83
875.939	12591.6
876.258	12703.69
876.577	12533.3
876.896	12563.13
877.214	12461.66
877.533	12374.43
877.852	12450.82
878.17	12439.29
878.489	12427.77
878.807	12329.69
879.125	12319.75
879.444	12310.03
879.762	12318.39
880.08	12171.95
880.398	12189.13
880.716	12119.98
881.034	12063.26
881.352	12078.62
881.67	11959.3
881.988	11989.59
882.306	11876.14
882.624	11828.69
882.941	11760.21
883.259	11752.3
883.577	11770.38
883.894	11584.17
884.212	11657.17
884.529	11623.72
884.846	11574
885.164	11492.2
885.481	11518.64
885.798	11526.32
886.115	11426.66
886.432	11481.35
886.75	11491.07
887.067	11407
887.383	11349.83
887.7	11428.24
888.017	11339.89
888.334	11336.27
888.651	11359.77
888.967	11318.42
889.284	11250.62
889.6	11323.84
889.917	11135.15
890.233	11200.45
890.55	11159.78
890.866	11308.7
891.182	11193.45
891.498	11130.17
891.815	11149.61
892.131	11051.31
892.447	11035.71
892.763	11129.27
893.079	11019.67
893.395	11022.61
893.71	10954.13
894.026	10959.33
894.342	10964.08
894.657	10878.65
894.973	10914.59
895.289	10937.41
895.604	10818.77
895.92	10802.95
896.235	10719.34
896.55	10751.43
896.865	10691.77
897.181	10660.36
897.496	10645.44
897.811	10633.69
898.126	10578.78
898.441	10447.71
898.756	10493.13
899.071	10338.78
899.386	10353.92
899.7	10227.37
900.015	10248.16
900.33	10129.75
900.644	10071.22
900.959	10087.94
901.273	10027.38
901.588	9939.47
901.902	9953.93
902.216	9925.91
902.531	9769.76
902.845	9726.59
903.159	9668.97
903.473	9639.82
903.787	9654.28
904.101	9545.13
904.415	9488.18
904.729	9532.93
905.042	9424.91
905.356	9418.13
905.67	9386.26
905.984	9428.3
906.297	9373.84
906.611	9349.66
906.924	9262.65
907.237	9188.76
907.551	9166.38
907.864	9197.57
908.177	9171.35
908.491	9132.49
908.804	9102.2
909.117	9095.88
909.43	9012.71
909.743	9049.55
910.056	8979.27
910.368	8964.81
910.681	8965.03
910.994	8914.41
911.307	8916.45
911.619	8854.08
911.932	8842.55
912.244	8847.97
912.557	8734.3
912.869	8720.29
913.181	8717.36
913.494	8697.47
913.806	8699.05
914.118	8678.71
914.43	8579.28
914.742	8610.24
915.054	8577.02
915.366	8496.8
915.678	8464.25
915.99	8413.18
916.302	8429
916.613	8386.74
916.925	8378.83
917.236	8350.81
917.548	8262.23
917.859	8312.62
918.171	8216.58
918.482	8173.87
918.794	8136.13
919.105	8154.43
919.416	8001.89
919.727	8024.72
920.038	7970.26
920.349	7874.67
920.66	7891.16
920.971	7891.84
921.282	7759.41
921.593	7736.36
921.903	7648.46
922.214	7591.74
922.525	7625.86
922.835	7594.9
923.146	7518.74
923.456	7412.31
923.767	7422.93
924.077	7451.85
924.387	7413.66
924.697	7297.51
925.008	7248.02
925.318	7227.9
925.628	7271.29
925.938	7172.76
926.248	7124.86
926.558	7091.86
926.867	7080.11
927.177	7051.18
927.487	6973.45
927.796	6949.49
928.106	6974.12
928.416	6930.06
928.725	6891.64
929.034	6863.39
929.344	6888.48
929.653	6875.82
929.962	6826.56
930.271	6802.6
930.581	6828.82
930.89	6705.21
931.199	6700.69
931.508	6673.34
931.817	6659.56
932.125	6715.6
932.434	6687.58
932.743	6621.37
933.051	6614.36
933.36	6609.39
933.669	6561.93
933.977	6549.28
934.286	6526.23
934.594	6529.39
934.902	6439.22
935.21	6460.24
935.519	6418.66
935.827	6455.72
936.135	6372.11
936.443	6350.86
936.751	6348.83
937.059	6343.63
937.367	6269.51
937.674	6315.84
937.982	6250.3
938.29	6160.13
938.597	6195.39
938.905	6127.59
939.213	6108.38
939.52	6074.94
939.827	6049.4
940.135	6034.94
940.442	6015.28
940.749	6029.06
941.056	5974.83
941.363	5908.84
941.67	5843.98
941.977	5854.61
942.284	5775.96
942.591	5825.91
942.898	5737.09
943.205	5710.88
943.511	5701.16
943.818	5630.43
944.125	5668.85
944.431	5605.57
944.738	5577.33
945.044	5516.54
945.35	5462.98
945.657	5476.99
945.963	5439.48
946.269	5445.8
946.575	5422.98
946.881	5357.67
947.187	5362.42
947.493	5293.26
947.799	5295.98
948.105	5303.89
948.41	5248.75
948.716	5222.31
949.022	5200.16
949.327	5194.74
949.633	5125.13
949.938	5159.03
950.244	5128.75
950.549	5094.4
950.854	5036.1
951.16	5039.49
951.465	5045.81
951.77	5010.33
952.075	5017.79
952.38	4963.33
952.685	4984.35
952.99	4958.81
953.294	4965.82
953.599	4911.35
953.904	4922.43
954.209	4857.12
954.513	4835.65
954.818	4898.02
955.122	4818.02
955.426	4848.98
955.731	4815.76
956.035	4811.7
956.339	4738.25
956.643	4809.21
956.948	4777.12
957.252	4708.42
957.556	4692.6
957.86	4699.61
958.163	4700.96
958.467	4700.29
958.771	4675.43
959.075	4652.6
959.378	4599.72
959.682	4559.95
959.985	4576.22
960.289	4556.79
960.592	4503.91
960.896	4427.52
961.199	4446.06
961.502	4489.67
961.805	4402.67
962.108	4403.57
962.411	4452.16
962.714	4350.01
963.017	4340.07
963.32	4333.97
963.623	4314.99
963.926	4304.82
964.228	4263.69
964.531	4275.21
964.833	4245.38
965.136	4205.84
965.438	4161.77
965.741	4143.01
966.043	4087.19
966.345	4124.26
966.648	4086.52
966.95	4028.67
967.252	4044.94
967.554	3993.41
967.856	4027.31
968.158	3975.56
968.46	3916.58
968.761	3926.52
969.063	3915.22
969.365	3850.82
969.666	3815.11
969.968	3843.13
970.269	3819.63
970.571	3801.78
970.872	3814.21
971.174	3757.49
971.475	3754.55
971.776	3756.58
972.077	3724.04
972.378	3671.39
972.679	3673.65
972.98	3690.14
973.281	3649.92
973.582	3667.32
973.883	3648.34
974.183	3604.27
974.484	3597.04
974.785	3558.4
975.085	3591.61
975.386	3577.15
975.686	3571.5
975.986	3536.25
976.287	3535.34
976.587	3529.92
976.887	3506.65
977.187	3533.09
977.487	3464.16
977.787	3484.27
978.087	3463.93
978.387	3457.61
978.687	3449.7
978.987	3445.18
979.286	3428.23
979.586	3436.14
979.885	3382.58
980.185	3365.18
980.484	3364.5
980.784	3379.19
981.083	3326.54
981.382	3333.09
981.682	3279.76
981.981	3300.1
982.28	3305.97
982.579	3266.88
982.878	3259.65
983.177	3194.79
983.475	3233.43
983.774	3202.02
984.073	3180.1
984.372	3186.43
984.67	3169.48
984.969	3193.21
985.267	3156.6
985.566	3152.08
985.864	3103.04
986.162	3127.9
986.461	3097.39
986.759	3065.3
987.057	3002.03
987.355	2997.51
987.653	3016.94
987.951	2987.56
988.249	2968.81
988.547	2973.55
988.844	2955.7
989.142	2948.69
989.44	2910.73
989.737	2894.68
990.035	2863.05
990.332	2841.58
990.63	2806.78
990.927	2842.26
991.224	2838.64
991.521	2806.55
991.819	2783.95
992.116	2774.69
992.413	2757.96
992.71	2777.4
993.006	2738.76
993.303	2721.35
993.6	2693.33
993.897	2708.47
994.193	2680.45
994.49	2674.58
994.787	2638.19
995.083	2635.71
995.379	2620.11
995.676	2584.41
995.972	2593.67
996.268	2584.64
996.565	2540.12
996.861	2545.31
997.157	2551.42
997.453	2522.72
997.749	2527.01
998.044	2515.26
998.34	2469.38
998.636	2453.34
998.932	2481.36
999.227	2487.24
999.523	2487.24
999.818	2463.51
1000.114	2410.18
1000.409	2431.42
1000.704	2380.12
1001	2391.42
1001.295	2362.04
1001.59	2357.75
1001.885	2360.69
1002.18	2364.53
1002.475	2345.55
1002.77	2303.74
1003.065	2307.13
1003.359	2303.06
1003.654	2310.97
1003.949	2284.3
1004.243	2265.77
1004.538	2254.7
1004.832	2220.35
1005.127	2254.7
1005.421	2247.92
1005.715	2245.89
1006.009	2212.22
1006.304	2229.62
1006.598	2200.24
1006.892	2150.97
1007.186	2163.18
1007.48	2123.86
1007.773	2128.83
1008.067	2150.97
1008.361	2106.46
1008.655	2120.24
1008.948	2088.38
1009.242	2094.7
1009.535	2074.82
1009.829	2072.11
1010.122	2066.23
1010.415	2016.29
1010.708	1998.21
1011.001	1977.87
1011.295	1962.96
1011.588	1987.36
1011.881	1937.87
1012.173	1907.82
1012.466	1940.13
1012.759	1935.84
1013.052	1900.36
1013.344	1886.12
1013.637	1905.33
1013.93	1854.26
1014.222	1862.85
1014.514	1860.13
1014.807	1846.35
1015.099	1839.8
1015.391	1832.79
1015.683	1792.79
1015.976	1785.33
1016.268	1776.97
1016.56	1762.06
1016.851	1767.71
1017.143	1749.18
1017.435	1727.93
1017.727	1701.04
1018.018	1682.51
1018.31	1687.71
1018.602	1676.18
1018.893	1667.82
1019.185	1666.92
1019.476	1640.71
1019.767	1600.93
1020.058	1642.97
1020.35	1611.1
1020.641	1575.17
1020.932	1599.8
1021.223	1571.1
1021.514	1556.41
1021.804	1561.16
1022.095	1523.19
1022.386	1535.4
1022.677	1519.58
1022.967	1518
1023.258	1472.35
1023.548	1503.76
1023.839	1511.44
1024.129	1496.98
1024.419	1473.93
1024.709	1473.25
1025	1464.66
1025.29	1436.42
1025.58	1447.04
1025.87	1414.72
1026.16	1397.77
1026.449	1426.7
1026.739	1386.25
1027.029	1402.29
1027.319	1384.44
1027.608	1366.81
1027.898	1395.74
1028.187	1358.68
1028.477	1341.28
1028.766	1316.19
1029.055	1340.83
1029.344	1324.33
1029.634	1311.22
1029.923	1317.32
1030.212	1293.14
1030.501	1308.96
1030.79	1264.9
1031.078	1279.58
1031.367	1272.35
1031.656	1245.91
1031.945	1251.34
1032.233	1256.08
1032.522	1236.2
1032.81	1225.12
1033.099	1212.02
1033.387	1221.96
1033.675	1202.75
1033.963	1184.45
1034.251	1210.89
1034.54	1189.87
1034.828	1181.51
1035.116	1167.27
1035.403	1146.71
1035.691	1148.97
1035.979	1151
1036.267	1157.78
1036.554	1132.92
1036.842	1162.3
1037.129	1090.44
1037.417	1119.82
1037.704	1104.9
1037.992	1092.7
1038.279	1089.76
1038.566	1104.9
1038.853	1104.9
1039.14	1104.9
