Data from red_cardboard_box_FLMS001491_00058.txt Node
Date: Wed Feb 08 11:32:47 GMT 2017
User: dcchb
Spectrometer: FLMS00149
Trigger mode: 0
Integration Time (sec): 2.000000E-2
Scans to average: 10
Electric dark correction enabled: true
Nonlinearity correction enabled: false
Boxcar width: 0
XAxis mode: Wavelengths
Number of Pixels in Spectrum: 2048
>>>>>Begin Spectral Data<<<<<
341.393	1.37
341.776	1.37
342.16	1.37
342.543	-47.89
342.927	-67.55
343.31	-58.97
343.693	-70.04
344.077	-65.75
344.46	-58.29
344.843	-63.94
345.226	-33.21
345.61	-43.15
345.993	4.08
346.376	-9.48
346.759	29.17
347.142	2.95
347.525	46.11
347.908	48.15
348.291	53.8
348.674	99.67
349.057	118.88
349.44	130.86
349.823	149.61
350.206	166.11
350.588	201.14
350.971	209.27
351.354	220.8
351.737	245.66
352.119	244.98
352.502	251.76
352.884	290.85
353.267	291.76
353.65	319.1
354.032	315.71
354.414	317.07
354.797	319.78
355.179	343.96
355.562	328.82
355.944	340.8
356.326	343.06
356.709	357.74
357.091	356.84
357.473	343.28
357.855	308.93
358.238	367.24
358.62	363.17
359.002	330.63
359.384	345.32
359.766	340.34
360.148	360
360.53	353.45
360.912	349.16
361.294	350.74
361.676	346.45
362.057	362.49
362.439	343.96
362.821	344.41
363.203	330.63
363.584	335.6
363.966	330.4
364.348	345.09
364.729	336.28
365.111	322.27
365.493	333.79
365.874	329.72
366.256	323.17
366.637	321.36
367.019	331.3
367.4	323.17
367.781	313.9
368.163	317.52
368.544	329.95
368.925	319.55
369.306	330.17
369.688	331.08
370.069	314.36
370.45	317.97
370.831	305.54
371.212	324.3
371.593	319.33
371.974	322.49
372.355	334.02
372.736	338.99
373.117	323.85
373.498	330.4
373.879	322.72
374.26	330.63
374.641	314.13
375.021	317.07
375.402	332.89
375.783	343.96
376.163	327.01
376.544	317.07
376.925	340.34
377.305	318.42
377.686	346.67
378.066	315.71
378.447	304.86
378.827	321.36
379.208	334.24
379.588	346.22
379.968	330.85
380.349	327.46
380.729	323.4
381.109	336.05
381.489	334.47
381.87	318.65
382.25	339.44
382.63	332.21
383.01	341.7
383.39	336.05
383.77	350.74
384.15	335.37
384.53	334.92
384.91	356.16
385.29	355.71
385.67	346.22
386.049	357.29
386.429	349.61
386.809	358.87
387.189	362.49
387.568	344.41
387.948	327.46
388.328	354.81
388.707	361.13
389.087	345.54
389.466	360
389.846	369.95
390.225	351.42
390.605	369.04
390.984	343.06
391.363	377.86
391.743	379.44
392.122	375.6
392.501	357.52
392.881	358.65
393.26	367.46
393.639	361.59
394.018	381.02
394.397	380.8
394.776	376.28
395.155	367.46
395.534	373.56
395.913	376.28
396.292	384.86
396.671	385.09
397.05	383.28
397.429	375.15
397.808	405.2
398.186	384.41
398.565	402.72
398.944	396.39
399.323	391.19
399.701	379.44
400.08	384.18
400.458	365.65
400.837	384.64
401.215	396.39
401.594	398.65
401.972	391.42
402.351	405.65
402.729	400.23
403.107	407.01
403.486	395.94
403.864	399.55
404.242	397.74
404.62	397.52
404.999	413.79
405.377	406.11
405.755	398.42
406.133	400.23
406.511	412.88
406.889	400
407.267	426.44
407.645	418.53
408.023	414.69
408.401	427.57
408.779	453.11
409.156	408.82
409.534	424.86
409.912	428.03
410.29	447.01
410.667	437.74
411.045	427.35
411.422	437.29
411.8	438.65
412.178	438.19
412.555	456.27
412.933	442.71
413.31	428.7
413.687	448.59
414.065	451.08
414.442	467.8
414.819	451.98
415.197	439.55
415.574	465.09
415.951	475.71
416.328	461.7
416.705	473.45
417.082	461.7
417.46	470.96
417.837	466.44
418.214	473.9
418.591	482.94
418.967	481.13
419.344	474.8
419.721	467.12
420.098	507.12
420.475	475.48
420.852	504.41
421.228	481.81
421.605	491.75
421.982	489.04
422.358	487.46
422.735	497.85
423.111	508.25
423.488	504.63
423.864	498.08
424.241	518.19
424.617	511.64
424.994	526.78
425.37	493.56
425.746	512.32
426.123	521.81
426.499	514.8
426.875	524.52
427.251	520.45
427.627	515.71
428.003	527.46
428.379	534.92
428.756	533.56
429.132	534.92
429.507	550.51
429.883	545.08
430.259	550.51
430.635	560.68
431.011	551.19
431.387	573.33
431.763	572.2
432.138	569.26
432.514	557.29
432.89	575.14
433.265	581.92
433.641	588.25
434.016	584.18
434.392	607
434.767	603.39
435.143	637.74
435.518	613.78
435.894	608.81
436.269	599.55
436.644	607.46
437.02	630.73
437.395	599.09
437.77	596.38
438.145	623.5
438.52	631.18
438.895	623.5
439.271	623.05
439.646	645.65
440.021	637.06
440.395	636.83
440.77	647
441.145	672.76
441.52	651.75
441.895	637.96
442.27	651.75
442.645	659.21
443.019	665.08
443.394	655.14
443.769	646.78
444.143	669.38
444.518	659.21
444.892	691.07
445.267	674.12
445.641	685.19
446.016	686.32
446.39	664.86
446.764	712.76
447.139	683.84
447.513	705.98
447.887	693.33
448.262	697.85
448.636	717.96
449.01	711.41
449.384	717.74
449.758	700.56
450.132	719.09
450.506	717.06
450.88	714.35
451.254	738.07
451.628	744.63
452.002	729.71
452.376	727
452.75	734.91
453.123	727.23
453.497	704.85
453.871	715.25
454.244	758.64
454.618	778.52
454.992	776.94
455.365	762.71
455.739	781.91
456.112	791.86
456.486	790.05
456.859	774.01
457.232	790.95
457.606	797.73
457.979	820.56
458.352	793.67
458.725	856.26
459.099	825.98
459.472	823.95
459.845	849.26
460.218	842.03
460.591	853.55
460.964	851.29
461.337	868.47
461.71	856.49
462.083	869.37
462.456	888.35
462.829	868.24
463.201	892.87
463.574	900.33
463.947	908.24
464.32	931.97
464.692	894.23
465.065	934.45
465.438	946.43
465.81	943.27
466.183	975.81
466.555	954.11
466.928	960.21
467.3	945.98
467.672	963.6
468.045	987.78
468.417	968.8
468.789	1010.84
469.161	995.92
469.534	1006.77
469.906	1035.69
470.278	1054.45
470.65	1036.82
471.022	1068.01
471.394	1045.86
471.766	1106.65
472.138	1060.55
472.51	1098.97
472.882	1115.69
473.253	1104.62
473.625	1141.23
473.997	1171.73
474.369	1150.49
474.74	1169.7
475.112	1172.19
475.484	1194.11
475.855	1200.89
476.227	1237.95
476.598	1225.07
476.97	1239.53
477.341	1243.82
477.713	1278.17
478.084	1294.9
478.455	1303.71
478.827	1352.97
479.198	1356.59
479.569	1339.19
479.94	1357.94
480.311	1380.09
480.682	1401.33
481.053	1430.03
481.424	1436.59
481.795	1452.41
482.166	1460.31
482.537	1503.93
482.908	1527.21
483.279	1529.47
483.65	1530.14
484.021	1578.73
484.391	1593.42
484.762	1587.09
485.133	1634.55
485.503	1646.52
485.874	1652.63
486.244	1675.22
486.615	1717.26
486.985	1692.85
487.356	1747.54
487.726	1780.08
488.097	1756.8
488.467	1778.05
488.837	1805.39
489.207	1844.71
489.578	1858.95
489.948	1900.98
490.318	1896.46
490.688	1926.29
491.058	1929.68
491.428	1943.92
491.798	1957.02
492.168	2013.52
492.538	2022.79
492.908	2060.52
493.278	2048.1
493.648	2044.48
494.017	2101.2
494.387	2093.97
494.757	2097.36
495.126	2163.12
495.496	2132.39
495.866	2139.17
496.235	2172.84
496.605	2214.87
496.974	2202.89
497.344	2259.16
497.713	2258.94
498.082	2222.55
498.452	2280.41
498.821	2320.86
499.19	2296.22
499.559	2317.69
499.928	2350.69
500.298	2354.08
500.667	2362.66
501.036	2381.42
501.405	2393.85
501.774	2415.77
502.143	2435.2
502.512	2456.67
502.88	2461.42
503.249	2495.77
503.618	2478.14
503.987	2522.66
504.356	2515.88
504.724	2521.76
505.093	2555.43
505.462	2543.22
505.83	2589.55
506.199	2576.44
506.567	2632.71
506.936	2652.15
507.304	2653.5
507.672	2710.23
508.041	2677.01
508.409	2686.5
508.777	2744.57
509.145	2752.48
509.514	2750.68
509.882	2763.56
510.25	2767.85
510.618	2796.32
510.986	2818.92
511.354	2809.43
511.722	2838.58
512.09	2888.75
512.458	2882.88
512.826	2906.38
513.193	2923.55
513.561	2958.35
513.929	3001.52
514.297	2982.31
514.664	3002.42
515.032	3041.97
515.4	3085.81
515.767	3074.51
516.135	3111.8
516.502	3083.32
516.869	3107.73
517.237	3201.29
517.604	3184.11
517.972	3227.95
518.339	3185.47
518.706	3259.59
519.073	3291.9
519.44	3294.84
519.808	3327.16
520.175	3310.89
520.542	3361.96
520.909	3364.45
521.276	3375.74
521.643	3424.1
522.009	3427.04
522.376	3498.68
522.743	3502.52
523.11	3542.29
523.477	3554.72
523.843	3650.31
524.21	3637.66
524.577	3649.41
524.943	3681.05
525.31	3708.84
525.676	3713.81
526.043	3797.43
526.409	3788.84
526.776	3807.82
527.142	3786.36
527.508	3834.94
527.874	3870.87
528.241	3894.15
528.607	3907.48
528.973	3963.53
529.339	3945.9
529.705	4028.61
530.071	4027.25
530.437	4055.05
530.803	4088.27
531.169	4107.02
531.535	4118.78
531.901	4168.04
532.267	4182.5
532.632	4136.63
532.998	4162.16
533.364	4240.13
533.73	4229.73
534.095	4279.45
534.461	4301.37
534.826	4353.35
535.192	4347.24
535.557	4388.15
535.923	4387.02
536.288	4401.93
536.653	4511.76
537.019	4448.71
537.384	4519.9
537.749	4507.01
538.114	4483.06
538.479	4527.58
538.845	4545.43
539.21	4559.67
539.575	4589.72
539.94	4579.55
540.305	4657.52
540.67	4662.72
541.034	4682.83
541.399	4713.79
541.764	4709.04
542.129	4725.54
542.494	4769.83
542.858	4796.05
543.223	4783.17
543.587	4864.97
543.952	4831.3
544.316	4822.49
544.681	4890.96
545.045	4939.32
545.41	4958.08
545.774	4972.76
546.138	4973.44
546.503	5018.19
546.867	4980.22
547.231	5094.34
547.595	5075.36
547.959	5155.36
548.324	5157.17
548.688	5125.98
549.052	5196.04
549.416	5213.21
549.779	5201.91
550.143	5266.99
550.507	5302.93
550.871	5284.62
551.235	5339.76
551.599	5370.95
551.962	5397.39
552.326	5437.16
552.689	5472.19
553.053	5522.13
553.417	5481.9
553.78	5623.82
554.143	5589.25
554.507	5629.24
554.87	5639.41
555.234	5725.74
555.597	5730.71
555.96	5658.85
556.323	5787.88
556.686	5784.72
557.05	5865.17
557.413	5920.76
557.776	5910.37
558.139	5955.11
558.502	6034.88
558.865	6059.52
559.228	6105.62
559.59	6177.25
559.953	6175.9
560.316	6281.66
560.679	6283.69
561.041	6317.14
561.404	6420.64
561.767	6449.79
562.129	6437.58
562.492	6567.53
562.854	6605.26
563.217	6605.04
563.579	6668.09
563.941	6713.96
564.304	6818.59
564.666	6900.85
565.028	6906.27
565.39	6998.7
565.753	6992.82
566.115	7110.79
566.477	7160.28
566.839	7215.19
567.201	7294.74
567.563	7358.01
567.925	7492.92
568.287	7502.87
568.648	7521.4
569.01	7596.42
569.372	7771.79
569.734	7808.4
570.095	7854.95
570.457	7922.52
570.819	8023.76
571.18	8045.68
571.542	8196.18
571.903	8232.34
572.265	8290.19
572.626	8357.76
572.987	8438.89
573.349	8492.22
573.71	8581.26
574.071	8726.79
574.432	8755.26
574.794	8859.89
575.155	8990.96
575.516	9034.58
575.877	9045.88
576.238	9184.63
576.599	9372.2
576.96	9432.99
577.32	9517.05
577.681	9649.48
578.042	9777.38
578.403	9875.23
578.763	9986.42
579.124	10084.27
579.485	10246.3
579.845	10402.23
580.206	10416.01
580.566	10617.81
580.927	10721.99
581.287	10827.3
581.648	10972.61
582.008	11151.36
582.368	11223.22
582.728	11449.88
583.089	11644.68
583.449	11709.54
583.809	11886.03
584.169	12109.75
584.529	12242.4
584.889	12449.63
585.249	12658.89
585.609	12809.85
585.969	13096.62
586.329	13175.49
586.688	13471.98
587.048	13706.77
587.408	13928.24
587.768	14160.55
588.127	14412.29
588.487	14625.62
588.846	14926.85
589.206	15090.24
589.565	15356.9
589.925	15672.82
590.284	15860.84
590.643	16195.29
591.003	16607.26
591.362	16859.23
591.721	17089.28
592.08	17447.24
592.44	17800.68
592.799	18125.19
593.158	18419.42
593.517	18730.6
593.876	19129.23
594.235	19448.54
594.593	19836.78
594.952	20257.56
595.311	20604.9
595.67	20983.19
596.029	21364.42
596.387	21811.42
596.746	22222.93
597.104	22455.47
597.463	22706.31
597.822	23344.26
598.18	23525.27
598.538	23909.89
598.897	24591.23
599.255	24767.72
599.613	25510.3
599.972	25651.54
600.33	26152.09
600.688	26508.7
601.046	26989.59
601.404	27488.33
601.762	27685.84
602.12	28373.05
602.478	28678.36
602.836	29084.67
603.194	29217.1
603.552	29773.92
603.91	30095.95
604.268	30502.94
604.625	30870.61
604.983	31535.46
605.341	31747.43
605.698	32291.14
606.056	32579.95
606.413	32858.81
606.771	33326.6
607.128	33840.48
607.485	33930.87
607.843	34191.66
608.2	34855.59
608.557	35232.53
608.914	35343.94
609.272	35865.96
609.629	36238.38
609.986	36556.79
610.343	36705.49
610.7	37240.16
611.057	37526.49
611.414	37737.33
611.771	38023.2
612.127	38439.23
612.484	38568.27
612.841	39016.84
613.198	39095.26
613.554	39457.51
613.911	39836.25
614.267	40005.74
614.624	40177.94
614.98	40454.54
615.337	40655.22
615.693	40931.82
616.05	41061.08
616.406	41560.05
616.762	41530.9
617.118	41786.71
617.475	41952.13
617.831	42269.41
618.187	42422.63
618.543	42599.35
618.899	43017.41
619.255	42951.65
619.611	43255.15
619.967	43582.82
620.323	43595.03
620.678	43659.21
621.034	43799.77
621.39	43890.16
621.746	43963.15
622.101	44553.19
622.457	44341.45
622.812	44565.17
623.168	44744.6
623.523	44732.85
623.879	44899.17
624.234	44875.67
624.589	45169.22
624.945	45213.06
625.3	45220.29
625.655	45312.72
626.01	45444.69
626.365	45605.14
626.72	45621.87
627.075	45713.84
627.43	45810.34
627.785	45755.65
628.14	45891.01
628.495	46156.09
628.85	46036.32
629.205	46035.41
629.559	46412.58
629.914	46170.1
630.269	46427.04
630.623	46315.18
630.978	46147.28
631.332	46484.22
631.687	46647.38
632.041	46571.9
632.396	46719.92
632.75	46557.66
633.104	46747.49
633.459	46623.2
633.813	46563.08
634.167	46651.22
634.521	46549.75
634.875	46625.91
635.229	46714.27
635.583	46594.04
635.937	46491
636.291	46574.61
636.645	46752.23
636.999	46665.68
637.352	46713.14
637.706	46603.08
638.06	46669.3
638.413	46665.68
638.767	46585.23
639.121	46721.72
639.474	46514.5
639.828	46631.78
640.181	46794.94
640.534	46832.46
640.888	46604.66
641.241	46645.12
641.594	46681.72
641.947	46754.94
642.301	46606.02
642.654	46749.52
643.007	46823.42
643.36	46644.66
643.713	46697.77
644.066	46758.11
644.419	46513.14
644.771	46293.26
645.124	45981.86
645.477	45820.73
645.83	45704.58
646.182	45678.36
646.535	45607.63
646.888	45697.34
647.24	45580.51
647.593	45792.71
647.945	45879.03
648.298	45585.03
648.65	45564.01
649.002	45336
649.355	45544.35
649.707	45491.47
650.059	45782.99
650.411	46191.79
650.763	46332.58
651.115	46564.89
651.467	46572.12
651.819	46330.77
652.171	46453.93
652.523	46549.3
652.875	46477.66
653.227	46333.71
653.578	46559.92
653.93	46545.91
654.282	46492.13
654.633	46262.3
654.985	46392.69
655.337	46444.67
655.688	46438.57
656.039	46517.21
656.391	46321.51
656.742	46356.54
657.094	46231.11
657.445	46256.65
657.796	46260.49
658.147	46318.12
658.498	46247.39
658.849	46227.95
659.2	46256.65
659.551	46197.67
659.902	46240.38
660.253	46331.23
660.604	46300.72
660.955	46096.88
661.306	46316.31
661.656	46252.36
662.007	46325.8
662.358	46287.84
662.708	46313.82
663.059	46207.16
663.409	46069.76
663.76	46327.16
664.11	46302.75
664.461	46399.47
664.811	46339.13
665.161	46256.65
665.511	46242.19
665.862	46216.43
666.212	46324.45
666.562	46241.96
666.912	46278.12
667.262	46139.82
667.612	46178.46
667.962	46205.8
668.312	46232.02
668.662	46448.74
669.011	46471.11
669.361	46244.22
669.711	46178.46
670.06	46146.6
670.41	46122.19
670.76	45991.35
671.109	46174.39
671.459	46146.37
671.808	46102.98
672.157	46272.47
672.507	45836.32
672.856	45850.56
673.205	45956.32
673.554	46056.88
673.904	45887.62
674.253	46135.52
674.602	45989.99
674.951	45418.71
675.3	45350.01
675.649	45814.4
675.998	45733.95
676.346	45878.58
676.695	46115.41
677.044	45604.69
677.393	45770.56
677.741	45835.65
678.09	45803.1
678.438	45545.94
678.787	45707.51
679.135	45723.33
679.484	45559.95
679.832	45660.73
680.181	45515.2
680.529	45659.6
680.877	45378.48
681.225	45375.09
681.573	45648.53
681.922	45270.01
682.27	45109.79
682.618	45293.51
682.966	45092.16
683.314	45170.13
683.661	45093.29
684.009	44821.21
684.357	44739.63
684.705	44824.6
685.053	44869.34
685.4	44764.03
685.748	44759.97
686.095	44579.18
686.443	44366.98
686.79	44437.04
687.138	44469.81
687.485	44463.25
687.832	44352.07
688.18	44230.49
688.527	44056.03
688.874	44086.54
689.221	43950.72
689.568	43875.02
689.915	43750.28
690.262	43688.13
690.609	43676.38
690.956	43602.26
691.303	43430.28
691.65	43307.12
691.997	43371.3
692.344	43173.34
692.69	43123.63
693.037	43101.71
693.383	42770.41
693.73	43097.64
694.077	42851.99
694.423	42757.53
694.769	42760.02
695.116	42583.75
695.462	42510.99
695.808	42220.15
696.155	42383.98
696.501	42061.51
696.847	42029.64
697.193	41807.05
697.539	41937.44
697.885	41603.44
698.231	41471.69
698.577	41683.66
698.923	41532.26
699.269	41247.74
699.614	41152.83
699.96	41069.89
700.306	41134.3
700.651	40939.28
700.997	40709.68
701.342	40697.93
701.688	40611.15
702.033	40522.56
702.379	40564.37
702.724	40420.42
703.069	40603.01
703.415	40061.56
703.76	40047.32
704.105	39926.87
704.45	39981.11
704.795	39822.47
705.14	39716.71
705.485	39668.58
705.83	39706.99
706.175	39643.04
706.52	39545.87
706.865	39193.33
707.209	39236.27
707.554	39200.79
707.899	39095.94
708.243	39001.7
708.588	39198.08
708.932	38879.22
709.277	38721.71
709.621	38756.96
709.966	38420.92
710.31	38445.1
710.654	38085.79
710.998	38175.51
711.342	38358.55
711.687	38352.9
712.031	38145
712.375	37953.59
712.719	37974.16
713.063	37887.15
713.407	38102.74
713.75	37768.06
714.094	37737.55
714.438	37650.32
714.782	37734.62
715.125	37591.57
715.469	37768.29
715.812	37462.53
716.156	37227.96
716.499	37271.12
716.843	37295.08
717.186	36956.78
717.53	37139.83
717.873	37113.16
718.216	37079.72
718.559	36908.42
718.902	36796.56
719.246	36800.85
719.589	36611.71
719.932	36452.84
720.275	36573.97
720.617	36412.84
720.96	36569.9
721.303	36490.81
721.646	36437.02
721.989	36252.17
722.331	36359.74
722.674	36294.65
723.016	36177.59
723.359	36142.34
723.701	36193.19
724.044	35910.48
724.386	35819.41
724.729	35932.63
725.071	35834.78
725.413	35768.34
725.755	35684.95
726.097	35507.78
726.439	35439.31
726.782	35494.22
727.124	35619.19
727.465	35372.42
727.807	35302.14
728.149	35270.05
728.491	35273.21
728.833	35279.54
729.175	35113.89
729.516	35107.79
729.858	35133.55
730.199	35191.86
730.541	34977.17
730.882	34877.29
731.224	34979.21
731.565	34707.8
731.906	34803.39
732.248	34840.91
732.589	34584.19
732.93	34585.32
733.271	34625.09
733.612	34465.77
733.953	34502.61
734.294	34281.15
734.635	34399.79
734.976	34460.12
735.317	34226.46
735.658	34353.24
735.999	34336.96
736.339	34191.66
736.68	34232.11
737.021	34028.05
737.361	34088.61
737.702	34218.55
738.042	34002.28
738.383	34015.39
738.723	33953.25
739.063	33894.72
739.404	33980.82
739.744	33951.66
740.084	33840.71
740.424	33783.76
740.764	33697.89
741.104	33771.78
741.444	33565.69
741.784	33430.55
742.124	33418.8
742.464	33478.91
742.804	33424.22
743.143	33502.41
743.483	33303.32
743.823	33228.97
744.162	33186.03
744.502	33155.07
744.841	32988.98
745.181	33149.88
745.52	33016.1
745.86	33118.24
746.199	33053.16
746.538	33035.08
746.877	33060.61
747.216	32988.3
747.556	32861.3
747.895	32851.13
748.234	32700.4
748.573	32808.42
748.911	32720.28
749.25	32780.4
749.589	32485.94
749.928	32476.9
750.267	32549.67
750.605	32455.21
750.944	32463.57
751.283	32310.58
751.621	32512.61
751.96	32232.39
752.298	32247.3
752.636	32186.74
752.975	32183.8
753.313	31873.53
753.651	32047.08
753.989	31854.54
754.327	31812.29
754.666	31667.66
755.004	31750.82
755.342	31686.19
755.679	31709.01
756.017	31492.07
756.355	31658.16
756.693	31412.07
757.031	31475.57
757.368	31354.44
757.706	31253.66
758.044	31236.71
758.381	31189.02
758.719	31050.5
759.056	31101.57
759.394	30860.45
759.731	30657.29
760.068	30715.59
760.405	30580.68
760.743	30544.75
761.08	30556.5
761.417	30422.94
761.754	30185.66
762.091	30331.19
762.428	30144.08
762.765	29962.16
763.102	30127.81
763.438	29921.26
763.775	29749.74
764.112	29829.74
764.449	29847.14
764.785	29670.19
765.122	29445.34
765.458	29309.75
765.795	29404.44
766.131	29353.59
766.467	29221.39
766.804	28990.44
767.14	28927.62
767.476	29011.68
767.812	28655.53
768.148	28809.65
768.485	28661.86
768.821	28399.72
769.157	28380.06
769.492	28391.36
769.828	28380.28
770.164	28110.24
770.5	28124.92
770.836	28072.04
771.171	27837.93
771.507	27824.59
771.842	27641.32
772.178	27620.08
772.513	27698.04
772.849	27497.6
773.184	27248.11
773.519	27368.79
773.855	27276.36
774.19	27094.89
774.525	27029.13
774.86	26932.64
775.195	26973.77
775.53	26885.18
775.865	26706.66
776.2	26557.51
776.535	26399.55
776.87	26435.7
777.205	26170.17
777.539	26144.86
777.874	26220.12
778.209	26066.67
778.543	25900.58
778.878	25690.41
779.212	25768.38
779.547	25596.18
779.881	25671.66
780.215	25428.05
780.55	25420.36
780.884	25320.7
781.218	25292.23
781.552	25241.84
781.886	25007.49
782.22	24886.82
782.554	24863.99
782.888	24617.9
783.222	24544.91
783.556	24499.71
783.889	24428.52
784.223	24287.06
784.557	24263.78
784.89	24194.86
785.224	24178.81
785.557	24055.88
785.891	23867.18
786.224	23877.8
786.558	23836.22
786.891	23674.19
787.224	23534.99
787.557	23548.32
787.891	23536.12
788.224	23514.2
788.557	23368.21
788.89	23301.1
789.223	23224.71
789.556	23079.18
789.888	22943.14
790.221	22907.89
790.554	22789.7
790.887	22811.17
791.219	22624.96
791.552	22641
791.884	22514.22
792.217	22533.21
792.549	22448.01
792.882	22271.97
793.214	22196.49
793.546	22212.76
793.879	22104.29
794.211	21912.66
794.543	21998.76
794.875	21994.92
795.207	21943.62
795.539	21857.52
795.871	21871.3
796.203	21532.1
796.535	21590.18
796.867	21552.22
797.198	21437.19
797.53	21385.21
797.862	21319.91
798.193	21262.28
798.525	21015.51
798.856	21118.1
799.188	20968.5
799.519	20992.91
799.85	20936.86
800.182	20854.61
800.513	20789.98
800.844	20584.56
801.175	20637.66
801.506	20761.5
801.837	20623.88
802.168	20554.95
802.499	20444
802.83	20363.55
803.161	20316.54
803.491	20214.85
803.822	20232.93
804.153	20114.74
804.483	20003.1
804.814	19817.12
805.145	19947.06
805.475	19924.91
805.805	19823.22
806.136	19752.04
806.466	19850.34
806.796	19622.55
807.126	19621.65
807.457	19577.35
807.787	19539.39
808.117	19352.5
808.447	19313.4
808.777	19384.82
809.107	19297.59
809.436	19204.93
809.766	19229.11
810.096	19082.9
810.426	19062.79
810.755	19047.65
811.085	19001.1
811.414	19100.3
811.744	18925.84
812.073	18725.4
812.403	18891.72
812.732	18729.92
813.061	18774.89
813.39	18622.12
813.719	18511.17
814.049	18686.53
814.378	18503.71
814.707	18554.55
815.036	18470.49
815.365	18350.49
815.693	18192.53
816.022	18150.5
816.351	18111.85
816.68	18078.63
817.008	18086.54
817.337	17872.99
817.665	17940.11
817.994	18008.35
818.322	18034.34
818.651	17887.45
818.979	17836.61
819.307	17855.82
819.636	17827.12
819.964	17740.79
820.292	17829.38
820.62	17700.11
820.948	17619.44
821.276	17692.88
821.604	17657.4
821.932	17728.36
822.259	17698.53
822.587	17635.26
822.915	17541.25
823.243	17560.68
823.57	17506.45
823.898	17544.41
824.225	17556.84
824.553	17597.97
824.88	17561.36
825.207	17697.63
825.535	17599.55
825.862	17648.59
826.189	17513.68
826.516	17526.33
826.843	17667.12
827.17	17529.5
827.497	17597.97
827.824	17580.57
828.151	17655.82
828.478	17538.99
828.805	17612.88
829.131	17414.25
829.458	17424.41
829.785	17469.84
830.111	17484.3
830.438	17478.88
830.764	17534.92
831.09	17576.5
831.417	17537.41
831.743	17480.91
832.069	17480.91
832.395	17422.61
832.722	17404.53
833.048	17444.98
833.374	17443.17
833.7	17383.96
834.026	17452.21
834.351	17477.97
834.677	17378.31
835.003	17417.64
835.329	17390.07
835.654	17248.6
835.98	17250.41
836.306	17271.65
836.631	17269.39
836.956	17175.83
837.282	17130.41
837.607	17105.33
837.932	17121.37
838.258	17040.02
838.583	17064.2
838.908	17050.19
839.233	17103.07
839.558	17099.68
839.883	16925.22
840.208	16935.84
840.533	16870.31
840.858	16913.24
841.182	16828.95
841.507	16821.27
841.832	16794.37
842.156	16703.08
842.481	16701.27
842.805	16651.33
843.13	16589.41
843.454	16480.03
843.778	16542.86
844.103	16442.97
844.427	16448.17
844.751	16435.74
845.075	16387.61
845.399	16325.91
845.723	16204.79
846.047	16152.13
846.371	16103.32
846.695	16119.14
847.019	15939.71
847.343	15927.28
847.666	15919.37
847.99	15886.38
848.313	15812.25
848.637	15775.19
848.96	15669.66
849.284	15602.09
849.607	15441.64
849.931	15417.69
850.254	15405.94
850.577	15293.4
850.9	15219.95
851.223	15149.45
851.546	15156
851.869	15049.56
852.192	15158.71
852.515	14927.31
852.838	14879.62
853.161	14862.45
853.483	14859.51
853.806	14794.88
854.129	14832.62
854.451	14741.1
854.774	14604.38
855.096	14557.37
855.419	14506.98
855.741	14548.33
856.063	14434.21
856.385	14401.44
856.708	14378.39
857.03	14334.78
857.352	14293.88
857.674	14224.72
857.996	14185.63
858.318	14126.87
858.64	14107.67
858.961	13982.92
859.283	14033.77
859.605	13958.52
859.926	13961.68
860.248	13944.73
860.57	13873.1
860.891	13865.64
861.212	13787.22
861.534	13715.81
861.855	13659.09
862.176	13743.83
862.498	13749.71
862.819	13756.04
863.14	13627.45
863.461	13547.45
863.782	13487.12
864.103	13549.04
864.424	13451.86
864.745	13547.23
865.065	13439.21
865.386	13439.43
865.707	13472.65
866.027	13448.02
866.348	13330.74
866.668	13350.62
866.989	13343.84
867.309	13171.19
867.63	13290.06
867.95	13216.16
868.27	13182.27
868.59	13254.81
868.91	13144.08
869.23	13178.42
869.55	13097.52
869.87	13166
870.19	13125.77
870.51	13136.62
870.83	13112.89
871.15	12924.19
871.469	13053.46
871.789	13118.31
872.109	12957.87
872.428	12896.17
872.748	12934.36
873.067	12907.47
873.386	12911.09
873.706	12834.93
874.025	12830.64
874.344	12810.52
874.663	12843.52
874.982	12792.22
875.301	12781.37
875.62	12720.13
875.939	12747.48
876.258	12730.3
876.577	12700.7
876.896	12657.08
877.214	12596.97
877.533	12663.41
877.852	12546.35
878.17	12566.92
878.489	12508.61
878.807	12549.74
879.125	12534.6
879.444	12617.99
879.762	12457.99
880.08	12493.92
880.398	12368.5
880.716	12455.73
881.034	12378.45
881.352	12383.64
881.67	12318.79
881.988	12362.63
882.306	12374.15
882.624	12343.19
882.941	12177.32
883.259	12234.72
883.577	12185.46
883.894	12108.17
884.212	12123.09
884.529	12116.53
884.846	12053.48
885.164	12067.27
885.481	11925.35
885.798	11950.21
886.115	11883.32
886.432	11855.07
886.75	11917.89
887.067	11927.38
887.383	11882.64
887.7	11804.9
888.017	11754.96
888.334	11679.48
888.651	11669.31
888.967	11602.42
889.284	11600.16
889.6	11608.3
889.917	11545.93
890.233	11538.47
890.55	11517.9
890.866	11427.51
891.182	11439.71
891.498	11401.07
891.815	11404.46
892.131	11373.5
892.447	11319.94
892.763	11292.15
893.079	11271.13
893.395	11276.78
893.71	11192.26
894.026	11097.35
894.342	11146.84
894.657	10972.38
894.973	11026.84
895.289	11037.24
895.604	11051.47
895.92	10890.8
896.235	10838.37
896.55	10900.52
896.865	10775.32
897.181	10818.94
897.496	10825.94
897.811	10717.92
898.126	10684.7
898.441	10619.62
898.756	10604.48
899.071	10553.18
899.386	10561.77
899.7	10430.25
900.015	10456.91
900.33	10353.41
900.644	10352.28
900.959	10429.8
901.273	10300.08
901.588	10238.61
901.902	10220.31
902.216	10213.76
902.531	10187.77
902.845	10151.16
903.159	10071.16
903.473	10105.06
903.787	10010.37
904.101	9929.7
904.415	10028.23
904.729	9939.19
905.042	9951.84
905.356	9884.27
905.67	9916.14
905.984	9843.82
906.297	9757.95
906.611	9659.65
906.924	9655.81
907.237	9626.88
907.551	9579.65
907.864	9538.29
908.177	9519.31
908.491	9465.75
908.804	9441.35
909.117	9461.46
909.43	9364.06
909.743	9297.85
910.056	9323.84
910.368	9274.8
910.681	9209.49
910.994	9128.36
911.307	9132.88
911.619	9044.97
911.932	9056.05
912.244	9007.46
912.557	9055.6
912.869	8924.53
913.181	8874.58
913.494	8906.67
913.806	8812.44
914.118	8818.31
914.43	8747.81
914.742	8710.75
915.054	8620.8
915.366	8562.5
915.678	8571.31
915.99	8541.26
916.302	8470.3
916.613	8428.95
916.925	8470.53
917.236	8392.79
917.548	8435.72
917.859	8409.96
918.171	8330.64
918.482	8284.99
918.794	8281.83
919.105	8207.03
919.416	8202.96
919.727	8204.09
920.038	8059.46
920.349	8045.23
920.66	8084.32
920.971	7999.58
921.282	8012.23
921.593	7930.2
921.903	7885.46
922.214	7895.4
922.525	7852.24
922.835	7894.04
923.146	7757.1
923.456	7795.06
923.767	7758.68
924.077	7718.46
924.387	7698.34
924.697	7578.12
925.008	7664.67
925.318	7630.32
925.628	7562.53
925.938	7459.48
926.248	7421.06
926.558	7360.72
926.867	7381.29
927.177	7300.16
927.487	7276.21
927.796	7219.49
928.106	7196.21
928.416	7230.56
928.725	7208.19
929.034	7162.54
929.344	7135.87
929.653	7180.39
929.962	7029.89
930.271	6996.21
930.581	7051.35
930.89	6976.33
931.199	6920.06
931.508	6934.75
931.817	6878.48
932.125	6851.59
932.434	6863.79
932.743	6741.08
933.051	6778.59
933.36	6704.7
933.669	6682.32
933.977	6659.95
934.286	6605.49
934.594	6570.24
934.902	6548.54
935.21	6557.58
935.519	6539.05
935.827	6514.87
936.135	6481.88
936.443	6421.77
936.751	6358.94
937.059	6389.9
937.367	6385.16
937.674	6334.54
937.982	6325.05
938.29	6291.83
938.597	6269.91
938.905	6226.97
939.213	6200.08
939.52	6134.09
939.827	6175.44
940.135	6102.9
940.442	6014.32
940.749	6065.17
941.056	6082.79
941.363	6005.73
941.67	6019.97
941.977	5931.16
942.284	5956.47
942.591	5944.94
942.898	5875.79
943.205	5863.14
943.511	5815.45
943.818	5805.29
944.125	5827.66
944.431	5725.51
944.738	5737.49
945.044	5739.75
945.35	5651.84
945.657	5589.92
945.963	5616.59
946.269	5600.54
946.575	5602.58
946.881	5556.48
947.187	5573.2
947.493	5501.79
947.799	5468.12
948.105	5453.88
948.41	5446.65
948.716	5423.37
949.022	5417.72
949.327	5435.35
949.633	5349.7
949.938	5333.43
950.244	5322.13
950.549	5239.2
950.854	5239.42
951.16	5193.55
951.465	5194.91
951.77	5179.31
952.075	5166.88
952.38	5155.36
952.685	5108.35
952.99	5075.81
953.294	5044.85
953.599	5006.44
953.904	4996.72
954.209	4976.61
954.513	4984.06
954.818	4952.65
955.122	4968.02
955.426	4913.33
955.731	4885.31
956.035	4866.33
956.339	4845.54
956.643	4823.62
956.948	4775.26
957.252	4796.95
957.556	4792.2
957.86	4742.26
958.163	4739.32
958.467	4695.48
958.771	4657.52
959.075	4645.09
959.378	4609.16
959.682	4589.05
959.985	4619.78
960.289	4537.52
960.592	4575.71
960.896	4517.41
961.199	4504.53
961.502	4471.99
961.805	4490.29
962.108	4454.81
962.411	4416.17
962.714	4454.13
963.017	4393.57
963.32	4399.22
963.623	4368.03
963.926	4327.36
964.228	4324.19
964.531	4282.84
964.833	4297.53
965.136	4242.61
965.438	4237.42
965.741	4197.64
966.043	4178.44
966.345	4180.47
966.648	4140.47
966.95	4144.76
967.252	4115.39
967.554	4130.75
967.856	4111.54
968.158	4061.6
968.46	4095.73
968.761	4030.64
969.063	4024.99
969.365	4015.28
969.666	4043.07
969.968	3971.66
970.269	3874.94
970.571	3944.09
970.872	3973.69
971.174	3884.88
971.475	3873.81
971.776	3815.73
972.077	3853.25
972.378	3818.22
972.679	3863.42
972.98	3832.23
973.281	3777.32
973.582	3766.47
973.883	3737.32
974.183	3690.09
974.484	3724.89
974.785	3688.5
975.085	3652.57
975.386	3679.47
975.686	3708.39
975.986	3645.57
976.287	3606.47
976.587	3589.98
976.887	3608.73
977.187	3543.88
977.487	3523.76
977.787	3498.23
978.087	3536.42
978.387	3535.06
978.687	3510.88
978.987	3477.44
979.286	3466.36
979.586	3449.19
979.885	3428.85
980.185	3442.41
980.484	3359.47
980.784	3375.74
981.083	3357.21
981.382	3367.61
981.682	3323.77
981.981	3350.21
982.28	3310.21
982.579	3281.96
982.878	3271.11
983.177	3259.59
983.475	3281.96
983.774	3204.68
984.073	3212.36
984.372	3205.58
984.67	3211.91
984.969	3209.87
985.267	3178.69
985.566	3135.07
985.864	3102.31
986.162	3114.28
986.461	3089.42
986.759	3042.65
987.057	3083.55
987.355	3037.9
987.653	3051.01
987.951	3014.17
988.249	3030.89
988.547	3033.83
988.844	2984.79
989.142	3003.55
989.44	2946.38
989.737	2925.13
990.035	2953.16
990.332	2877.68
990.63	2912.71
990.927	2859.6
991.224	2848.75
991.521	2849.43
991.819	2857.11
992.116	2829.32
992.413	2839.26
992.71	2801.07
993.006	2821.18
993.303	2758.81
993.6	2757.46
993.897	2737.12
994.193	2748.19
994.49	2738.7
994.787	2696.67
995.083	2680.17
995.379	2684.69
995.676	2660.96
995.972	2650.57
996.268	2641.3
996.565	2662.32
996.861	2615.99
997.157	2599.95
997.453	2591.13
997.749	2574.86
998.044	2570.34
998.34	2554.3
998.636	2531.47
998.932	2545.26
999.227	2504.81
999.523	2529.67
999.818	2483.11
1000.114	2500.06
1000.409	2464.58
1000.704	2432.27
1001	2441.76
1001.295	2433.62
1001.59	2443.11
1001.885	2425.04
1002.18	2392.72
1002.475	2374.87
1002.77	2362.44
1003.065	2341.2
1003.359	2355.43
1003.654	2317.02
1003.949	2307.52
1004.243	2258.94
1004.538	2295.77
1004.832	2314.76
1005.127	2261.2
1005.421	2218.49
1005.715	2254.64
1006.009	2225.94
1006.304	2214.42
1006.598	2159.28
1006.892	2202.44
1007.186	2159.73
1007.48	2182.56
1007.773	2147.98
1008.067	2144.14
1008.361	2143.69
1008.655	2119.05
1008.948	2079.06
1009.242	2065.72
1009.535	2066.4
1009.829	2045.61
1010.122	2053.52
1010.415	2054.88
1010.708	2025.05
1011.001	2026.63
1011.295	2004.93
1011.588	1998.15
1011.881	1999.06
1012.173	1931.26
1012.466	1924.94
1012.759	1956.12
1013.052	1932.17
1013.344	1933.97
1013.637	1929.91
1013.93	1873.64
1014.222	1881.32
1014.514	1866.41
1014.807	1842.23
1015.099	1837.71
1015.391	1866.18
1015.683	1839.74
1015.976	1804.94
1016.268	1792.51
1016.56	1783.47
1016.851	1765.62
1017.143	1777.82
1017.435	1776.46
1017.727	1741.66
1018.018	1782.34
1018.31	1733.3
1018.602	1708.9
1018.893	1725.62
1019.185	1696.69
1019.476	1646.98
1019.767	1679.52
1020.058	1684.04
1020.35	1615.56
1020.641	1643.59
1020.932	1644.04
1021.223	1619.63
1021.514	1614.66
1021.804	1596.13
1022.095	1573.08
1022.386	1572.18
1022.677	1558.39
1022.967	1565.85
1023.258	1576.92
1023.548	1539.63
1023.839	1529.24
1024.129	1514.1
1024.419	1482.01
1024.709	1476.36
1025	1452.41
1025.29	1466.87
1025.58	1433.2
1025.87	1424.16
1026.16	1453.99
1026.449	1415.57
1026.739	1398.17
1027.029	1418.96
1027.319	1385.97
1027.608	1402.92
1027.898	1369.92
1028.187	1363.59
1028.477	1391.62
1028.766	1361.33
1029.055	1344.84
1029.344	1332.41
1029.634	1321.34
1029.923	1301.9
1030.212	1301.22
1030.501	1294.44
1030.79	1287.44
1031.078	1302.13
1031.367	1254.9
1031.656	1316.36
1031.945	1248.57
1032.233	1263.03
1032.522	1242.24
1032.81	1242.47
1033.099	1205.18
1033.387	1208.34
1033.675	1188.46
1033.963	1220.1
1034.251	1211.06
1034.54	1191.62
1034.828	1158.85
1035.116	1187.78
1035.403	1156.82
1035.691	1169.7
1035.979	1118.4
1036.267	1131.74
1036.554	1132.19
1036.842	1098.06
1037.129	1101.45
1037.417	1136.71
1037.704	1099.42
1037.992	1105.97
1038.279	1084.05
1038.566	1035.92
1038.853	1035.92
1039.14	1035.92
