Data from red_shiny_book_FLMS001491_00033.txt Node
Date: Wed Feb 08 15:24:46 GMT 2017
User: dcchb
Spectrometer: FLMS00149
Trigger mode: 0
Integration Time (sec): 2.000000E-2
Scans to average: 10
Electric dark correction enabled: true
Nonlinearity correction enabled: false
Boxcar width: 0
XAxis mode: Wavelengths
Number of Pixels in Spectrum: 2048
>>>>>Begin Spectral Data<<<<<
341.393	4.52
341.776	4.52
342.16	4.52
342.543	-50.39
342.927	-72.54
343.31	-45.42
343.693	-73.9
344.077	-63.73
344.46	-53.56
344.843	-50.62
345.226	-40.45
345.61	-38.64
345.993	-13.78
346.376	-18.53
346.759	2.94
347.142	19.66
347.525	32.99
347.908	52.88
348.291	79.77
348.674	99.88
349.057	110.51
349.44	126.78
349.823	142.37
350.206	172.65
350.588	196.61
350.971	226.89
351.354	219.43
351.737	237.28
352.119	260.56
352.502	258.07
352.884	277.28
353.267	280.67
353.65	277.51
354.032	307.11
354.414	313.21
354.797	299.2
355.179	324.74
355.562	320.67
355.944	322.93
356.326	337.17
356.709	348.24
357.091	327
357.473	343.49
357.855	344.17
358.238	338.75
358.62	335.36
359.002	343.04
359.384	318.86
359.766	358.86
360.148	336.04
360.53	325.87
360.912	332.65
361.294	332.19
361.676	325.42
362.057	349.6
362.439	321.12
362.821	339.2
363.203	322.03
363.584	313.89
363.966	323.16
364.348	333.1
364.729	312.76
365.111	328.8
365.493	334.68
365.874	326.55
366.256	345.53
366.637	311.18
367.019	333.32
367.4	305.08
367.781	317.05
368.163	305.3
368.544	300.11
368.925	315.92
369.306	322.93
369.688	315.02
370.069	308.92
370.45	311.4
370.831	311.4
371.212	306.43
371.593	326.55
371.974	308.92
372.355	319.09
372.736	325.87
373.117	301.46
373.498	310.05
373.879	316.38
374.26	301.91
374.641	317.05
375.021	318.86
375.402	324.74
375.783	328.13
376.163	325.19
376.544	321.57
376.925	319.31
377.305	320.9
377.686	339.65
378.066	329.26
378.447	316.83
378.827	329.48
379.208	334.68
379.588	361.12
379.968	320.44
380.349	335.36
380.729	323.83
381.109	324.51
381.489	349.37
381.87	332.42
382.25	352.31
382.63	332.42
383.01	339.43
383.39	333.55
383.77	337.62
384.15	343.04
384.53	341.91
384.91	335.58
385.29	348.47
385.67	343.04
386.049	347.34
386.429	332.42
386.809	337.84
387.189	348.92
387.568	346.43
387.948	350.95
388.328	360.89
388.707	349.37
389.087	341.23
389.466	336.04
389.846	334.23
390.225	371.29
390.605	350.73
390.984	338.97
391.363	375.13
391.743	353.89
392.122	372.87
392.501	373.1
392.881	366.09
393.26	368.35
393.639	375.36
394.018	378.75
394.397	405.19
394.776	386.88
395.155	378.3
395.534	373.78
395.913	392.98
396.292	369.48
396.671	360.22
397.05	384.17
397.429	396.83
397.808	394.79
398.186	386.43
398.565	370.61
398.944	389.59
399.323	376.49
399.701	405.41
400.08	380.78
400.458	402.93
400.837	385.53
401.215	387.56
401.594	402.02
401.972	413.77
402.351	375.81
402.729	384.17
403.107	403.15
403.486	398.41
403.864	389.59
404.242	402.7
404.62	404.51
404.999	416.03
405.377	402.7
405.755	412.19
406.133	412.19
406.511	433.21
406.889	411.97
407.267	417.62
407.645	420.55
408.023	455.81
408.401	458.74
408.779	442.02
409.156	440.44
409.534	463.94
409.912	445.86
410.29	455.13
410.667	461.68
411.045	442.02
411.422	455.58
411.8	459.87
412.178	467.11
412.555	463.49
412.933	499.42
413.31	460.55
413.687	486.99
414.065	486.09
414.442	475.47
414.819	490.38
415.197	498.07
415.574	516.37
415.951	512.75
416.328	497.84
416.705	500.55
417.082	508.46
417.46	517.73
417.837	522.92
418.214	541
418.591	504.39
418.967	516.37
419.344	526.54
419.721	541.68
420.098	544.84
420.475	561.34
420.852	536.48
421.228	555.01
421.605	556.82
421.982	557.95
422.358	564.5
422.735	562.02
423.111	588.91
423.488	581.68
423.864	564.96
424.241	593.88
424.617	602.92
424.994	580.55
425.37	593.43
425.746	572.87
426.123	593.43
426.499	601.79
426.875	595.24
427.251	577.61
427.627	611.28
428.003	602.02
428.379	618.51
428.756	626.65
429.132	621.45
429.507	631.4
429.883	635.24
430.259	638.18
430.635	646.54
431.011	635.92
431.387	646.76
431.763	647.44
432.138	653.09
432.514	634.33
432.89	666.42
433.265	678.4
433.641	670.49
434.016	705.97
434.392	686.99
434.767	715.91
435.143	727.66
435.518	700.77
435.894	709.36
436.269	711.17
436.644	729.02
437.02	731.05
437.395	723.37
437.77	734.9
438.145	750.04
438.52	758.62
438.895	764.27
439.271	743.94
439.646	764.5
440.021	760.88
440.395	760.43
440.77	761.11
441.145	778.06
441.52	771.28
441.895	772.18
442.27	787.78
442.645	796.14
443.019	782.8
443.394	813.31
443.769	791.39
444.143	815.35
444.518	822.58
444.892	804.95
445.267	818.28
445.641	811.5
446.016	799.3
446.39	828.23
446.764	858.96
447.139	823.71
447.513	833.42
447.887	828.23
448.262	840.66
448.636	850.6
449.01	848.79
449.384	881.56
449.758	839.07
450.132	853.31
450.506	865.06
450.88	871.62
451.254	870.03
451.628	874.1
452.002	868.23
452.376	906.87
452.75	879.07
453.123	889.69
453.497	901.67
453.871	885.85
454.244	911.16
454.618	890.6
454.992	891.5
455.365	899.19
455.739	908
456.112	895.12
456.486	911.16
456.859	932.18
457.232	931.95
457.606	940.99
457.979	954.55
458.352	986.87
458.725	973.08
459.099	962.46
459.472	980.09
459.845	978.73
460.218	969.92
460.591	973.08
460.964	967.88
461.337	976.7
461.71	984.83
462.083	1005.4
462.456	1011.5
462.829	1031.84
463.201	1018.28
463.574	1011.95
463.947	1035.9
464.32	1063.25
464.692	1024.15
465.065	1051.72
465.438	1038.16
465.81	1040.2
466.183	1067.54
466.555	1094.66
466.928	1065.06
467.3	1083.36
467.672	1127.43
468.045	1151.61
468.417	1158.39
468.789	1138.95
469.161	1159.07
469.534	1164.04
469.906	1147.77
470.278	1153.19
470.65	1166.75
471.022	1198.39
471.394	1168.33
471.766	1201.1
472.138	1230.93
472.51	1253.3
472.882	1271.6
473.253	1274.32
473.625	1308.89
473.997	1289.91
474.369	1302.34
474.74	1318.16
475.112	1325.84
475.484	1333.07
475.855	1341.89
476.227	1323.36
476.598	1356.12
476.97	1389.34
477.341	1396.57
477.713	1420.98
478.084	1440.87
478.455	1493.07
478.827	1487.19
479.198	1540.98
479.569	1559.73
479.94	1567.19
480.311	1570.81
480.682	1570.35
481.053	1565.38
481.424	1610.58
481.795	1630.92
482.166	1613.97
482.537	1655.78
482.908	1674.08
483.279	1711.14
483.65	1760.18
484.021	1820.52
484.391	1845.83
484.762	1853.74
485.133	1832.95
485.503	1836.11
485.874	1849.44
486.244	1889.44
486.615	1881.08
486.985	1935.77
487.356	1953.85
487.726	1962.89
488.097	2001.08
488.467	2044.01
488.837	2067.74
489.207	2138.93
489.578	2182.77
489.948	2163.78
490.318	2231.81
490.688	2218.47
491.058	2225.93
491.428	2270.45
491.798	2263.22
492.168	2285.82
492.538	2308.41
492.908	2308.87
493.278	2309.54
493.648	2328.98
494.017	2344.8
494.387	2406.04
494.757	2448.75
495.126	2468.86
495.496	2499.82
495.866	2528.97
496.235	2549.09
496.605	2602.42
496.974	2600.38
497.344	2613.04
497.713	2580.05
498.082	2590.21
498.452	2586.6
498.821	2583.66
499.19	2604.68
499.559	2616.43
499.928	2641.06
500.298	2669.76
500.667	2686.71
501.036	2735.52
501.405	2763.77
501.774	2772.36
502.143	2798.57
502.512	2783.2
502.88	2810.55
503.249	2808.06
503.618	2797.67
503.987	2810.77
504.356	2816.65
504.724	2802.86
505.093	2770.77
505.462	2775.97
505.83	2765.13
506.199	2819.36
506.567	2865.01
506.936	2892.35
507.304	2977.77
507.672	2959.24
508.041	2994.95
508.409	2996.76
508.777	2985.23
509.145	2979.58
509.514	2947.95
509.882	2974.39
510.25	2917.89
510.618	2937.55
510.986	2954.95
511.354	2938.45
511.722	2952.01
512.09	2999.7
512.458	2951.11
512.826	3006.93
513.193	3006.93
513.561	3064.55
513.929	3077.89
514.297	3144.32
514.664	3102.97
515.032	3107.71
515.4	3126.7
515.767	3104.1
516.135	3095.74
516.502	3032.91
516.869	3069.3
517.237	3050.54
517.604	3008.51
517.972	3084.44
518.339	3064.78
518.706	3099.35
519.073	3103.87
519.44	3138.9
519.808	3167.6
520.175	3210.09
520.542	3221.84
520.909	3311.55
521.276	3276.98
521.643	3244.89
522.009	3290.53
522.376	3314.94
522.743	3257.99
523.11	3255.28
523.477	3242.17
523.843	3189.97
524.21	3223.87
524.577	3275.85
524.943	3264.32
525.31	3319.91
525.676	3342.06
526.043	3414.15
526.409	3479.68
526.776	3469.97
527.142	3502.05
527.508	3548.61
527.874	3627.7
528.241	3605.1
528.607	3596.74
528.973	3536.63
529.339	3523.3
529.705	3510.19
530.071	3570.98
530.437	3554.93
530.803	3539.57
531.169	3555.84
531.535	3590.19
531.901	3618.44
532.267	3731.43
532.632	3730.52
532.998	3817.3
533.364	3886
533.73	3904.53
534.095	3953.34
534.461	3937.07
534.826	3987.92
535.192	3982.27
535.557	4024.3
535.923	3958.54
536.288	3968.48
536.653	3955.15
537.019	3929.84
537.384	3952.66
537.749	3961.03
538.114	3972.1
538.479	3956.28
538.845	4027.24
539.21	4079.44
539.575	4156.95
539.94	4200.57
540.305	4261.13
540.67	4282.37
541.034	4310.17
541.399	4353.11
541.764	4379.32
542.129	4403.73
542.494	4424.06
542.858	4389.04
543.223	4363.05
543.587	4354.91
543.952	4352.65
544.316	4300.9
544.681	4304.29
545.045	4284.63
545.41	4331.41
545.774	4390.62
546.138	4399.43
546.503	4442.6
546.867	4503.84
547.231	4608.24
547.595	4632.87
547.959	4699.99
548.324	4738.63
548.688	4703.61
549.052	4731.63
549.416	4724.85
549.779	4684.17
550.143	4669.48
550.507	4658.18
550.871	4611.86
551.235	4534.8
551.599	4585.42
551.962	4491.18
552.326	4514.23
552.689	4544.29
553.053	4510.62
553.417	4584.29
553.78	4679.42
554.143	4724.17
554.507	4748.12
554.87	4832.42
555.234	4865.63
555.597	4838.97
555.96	4901.79
556.323	4914.67
556.686	4923.26
557.05	4927.1
557.413	4859.53
557.776	4798.74
558.139	4818.86
558.502	4765.52
558.865	4764.39
559.228	4752.19
559.59	4726.88
559.953	4678.97
560.316	4801.23
560.679	4735.47
561.041	4869.7
561.404	4883.26
561.767	4937.05
562.129	4979.76
562.492	5071.96
562.854	5083.71
563.217	5121.45
563.579	5128.68
563.941	5198.06
564.304	5158.28
564.666	5175.91
565.028	5141.79
565.39	5116.93
565.753	5078.28
566.115	5035.35
566.477	5003.48
566.839	4990.83
567.201	5014.11
567.563	5009.59
567.925	5000.77
568.287	5000.55
568.648	5101.56
569.01	5200.99
569.372	5220.65
569.734	5267.43
570.095	5406.86
570.457	5426.75
570.819	5559.63
571.18	5546.97
571.542	5598.95
571.903	5507.43
572.265	5625.61
572.626	5570.48
572.987	5589.91
573.349	5552.4
573.71	5555.79
574.071	5556.92
574.432	5506.07
574.794	5597.59
575.155	5580.19
575.516	5603.47
575.877	5642.56
576.238	5732.05
576.599	5818.15
576.96	5958.94
577.32	6086.39
577.681	6177.24
578.042	6355.54
578.403	6545.14
578.763	6609.54
579.124	6767.05
579.485	6929.76
579.845	7050.21
580.206	7131.34
580.566	7282.29
580.927	7327.72
581.287	7454.49
581.648	7600.7
582.008	7796.18
582.368	7861.04
582.728	8074.82
583.089	8242.04
583.449	8413.34
583.809	8759.54
584.169	9018.75
584.529	9296.25
584.889	9748.22
585.249	9987.31
585.609	10423.23
585.969	10844.46
586.329	11156.99
586.688	11647.6
587.048	12012.34
587.408	12453.23
587.768	12888.47
588.127	13212.08
588.487	13654.56
588.846	14166.63
589.206	14333.86
589.565	14837.58
589.925	15262.42
590.284	15599.14
590.643	16012.01
591.003	16414.94
591.362	16946.67
591.721	17332.2
592.08	17752.75
592.44	18325.39
592.799	18833.4
593.158	19376.44
593.517	19895.07
593.876	20438.33
594.235	21065.89
594.593	21555.82
594.952	22146.54
595.311	22659.97
595.67	23244.13
596.029	23923.44
596.387	24385.12
596.746	24941.94
597.104	25391.2
597.463	25614.24
597.822	26237.5
598.18	26550.26
598.538	27079.51
598.897	27531.25
599.255	27730.34
599.613	28528.74
599.972	28754.72
600.33	29307.7
600.688	29791.76
601.046	30290.73
601.404	30739.3
601.762	31146.98
602.12	31851.59
602.478	32239.6
602.836	32751.68
603.194	33070.99
603.552	33538.55
603.91	33951.65
604.268	34571.97
604.625	34851.96
604.983	35328.79
605.341	35651.49
605.698	36062.33
606.056	36478.14
606.413	36618.92
606.771	37185.46
607.128	37665.22
607.485	37632.46
607.843	37957.19
608.2	38230.18
608.557	38601.92
608.914	38641.7
609.272	39127.11
609.629	39377.5
609.986	39784.72
610.343	39935.22
610.7	40563
611.057	40732.26
611.414	40841.19
611.771	41315.75
612.127	41682.29
612.484	41996.41
612.841	42349.85
613.198	42349.17
613.554	42754.36
613.911	43044.97
614.267	43320.89
614.624	43316.6
614.98	43513.43
615.337	43942.35
615.693	43995.23
616.05	43922.23
616.406	44381.88
616.762	44201.32
617.118	44348.66
617.475	44453.29
617.831	44523.35
618.187	44671.59
618.543	44863.68
618.899	45102.54
619.255	45149.55
619.611	45246.27
619.967	45528.07
620.323	45754.96
620.678	45743.2
621.034	45842.86
621.39	46039.24
621.746	46081.27
622.101	46634.03
622.457	46592
622.812	46633.8
623.168	46817.98
623.523	46893.23
623.879	47201.02
624.234	46867.47
624.589	47057.07
624.945	47069.5
625.3	47137.97
625.655	47107.91
626.01	47118.76
626.365	47193.56
626.72	47143.17
627.075	47015.71
627.43	47125.09
627.785	46906.79
628.14	47045.09
628.495	47210.51
628.85	47105.65
629.205	47026.33
629.559	47519.88
629.914	47251.19
630.269	47424.52
630.623	47278.76
630.978	47526.66
631.332	47635.81
631.687	47901.79
632.041	47761.46
632.396	47940.89
632.75	47736.37
633.104	47759.2
633.459	47740.67
633.813	47616.6
634.167	47745.41
634.521	47592.19
634.875	47730.95
635.229	47672.42
635.583	47367.57
635.937	47396.49
636.291	47416.83
636.645	47169.16
636.999	47082.15
637.352	47172.09
637.706	46951.76
638.06	47161.02
638.413	47103.85
638.767	46995.83
639.121	46995.83
639.474	46828.6
639.828	47001.25
640.181	47005.54
640.534	47142.49
640.888	47221.58
641.241	47074.69
641.594	47100.91
641.947	47211.41
642.301	47153.11
642.654	47130.74
643.007	47291.41
643.36	47242.37
643.713	47147.46
644.066	47309.04
644.419	47009.61
644.771	46760.8
645.124	46293.47
645.477	46199.24
645.83	46029.07
646.182	45681.74
646.535	45445.58
646.888	45480.39
647.24	45299.83
647.593	45522.19
647.945	45354.74
648.298	45223.67
648.65	45108.87
649.002	44946.84
649.355	45093.73
649.707	45148.19
650.059	45351.58
650.411	45862.52
650.763	45905.01
651.115	46488.27
651.467	46258.9
651.819	46220.48
652.171	46354.71
652.523	46225.23
652.875	46226.36
653.227	46161.27
653.578	46485.33
653.93	46352.23
654.282	46095.96
654.633	45944.33
654.985	46005.34
655.337	45949.98
655.688	46061.84
656.039	46007.38
656.391	45608.74
656.742	45611.46
657.094	45644.9
657.445	45758.57
657.796	45479.03
658.147	45467.96
658.498	45391.8
658.849	45345.02
659.2	45375.76
659.551	45325.59
659.902	45444.68
660.253	45363.33
660.604	45537.56
660.955	45316.55
661.306	45771.45
661.656	45540.5
662.007	45603.32
662.358	45597.67
662.708	45658.46
663.059	45679.93
663.409	45453.49
663.76	45828.4
664.11	45815.52
664.461	45735.29
664.811	45781.62
665.161	45634.96
665.511	45482.42
665.862	45439.71
666.212	45626.37
666.562	45497.11
666.912	45353.16
667.262	45227.29
667.612	45230
667.962	45065.03
668.312	44972.15
668.662	45125.59
669.011	45011.47
669.361	44906.84
669.711	44910.91
670.06	44820.06
670.41	44601.54
670.76	44787.07
671.109	44959.5
671.459	44906.62
671.808	44882.66
672.157	45026.16
672.507	44933.96
672.856	44947.52
673.205	45010.79
673.554	45152.26
673.904	44948.2
674.253	45267.51
674.602	45106.16
674.951	44580.75
675.3	44413.97
675.649	45151.81
675.998	44985.03
676.346	44799.05
676.695	44966.5
677.044	44670.01
677.393	44728.54
677.741	44694.42
678.09	44457.14
678.438	44293.75
678.787	44396.12
679.135	44256.24
679.484	43955.45
679.832	44173.75
680.181	43865.97
680.529	43903.93
680.877	43869.81
681.225	43728.79
681.573	44033.19
681.922	43827.77
682.27	43720.66
682.618	43820.99
682.966	43805.4
683.314	43825.06
683.661	43865.06
684.009	43653.77
684.357	43755.01
684.705	43806.98
685.053	43712.52
685.4	43674.56
685.748	43486.09
686.095	43551.17
686.443	43475.69
686.79	43381.01
687.138	43418.97
687.485	43363.15
687.832	43155.48
688.18	43169.71
688.527	42917.29
688.874	42906.44
689.221	42618.77
689.568	42583.06
689.915	42268.04
690.262	42395.72
690.609	42092.45
690.956	41965.22
691.303	41974.04
691.65	41655.85
691.997	41599.13
692.344	41454.28
692.69	41385.8
693.037	41471.23
693.383	41118.24
693.73	41379.48
694.077	41068.07
694.423	40995.53
694.769	41014.97
695.116	41064.46
695.462	41181.52
695.808	40907.85
696.155	41029.88
696.501	40832.6
696.847	40694.75
697.193	40518.71
697.539	40755.54
697.885	40496.56
698.231	40358.71
698.577	40523
698.923	40209.34
699.269	40096.8
699.614	39957.14
699.96	39779.07
700.306	39813.19
700.651	39548.56
700.997	39412.75
701.342	39247.1
701.688	39187.44
702.033	38943.16
702.379	38979.31
702.724	38763.5
703.069	38732.54
703.415	38348.6
703.76	38318.99
704.105	38293.91
704.45	38247.58
704.795	38016.85
705.14	37844.43
705.485	37919
705.83	37788.16
706.175	37837.2
706.52	37711.1
706.865	37809.63
707.209	37698.67
707.554	37509.75
707.899	37742.28
708.243	37599.69
708.588	37527.15
708.932	37412.8
709.277	37419.36
709.621	37402.18
709.966	37329.19
710.31	37309.53
710.654	36948.86
710.998	37001.96
711.342	37081.96
711.687	36874.51
712.031	36801.29
712.375	36512.94
712.719	36558.59
713.063	36464.8
713.407	36495.54
713.75	36269.55
714.094	36340.97
714.438	35973.74
714.782	35943.91
715.125	35740.08
715.469	35750.7
715.812	35565.39
716.156	35296.25
716.499	35402.23
716.843	35421.67
717.186	35057.16
717.53	35394.1
717.873	35352.06
718.216	35300.09
718.559	35131.05
718.902	34912.08
719.246	35039.98
719.589	35027.1
719.932	34858.97
720.275	35038.85
720.617	34879.08
720.96	34895.81
721.303	35071.17
721.646	35085.86
721.989	34861.46
722.331	34932.87
722.674	34823.94
723.016	34819.88
723.359	34759.31
723.701	34719.31
724.044	34496.04
724.386	34392.09
724.729	34464.86
725.071	34276.39
725.413	34207.69
725.755	34263.51
726.097	33914.36
726.439	33854.03
726.782	33663.75
727.124	33754.37
727.465	33674.59
727.807	33410.19
728.149	33284.55
728.491	33190.54
728.833	33186.92
729.175	33059.47
729.516	33105.8
729.858	33023.09
730.199	33063.09
730.541	33007.27
730.882	32961.17
731.224	33128.62
731.565	32768.86
731.906	32880.94
732.248	32874.39
732.589	32827.84
732.93	32773.6
733.271	32784.22
733.612	32846.82
733.953	32949.19
734.294	32788.97
734.635	32803.43
734.976	32934.05
735.317	32775.41
735.658	32787.39
735.999	32601.4
736.339	32691.34
736.68	32791.68
737.021	32594.85
737.361	32373.39
737.702	32462.65
738.042	32402.54
738.383	32379.49
738.723	32275.99
739.063	32214.75
739.404	32172.26
739.744	31910.57
740.084	31927.75
740.424	31771.82
740.764	31779.5
741.104	31826.73
741.444	31580.64
741.784	31421.09
742.124	31565.05
742.464	31401.66
742.804	31296.58
743.143	31334.32
743.483	31185.85
743.823	31149.69
744.162	31227.2
744.502	31012.97
744.841	31021.56
745.181	31229.24
745.52	31106.98
745.86	31111.5
746.199	31028.11
746.538	31069.92
746.877	31187.43
747.216	31200.08
747.556	30922.35
747.895	31128.45
748.234	30861.34
748.573	30921.22
748.911	30950.82
749.25	30990.15
749.589	30738.4
749.928	30903.82
750.267	30794.67
750.605	30691.17
750.944	30674.45
751.283	30530.95
751.621	30506.09
751.96	30243.27
752.298	30352.2
752.636	30227.45
752.975	30024.75
753.313	29911.76
753.651	29966.44
753.989	29769.39
754.327	29622.95
754.666	29522.84
755.004	29454.14
755.342	29440.58
755.679	29327.14
756.017	29184.32
756.355	29052.12
756.693	28976.64
757.031	29078.56
757.368	28766.02
757.706	28921.73
758.044	28726.48
758.381	28881.05
758.719	28763.99
759.056	28866.59
759.394	28562.19
759.731	28505.92
760.068	28509.98
760.405	28447.61
760.743	28518.57
761.08	28585.46
761.417	28456.88
761.754	28397.22
762.091	28256.43
762.428	28209.43
762.765	28251.46
763.102	28173.04
763.438	28101.18
763.775	27900.74
764.112	27943.67
764.449	27952.94
764.785	27796.56
765.122	27684.7
765.458	27441.76
765.795	27376.46
766.131	27404.25
766.467	27208.1
766.804	27109.8
767.14	26954.55
767.476	26930.14
767.812	26826.87
768.148	26802.23
768.485	26654.44
768.821	26344.17
769.157	26249.71
769.492	26158.18
769.828	26158.86
770.164	25813.11
770.5	25851.52
770.836	25793.22
771.171	25572.89
771.507	25577.18
771.842	25471.19
772.178	25404.53
772.513	25344.19
772.849	25278.21
773.184	25263.97
773.519	25111.66
773.855	25109.17
774.19	25101.94
774.525	24998.44
774.86	25040.02
775.195	25016.97
775.53	24816.75
775.865	24724.55
776.2	24684.32
776.535	24482.97
776.87	24513.93
777.205	24603.87
777.539	24279.36
777.874	24289.08
778.209	24326.37
778.543	24227.16
778.878	24017.67
779.212	23978.58
779.547	23810.45
779.881	23902.2
780.215	23769.54
780.55	23726.16
780.884	23494.07
781.218	23444.58
781.552	23374.75
781.886	23234.19
782.22	23020.19
782.554	23035.55
782.888	22728.22
783.222	22594.43
783.556	22520.31
783.889	22450.48
784.223	22398.28
784.557	22189.02
784.89	22280.09
785.224	22094.33
785.557	22129.36
785.891	21888.24
786.224	21858.86
786.558	21907.67
786.891	21646.66
787.224	21542.03
787.557	21505.88
787.891	21575.03
788.224	21486.67
788.557	21530.51
788.89	21403.73
789.223	21424.3
789.556	21145.88
789.888	21317.86
790.221	21222.49
790.554	21077.19
790.887	21132.33
791.219	21044.87
791.552	21077.19
791.884	20996.74
792.217	20951.99
792.549	20813.46
792.882	20747.7
793.214	20603.53
793.546	20646.01
793.879	20547.71
794.211	20411.21
794.543	20447.6
794.875	20337.32
795.207	20493.47
795.539	20231.78
795.871	20242.18
796.203	20067.49
796.535	19924.22
796.867	19911.11
797.198	19822.53
797.53	19742.76
797.862	19509.77
798.193	19628.86
798.525	19442.43
798.856	19467.74
799.188	19186.61
799.519	19069.78
799.85	19022.78
800.182	19066.84
800.513	19038.82
800.844	18838.83
801.175	18835.21
801.506	18903.46
801.837	18663.24
802.168	18786.85
802.499	18617.59
802.83	18470.47
803.161	18420.31
803.491	18500.3
803.822	18472.73
804.153	18356.13
804.483	18225.74
804.814	18216.02
805.145	18256.92
805.475	18330.37
805.805	18202.46
806.136	18154.78
806.466	18230.03
806.796	18081.33
807.126	18128.34
807.457	18046.76
807.787	18007.66
808.117	17968.12
808.447	17942.13
808.777	18023.93
809.107	17907.78
809.436	17837.05
809.766	17838.18
810.096	17815.12
810.426	17743.04
810.755	17698.07
811.085	17569.03
811.414	17577.16
811.744	17505.08
812.073	17347.11
812.403	17341.46
812.732	17209.94
813.061	17214.69
813.39	17142.37
813.719	16999.1
814.049	17086.78
814.378	17049.04
814.707	16852.89
815.036	16846.34
815.365	16741.25
815.693	16641.82
816.022	16637.98
816.351	16555.95
816.68	16415.84
817.008	16522.73
817.337	16281.83
817.665	16342.85
817.994	16316.18
818.322	16265.79
818.651	16213.13
818.979	16143.53
819.307	16268.27
819.636	16143.76
819.964	16070.31
820.292	16113.25
820.62	16145.56
820.948	16177.2
821.276	16167.48
821.604	16172.68
821.932	16183.08
822.259	16161.61
822.587	16198.22
822.915	16122.74
823.243	16257.43
823.57	16216.3
823.898	16259.23
824.225	16114.6
824.553	16158.67
824.88	16124.32
825.207	16235.28
825.535	16229.63
825.862	16285
826.189	16179.24
826.516	16240.48
826.843	16323.19
827.17	16362.28
827.497	16212.68
827.824	16208.61
828.151	16301.94
828.478	16203.19
828.805	16273.24
829.131	16143.98
829.458	16137.2
829.785	16058.33
830.111	16050.65
830.438	16129.52
830.764	16086.58
831.09	15998
831.417	15864.67
831.743	16022.63
832.069	15910.99
832.395	15890.43
832.722	15891.79
833.048	15838.23
833.374	15839.36
833.7	15734.95
834.026	15807.49
834.351	15754.84
834.677	15666.93
835.003	15782.64
835.329	15722.52
835.654	15764.33
835.98	15598.01
836.306	15613.15
836.631	15576.31
836.956	15561.62
837.282	15656.54
837.607	15540.61
837.932	15635.75
838.258	15471.23
838.583	15596.65
838.908	15492.93
839.233	15508.29
839.558	15469.65
839.883	15514.17
840.208	15456.09
840.533	15508.07
840.858	15450.67
841.182	15450.22
841.507	15474.62
841.832	15412.93
842.156	15392.82
842.481	15451.35
842.805	15313.04
843.13	15403.44
843.454	15283.89
843.778	15223.78
844.103	15208.19
844.427	15229.2
844.751	15198.92
845.075	15147.85
845.399	15130.68
845.723	15037.57
846.047	14987.85
846.371	14818.82
846.695	14872.6
847.019	14696.34
847.343	14614.31
847.666	14632.16
847.99	14552.39
848.313	14433.29
848.637	14281.88
848.96	14248.66
849.284	14209.12
849.607	14173.64
849.931	14082.12
850.254	13862.23
850.577	13870.82
850.9	13805.29
851.223	13771.16
851.546	13694.78
851.869	13556.93
852.192	13682.35
852.515	13502.24
852.838	13496.37
853.161	13496.37
853.483	13399.65
853.806	13403.26
854.129	13375.24
854.451	13289.59
854.774	13259.99
855.096	13208.24
855.419	13222.25
855.741	13204.4
856.063	13117.62
856.385	13086.44
856.708	13067.23
857.03	13023.84
857.352	13087.11
857.674	13021.8
857.996	13074.46
858.318	12885.54
858.64	12970.51
858.961	12879.21
859.283	12862.94
859.605	12775.03
859.926	12897.97
860.248	12762.6
860.57	12764.64
860.891	12802.6
861.212	12696.84
861.534	12634.24
861.855	12649.84
862.176	12665.88
862.498	12614.13
862.819	12637.18
863.14	12588.14
863.461	12458.43
863.782	12508.15
864.103	12483.74
864.424	12387.47
864.745	12467.47
865.065	12373.69
865.386	12283.29
865.707	12277.64
866.027	12267.47
866.348	12188.38
866.668	12148.38
866.989	12120.36
867.309	11958.33
867.63	12027.93
867.95	12056.86
868.27	11971.66
868.59	11992.9
868.91	11989.06
869.23	11879.46
869.55	11808.96
869.87	11876.07
870.19	11804.21
870.51	11904.77
870.83	11829.29
871.15	11740.93
871.469	11806.47
871.789	11732.8
872.109	11769.63
872.428	11671.56
872.748	11669.98
873.067	11695.74
873.386	11704.33
873.706	11632.91
874.025	11631.33
874.344	11613.93
874.663	11606.93
874.982	11589.3
875.301	11636.76
875.62	11594.27
875.939	11512.69
876.258	11641.05
876.577	11528.51
876.896	11557.89
877.214	11523.31
877.533	11562.41
877.852	11545.01
878.17	11566.93
878.489	11531.9
878.807	11545.01
879.125	11526.93
879.444	11551.79
879.762	11476.99
880.08	11471.34
880.398	11448.74
880.716	11404.67
881.034	11338.91
881.352	11298.91
881.67	11284.68
881.988	11341.85
882.306	11329.87
882.624	11298.46
882.941	11233.15
883.259	11193.83
883.577	11102.98
883.894	11118.58
884.212	11091.69
884.529	11053.95
884.846	10957.9
885.164	10976.89
885.481	10903.67
885.798	10906.61
886.115	10899.6
886.432	10800.39
886.75	10733.28
887.067	10802.65
887.383	10654.86
887.7	10732.6
888.017	10631.81
888.334	10663.22
888.651	10509.1
888.967	10528.08
889.284	10505.94
889.6	10511.36
889.917	10383.46
890.233	10330.35
890.55	10354.53
890.866	10425.49
891.182	10352.04
891.498	10318.37
891.815	10218.04
892.131	10175.78
892.447	10224.82
892.763	10212.16
893.079	10272.05
893.395	10165.61
893.71	10108.66
894.026	10175.1
894.342	10095.33
894.657	10006.52
894.973	10045.61
895.289	10044.03
895.604	10064.82
895.92	9929.23
896.235	9990.92
896.55	9918.16
896.865	9920.42
897.181	9902.11
897.496	9868.89
897.811	9935.33
898.126	9897.82
898.441	9790.7
898.756	9791.15
899.071	9726.98
899.386	9778.95
899.7	9644.27
900.015	9641.55
900.33	9599.07
900.644	9638.39
900.959	9599.75
901.273	9514.33
901.588	9529.47
901.902	9370.6
902.216	9448.79
902.531	9377.61
902.845	9277.95
903.159	9224.16
903.473	9218.29
903.787	9112.08
904.101	9112.53
904.415	9112.75
904.729	9087.9
905.042	9028.46
905.356	9007.45
905.67	8921.12
905.984	8942.36
906.297	8909.37
906.611	8822.14
906.924	8727.68
907.237	8701.47
907.551	8696.04
907.864	8671.86
908.177	8665.08
908.491	8592.54
908.804	8554.13
909.117	8455.6
909.43	8413.56
909.743	8379.21
910.056	8336.73
910.368	8282.27
910.681	8293.34
910.994	8305.54
911.307	8274.13
911.619	8232.55
911.932	8265.32
912.244	8124.76
912.557	8136.96
912.869	8089.73
913.181	8092.22
913.494	8030.3
913.806	8050.18
914.118	7975.61
914.43	7868.95
914.742	7964.54
915.054	7880.92
915.366	7880.24
915.678	7842.51
915.99	7763.41
916.302	7739.23
916.613	7750.98
916.925	7748.27
917.236	7727.71
917.548	7745.56
917.859	7692.68
918.171	7658.33
918.482	7619.23
918.794	7614.94
919.105	7567.26
919.416	7515.73
919.727	7539.69
920.038	7503.76
920.349	7459.46
920.66	7420.37
920.971	7387.15
921.282	7384.89
921.593	7330.88
921.903	7240.94
922.214	7237.55
922.525	7202.3
922.835	7148.96
923.146	7105.58
923.456	7141.51
923.767	7074.16
924.077	7013.6
924.387	6960.49
924.697	7038.23
925.008	6953.49
925.318	6913.72
925.628	6876.43
925.938	6779.48
926.248	6729.54
926.558	6689.09
926.867	6670.11
927.177	6687.73
927.487	6640.96
927.796	6589.88
928.106	6616.55
928.416	6522.54
928.725	6542.2
929.034	6418.14
929.344	6406.16
929.653	6433.73
929.962	6377.01
930.271	6349.21
930.581	6282.77
930.89	6276.9
931.199	6221.31
931.508	6265.6
931.817	6195.32
932.125	6228.08
932.434	6144.7
932.743	6162.78
933.051	6069.44
933.36	6139.05
933.669	6038.49
933.977	6051.82
934.286	6036.9
934.594	6032.38
934.902	5971.37
935.21	5943.57
935.519	5966.85
935.827	5927.75
936.135	5860.64
936.443	5835.55
936.751	5831.94
937.059	5806.18
937.367	5817.02
937.674	5829
937.982	5829.68
938.29	5747.42
938.597	5730.47
938.905	5641.66
939.213	5669.91
939.52	5694.09
939.827	5714.43
940.135	5667.65
940.442	5631.72
940.749	5621.77
941.056	5579.29
941.363	5591.72
941.67	5537.71
941.977	5460.65
942.284	5502
942.591	5465.17
942.898	5430.82
943.205	5450.7
943.511	5400.76
943.818	5415.45
944.125	5352.4
944.431	5284.83
944.738	5346.07
945.044	5286.87
945.35	5269.24
945.657	5229.02
945.963	5181.78
946.269	5156.02
946.575	5163.93
946.881	5078.51
947.187	5100.66
947.493	5089.81
947.799	4997.38
948.105	5005.07
948.41	4944.73
948.716	4971.17
949.022	4912.41
949.327	4923.71
949.633	4812.75
949.938	4844.62
950.244	4823.83
950.549	4794.22
950.854	4724.85
951.16	4741.12
951.465	4732.08
951.77	4693.44
952.075	4687.33
952.38	4633.78
952.685	4617.28
952.99	4619.54
953.294	4589.94
953.599	4535.02
953.904	4554.91
954.209	4509.03
954.513	4511.52
954.818	4514.68
955.122	4491.86
955.426	4448.92
955.731	4481.92
956.035	4398.08
956.339	4409.38
956.643	4389.72
956.948	4343.16
957.252	4363.5
957.556	4402.82
957.86	4360.34
958.163	4356.04
958.467	4318.98
958.771	4230.62
959.075	4276.5
959.378	4241.7
959.682	4255.48
959.985	4193.56
960.289	4228.82
960.592	4168.7
960.896	4178.65
961.199	4145.65
961.502	4163.73
961.805	4105.88
962.108	4116.95
962.411	4082.6
962.714	4097.52
963.017	4099.78
963.32	4106.33
963.623	4036.5
963.926	4012.55
964.228	4011.42
964.531	4008.26
964.833	3982.72
965.136	3973.68
965.438	3943.63
965.741	3939.56
966.043	3893
966.345	3875.83
966.648	3854.81
966.95	3871.99
967.252	3818.88
967.554	3813.01
967.856	3780.01
968.158	3807.13
968.46	3747.47
968.761	3735.95
969.063	3727.81
969.365	3705.67
969.666	3681.49
969.968	3659.11
970.269	3626.35
970.571	3629.96
970.872	3594.71
971.174	3553.35
971.475	3601.04
971.776	3554.26
972.077	3527.36
972.378	3525.78
972.679	3505.9
972.98	3489.85
973.281	3474.71
973.582	3435.84
973.883	3385.9
974.183	3406.01
974.484	3385.22
974.785	3366.47
975.085	3336.64
975.386	3326.92
975.686	3327.82
975.986	3330.99
976.287	3338.22
976.587	3272.91
976.887	3259.58
977.187	3235.85
977.487	3242.85
977.787	3197.2
978.087	3197.88
978.387	3196.3
978.687	3199.92
978.987	3141.61
979.286	3127.83
979.586	3153.59
979.885	3154.04
980.185	3104.33
980.484	3093.03
980.784	3136.41
981.083	3071.33
981.382	3138.67
981.682	3058.9
981.981	3035.63
982.28	3050.77
982.579	3010.09
982.878	3028.39
983.177	3024.1
983.475	3006.7
983.774	2971.22
984.073	2980.26
984.372	2941.17
984.67	2968.74
984.969	2948.85
985.267	2942.97
985.566	2921.05
985.864	2913.37
986.162	2886.7
986.461	2869.08
986.759	2866.59
987.057	2846.7
987.355	2820.94
987.653	2834.95
987.951	2806.93
988.249	2822.98
988.547	2780.27
988.844	2797.67
989.142	2799.25
989.44	2757.22
989.737	2752.7
990.035	2751.57
990.332	2714.96
990.63	2727.84
990.927	2687.61
991.224	2723.54
991.521	2687.84
991.819	2673.6
992.116	2640.83
992.413	2633.15
992.71	2616.43
993.006	2583.21
993.303	2606.94
993.6	2584.34
993.897	2559.48
994.193	2572.81
994.49	2519.93
994.787	2511.57
995.083	2500.05
995.379	2469.54
995.676	2440.61
995.972	2504.57
996.268	2419.82
996.565	2435.64
996.861	2449.2
997.157	2407.39
997.453	2375.98
997.749	2394.74
998.044	2357.9
998.34	2356.32
998.636	2346.38
998.932	2308.87
999.227	2297.34
999.523	2314.52
999.818	2295.31
1000.114	2277.23
1000.409	2284.23
1000.704	2242.2
1001	2240.85
1001.295	2236.1
1001.59	2211.69
1001.885	2207.4
1002.18	2171.47
1002.475	2181.86
1002.77	2212.15
1003.065	2181.86
1003.359	2162.65
1003.654	2131.47
1003.949	2118.59
1004.243	2113.39
1004.538	2110.23
1004.832	2112.49
1005.127	2067.52
1005.421	2034.75
1005.715	2079.49
1006.009	2075.88
1006.304	2053.96
1006.598	2049.21
1006.892	2008.76
1007.186	2016.22
1007.48	1998.59
1007.773	1997.69
1008.067	1980.06
1008.361	1990.23
1008.655	1968.99
1008.948	1953.17
1009.242	1944.81
1009.535	1936.45
1009.829	1958.82
1010.122	1923.57
1010.415	1911.59
1010.708	1874.53
1011.001	1883.11
1011.295	1884.7
1011.588	1864.81
1011.881	1860.52
1012.173	1826.62
1012.466	1830.01
1012.759	1809.22
1013.052	1818.03
1013.344	1817.35
1013.637	1789.78
1013.93	1788.2
1014.222	1754.53
1014.514	1757.02
1014.807	1740.52
1015.099	1735.1
1015.391	1745.94
1015.683	1737.81
1015.976	1667.98
1016.268	1735.1
1016.56	1693.29
1016.851	1689.22
1017.143	1661.88
1017.435	1671.37
1017.727	1654.65
1018.018	1601.77
1018.31	1634.53
1018.602	1590.47
1018.893	1573.52
1019.185	1578.26
1019.476	1585.72
1019.767	1556.34
1020.058	1569.45
1020.35	1545.04
1020.641	1532.39
1020.932	1505.95
1021.223	1497.81
1021.514	1495.78
1021.804	1454.88
1022.095	1453.75
1022.386	1474.31
1022.677	1468.66
1022.967	1421.88
1023.258	1448.32
1023.548	1420.3
1023.839	1389.34
1024.129	1393.86
1024.419	1383.24
1024.709	1386.18
1025	1362.9
1025.29	1336.46
1025.58	1338.72
1025.87	1354.09
1026.16	1343.92
1026.449	1309.8
1026.739	1330.81
1027.029	1316.8
1027.319	1298.95
1027.608	1270.48
1027.898	1279.29
1028.187	1258.5
1028.477	1261.89
1028.766	1271.83
1029.055	1256.46
1029.344	1231.61
1029.634	1251.49
1029.923	1217.82
1030.212	1241.32
1030.501	1218.5
1030.79	1189.8
1031.078	1204.26
1031.367	1183.7
1031.656	1190.03
1031.945	1181.21
1032.233	1171.49
1032.522	1163.81
1032.81	1176.69
1033.099	1138.05
1033.387	1131.04
1033.675	1106.19
1033.963	1118.16
1034.251	1144.15
1034.54	1118.61
1034.828	1103.02
1035.116	1091.95
1035.403	1085.17
1035.691	1090.37
1035.979	1079.52
1036.267	1075.68
1036.554	1067.54
1036.842	1056.02
1037.129	1058.28
1037.417	1024.38
1037.704	1030.26
1037.992	1025.06
1038.279	1032.97
1038.566	1029.8
1038.853	1029.8
1039.14	1029.8
