Data from red_shiny_book_FLMS001491_00012.txt Node
Date: Wed Feb 08 15:23:42 GMT 2017
User: dcchb
Spectrometer: FLMS00149
Trigger mode: 0
Integration Time (sec): 2.000000E-2
Scans to average: 10
Electric dark correction enabled: true
Nonlinearity correction enabled: false
Boxcar width: 0
XAxis mode: Wavelengths
Number of Pixels in Spectrum: 2048
>>>>>Begin Spectral Data<<<<<
341.393	-15.17
341.776	-15.17
342.16	-15.17
342.543	-62.85
342.927	-55.17
343.31	-54.72
343.693	-62.85
344.077	-70.53
344.46	-63.53
344.843	-70.99
345.226	-57.65
345.61	-42.06
345.993	-11.78
346.376	-0.93
346.759	28.45
347.142	52.4
347.525	37.03
347.908	55.79
348.291	66.41
348.674	87.65
349.057	107.31
349.44	116.58
349.823	122.45
350.206	153.19
350.588	202.23
350.971	224.6
351.354	250.59
351.737	257.14
352.119	274.99
352.502	275.44
352.884	293.75
353.267	320.64
353.65	326.29
354.032	305.05
354.414	319.74
354.797	338.04
355.179	316.12
355.562	325.16
355.944	359.06
356.326	348.44
356.709	354.54
357.091	336.01
357.473	361.77
357.855	361.77
358.238	365.84
358.62	340.3
359.002	340.3
359.384	361.77
359.766	357.48
360.148	367.87
360.53	347.99
360.912	346.4
361.294	358.15
361.676	328.78
362.057	358.38
362.439	335.56
362.821	322.45
363.203	347.76
363.584	332.62
363.966	326.52
364.348	356.57
364.729	344.37
365.111	340.53
365.493	323.81
365.874	340.75
366.256	337.36
366.637	351.83
367.019	337.59
367.4	335.78
367.781	340.08
368.163	345.5
368.544	344.6
368.925	332.62
369.306	355.22
369.688	336.23
370.069	323.13
370.45	337.14
370.831	342.34
371.212	331.94
371.593	342.56
371.974	325.84
372.355	338.72
372.736	363.8
373.117	341.88
373.498	336.91
373.879	343.47
374.26	330.13
374.641	345.05
375.021	347.76
375.402	348.21
375.783	338.04
376.163	353.63
376.544	344.37
376.925	359.28
377.305	352.05
377.686	353.86
378.066	331.71
378.447	346.4
378.827	364.48
379.208	368.32
379.588	347.53
379.968	360.87
380.349	352.96
380.729	358.61
381.109	369.91
381.489	364.71
381.87	369.91
382.25	354.09
382.63	374.43
383.01	386.18
383.39	382.33
383.77	379.4
384.15	378.72
384.53	382.11
384.91	387.31
385.29	396.12
385.67	395.89
386.049	387.98
386.429	388.44
386.809	393.63
387.189	396.35
387.568	382.11
387.948	404.93
388.328	390.24
388.707	402
389.087	406.29
389.466	401.09
389.846	389.34
390.225	403.8
390.605	412.84
390.984	413.52
391.363	402.9
391.743	417.59
392.122	418.72
392.501	409
392.881	432.5
393.26	430.24
393.639	418.94
394.018	405.84
394.397	414.88
394.776	441.32
395.155	441.32
395.534	434.76
395.913	408.77
396.292	437.25
396.671	455.1
397.05	453.97
397.429	437.7
397.808	426.85
398.186	431.82
398.565	412.62
398.944	443.58
399.323	456
399.701	463.91
400.08	467.76
400.458	473.63
400.837	441.54
401.215	455.33
401.594	444.71
401.972	466.63
402.351	448.1
402.729	467.53
403.107	498.49
403.486	499.85
403.864	475.67
404.242	460.75
404.62	472.05
404.999	467.08
405.377	471.6
405.755	484.25
406.133	493.07
406.511	481.99
406.889	502.56
407.267	497.36
407.645	509.79
408.023	517.47
408.401	501.2
408.779	527.64
409.156	550.47
409.534	529.22
409.912	522.67
410.29	536
410.667	534.87
411.045	557.25
411.422	545.95
411.8	566.74
412.178	536.68
412.555	578.49
412.933	564.02
413.31	567.87
413.687	579.62
414.065	579.62
414.442	584.36
414.819	610.35
415.197	603.8
415.574	614.19
415.951	588.43
416.328	594.98
416.705	591.14
417.082	612.84
417.46	613.97
417.837	623.01
418.214	631.14
418.591	637.47
418.967	632.72
419.344	623.23
419.721	660.97
420.098	650.8
420.475	651.25
420.852	654.19
421.228	655.1
421.605	664.59
421.982	664.36
422.358	693.29
422.735	696.45
423.111	687.64
423.488	711.37
423.864	724.7
424.241	702.33
424.617	684.7
424.994	719.27
425.37	698.48
425.746	721.53
426.123	710.01
426.499	735.77
426.875	768.54
427.251	743.46
427.627	782.78
428.003	795.21
428.379	804.24
428.756	792.49
429.132	807.86
429.507	787.3
429.883	764.7
430.259	815.77
430.635	781.42
431.011	794.08
431.387	836.11
431.763	844.02
432.138	832.94
432.514	858.71
432.89	872.04
433.265	863.9
433.641	843.79
434.016	849.67
434.392	855.54
434.767	868.65
435.143	893.73
435.518	877.01
435.894	928.99
436.269	894.64
436.644	926.95
437.02	946.39
437.395	937.12
437.77	948.2
438.145	951.36
438.52	930.12
438.895	948.87
439.271	927.63
439.646	937.57
440.021	974.86
440.395	966.05
440.77	993.17
441.145	1003.11
441.52	1022.32
441.895	1033.39
442.27	1030
442.645	1009.66
443.019	1003.11
443.394	994.3
443.769	1004.69
444.143	994.75
444.518	1029.32
444.892	1030.91
445.267	1066.61
445.641	1047.85
446.016	1074.97
446.39	1065.93
446.764	1095.08
447.139	1058.47
447.513	1069.77
447.887	1052.15
448.262	1059.83
448.636	1040.17
449.01	1083.56
449.384	1092.37
449.758	1098.25
450.132	1114.74
450.506	1106.38
450.88	1168.98
451.254	1140.96
451.628	1121.07
452.002	1140.96
452.376	1150.22
452.75	1129.43
453.123	1135.54
453.497	1106.61
453.871	1124.69
454.244	1159.26
454.618	1195.87
454.992	1180.05
455.365	1214.86
455.739	1227.06
456.112	1239.94
456.486	1214.63
456.859	1258.7
457.232	1246.94
457.606	1206.95
457.979	1219.83
458.352	1202.88
458.725	1246.72
459.099	1217.11
459.472	1253.5
459.845	1298.92
460.218	1300.95
460.591	1330.11
460.964	1362.2
461.337	1369.65
461.71	1368.52
462.083	1374.85
462.456	1373.95
462.829	1335.53
463.201	1350.9
463.574	1331.24
463.947	1383.21
464.32	1376.66
464.692	1418.69
465.065	1417.11
465.438	1459.37
465.81	1486.71
466.183	1505.24
466.555	1525.36
466.928	1531.91
467.3	1490.33
467.672	1461.85
468.045	1510.89
468.417	1483.32
468.789	1477
469.161	1489.42
469.534	1496.2
469.906	1589.31
470.278	1604.22
470.65	1623.88
471.022	1669.76
471.394	1716.31
471.766	1710.66
472.138	1726.48
472.51	1750.66
472.882	1716.54
473.253	1717.21
473.625	1703.2
473.997	1714.73
474.369	1731.23
474.74	1749.3
475.112	1795.4
475.484	1832.92
475.855	1905.01
476.227	1949.3
476.598	2024.33
476.97	1999.47
477.341	2081.72
477.713	2048.28
478.084	2062.74
478.455	2051.22
478.827	2028.39
479.198	2044.44
479.569	2026.81
479.94	2117.66
480.311	2109.75
480.682	2167.82
481.053	2224.77
481.424	2321.72
481.795	2346.35
482.166	2448.49
482.537	2435.39
482.908	2488.27
483.279	2486.23
483.65	2495.95
484.021	2525.56
484.391	2493.92
484.762	2451.88
485.133	2469.74
485.503	2497.76
485.874	2561.94
486.244	2594.48
486.615	2686.91
486.985	2775.72
487.356	2885.77
487.726	2962.38
488.097	2991.08
488.467	3012.77
488.837	3028.37
489.207	3060
489.578	3029.72
489.948	3032.43
490.318	3007.12
490.688	3024.07
491.058	3021.14
491.428	3063.85
491.798	3103.39
492.168	3157.85
492.538	3259.32
492.908	3360.34
493.278	3450.28
493.648	3504.96
494.017	3564.17
494.387	3558.07
494.757	3586.32
495.126	3577.5
495.496	3558.75
495.866	3454.8
496.235	3494.57
496.605	3440.56
496.974	3459.99
497.344	3483.72
497.713	3538.41
498.082	3599.2
498.452	3703.15
498.821	3793.32
499.19	3873.09
499.559	3960.55
499.928	3959.64
500.298	4018.4
500.667	3990.38
501.036	3939.76
501.405	3913.32
501.774	3881.9
502.143	3801.23
502.512	3735.01
502.88	3780.89
503.249	3753.55
503.618	3785.63
503.987	3806.2
504.356	3938.4
504.724	4046.87
505.093	4095.68
505.462	4202.57
505.83	4231.27
506.199	4265.4
506.567	4343.36
506.936	4263.59
507.304	4289.35
507.672	4187.88
508.041	4108.11
508.409	4062.69
508.777	4015.01
509.145	4015.01
509.514	3999.41
509.882	4005.06
510.25	4096.14
510.618	4167.55
510.986	4250.26
511.354	4390.82
511.722	4468.78
512.09	4509.46
512.458	4497.71
512.826	4553.3
513.193	4564.37
513.561	4504.26
513.929	4485.5
514.297	4393.08
514.664	4327.09
515.032	4286.86
515.4	4279.41
515.767	4258.62
516.135	4273.98
516.502	4237.15
516.869	4389.46
517.237	4431.72
517.604	4556.91
517.972	4702.45
518.339	4804.37
518.706	4790.58
519.073	4833.74
519.44	4830.35
519.808	4871.71
520.175	4773.63
520.542	4789.45
520.909	4625.61
521.276	4561.21
521.643	4517.37
522.009	4483.24
522.376	4503.13
522.743	4560.98
523.11	4612.28
523.477	4707.64
523.843	4815.21
524.21	4928.66
524.577	5040.74
524.943	5172.27
525.31	5244.35
525.676	5267.63
526.043	5307.85
526.409	5287.52
526.776	5244.35
527.142	5221.98
527.508	5205.26
527.874	5057.01
528.241	5019.27
528.607	4942.21
528.973	4956.68
529.339	4986.28
529.705	5093.85
530.071	5190.12
530.437	5292.04
530.803	5413.61
531.169	5543.33
531.535	5686.6
531.901	5758.01
532.267	5852.7
532.632	5852.25
532.998	5953.49
533.364	5981.74
533.73	5866.26
534.095	5852.25
534.461	5748.07
534.826	5705.58
535.192	5661.52
535.557	5568.86
535.923	5578.58
536.288	5579.94
536.653	5667.39
537.019	5746.94
537.384	5826.49
537.749	6029.64
538.114	6125.46
538.479	6287.26
538.845	6417.43
539.21	6460.82
539.575	6513.92
539.94	6565.9
540.305	6597.76
540.67	6555.73
541.034	6523.19
541.399	6381.72
541.764	6292.01
542.129	6293.37
542.494	6159.13
542.858	6135.4
543.223	6099.92
543.587	6172.92
543.952	6241.84
544.316	6270.09
544.681	6400.03
545.045	6573.81
545.41	6712.56
545.774	6860.36
546.138	6988.26
546.503	7117.52
546.867	7147.13
547.231	7209.5
547.595	7160.01
547.959	7090.86
548.324	7058.54
548.688	6953.01
549.052	6837.31
549.416	6705.11
549.779	6611.32
550.143	6541.72
550.507	6585.56
550.871	6569.29
551.235	6630.53
551.599	6663.75
551.962	6777.19
552.326	6868.94
552.689	7052.44
553.053	7219.67
553.417	7282.72
553.78	7480.9
554.143	7540.79
554.507	7630.73
554.87	7624.18
555.234	7597.96
555.597	7440.45
555.96	7366.56
556.323	7221.25
556.686	7120.46
557.05	7072.55
557.413	7034.59
557.776	6939.68
558.139	6844.31
558.502	6921.82
558.865	6956.85
559.228	7049.73
559.59	7167.47
559.953	7313
560.316	7522.49
560.679	7752.76
561.041	7859.43
561.404	7986.2
561.767	8070.95
562.129	8140.77
562.492	8149.14
562.854	8116.14
563.217	8032.75
563.579	7924.51
563.941	7821.46
564.304	7735.81
564.666	7648.81
565.028	7469.15
565.39	7538.98
565.753	7436.84
566.115	7384.86
566.477	7378.76
566.839	7473.45
567.201	7640
567.563	7720.45
567.925	7993.21
568.287	8116.59
568.648	8330.83
569.01	8501.67
569.372	8678.84
569.734	8712.29
570.095	8767.2
570.457	8808.33
570.819	8861.89
571.18	8768.78
571.542	8660.76
571.903	8496.7
572.265	8432.97
572.626	8298.74
572.987	8245.18
573.349	8118.18
573.71	8076.82
574.071	8122.24
574.432	8196.82
574.794	8350.26
575.155	8452.18
575.516	8635.9
575.877	8823.02
576.238	9099.39
576.599	9380.52
576.96	9618.93
577.32	9818.24
577.681	9944.34
578.042	10144.79
578.403	10268.18
578.763	10315.41
579.124	10378.91
579.485	10406.48
579.845	10407.16
580.206	10347.04
580.566	10463.2
580.927	10518.57
581.287	10539.36
581.648	10615.06
582.008	10745.68
582.368	11004.65
582.728	11290.3
583.089	11562.83
583.449	11972.54
583.809	12438.29
584.169	12856.36
584.529	13304.48
584.889	13845.71
585.249	14400.05
585.609	14817.66
585.969	15378.1
586.329	15848.14
586.688	16338.3
587.048	16704.84
587.408	17094.89
587.768	17383.7
588.127	17661.43
588.487	18042.44
588.846	18351.58
589.206	18559.48
589.565	18973.71
589.925	19394.72
590.284	19748.61
590.643	20194.02
591.003	20809.14
591.362	21351.73
591.721	21841.43
592.08	22646.38
592.44	23289.08
592.799	24038.44
593.158	24525.43
593.517	25506.42
593.876	26207.64
594.235	26659.84
594.593	27469.08
594.952	28146.12
595.311	28617.98
595.67	29148.36
596.029	29820.2
596.387	30183.58
596.746	30689.33
597.104	30958.03
597.463	31391.69
597.822	31818.12
598.18	32164.32
598.538	32356.41
598.897	33008.82
599.255	33141.47
599.613	34057.61
599.972	34315.23
600.33	34967.19
600.688	35321.3
601.046	36107.95
601.404	36895.95
601.762	37478.76
602.12	38166.65
602.478	38795.79
602.836	39361.42
603.194	39684.8
603.552	40334.73
603.91	40737.66
604.268	41244.76
604.625	41465.55
604.983	42049.94
605.341	42068.7
605.698	42651.96
606.056	42986.64
606.413	43105.28
606.771	43428.89
607.128	43542.56
607.485	43623.91
607.843	43696
608.2	44094.18
608.557	44505.69
608.914	44580.04
609.272	45196.07
609.629	45493.46
609.986	45893.68
610.343	46170.96
610.7	46804.16
611.057	47066.98
611.414	47349.91
611.771	47841.2
612.127	48188.99
612.484	48362.32
612.841	48750.78
613.198	48686.83
613.554	48891.12
613.911	49351.44
614.267	49405.68
614.624	49378.79
614.98	49601.15
615.337	49743.75
615.693	49703.3
616.05	49753.69
616.406	49868.27
616.762	49797.76
617.118	49825.78
617.475	49836.85
617.831	50026.23
618.187	50147.58
618.543	50237.07
618.899	50624.4
619.255	50635.02
619.611	50760.22
619.967	51021.91
620.323	51295.12
620.678	51448.56
621.034	51458.96
621.39	51586.19
621.746	51769.68
622.101	52117.92
622.457	51964.03
622.812	52131.03
623.168	52200.41
623.523	52341.42
623.879	52333.96
624.234	52120.64
624.589	52172.84
624.945	52230.46
625.3	52276.56
625.655	52150.46
626.01	52092.84
626.365	52081.77
626.72	51947.53
627.075	51937.59
627.43	51891.94
627.785	51831.83
628.14	52023.91
628.495	52147.08
628.85	52096
629.205	52044.03
629.559	52428.88
629.914	52324.7
630.269	52516.78
630.623	52561.75
630.978	52634.07
631.332	52839.49
631.687	52994.51
632.041	52799.94
632.396	52961.07
632.75	52916.32
633.104	52933.04
633.459	52810.79
633.813	52849.2
634.167	52752.26
634.521	52687.17
634.875	52619.61
635.229	52481.53
635.583	52241.54
635.937	52164.7
636.291	52069.11
636.645	52071.82
636.999	51922.67
637.352	51946.18
637.706	51820.3
638.06	51812.62
638.413	51888.1
638.767	51747.31
639.121	51863.69
639.474	51757.71
639.828	51951.83
640.181	52089.68
640.534	52260.52
640.888	52194.76
641.241	52202.89
641.594	52227.3
641.947	52322.89
642.301	52321.31
642.654	52451.25
643.007	52459.38
643.36	52365.37
643.713	52277.02
644.066	52434.75
644.419	52098.04
644.771	51723.81
645.124	51367.43
645.477	51258.74
645.83	50867.33
646.182	50754.8
646.535	50615.59
646.888	50613.56
647.24	50387.8
647.593	50543.73
647.945	50485.2
648.298	50255.37
648.65	50211.53
649.002	50222.83
649.355	50344.86
649.707	50361.59
650.059	50466.67
650.411	51010.61
650.763	51131.06
651.115	51533.53
651.467	51378.06
651.819	51541.22
652.171	51499.18
652.523	51406.76
652.875	51503.25
653.227	51348.45
653.578	51637.71
653.93	51566.53
654.282	51395
654.633	51212.18
654.985	51302.35
655.337	51197.04
655.688	51141.9
656.039	51140.1
656.391	50822.36
656.742	50741.24
657.094	50680.9
657.445	50712.99
657.796	50601.58
658.147	50429.15
658.498	50491.75
658.849	50442.49
659.2	50368.14
659.551	50513.45
659.902	50501.47
660.253	50473.67
660.604	50759.54
660.955	50719.09
661.306	50899.65
661.656	50767.22
662.007	51014.9
662.358	51014.22
662.708	51079.76
663.059	51094.45
663.409	50899.42
663.76	51147.33
664.11	51179.42
664.461	51279.53
664.811	51257.61
665.161	51161.34
665.511	50915.92
665.862	50927.67
666.212	50869.14
666.562	50872.08
666.912	50666.89
667.262	50583.73
667.612	50283.4
667.962	50197.52
668.312	50211.98
668.662	50173.12
669.011	50100.8
669.361	49987.58
669.711	50009.5
670.06	49877.08
670.41	49917.3
670.76	49912.56
671.109	49969.51
671.459	50035.27
671.808	50045.89
672.157	50178.31
672.507	49985.32
672.856	50204.53
673.205	50322.26
673.554	50407.46
673.904	50443.84
674.253	50698.07
674.602	50584.18
674.951	50080.91
675.3	49941.71
675.649	50574.01
675.998	50473.67
676.346	50364.98
676.695	50465.76
677.044	50130.63
677.393	50073.01
677.741	50139.44
678.09	49832.79
678.438	49723.41
678.787	49743.3
679.135	49563.64
679.484	49204.33
679.832	49312.8
680.181	49001.17
680.529	49136.08
680.877	48889.08
681.225	48920.95
681.573	49128.62
681.922	48850.66
682.27	48823.77
682.618	48955.29
682.966	48884.56
683.314	49074.84
683.661	49085.01
684.009	48899.93
684.357	49021.96
684.705	49151.45
685.053	49259.47
685.4	49245
685.748	49087.72
686.095	49062.18
686.443	49020.15
686.79	49040.49
687.138	49054.5
687.485	49082.07
687.832	48791.46
688.18	48824.68
688.527	48612.48
688.874	48420.39
689.221	48233.28
689.568	48020.18
689.915	47879.62
690.262	47793.07
690.609	47466.07
690.956	47402.12
691.303	47333.64
691.65	46967.1
691.997	46960.32
692.344	46661.12
692.69	46766.2
693.037	46685.75
693.383	46332.99
693.73	46563.72
694.077	46476.94
694.423	46366.66
694.769	46370.5
695.116	46371.41
695.462	46383.16
695.808	46231.07
696.155	46514.68
696.501	46256.16
696.847	46257.29
697.193	46104.52
697.539	46338.64
697.885	46021.13
698.231	45969.61
698.577	46126.67
698.923	45980.23
699.269	45870.18
699.614	45661.14
699.96	45556.97
700.306	45486.69
700.651	45121.95
700.997	44999.24
701.342	44781.39
701.688	44742.52
702.033	44474.73
702.379	44342.76
702.724	44115.42
703.069	44079.26
703.415	43570.35
703.76	43504.14
704.105	43491.03
704.45	43343.69
704.795	43117.48
705.14	42951.61
705.485	42925.4
705.83	42806.08
706.175	43005.62
706.52	42810.15
706.865	42913.87
707.209	42950.48
707.554	42721.11
707.899	42989.12
708.243	42733.54
708.588	42780.09
708.932	42686.76
709.277	42800.2
709.621	42908.67
709.966	42656.03
710.31	42798.39
710.654	42402.25
710.998	42509.81
711.342	42456.26
711.687	42415.13
712.031	42236.6
712.375	41962.71
712.719	42049.49
713.063	41888.59
713.407	41942.6
713.75	41626.45
714.094	41434.14
714.438	41140.13
714.782	41115.95
715.125	40921.16
715.469	40779.01
715.812	40587.61
716.156	40315.3
716.499	40282.98
716.843	40351
717.186	39906.27
717.53	40184
717.873	40047.05
718.216	40015.19
718.559	39828.53
718.902	39741.98
719.246	39697.91
719.589	39639.16
719.932	39508.31
720.275	39848.64
720.617	39784.01
720.96	39827.63
721.303	39934.51
721.646	39956.44
721.989	39771.13
722.331	40082.99
722.674	39848.19
723.016	40046.6
723.359	39910.56
723.701	39960.95
724.044	39787.85
724.386	39565.49
724.729	39662.88
725.071	39581.53
725.413	39436.67
725.755	39432.38
726.097	39089.57
726.439	38815.45
726.782	38796.92
727.124	38837.59
727.465	38513.08
727.807	38381.79
728.149	38262.02
728.491	38021.57
728.833	38111.29
729.175	37827.23
729.516	37713.56
729.858	37603.5
730.199	37759.43
730.541	37451.64
730.882	37424.52
731.224	37524.86
731.565	37235.6
731.906	37310.18
732.248	37509.49
732.589	37315.15
732.93	37321.7
733.271	37467.24
733.612	37489.16
733.953	37453.9
734.294	37340.23
734.635	37351.31
734.976	37570.28
735.317	37484.18
735.658	37469.72
735.999	37552.88
736.339	37396.95
736.68	37497.06
737.021	37457.97
737.361	37385.66
737.702	37528.25
738.042	37340.46
738.383	37281.48
738.723	37324.41
739.063	37010.75
739.404	37080.35
739.744	36829.06
740.084	36641.95
740.424	36630.42
740.764	36449.18
741.104	36544.77
741.444	36209.64
741.784	36103.66
742.124	36004.67
742.464	35976.88
742.804	35782.99
743.143	35517.46
743.483	35634.29
743.823	35356.56
744.162	35313.85
744.502	35578.92
744.841	35203.79
745.181	35531.01
745.52	35136.9
745.86	35374.41
746.199	35259.38
746.538	35382.09
746.877	35455.54
747.216	35403.11
747.556	35371.47
747.895	35468.42
748.234	35572.37
748.573	35400.4
748.911	35461.41
749.25	35501.41
749.589	35261.64
749.928	35367.86
750.267	35468.87
750.605	35494.86
750.944	35388.19
751.283	35307.97
751.621	35385.71
751.96	35057.58
752.298	35026.17
752.636	34894.87
752.975	34755.89
753.313	34527.88
753.651	34699.85
753.989	34272.06
754.327	34157.27
754.666	34063.03
755.004	33964.73
755.342	33882.92
755.679	33752.76
756.017	33395.93
756.355	33438.19
756.693	33186.22
757.031	33200.68
757.368	33041.14
757.706	32925.43
758.044	32809.73
758.381	32794.82
758.719	32515.5
759.056	32609.74
759.394	32413.58
759.731	32375.62
760.068	32393.92
760.405	32279.8
760.743	32214.27
761.08	32390.08
761.417	32248.62
761.754	32289.07
762.091	32352.79
762.428	32239.35
762.765	32076.64
763.102	32313.7
763.438	32085.91
763.775	32060.37
764.112	32029.86
764.449	32105.12
764.785	31981.96
765.122	31705.58
765.458	31616.09
765.795	31672.13
766.131	31597.11
766.467	31518.69
766.804	31381.75
767.14	31229.43
767.476	31179.72
767.812	31090
768.148	31028.08
768.485	30752.61
768.821	30562.56
769.157	30425.39
769.492	30280.76
769.828	30166.41
770.164	29786.53
770.5	29799.87
770.836	29570.27
771.171	29500.89
771.507	29236.04
771.842	29041.92
772.178	28983.16
772.513	28912.66
772.849	28815.71
773.184	28625.66
773.519	28609.16
773.855	28405.55
774.19	28380.24
774.525	28336.85
774.86	28248.04
775.195	28226.12
775.53	28194.94
775.865	28046.92
776.2	27858
776.535	27848.28
776.87	27890.54
777.205	27881.27
777.539	27727.6
777.874	27824.1
778.209	27668.17
778.543	27698
778.878	27535.97
779.212	27508.63
779.547	27451.45
779.881	27493.49
780.215	27304.11
780.55	27373.04
780.884	27225.47
781.218	27134.17
781.552	27040.39
781.886	26956.55
782.22	26774.41
782.554	26571.7
782.888	26341.65
783.222	26168.55
783.556	26053.52
783.889	26046.97
784.223	25865.73
784.557	25691.05
784.89	25663.7
785.224	25418.74
785.557	25248.57
785.891	25214.22
786.224	25065.08
786.558	24867.79
786.891	24725.65
787.224	24616.95
787.557	24460.35
787.891	24564.3
788.224	24463.74
788.557	24400.91
788.89	24230.52
789.223	24325.43
789.556	24151.88
789.888	24050.64
790.221	23941.49
790.554	23747.6
790.887	23936.07
791.219	23817.42
791.552	23849.97
791.884	23768.16
792.217	23787.59
792.549	23779.91
792.882	23648.39
793.214	23578.56
793.546	23604.77
793.879	23478.68
794.211	23271.45
794.543	23477.32
794.875	23452.91
795.207	23491.56
795.539	23277.78
795.871	23320.94
796.203	23208.85
796.535	22964.11
796.867	22967.28
797.198	22958.24
797.53	22908.3
797.862	22747.85
798.193	22691.8
798.525	22584.69
798.856	22529.55
799.188	22246.17
799.519	22196.68
799.85	22137.02
800.182	21996.46
800.513	22019.28
800.844	21655
801.175	21715.11
801.506	21730.47
801.837	21540.42
802.168	21371.39
802.499	21247.1
802.83	21165.52
803.161	21083.94
803.491	21069.25
803.822	21009.81
804.153	20814.34
804.483	20834.68
804.814	20669.26
805.145	20661.58
805.475	20672.87
805.805	20566.44
806.136	20605.31
806.466	20528.02
806.796	20660.22
807.126	20460.45
807.457	20505.2
807.787	20500.22
808.117	20449.6
808.447	20406.67
808.777	20433.11
809.107	20383.16
809.436	20357.85
809.766	20431.98
810.096	20421.13
810.426	20193.57
810.755	20328.93
811.085	20322.15
811.414	20191.53
811.744	20128.03
812.073	20098.88
812.403	20165.09
812.732	20006.45
813.061	19974.59
813.39	19895.49
813.719	19733.24
814.049	19815.95
814.378	19821.37
814.707	19668.61
815.036	19654.82
815.365	19503.87
815.693	19269.75
816.022	19261.84
816.351	19152.69
816.68	19109.75
817.008	19101.39
817.337	18891.45
817.665	18828.86
817.994	18792.92
818.322	18739.14
818.651	18720.84
818.979	18622.76
819.307	18579.14
819.636	18554.06
819.964	18381.18
820.292	18401.52
820.62	18331.69
820.948	18285.59
821.276	18312.03
821.604	18280.4
821.932	18328.76
822.259	18322.2
822.587	18270.23
822.915	18281.07
823.243	18385.03
823.57	18317.46
823.898	18271.81
824.225	18296.21
824.553	18301.64
824.88	18468.19
825.207	18455.08
825.535	18438.13
825.862	18480.16
826.189	18545.92
826.516	18638.35
826.843	18628.86
827.17	18666.6
827.497	18723.77
827.824	18701.17
828.151	18665.24
828.478	18702.53
828.805	18784.56
829.131	18721.74
829.458	18641.29
829.785	18630.44
830.111	18684.23
830.438	18749.54
830.764	18748.86
831.09	18713.15
831.417	18567.17
831.743	18630.67
832.069	18544.57
832.395	18444.68
832.722	18589.09
833.048	18390
833.374	18414.18
833.7	18266.84
834.026	18212.6
834.351	18213.05
834.677	18141.64
835.003	18197.69
835.329	18116.33
835.654	18061.19
835.98	17867.98
836.306	17919.73
836.631	17766.74
836.956	17829.79
837.282	17860.07
837.607	17534.88
837.932	17574.42
838.258	17644.48
838.583	17601.32
838.908	17594.99
839.233	17581.66
839.558	17496.69
839.883	17465.5
840.208	17435.22
840.533	17459.4
840.858	17389.12
841.182	17512.73
841.507	17523.8
841.832	17510.25
842.156	17435.22
842.481	17552.28
842.805	17438.38
843.13	17453.52
843.454	17476.35
843.778	17416.91
844.103	17533.07
844.427	17346.18
844.751	17474.09
845.075	17433.86
845.399	17418.95
845.723	17367.42
846.047	17300.76
846.371	17119.3
846.695	17179.63
847.019	17047.66
847.343	16987.77
847.666	16913.88
847.99	16825.97
848.313	16905.74
848.637	16697.84
848.96	16747.33
849.284	16534.68
849.607	16399.77
849.931	16349.6
850.254	16236.38
850.577	16134.91
850.9	16103.5
851.223	15952.77
851.546	15839.33
851.869	15757.3
852.192	15822.83
852.515	15684.76
852.838	15606.12
853.161	15501.94
853.483	15355.27
853.806	15319.34
854.129	15226.46
854.451	15184.88
854.774	15059.24
855.096	15003.87
855.419	15031.89
855.741	14906.92
856.063	14818.34
856.385	14694.95
856.708	14708.29
857.03	14698.12
857.352	14705.35
857.674	14718
857.996	14542.41
858.318	14532.02
858.64	14569.31
858.961	14584.67
859.283	14499.93
859.605	14471.23
859.926	14577.67
860.248	14509.65
860.57	14432.81
860.891	14513.49
861.212	14386.94
861.534	14410.21
861.855	14469.65
862.176	14435.3
862.498	14498.12
862.819	14469.87
863.14	14335.87
863.461	14402.76
863.782	14334.96
864.103	14380.38
864.424	14415.19
864.745	14393.72
865.065	14330.89
865.386	14249.09
865.707	14252.93
866.027	14221.97
866.348	14233.04
866.668	14244.79
866.989	14142.42
867.309	14031.24
867.63	14111.47
867.95	14088.87
868.27	13854.52
868.59	14004.35
868.91	13826.27
869.23	13767.07
869.55	13779.95
869.87	13822.43
870.19	13766.16
870.51	13786.5
870.83	13662.44
871.15	13592.38
871.469	13575.21
871.789	13531.59
872.109	13431.03
872.428	13473.06
872.748	13477.58
873.067	13410.47
873.386	13432.39
873.706	13293.41
874.025	13269.91
874.344	13148.55
874.663	13170.02
874.982	13126.86
875.301	13162.34
875.62	13047.09
875.939	13123.92
876.258	13148.55
876.577	13106.97
876.896	13062.23
877.214	13005.51
877.533	13021.55
877.852	12981.55
878.17	13023.36
878.489	13062.23
878.807	13007.54
879.125	13009.57
879.444	13008.22
879.762	13033.3
880.08	12971.83
880.398	13000.08
880.716	13022.45
881.034	13005.05
881.352	13056.13
881.67	12984.26
881.988	13022
882.306	13006.64
882.624	12939.52
882.941	12873.31
883.259	12927.54
883.577	12882.8
883.894	12812.29
884.212	12879.63
884.529	12846.41
884.846	12907.2
885.164	12765.29
885.481	12763.25
885.798	12768.45
886.115	12715.57
886.432	12723.7
886.75	12568
887.067	12629.7
887.383	12515.57
887.7	12477.16
888.017	12437.16
888.334	12455.46
888.651	12340.44
888.967	12375.69
889.284	12205.75
889.6	12157.17
889.917	12047.79
890.233	12049.6
890.55	11999.2
890.866	11927.57
891.182	11906.33
891.498	11874.91
891.815	11742.26
892.131	11652.32
892.447	11690.29
892.763	11548.82
893.079	11618.88
893.395	11591.98
893.71	11515.15
894.026	11475.6
894.342	11535.49
894.657	11326
894.973	11355.38
895.289	11379.33
895.604	11346.11
895.92	11246
896.235	11194.25
896.55	11231.31
896.865	11171.66
897.181	11126.91
897.496	11122.39
897.811	11016.41
898.126	11146.12
898.441	11138.89
898.756	11024.09
899.071	11078.32
899.386	11075.84
899.7	10874.04
900.015	10841.49
900.33	10909.52
900.644	10911.32
900.959	10929.63
901.273	10855.05
901.588	10881.49
901.902	10773.7
902.216	10712.46
902.531	10818.22
902.845	10741.16
903.159	10645.57
903.473	10576.19
903.787	10613.03
904.101	10495.74
904.415	10582.52
904.729	10497.77
905.042	10484.22
905.356	10439.47
905.67	10385.91
905.984	10414.39
906.297	10379.36
906.611	10338.46
906.924	10281.06
907.237	10237.67
907.551	10083.32
907.864	10081.74
908.177	10001.97
908.491	10016.21
908.804	9895.98
909.117	9916.1
909.43	9860.28
909.743	9801.52
910.056	9671.81
910.368	9634.52
910.681	9574.41
910.994	9568.08
911.307	9462.55
911.619	9442.66
911.932	9438.82
912.244	9258.03
912.557	9314.98
912.869	9204.25
913.181	9156.57
913.494	9123.12
913.806	9085.16
914.118	9070.02
914.43	8978.27
914.742	8962.67
915.054	8929
915.366	8834.54
915.678	8855.11
915.99	8818.5
916.302	8736.24
916.613	8724.04
916.925	8676.81
917.236	8672.29
917.548	8663.25
917.859	8625.28
918.171	8616.24
918.482	8534.89
918.794	8509.35
919.105	8556.58
919.416	8444.04
919.727	8462.35
920.038	8434.1
920.349	8455.79
920.66	8437.72
920.971	8370.37
921.282	8317.49
921.593	8253.99
921.903	8218.74
922.214	8244.95
922.525	8206.99
922.835	8212.64
923.146	8157.5
923.456	8113.43
923.767	8153.88
924.077	8129.48
924.387	8067.1
924.697	7997.73
925.008	7988.24
925.318	7957.5
925.628	7967.67
925.938	7912.76
926.248	7830.5
926.558	7761.35
926.867	7797.96
927.177	7805.64
927.487	7739.88
927.796	7664.63
928.106	7695.36
928.416	7663.05
928.725	7597.96
929.034	7531.53
929.344	7572.43
929.653	7451.53
929.962	7394.58
930.271	7429.61
930.581	7315.71
930.89	7299.44
931.199	7174.92
931.508	7209.73
931.817	7202.04
932.125	7135.6
932.434	7101.25
932.743	7037.3
933.051	7000.69
933.36	6986
933.669	6952.33
933.977	6837.53
934.286	6812.9
934.594	6832.11
934.902	6720.02
935.21	6700.59
935.519	6677.76
935.827	6699.46
936.135	6655.62
936.443	6546.47
936.751	6616.52
937.059	6545.11
937.367	6496.52
937.674	6462.63
937.982	6449.52
938.29	6430.09
938.597	6411.55
938.905	6365.68
939.213	6315.06
939.52	6347.38
939.827	6398.45
940.135	6274.38
940.442	6260.82
940.749	6273.93
941.056	6236.87
941.363	6249.98
941.67	6206.59
941.977	6189.19
942.284	6142.18
942.591	6176.98
942.898	6166.14
943.205	6129.08
943.511	6087.5
943.818	6119.58
944.125	6078
944.431	6118.23
944.738	6086.59
945.044	6008.18
945.35	5976.09
945.657	5919.36
945.963	5963.66
946.269	5964.33
946.575	5957.33
946.881	5933.15
947.187	5851.57
947.493	5819.48
947.799	5867.61
948.105	5841.85
948.41	5704.91
948.716	5805.02
949.022	5668.52
949.327	5696.55
949.633	5591.92
949.938	5552.59
950.244	5628.98
950.549	5551.24
950.854	5507.85
951.16	5514.18
951.465	5476.66
951.77	5402.32
952.075	5424.01
952.38	5370
952.685	5370.68
952.99	5260.62
953.294	5284.58
953.599	5278.48
953.904	5198.48
954.209	5243.9
954.513	5185.6
954.818	5120.29
955.122	5102.66
955.426	5096.79
955.731	5026.73
956.035	5009.56
956.339	5001.42
956.643	4976.56
956.948	4977.92
957.252	4937.47
957.556	4928.88
957.86	4898.15
958.163	4876.91
958.467	4857.7
958.771	4767.3
959.075	4796
959.378	4746.74
959.682	4797.13
959.985	4702.9
960.289	4715.55
960.592	4659.28
960.896	4656.35
961.199	4647.08
961.502	4624.71
961.805	4579.74
962.108	4585.61
962.411	4570.02
962.714	4556.46
963.017	4555.11
963.32	4487.31
963.623	4497.71
963.926	4514.2
964.228	4524.15
964.531	4464.04
964.833	4447.09
965.136	4496.58
965.438	4389.46
965.741	4470.59
966.043	4445.96
966.345	4409.57
966.648	4393.3
966.95	4358.5
967.252	4325.06
967.554	4298.39
967.856	4341.55
968.158	4235.79
968.46	4316.69
968.761	4265.4
969.063	4246.87
969.365	4243.93
969.666	4202.35
969.968	4127.55
970.269	4164.16
970.571	4153.99
970.872	4190.14
971.174	4137.26
971.475	4083.03
971.776	4065.18
972.077	4095.01
972.378	4084.61
972.679	4052.07
972.98	3986.76
973.281	4031.73
973.582	4003.93
973.883	3944.95
974.183	3928.68
974.484	3907.67
974.785	3907.21
975.085	3883.71
975.386	3907.21
975.686	3864.73
975.986	3817.05
976.287	3813.66
976.587	3776.37
976.887	3738.18
977.187	3718.97
977.487	3695.69
977.787	3671.29
978.087	3662.93
978.387	3684.39
978.687	3652.31
978.987	3582.25
979.286	3587.9
979.586	3590.84
979.885	3547.68
980.185	3526.21
980.484	3484.63
980.784	3469.94
981.083	3448.69
981.382	3441.24
981.682	3471.52
981.981	3411.18
982.28	3431.07
982.579	3391.97
982.878	3399.43
983.177	3363.5
983.475	3320.11
983.774	3328.7
984.073	3348.13
984.372	3296.83
984.67	3268.36
984.969	3272.43
985.267	3268.36
985.566	3228.36
985.864	3251.41
986.162	3239.43
986.461	3170.96
986.759	3223.84
987.057	3150.4
987.355	3110.62
987.653	3163.73
987.951	3123.73
988.249	3146.1
988.547	3159.44
988.844	3102.26
989.142	3059.55
989.44	3094.35
989.737	3060.68
990.035	3060.91
990.332	3075.15
990.63	3013.45
990.927	3055.26
991.224	3041.7
991.521	3013.23
991.819	3028.37
992.116	2976.62
992.413	2957.63
992.71	2961.48
993.006	2954.24
993.303	2941.59
993.6	2957.41
993.897	2913.79
994.193	2940.69
994.49	2883.74
994.787	2877.18
995.083	2856.39
995.379	2842.83
995.676	2827.47
995.972	2835.83
996.268	2786.57
996.565	2773.91
996.861	2766.45
997.157	2742.5
997.453	2740.24
997.749	2710.63
998.044	2755.61
998.34	2690.97
998.636	2680.35
998.932	2660.92
999.227	2649.62
999.523	2624.54
999.818	2602.84
1000.114	2589.51
1000.409	2585.21
1000.704	2572.79
1001	2526.23
1001.295	2556.97
1001.59	2535.5
1001.885	2507.48
1002.18	2492.79
1002.475	2470.87
1002.77	2469.96
1003.065	2445.56
1003.359	2419.34
1003.654	2398.1
1003.949	2405.78
1004.243	2357.88
1004.538	2340.02
1004.832	2342.74
1005.127	2316.52
1005.421	2288.27
1005.715	2287.82
1006.009	2292.79
1006.304	2290.53
1006.598	2263.64
1006.892	2238.78
1007.186	2230.42
1007.48	2205.79
1007.773	2180.25
1008.067	2185.68
1008.361	2140.93
1008.655	2180.93
1008.948	2179.12
1009.242	2121.72
1009.535	2114.27
1009.829	2126.24
1010.122	2081.5
1010.415	2078.34
1010.708	2058.9
1011.001	2067.71
1011.295	2032.91
1011.588	2041.5
1011.881	2022.07
1012.173	2026.59
1012.466	2027.49
1012.759	1977.55
1013.052	2007.15
1013.344	1992.69
1013.637	1952.69
1013.93	1968.51
1014.222	1948.4
1014.514	1960.82
1014.807	1936.19
1015.099	1911.79
1015.391	1903.2
1015.683	1887.83
1015.976	1896.87
1016.268	1888.96
1016.56	1859.58
1016.851	1885.57
1017.143	1866.82
1017.435	1832.24
1017.727	1814.61
1018.018	1838.57
1018.31	1811.68
1018.602	1780.94
1018.893	1773.71
1019.185	1754.95
1019.476	1755.18
1019.767	1771
1020.058	1752.02
1020.35	1753.6
1020.641	1729.42
1020.932	1713.6
1021.223	1693.49
1021.514	1699.59
1021.804	1674.05
1022.095	1672.02
1022.386	1664.79
1022.677	1651.45
1022.967	1631.57
1023.258	1629.53
1023.548	1623.21
1023.839	1578.24
1024.129	1566.71
1024.419	1602.19
1024.709	1580.04
1025	1534.39
1025.29	1551.57
1025.58	1502.31
1025.87	1511.57
1026.16	1508.86
1026.449	1502.76
1026.739	1477.9
1027.029	1479.93
1027.319	1455.07
1027.608	1449.65
1027.898	1404.91
1028.187	1433.61
1028.477	1406.04
1028.766	1386.38
1029.055	1388.18
1029.344	1382.08
1029.634	1380.5
1029.923	1378.47
1030.212	1350.67
1030.501	1324
1030.79	1302.99
1031.078	1291.46
1031.367	1303.89
1031.656	1287.4
1031.945	1291.92
1032.233	1242.88
1032.522	1230.67
1032.81	1259.83
1033.099	1254.18
1033.387	1223.22
1033.675	1248.3
1033.963	1204.91
1034.251	1244.46
1034.54	1228.41
1034.828	1218.47
1035.116	1177.57
1035.403	1181.86
1035.691	1156.78
1035.979	1166.72
1036.267	1166.49
1036.554	1157
1036.842	1151.35
1037.129	1115.2
1037.417	1116.1
1037.704	1132.6
1037.992	1128.53
1038.279	1115.65
1038.566	1103.45
1038.853	1103.45
1039.14	1103.45
