Data from red_cardboard_box_FLMS001491_00087.txt Node
Date: Wed Feb 08 11:33:17 GMT 2017
User: dcchb
Spectrometer: FLMS00149
Trigger mode: 0
Integration Time (sec): 2.000000E-2
Scans to average: 10
Electric dark correction enabled: true
Nonlinearity correction enabled: false
Boxcar width: 0
XAxis mode: Wavelengths
Number of Pixels in Spectrum: 2048
>>>>>Begin Spectral Data<<<<<
341.393	-30.9
341.776	-30.9
342.16	-30.9
342.543	-56.67
342.927	-70.45
343.31	-54.86
343.693	-68.87
344.077	-54.86
344.46	-56.21
344.843	-50.56
345.226	-44.46
345.61	-12.6
345.993	-17.12
346.376	-11.24
346.759	-10.56
347.142	27.4
347.525	39.83
347.908	63.56
348.291	58.59
348.674	95.2
349.057	96.78
349.44	115.31
349.823	141.52
350.206	161.41
350.588	212.48
350.971	214.97
351.354	217.68
351.737	254.29
352.119	242.08
352.502	252.71
352.884	256.09
353.267	275.3
353.65	282.76
354.032	315.53
354.414	290.44
354.797	323.66
355.179	331.35
355.562	311.91
355.944	318.01
356.326	317.56
356.709	327.51
357.091	322.31
357.473	350.33
357.855	347.62
358.238	328.18
358.62	332.93
359.002	346.04
359.384	340.39
359.766	348.52
360.148	341.29
360.53	336.54
360.912	323.66
361.294	333.83
361.676	328.18
362.057	323.66
362.439	322.31
362.821	318.24
363.203	331.8
363.584	317.56
363.966	342.19
364.348	332.25
364.729	335.41
365.111	333.61
365.493	315.53
365.874	316.88
366.256	319.6
366.637	322.08
367.019	324.57
367.4	316.88
367.781	325.25
368.163	325.92
368.544	314.62
368.925	344
369.306	302.2
369.688	312.36
370.069	293.38
370.45	329.31
370.831	320.05
371.212	318.01
371.593	293.61
371.974	312.36
372.355	312.59
372.736	320.27
373.117	310.56
373.498	311.69
373.879	336.54
374.26	307.62
374.641	328.41
375.021	310.1
375.402	325.25
375.783	323.44
376.163	336.54
376.544	330.22
376.925	317.56
377.305	323.66
377.686	339.48
378.066	307.17
378.447	345.13
378.827	342.87
379.208	324.34
379.588	340.39
379.968	304
380.349	332.93
380.729	315.75
381.109	313.95
381.489	320.73
381.87	330.22
382.25	324.34
382.63	309.2
383.01	337.45
383.39	330.44
383.77	319.82
384.15	347.84
384.53	325.02
384.91	347.39
385.29	358.24
385.67	353.49
386.049	363.89
386.429	340.61
386.809	343.1
387.189	349.43
387.568	337
387.948	339.93
388.328	363.21
388.707	364.57
389.087	339.03
389.466	341.97
389.846	358.69
390.225	346.94
390.605	345.58
390.984	358.01
391.363	338.35
391.743	344.45
392.122	385.13
392.501	365.47
392.881	372.25
393.26	367.28
393.639	346.49
394.018	357.79
394.397	370.67
394.776	367.28
395.155	384.91
395.534	365.02
395.913	375.87
396.292	365.02
396.671	380.16
397.05	373.61
397.429	351.91
397.808	368.63
398.186	377.22
398.565	365.7
398.944	378.58
399.323	378.8
399.701	378.13
400.08	372.02
400.458	388.07
400.837	396.2
401.215	407.28
401.594	392.36
401.972	365.47
402.351	393.94
402.729	377.9
403.107	362.76
403.486	387.62
403.864	394.17
404.242	409.31
404.62	396.2
404.999	406.83
405.377	393.49
405.755	415.19
406.133	392.81
406.511	382.19
406.889	397.79
407.267	408.86
407.645	406.83
408.023	398.69
408.401	412.25
408.779	396.88
409.156	423.77
409.534	412.02
409.912	414.51
410.29	421.06
410.667	417.67
411.045	411.12
411.422	413.38
411.8	428.75
412.178	438.69
412.555	424.23
412.933	432.81
413.31	449.99
413.687	434.62
414.065	431.01
414.442	414.28
414.819	435.53
415.197	417.67
415.574	455.64
415.951	442.98
416.328	453.6
416.705	442.53
417.082	445.47
417.46	441.17
417.837	464.68
418.214	445.02
418.591	473.94
418.967	452.02
419.344	469.65
419.721	450.89
420.098	444.79
420.475	501.06
420.852	449.99
421.228	478.46
421.605	478.46
421.982	475.75
422.358	496.09
422.735	466.71
423.111	492.92
423.488	510.78
423.864	498.57
424.241	500.38
424.617	511.23
424.994	504.22
425.37	499.03
425.746	496.77
426.123	498.8
426.499	498.8
426.875	484.56
427.251	509.65
427.627	537.44
428.003	500.16
428.379	526.82
428.756	531.12
429.132	548.52
429.507	529.31
429.883	535.86
430.259	530.44
430.635	554.84
431.011	534.05
431.387	552.13
431.763	558.23
432.138	560.49
432.514	531.12
432.89	539.93
433.265	560.04
433.641	564.34
434.016	560.27
434.392	592.36
434.767	562.75
435.143	576.09
435.518	603.66
435.894	607.5
436.269	592.58
436.644	603.2
437.02	591.91
437.395	599.14
437.77	614.73
438.145	614.73
438.52	627.61
438.895	617.44
439.271	642.98
439.646	625.8
440.021	614.28
440.395	635.07
440.77	639.59
441.145	636.88
441.52	656.08
441.895	642.3
442.27	652.92
442.645	624.67
443.019	649.53
443.394	630.77
443.769	648.4
444.143	676.87
444.518	682.07
444.892	645.24
445.267	668.97
445.641	649.98
446.016	681.17
446.39	666.71
446.764	659.7
447.139	659.25
447.513	685.24
447.887	688.17
448.262	673.71
448.636	720.94
449.01	678
449.384	699.02
449.758	677.1
450.132	685.01
450.506	713.71
450.88	727.72
451.254	705.35
451.628	703.54
452.002	742.18
452.376	710.55
452.75	746.25
453.123	740.6
453.497	717.78
453.871	719.36
454.244	729.08
454.618	764.56
454.992	748.96
455.365	741.73
455.739	767.72
456.112	777.66
456.486	751
456.859	766.36
457.232	786.48
457.606	798
457.979	786.7
458.352	804.56
458.725	829.41
459.099	798.91
459.472	816.08
459.845	837.55
460.218	828.28
460.591	834.84
460.964	847.04
461.337	833.93
461.71	859.02
462.083	872.8
462.456	892.24
462.829	845.68
463.201	851.11
463.574	879.36
463.947	913.25
464.32	903.99
464.692	910.77
465.065	900.6
465.438	918
465.81	943.08
466.183	938.11
466.555	931.33
466.928	954.16
467.3	943.99
467.672	950.09
468.045	967.49
468.417	989.63
468.789	966.36
469.161	975.62
469.534	968.17
469.906	1022.4
470.278	1019.46
470.65	1002.29
471.022	1053.59
471.394	1061.5
471.766	1064.89
472.138	1060.82
472.51	1085.45
472.882	1077.09
473.253	1104.89
473.625	1109.86
473.997	1114.6
474.369	1156.86
474.74	1152.57
475.112	1142.17
475.484	1188.5
475.855	1175.17
476.227	1181.04
476.598	1220.59
476.97	1234.15
477.341	1249.97
477.713	1261.04
478.084	1272.57
478.455	1282.51
478.827	1286.8
479.198	1322.73
479.569	1353.02
479.94	1361.83
480.311	1360.7
480.682	1375.61
481.053	1414.03
481.424	1398.89
481.795	1429.4
482.166	1440.7
482.537	1463.29
482.908	1505.55
483.279	1531.54
483.65	1549.17
484.021	1532.45
484.391	1605.21
484.762	1583.07
485.133	1631.2
485.503	1653.8
485.874	1620.8
486.244	1667.58
486.615	1646.34
486.985	1685.66
487.356	1696.96
487.726	1727.24
488.097	1748.49
488.467	1730.41
488.837	1800.91
489.207	1815.6
489.578	1834.58
489.948	1838.88
490.318	1855.15
490.688	1879.33
491.058	1888.37
491.428	1935.15
491.798	1930.18
492.168	1956.62
492.538	1982.6
492.908	2013.34
493.278	2021.25
493.648	2028.48
494.017	2051.98
494.387	2077.74
494.757	2081.81
495.126	2107.12
495.496	2124.52
495.866	2109.15
496.235	2145.31
496.605	2182.82
496.974	2206.78
497.344	2188.47
497.713	2235.93
498.082	2253.33
498.452	2253.1
498.821	2272.77
499.19	2274.35
499.559	2327
499.928	2282.93
500.298	2303.05
500.667	2374.01
501.036	2349.15
501.405	2359.09
501.774	2381.91
502.143	2364.74
502.512	2355.47
502.88	2396.6
503.249	2428.69
503.618	2464.62
503.987	2470.05
504.356	2481.35
504.724	2478.86
505.093	2502.36
505.462	2509.82
505.83	2545.98
506.199	2542.14
506.567	2571.51
506.936	2560.89
507.304	2602.02
507.672	2611.51
508.041	2597.05
508.409	2647.22
508.777	2684.05
509.145	2676.14
509.514	2674.56
509.882	2719.53
510.25	2721.34
510.618	2786.65
510.986	2752.98
511.354	2814.9
511.722	2818.51
512.09	2854.67
512.458	2841.56
512.826	2871.39
513.193	2875.46
513.561	2909.13
513.929	2942.8
514.297	2960.2
514.664	2986.19
515.032	2977.83
515.4	3019.64
515.767	3016.47
516.135	3014.89
516.502	3038.39
516.869	3104.16
517.237	3103.48
517.604	3148.45
517.972	3178.28
518.339	3175.34
518.706	3177.6
519.073	3183.48
519.44	3182.12
519.808	3204.04
520.175	3253.08
520.542	3308.67
520.909	3312.29
521.276	3365.62
521.643	3382.57
522.009	3360.19
522.376	3422.79
522.743	3444.03
523.11	3492.85
523.477	3467.54
523.843	3533.3
524.21	3531.49
524.577	3569.23
524.943	3630.47
525.31	3620.53
525.676	3701.65
526.043	3686.06
526.409	3753.86
526.776	3770.35
527.142	3792.5
527.508	3778.71
527.874	3839.05
528.241	3818.49
528.607	3846.51
528.973	3887.86
529.339	3910.69
529.705	3974.64
530.071	3985.71
530.437	3997.24
530.803	4019.16
531.169	4008.99
531.535	4048.99
531.901	4052.38
532.267	4106.16
532.632	4126.73
532.998	4129.44
533.364	4174.18
533.73	4156.56
534.095	4255.09
534.461	4208.53
534.826	4241.53
535.192	4318.59
535.557	4321.52
535.923	4316.1
536.288	4366.04
536.653	4367.63
537.019	4383.44
537.384	4452.59
537.749	4424.8
538.114	4451.46
538.479	4467.74
538.845	4502.99
539.21	4502.99
539.575	4503.44
539.94	4551.35
540.305	4597.22
540.67	4599.94
541.034	4579.82
541.399	4670.22
541.764	4673.61
542.129	4690.33
542.494	4709.31
542.858	4706.15
543.223	4706.83
543.587	4709.76
543.952	4777.11
544.316	4786.15
544.681	4801.06
545.045	4862.08
545.41	4859.14
545.774	4882.64
546.138	4893.04
546.503	4923.32
546.867	4922.64
547.231	5029.75
547.595	4977.78
547.959	5014.39
548.324	5076.08
548.688	5053.93
549.052	5099.81
549.416	5100.04
549.779	5119.24
550.143	5183.2
550.507	5199.47
550.871	5293.7
551.235	5254.61
551.599	5314.94
551.962	5341.16
552.326	5345.45
552.689	5371.89
553.053	5389.52
553.417	5413.25
553.78	5514.49
554.143	5507.71
554.507	5505.22
554.87	5479.69
555.234	5627.03
555.597	5574.6
555.96	5720.81
556.323	5675.84
556.686	5749.51
557.05	5788.6
557.413	5785.89
557.776	5825.44
558.139	5921.26
558.502	5975.27
558.865	5976.62
559.228	5996.96
559.59	6053.68
559.953	6098.2
560.316	6238.31
560.679	6230.18
561.041	6264.52
561.404	6318.76
561.767	6377.74
562.129	6419.32
562.492	6513.78
562.854	6529.83
563.217	6523.5
563.579	6627.68
563.941	6675.14
564.304	6674.01
564.666	6793.32
565.028	6814.57
565.39	6923.26
565.753	6973.21
566.115	6991.96
566.477	7083.49
566.839	7138.4
567.201	7173.65
567.563	7219.3
567.925	7368.68
568.287	7392.18
568.648	7440.31
569.01	7530.03
569.372	7695.45
569.734	7640.99
570.095	7706.97
570.457	7836.23
570.819	7913.97
571.18	7921.66
571.542	8052.05
571.903	8079.39
572.265	8143.35
572.626	8257.47
572.987	8382.66
573.349	8406.62
573.71	8581.75
574.071	8586.5
574.432	8674.63
574.794	8807.51
575.155	8825.36
575.516	8831.91
575.877	9045.69
576.238	9101.74
576.599	9227.16
576.96	9305.8
577.32	9399.81
577.681	9531.33
578.042	9569.07
578.403	9768.39
578.763	9885.67
579.124	9940.36
579.485	10111.88
579.845	10183.97
580.206	10297.19
580.566	10432.78
580.927	10561.81
581.287	10792.99
581.648	10840
582.008	11054.46
582.368	11144.4
582.728	11343.94
583.089	11429.81
583.449	11533.99
583.809	11773.53
584.169	11949.57
584.529	12107.31
584.889	12417.81
585.249	12501.42
585.609	12658.93
585.969	12956.1
586.329	13037
586.688	13302.53
587.048	13560.38
587.408	13726.93
587.768	13920.82
588.127	14227.48
588.487	14437.87
588.846	14757.86
589.206	14921.92
589.565	15101.81
589.925	15507.22
590.284	15734.33
590.643	15973.65
591.003	16248.67
591.362	16704.93
591.721	16776.56
592.08	17107.63
592.44	17569.76
592.799	17876.65
593.158	18192.35
593.517	18433.02
593.876	18783.52
594.235	19098.54
594.593	19472.31
594.952	19835.69
595.311	20068.68
595.67	20449.46
596.029	20964.7
596.387	21338.03
596.746	21678.36
597.104	21862.08
597.463	22280.83
597.822	22839
598.18	23044.87
598.538	23357.41
598.897	23905.42
599.255	24049.59
599.613	24713.98
599.972	25017.7
600.33	25394.64
600.688	25608.65
601.046	26161.85
601.404	26615.63
601.762	26809.3
602.12	27290.86
602.478	27633.68
602.836	28067.79
603.194	28299.88
603.552	28662.58
603.91	28930.14
604.268	29380.07
604.625	29660.52
604.983	30167.85
605.341	30365.59
605.698	30895.74
606.056	31303.87
606.413	31471.55
606.771	31959.89
607.128	32233.56
607.485	32303.84
607.843	32704.96
608.2	33202.12
608.557	33487.09
608.914	33683.69
609.272	34041.2
609.629	34480.05
609.986	34849.54
610.343	34896.31
610.7	35416.07
611.057	35583.3
611.414	35708.5
611.771	35934.25
612.127	36294.92
612.484	36547.12
612.841	36760.22
613.198	36986.65
613.554	37216.48
613.911	37559.29
614.267	37717.26
614.624	37955.67
614.98	38108.66
615.337	38380.52
615.693	38428.88
616.05	38646.05
616.406	39057.79
616.762	39063.89
617.118	39298.01
617.475	39399.02
617.831	39759.92
618.187	39912.45
618.543	40153.8
618.899	40563.06
619.255	40554.7
619.611	40670.63
619.967	40930.96
620.323	41208.92
620.678	41056.15
621.034	41147.45
621.39	41283.72
621.746	41442.36
622.101	41869.24
622.457	41592.64
622.812	41779.3
623.168	41907.2
623.523	42084.15
623.879	42418.15
624.234	42114.66
624.589	42285.27
624.945	42341.09
625.3	42465.61
625.655	42640.07
626.01	42678.26
626.365	42820.85
626.72	42818.59
627.075	42931.13
627.43	43118.47
627.785	42934.75
628.14	43098.13
628.495	43143.55
628.85	43092.93
629.205	43120.73
629.559	43538.35
629.914	43181.97
630.269	43355.75
630.623	43272.14
630.978	43351.01
631.332	43657.21
631.687	43709.19
632.041	43530.89
632.396	43669.19
632.75	43654.95
633.104	43729.53
633.459	43472.13
633.813	43568.4
634.167	43572.47
634.521	43730.21
634.875	43831.22
635.229	43770.21
635.583	43590.1
635.937	43746.25
636.291	43649.98
636.645	43613.15
636.999	43650.21
637.352	43700.15
637.706	43562.07
638.06	43763.2
638.413	43662.41
638.767	43572.92
639.121	43788.51
639.474	43559.36
639.828	43685.91
640.181	43870.54
640.534	43816.53
640.888	43617.44
641.241	43477.11
641.594	43691.56
641.947	43751.67
642.301	43686.82
642.654	43686.59
643.007	43736.31
643.36	43708.96
643.713	43691.79
644.066	43811.56
644.419	43508.74
644.771	43282.99
645.124	42858.82
645.477	42828.53
645.83	42633.74
646.182	42499.73
646.535	42487.3
646.888	42737.24
647.24	42491.37
647.593	42757.12
647.945	42640.29
648.298	42502.67
648.65	42427.42
649.002	42379.51
649.355	42487.07
649.707	42378.83
650.059	42607.52
650.411	43010.23
650.763	43097.91
651.115	43518.23
651.467	43383.32
651.819	43452.02
652.171	43328.41
652.523	43241.86
652.875	43431
653.227	43149.43
653.578	43367.05
653.93	43376.09
654.282	43280.05
654.633	43165.25
654.985	43224.23
655.337	43362.76
655.688	43236.43
656.039	43441.85
656.391	43066.04
656.742	43251.12
657.094	43075.08
657.445	43364.79
657.796	43179.03
658.147	43216.1
658.498	43119.15
658.849	43334.74
659.2	43157.79
659.551	43042.09
659.902	43158.47
660.253	43114.63
660.604	43228.3
660.955	42963.22
661.306	43166.15
661.656	43165.02
662.007	43077.57
662.358	43251.35
662.708	43224
663.059	43156.21
663.409	43001.41
663.76	43233.72
664.11	43251.8
664.461	43263.1
664.811	43115.76
665.161	43101.97
665.511	43022.65
665.862	43029.21
666.212	43199.37
666.562	43239.6
666.912	43147.62
667.262	43171.8
667.612	43159.83
667.962	43078.7
668.312	42993.95
668.662	43198.24
669.011	43149.43
669.361	43084.35
669.711	43067.17
670.06	42988.3
670.41	42911.47
670.76	42866.05
671.109	43115.98
671.459	42990.56
671.808	42901.98
672.157	43119.6
672.507	42735.88
672.856	42695.88
673.205	42833.96
673.554	42981.07
673.904	42805.71
674.253	42931.13
674.602	42785.6
674.951	42324.59
675.3	42124.6
675.649	42773.62
675.998	42736.56
676.346	42728.2
676.695	42739.72
677.044	42467.41
677.393	42675.77
677.741	42603.68
678.09	42608.65
678.438	42507.19
678.787	42481.65
679.135	42565.49
679.484	42256.57
679.832	42410.47
680.181	42258.38
680.529	42338.15
680.877	42246.86
681.225	42269.23
681.573	42511.71
681.922	42155.56
682.27	41892.29
682.618	42085.73
682.966	41936.13
683.314	42063.13
683.661	41969.57
684.009	41794.66
684.357	41791.73
684.705	41586.76
685.053	41731.16
685.4	41478.51
685.748	41360.78
686.095	41421.11
686.443	41300.44
686.79	41073.33
687.138	41223.38
687.485	41362.13
687.832	41137.96
688.18	41116.72
688.527	40972.76
688.874	41009.83
689.221	40809.6
689.568	40697.52
689.915	40685.77
690.262	40612.77
690.609	40497.52
690.956	40368.94
691.303	40417.75
691.65	40179.56
691.997	40322.16
692.344	39960.81
692.69	39961.49
693.037	39976.18
693.383	39723.53
693.73	39839.23
694.077	39579.35
694.423	39543.65
694.769	39365.8
695.116	39401.05
695.462	39426.59
695.808	39164.9
696.155	39298.46
696.501	38921.52
696.847	39076.54
697.193	38658.25
697.539	38963.33
697.885	38668.42
698.231	38553.17
698.577	38599.49
698.923	38462.32
699.269	38144.14
699.614	38060.98
699.96	37980.75
700.306	38025.27
700.651	37968.32
700.997	37670.25
701.342	37689.46
701.688	37651.72
702.033	37488.11
702.379	37405.17
702.724	37346.87
703.069	37537.83
703.415	37053.09
703.76	37186.2
704.105	37094.67
704.45	36917.5
704.795	36789.15
705.14	36698.75
705.485	36770.39
705.83	36629.15
706.175	36548.47
706.52	36501.02
706.865	36441.81
707.209	36380.12
707.554	36092.67
707.899	36274.58
708.243	36045.44
708.588	36110.97
708.932	35838.44
709.277	35836.4
709.621	35779.23
709.966	35570.42
710.31	35650.19
710.654	35448.84
710.998	35401.84
711.342	35490.2
711.687	35302.18
712.031	35179.92
712.375	35118.23
712.719	35210.2
713.063	35242.97
713.407	35115.74
713.75	34831.23
714.094	34991.45
714.438	34746.26
714.782	34794.62
715.125	34582.2
715.469	34699.03
715.812	34444.8
716.156	34365.25
716.499	34467.17
716.843	34354.86
717.186	34191.47
717.53	34454.97
717.873	34398.47
718.216	34184.69
718.559	34075.77
718.902	33881.88
719.246	33941.31
719.589	33895.44
719.932	33629.68
720.275	33728.89
720.617	33783.12
720.96	33679.17
721.303	33738.38
721.646	33652.5
721.989	33430.59
722.331	33585.39
722.674	33495.67
723.016	33429.69
723.359	33383.36
723.701	33207.54
724.044	33216.58
724.386	33116.7
724.729	33210.03
725.071	33192.18
725.413	33009.81
725.755	32974.78
726.097	32846.88
726.439	32793.54
726.782	32751.29
727.124	32842.81
727.465	32785.86
727.807	32738.86
728.149	32588.13
728.491	32645.53
728.833	32603.72
729.175	32344.74
729.516	32355.59
729.858	32290.28
730.199	32360.11
730.541	32257.51
730.882	32297.74
731.224	32292.09
731.565	32230.62
731.906	32117.86
732.248	32236.5
732.589	32013.9
732.93	31949.5
733.271	31991.98
733.612	31970.06
733.953	32043.96
734.294	31826.56
734.635	31688.94
734.976	31803.74
735.317	31802.61
735.658	31732.56
735.999	31670.18
736.339	31627.47
736.68	31745.66
737.021	31589.73
737.361	31503.86
737.702	31566.91
738.042	31455.73
738.383	31282.4
738.723	31425.67
739.063	31308.61
739.404	31324.2
739.744	31299.8
740.084	31239.91
740.424	31192.91
740.764	31115.85
741.104	31206.69
741.444	31013.25
741.784	30914.27
742.124	30954.5
742.464	30947.49
742.804	30887.61
743.143	30819.13
743.483	30899.58
743.823	30608.52
744.162	30677.89
744.502	30592.47
744.841	30550.67
745.181	30756.76
745.52	30474.28
745.86	30603.32
746.199	30436.32
746.538	30421.86
746.877	30546.6
747.216	30435.41
747.556	30367.39
747.895	30373.5
748.234	30273.84
748.573	30101.41
748.911	30244.23
749.25	30121.07
749.589	29995.43
749.928	30066.16
750.267	30133.28
750.605	30056.67
750.944	29941.19
751.283	29794.53
751.621	29846.96
751.96	29661.2
752.298	29714.3
752.636	29733.06
752.975	29533.29
753.313	29509.34
753.651	29732.38
753.989	29440.41
754.327	29475.89
754.666	29353.18
755.004	29232.73
755.342	29366.74
755.679	29284.71
756.017	29090.82
756.355	29237.93
756.693	29048.56
757.031	29111.16
757.368	28927.43
757.706	28949.13
758.044	28837.26
758.381	28864.38
758.719	28689.02
759.056	28849.24
759.394	28635.24
759.731	28461.23
760.068	28451.06
760.405	28283.83
760.743	28201.8
761.08	28341.01
761.417	28237.96
761.754	28107.11
762.091	28014.46
762.428	27900.79
762.765	27791.87
763.102	27878.19
763.438	27719.33
763.775	27686.33
764.112	27606.11
764.449	27556.62
764.785	27492.89
765.122	27297.64
765.458	27223.07
765.795	27088.61
766.131	27079.12
766.467	27040.25
766.804	26944.21
767.14	26865.11
767.476	26664.44
767.812	26649.75
768.148	26701.05
768.485	26549.87
768.821	26329.31
769.157	26298.57
769.492	26322.08
769.828	26195.3
770.164	26050.44
770.5	26101.07
770.836	26012.93
771.171	25906.27
771.507	25760.96
771.842	25574.75
772.178	25555.32
772.513	25538.37
772.849	25496.56
773.184	25298.83
773.519	25319.16
773.855	25223.8
774.19	25105.39
774.525	25149.23
774.86	25066.52
775.195	25016.35
775.53	24876.01
775.865	24812.96
776.2	24697.03
776.535	24474.44
776.87	24401.45
777.205	24333.88
777.539	24259.98
777.874	24297.95
778.209	24092.98
778.543	24086.43
778.878	23849.37
779.212	23944.29
779.547	23778.87
779.881	23718.75
780.215	23687.34
780.55	23542.49
780.884	23527.35
781.218	23410.97
781.552	23507.91
781.886	23254.36
782.22	23254.36
782.554	23117.41
782.888	22858.21
783.222	22842.62
783.556	22811.66
783.889	22628.61
784.223	22451.44
784.557	22520.14
784.89	22413.03
785.224	22335.51
785.557	22203.54
785.891	22208.06
786.224	22170.32
786.558	22115.41
786.891	21914.51
787.224	21760.61
787.557	21863.44
787.891	21756.09
788.224	21627.06
788.557	21761.29
788.89	21556.55
789.223	21554.97
789.556	21346.39
789.888	21338.03
790.221	21276.33
790.554	21198.37
790.887	21134.87
791.219	20941.2
791.552	20946.85
791.884	20867.53
792.217	20845.84
792.549	20677.48
792.882	20552.74
793.214	20483.13
793.546	20592.51
793.879	20313.42
794.211	20241.78
794.543	20362.01
794.875	20221.45
795.207	20398.16
795.539	20217.83
795.871	20228.45
796.203	20028
796.535	19886.99
796.867	19893.54
797.198	19789.82
797.53	19891.96
797.862	19563.84
798.193	19672.31
798.525	19606.77
798.856	19663.72
799.188	19468.02
799.519	19372.43
799.85	19215.14
800.182	19322.49
800.513	19150.29
800.844	19098.99
801.175	19197.29
801.506	19232.77
801.837	19037.97
802.168	18974.47
802.499	18931.31
802.83	18846.79
803.161	18767.02
803.491	18755.04
803.822	18730.19
804.153	18616.29
804.483	18519.57
804.814	18471.66
805.145	18440.25
805.475	18418.33
805.805	18312.12
806.136	18243.87
806.466	18288.62
806.796	18257.66
807.126	18170.88
807.457	18055.85
807.787	18096.3
808.117	17972.24
808.447	17916.2
808.777	17945.8
809.107	17889.08
809.436	17767.95
809.766	17850.21
810.096	17774.73
810.426	17705.58
810.755	17625.13
811.085	17597.11
811.414	17675.98
811.744	17523.89
812.073	17400.05
812.403	17465.36
812.732	17373.38
813.061	17315.99
813.39	17271.47
813.719	17245.03
814.049	17216.33
814.378	17168.42
814.707	17123.9
815.036	17039.83
815.365	17014.3
815.693	16887.07
816.022	16932.27
816.351	16871.7
816.68	16680.07
817.008	16864.7
817.337	16591.94
817.665	16604.14
817.994	16668.77
818.322	16617.7
818.651	16558.27
818.979	16432.39
819.307	16616.34
819.636	16486.63
819.964	16335.67
820.292	16494.76
820.62	16337.48
820.948	16360.98
821.276	16384.26
821.604	16373.19
821.932	16401.66
822.259	16396.91
822.587	16337.93
822.915	16292.74
823.243	16303.58
823.57	16283.02
823.898	16282.34
824.225	16266.75
824.553	16227.2
824.88	16289.57
825.207	16357.14
825.535	16327.99
825.862	16284.37
826.189	16205.96
826.516	16261.55
826.843	16254.09
827.17	16279.18
827.497	16393.52
827.824	16260.19
828.151	16242.12
828.478	16211.16
828.805	16294.54
829.131	16252.06
829.458	16299.97
829.785	16026.98
830.111	16183.81
830.438	16231.49
830.764	16203.47
831.09	16201.89
831.417	16110.82
831.743	16220.19
832.069	16256.13
832.395	16098.39
832.722	16161.21
833.048	16209.35
833.374	16181.33
833.7	16095.68
834.026	16140.88
834.351	16136.81
834.677	16087.54
835.003	16098.16
835.329	16124.6
835.654	15992.86
835.98	15901.33
836.306	16019.75
836.631	15965.74
836.956	16012.97
837.282	15933.87
837.607	15843.26
837.932	15873.54
838.258	15832.63
838.583	15880.99
838.908	15739.98
839.233	15829.47
839.558	15695.01
839.883	15652.07
840.208	15673.77
840.533	15677.84
840.858	15739.98
841.182	15662.47
841.507	15664.28
841.832	15518.07
842.156	15555.81
842.481	15522.59
842.805	15396.26
843.13	15361.01
843.454	15342.25
843.778	15306.55
844.103	15323.72
844.427	15150.62
844.751	15244.63
845.075	15275.59
845.399	15187.23
845.723	15070.85
846.047	15028.81
846.371	14963.05
846.695	14948.82
847.019	14855.26
847.343	14782.04
847.666	14636.73
847.99	14653.23
848.313	14677.41
848.637	14568.49
848.96	14526
849.284	14507.02
849.607	14373.46
849.931	14338.21
850.254	14253.02
850.577	14138.67
850.9	14114.04
851.223	14123.53
851.546	13989.52
851.869	13951.1
852.192	14029.52
852.515	13880.6
852.838	13872.69
853.161	13798.79
853.483	13801.95
853.806	13712.46
854.129	13651.9
854.451	13556.76
854.774	13579.36
855.096	13480.15
855.419	13495.75
855.741	13384.79
856.063	13313.6
856.385	13295.3
856.708	13399.93
857.03	13280.61
857.352	13283.55
857.674	13253.04
857.996	13148.86
858.318	13129.2
858.64	13127.62
858.961	13032.93
859.283	13040.39
859.605	12993.39
859.926	12994.07
860.248	13055.08
860.57	12808.08
860.891	12895.54
861.212	12730.8
861.534	12760.4
861.855	12772.6
862.176	12688.76
862.498	12827.52
862.819	12797.01
863.14	12647.86
863.461	12629.33
863.782	12595.88
864.103	12515.66
864.424	12538.71
864.745	12682.43
865.065	12510.46
865.386	12521.31
865.707	12494.19
866.027	12514.53
866.348	12462.1
866.668	12358.83
866.989	12350.69
867.309	12217.14
867.63	12324.48
867.95	12403.12
868.27	12204.03
868.59	12301.65
868.91	12222.79
869.23	12146.4
869.55	12134.88
869.87	12193.41
870.19	12046.29
870.51	12146.63
870.83	12193.41
871.15	12195.44
871.469	12072.96
871.789	12055.78
872.109	12067.99
872.428	11949.12
872.748	12034.09
873.067	11948.89
873.386	11993.19
873.706	11983.92
874.025	11976.69
874.344	11905.51
874.663	11959.29
874.982	11880.65
875.301	11888.78
875.62	11796.81
875.939	11817.37
876.258	11808.56
876.577	11772.18
876.896	11778.5
877.214	11766.98
877.533	11670.48
877.852	11634.78
878.17	11707.09
878.489	11646.08
878.807	11691.95
879.125	11663.25
879.444	11614.89
879.762	11563.82
880.08	11517.04
880.398	11464.61
880.716	11474.78
881.034	11481.79
881.352	11501.45
881.67	11447.89
881.988	11431.62
882.306	11481.56
882.624	11376.03
882.941	11322.47
883.259	11360.66
883.577	11250.38
883.894	11275.47
884.212	11283.15
884.529	11235.69
884.846	11145.75
885.164	11239.08
885.481	11134.9
885.798	11146.88
886.115	10971.75
886.432	11098.3
886.75	10998.19
887.067	11037.05
887.383	10985.98
887.7	10971.75
888.017	10873.22
888.334	10930.39
888.651	10839.55
888.967	10839.77
889.284	10819.43
889.6	10777.4
889.917	10718.87
890.233	10718.42
890.55	10699.66
890.866	10746.21
891.182	10615.37
891.498	10573.34
891.815	10513.45
892.131	10509.16
892.447	10540.12
892.763	10501.48
893.079	10437.75
893.395	10500.8
893.71	10439.33
894.026	10383.96
894.342	10338.32
894.657	10275.94
894.973	10245.66
895.289	10209.28
895.604	10250.18
895.92	10144.2
896.235	10112.78
896.55	10112.33
896.865	10122.28
897.181	10023.75
897.496	9960.7
897.811	10008.38
898.126	9930.87
898.441	9989.4
898.756	9894.26
899.071	9801.15
899.386	9883.19
899.7	9758.44
900.015	9686.36
900.33	9595.96
900.644	9668.95
900.959	9634.83
901.273	9551.9
901.588	9572.23
901.902	9494.27
902.216	9467.83
902.531	9494.72
902.845	9438
903.159	9421.73
903.473	9320.26
903.787	9276.65
904.101	9247.95
904.415	9211.11
904.729	9221.73
905.042	9153.71
905.356	9138.8
905.67	9101.29
905.984	9152.58
906.297	9052.25
906.611	8991.01
906.924	8939.71
907.237	8997.79
907.551	8926.15
907.864	8819.03
908.177	8865.36
908.491	8815.87
908.804	8733.16
909.117	8798.7
909.43	8657.46
909.743	8583.33
910.056	8692.03
910.368	8564.58
910.681	8530.68
910.994	8528.65
911.307	8458.59
911.619	8406.16
911.932	8401.19
912.244	8372.94
912.557	8316.67
912.869	8307.18
913.181	8250.24
913.494	8267.18
913.806	8199.84
914.118	8190.12
914.43	8109.22
914.742	8069.22
915.054	8048.43
915.366	8013.18
915.678	7995.55
915.99	8035.55
916.302	7944.71
916.613	7857.48
916.925	7870.36
917.236	7895.89
917.548	7790.59
917.859	7784.71
918.171	7736.35
918.482	7659.97
918.794	7695.9
919.105	7601.66
919.416	7609.57
919.727	7588.78
920.038	7556.47
920.349	7461.56
920.66	7452.52
920.971	7522.8
921.282	7492.74
921.593	7403.93
921.903	7326.87
922.214	7250.49
922.525	7254.78
922.835	7219.3
923.146	7238.28
923.456	7226.53
923.767	7109.02
924.077	7144.05
924.387	7098.85
924.697	6998.29
925.008	7064.05
925.318	6997.16
925.628	7049.81
925.938	6967.78
926.248	6897.95
926.558	6826.32
926.867	6882.81
927.177	6828.8
927.487	6796.71
927.796	6714.46
928.106	6710.16
928.416	6702.71
928.725	6766.43
929.034	6668.13
929.344	6684.4
929.653	6602.14
929.962	6546.55
930.271	6579.32
930.581	6505.42
930.89	6457.29
931.199	6390.4
931.508	6435.37
931.817	6433.56
932.125	6397.4
932.434	6444.86
932.743	6314.69
933.051	6297.29
933.36	6261.59
933.669	6234.69
933.977	6182.72
934.286	6203.74
934.594	6149.05
934.902	6187.01
935.21	6067.02
935.519	6053
935.827	6110.4
936.135	6017.53
936.443	5998.99
936.751	5963.52
937.059	5956.06
937.367	5911.09
937.674	5863.41
937.982	5870.41
938.29	5879.9
938.597	5827.25
938.905	5768.04
939.213	5797.19
939.52	5723.07
939.827	5721.49
940.135	5674.48
940.442	5639.46
940.749	5685.78
941.056	5639.91
941.363	5562.4
941.67	5575.96
941.977	5541.15
942.284	5518.56
942.591	5489.18
942.898	5512.23
943.205	5477.43
943.511	5405.79
943.818	5374.6
944.125	5429.97
944.431	5399.24
944.738	5303.87
945.044	5317.66
945.35	5253.48
945.657	5239.24
945.963	5208.28
946.269	5215.29
946.575	5196.08
946.881	5186.36
947.187	5154.95
947.493	5157.66
947.799	5102.75
948.105	5133.93
948.41	5074.95
948.716	5044.44
949.022	5021.62
949.327	4994.05
949.633	4989.08
949.938	4972.81
950.244	4951.79
950.549	4851.91
950.854	4829.08
951.16	4872.24
951.465	4807.61
951.77	4843.32
952.075	4800.38
952.38	4790.21
952.685	4804.68
952.99	4768.29
953.294	4705.92
953.599	4728.07
953.904	4666.15
954.209	4614.85
954.513	4632.93
954.818	4603.78
955.122	4617.11
955.426	4572.37
955.731	4544.57
956.035	4510.45
956.339	4508.86
956.643	4538.02
956.948	4459.6
957.252	4440.17
957.556	4469.77
957.86	4446.27
958.163	4436.32
958.467	4385.48
958.771	4366.27
959.075	4346.16
959.378	4318.59
959.682	4317.01
959.985	4283.33
960.289	4251.24
960.592	4237.01
960.896	4239.95
961.199	4203.34
961.502	4190.91
961.805	4134.41
962.108	4148.87
962.411	4191.81
962.714	4104.13
963.017	4154.98
963.32	4070.46
963.623	4075.43
963.926	4047.18
964.228	4010.57
964.531	3977.81
964.833	4018.48
965.136	3936.22
965.438	3968.09
965.741	3952.04
966.043	3924.7
966.345	3891.71
966.648	3901.2
966.95	3874.53
967.252	3832.95
967.554	3853.74
967.856	3830.24
968.158	3797.7
968.46	3797.02
968.761	3760.86
969.063	3769.22
969.365	3763.8
969.666	3703.91
969.968	3672.73
970.269	3718.83
970.571	3674.99
970.872	3629.34
971.174	3637.7
971.475	3579.17
971.776	3630.7
972.077	3588.21
972.378	3607.42
972.679	3584.14
972.98	3543.24
973.281	3523.58
973.582	3503.47
973.883	3508.89
974.183	3475.9
974.484	3482.68
974.785	3437.93
975.085	3423.7
975.386	3437.25
975.686	3434.77
975.986	3384.37
976.287	3393.19
976.587	3366.75
976.887	3321.1
977.187	3324.49
977.487	3346.64
977.787	3289.01
978.087	3274.77
978.387	3296.47
978.687	3267.77
978.987	3274.09
979.286	3229.12
979.586	3252.4
979.885	3175.11
980.185	3164.27
980.484	3160.88
980.784	3172.4
981.083	3138.73
981.382	3132.86
981.682	3152.06
981.981	3135.34
982.28	3109.81
982.579	3060.09
982.878	3058.51
983.177	3035.91
983.475	3040.2
983.774	3042.46
984.073	2977.61
984.372	2981.9
984.67	2963.37
984.969	2949.81
985.267	2948
985.566	2922.47
985.864	2900.55
986.162	2921.79
986.461	2907.32
986.759	2891.28
987.057	2838.4
987.355	2856.7
987.653	2847.89
987.951	2826.87
988.249	2825.07
988.547	2814.9
988.844	2774.45
989.142	2812.19
989.44	2745.97
989.737	2720.44
990.035	2745.07
990.332	2723.15
990.63	2729.25
990.927	2703.04
991.224	2717.05
991.521	2670.72
991.819	2674.11
992.116	2686.09
992.413	2660.1
992.71	2623.49
993.006	2624.62
993.303	2616.94
993.6	2598.86
993.897	2573.32
994.193	2566.99
994.49	2576.71
994.787	2543.49
995.083	2503.27
995.379	2482.48
995.676	2506.21
995.972	2484.06
996.268	2451.07
996.565	2467.34
996.861	2465.98
997.157	2474.57
997.453	2404.74
997.749	2400.9
998.044	2413.1
998.34	2377.17
998.636	2385.98
998.932	2385.53
999.227	2359.09
999.523	2361.8
999.818	2372.88
1000.114	2309.6
1000.409	2294.69
1000.704	2309.15
1001	2263.27
1001.295	2273.22
1001.59	2240.22
1001.885	2245.42
1002.18	2250.84
1002.475	2220.11
1002.77	2235.03
1003.065	2203.16
1003.359	2186.89
1003.654	2174.24
1003.949	2167.68
1004.243	2158.87
1004.538	2154.35
1004.832	2126.33
1005.127	2114.58
1005.421	2107.8
1005.715	2062.15
1006.009	2056.05
1006.304	2095.14
1006.598	2060.57
1006.892	2058.76
1007.186	2016.95
1007.48	2042.94
1007.773	2008.14
1008.067	2017.18
1008.361	1973.34
1008.655	1986.9
1008.948	1962.04
1009.242	1943.28
1009.535	1951.64
1009.829	1927.24
1010.122	1923.62
1010.415	1914.13
1010.708	1906.22
1011.001	1887.69
1011.295	1910.97
1011.588	1866.9
1011.881	1855.15
1012.173	1847.47
1012.466	1826.45
1012.759	1837.97
1013.052	1832.32
1013.344	1813.57
1013.637	1809.5
1013.93	1759.78
1014.222	1757.07
1014.514	1774.93
1014.807	1719.56
1015.099	1734.93
1015.391	1738.54
1015.683	1694.48
1015.976	1719.11
1016.268	1698.77
1016.56	1663.74
1016.851	1660.8
1017.143	1665.1
1017.435	1674.59
1017.727	1654.48
1018.018	1638.66
1018.31	1617.87
1018.602	1607.7
1018.893	1597.75
1019.185	1590.3
1019.476	1585.1
1019.767	1557.53
1020.058	1570.41
1020.35	1564.76
1020.641	1543.29
1020.932	1541.26
1021.223	1497.64
1021.514	1528.38
1021.804	1470.75
1022.095	1472.56
1022.386	1457.42
1022.677	1491.32
1022.967	1463.75
1023.258	1438.89
1023.548	1420.13
1023.839	1406.35
1024.129	1430.75
1024.419	1422.39
1024.709	1398.44
1025	1376.74
1025.29	1381.72
1025.58	1362.51
1025.87	1356.18
1026.16	1339
1026.449	1367.03
1026.739	1324.99
1027.029	1317.08
1027.319	1329.74
1027.608	1327.48
1027.898	1291.55
1028.187	1323.19
1028.477	1283.19
1028.766	1263.53
1029.055	1266.01
1029.344	1250.65
1029.634	1228.72
1029.923	1271.44
1030.212	1249.52
1030.501	1246.8
1030.79	1230.08
1031.078	1191.89
1031.367	1200.02
1031.656	1184.88
1031.945	1168.84
1032.233	1171.1
1032.522	1171.55
1032.81	1164.55
1033.099	1134.72
1033.387	1139.01
1033.675	1129.97
1033.963	1112.8
1034.251	1125.45
1034.54	1137.2
1034.828	1076.86
1035.116	1094.94
1035.403	1114.6
1035.691	1092.68
1035.979	1094.94
1036.267	1058.79
1036.554	1080.25
1036.842	1047.94
1037.129	1062.18
1037.417	1075.28
1037.704	1039.13
1037.992	1017.66
1038.279	1002.74
1038.566	1036.19
1038.853	1036.19
1039.14	1036.19
