Data from red_shiny_book_FLMS001491_00004.txt Node
Date: Wed Feb 08 15:23:33 GMT 2017
User: dcchb
Spectrometer: FLMS00149
Trigger mode: 0
Integration Time (sec): 2.000000E-2
Scans to average: 10
Electric dark correction enabled: true
Nonlinearity correction enabled: false
Boxcar width: 0
XAxis mode: Wavelengths
Number of Pixels in Spectrum: 2048
>>>>>Begin Spectral Data<<<<<
341.393	-11.12
341.776	-11.12
342.16	-11.12
342.543	-74.16
342.927	-68.52
343.31	-65.13
343.693	-66.71
344.077	-61.51
344.46	-73.94
344.843	-69.42
345.226	-53.37
345.61	-44.33
345.993	5.16
346.376	5.16
346.759	40.18
347.142	24.59
347.525	27.53
347.908	56.68
348.291	87.41
348.674	84.48
349.057	103.23
349.44	130.35
349.823	132.16
350.206	164.93
350.588	222.1
350.971	208.99
351.354	231.82
351.737	240.86
352.119	239.73
352.502	266.39
352.884	285.37
353.267	285.15
353.65	295.09
354.032	292.61
354.414	313.62
354.797	317.01
355.179	345.71
355.562	337.12
355.944	345.49
356.326	330.12
356.709	356.56
357.091	352.04
357.473	337.58
357.855	363.34
358.238	361.3
358.62	354.98
359.002	344.36
359.384	346.62
359.766	342.1
360.148	355.88
360.53	345.71
360.912	360.85
361.294	351.36
361.676	362.66
362.057	347.29
362.439	342.55
362.821	314.53
363.203	333.73
363.584	335.99
363.966	316.33
364.348	322.21
364.729	332.38
365.111	343
365.493	347.29
365.874	321.98
366.256	325.82
366.637	327.41
367.019	344.13
367.4	339.84
367.781	344.13
368.163	330.57
368.544	357.69
368.925	324.92
369.306	338.25
369.688	330.8
370.069	326.05
370.45	336.22
370.831	322.44
371.212	344.58
371.593	320.85
371.974	354.52
372.355	316.79
372.736	316.56
373.117	322.21
373.498	338.48
373.879	328.31
374.26	342.55
374.641	340.29
375.021	334.41
375.402	346.16
375.783	346.62
376.163	357.46
376.544	349.78
376.925	365.37
377.305	348.2
377.686	356.56
378.066	344.13
378.447	321.98
378.827	340.51
379.208	338.25
379.588	343.9
379.968	348.42
380.349	350.23
380.729	345.03
381.109	384.81
381.489	340.97
381.87	352.04
382.25	364.69
382.63	390
383.01	352.04
383.39	366.28
383.77	355.2
384.15	354.3
384.53	361.98
384.91	374.64
385.29	383
385.67	379.83
386.049	368.76
386.429	371.93
386.809	384.58
387.189	378.03
387.568	367.86
387.948	391.13
388.328	395.2
388.707	379.38
389.087	394.3
389.466	376.22
389.846	376.22
390.225	385.71
390.605	396.56
390.984	404.69
391.363	396.33
391.743	392.49
392.122	404.01
392.501	406.27
392.881	401.98
393.26	394.07
393.639	420.96
394.018	417.35
394.397	406.73
394.776	402.43
395.155	410.12
395.534	426.39
395.913	424.35
396.292	443.11
396.671	423.9
397.05	411.02
397.429	411.25
397.808	405.37
398.186	389.1
398.565	423
398.944	426.16
399.323	423.45
399.701	446.73
400.08	439.27
400.458	409.66
400.837	418.03
401.215	424.81
401.594	446.05
401.972	444.01
402.351	418.48
402.729	476.33
403.107	475.43
403.486	458.25
403.864	471.58
404.242	487.85
404.62	461.41
404.999	446.27
405.377	459.38
405.755	465.71
406.133	479.49
406.511	474.3
406.889	484.01
407.267	474.97
407.645	479.04
408.023	488.31
408.401	475.43
408.779	493.28
409.156	474.75
409.534	498.02
409.912	520.85
410.29	520.4
410.667	517.91
411.045	511.58
411.422	522.2
411.8	526.95
412.178	526.72
412.555	527.18
412.933	532.37
413.31	521.98
413.687	540.06
414.065	551.13
414.442	548.87
414.819	559.94
415.197	569.66
415.574	581.19
415.951	598.13
416.328	594.52
416.705	564.01
417.082	584.12
417.46	581.64
417.837	582.99
418.214	585.25
418.591	625.03
418.967	625.03
419.344	618.92
419.721	626.38
420.098	614.18
420.475	628.42
420.852	618.7
421.228	615.53
421.605	625.7
421.982	649.21
422.358	671.35
422.735	641.52
423.111	670.22
423.488	663.89
423.864	670.45
424.241	684.01
424.617	666.61
424.994	664.8
425.37	692.82
425.746	663.67
426.123	672.93
426.499	679.94
426.875	722.65
427.251	723.55
427.627	738.7
428.003	736.66
428.379	708.19
428.756	706.83
429.132	705.93
429.507	747.96
429.883	730.79
430.259	763.55
430.635	765.81
431.011	789.99
431.387	780.73
431.763	785.7
432.138	775.98
432.514	786.6
432.89	804
433.265	820.05
433.641	793.84
434.016	792.93
434.392	804.91
434.767	811.91
435.143	829.99
435.518	845.59
435.894	863.21
436.269	869.54
436.644	853.27
437.02	870.22
437.395	869.54
437.77	876.32
438.145	880.39
438.52	861.63
438.895	876.09
439.271	871.35
439.646	897.11
440.021	915.19
440.395	912.93
440.77	940.95
441.145	946.6
441.52	946.6
441.895	925.58
442.27	933.49
442.645	934.4
443.019	915.19
443.394	925.13
443.769	923.32
444.143	949.76
444.518	964.68
444.892	963.1
445.267	1013.04
445.641	1008.74
446.016	1009.65
446.39	985.47
446.764	1002.19
447.139	986.82
447.513	974.4
447.887	984.11
448.262	979.59
448.636	983.89
449.01	1011.91
449.384	1036.99
449.758	1072.25
450.132	1043.55
450.506	1070.66
450.88	1073.83
451.254	1042.64
451.628	1045.13
452.002	1053.72
452.376	1033.38
452.75	1036.54
453.123	1057.56
453.497	1072.92
453.871	1068.18
454.244	1139.36
454.618	1104.11
454.992	1143.66
455.365	1153.6
455.739	1141.4
456.112	1157.89
456.486	1118.12
456.859	1120.83
457.232	1131
457.606	1121.28
457.979	1140.04
458.352	1168.29
458.725	1182.07
459.099	1218.68
459.472	1253.71
459.845	1252.58
460.218	1257.55
460.591	1255.74
460.964	1230.21
461.337	1245.35
461.71	1253.03
462.083	1225.69
462.456	1232.92
462.829	1252.81
463.201	1242.86
463.574	1253.94
463.947	1313.14
464.32	1360.15
464.692	1358.34
465.065	1366.93
465.438	1363.76
465.81	1395.18
466.183	1398.56
466.555	1397.66
466.928	1353.37
467.3	1358.57
467.672	1346.81
468.045	1380.26
468.417	1377.55
468.789	1421.62
469.161	1442.41
469.534	1509.07
469.906	1515.85
470.278	1550.2
470.65	1584.77
471.022	1555.85
471.394	1568.28
471.766	1571.22
472.138	1574.83
472.51	1555.85
472.882	1527.6
473.253	1555.17
473.625	1605.34
473.997	1629.97
474.369	1682.17
474.74	1712
475.112	1755.17
475.484	1817.99
475.855	1812.11
476.227	1850.53
476.598	1855.73
476.97	1839.23
477.341	1836.07
477.713	1824.09
478.084	1810.31
478.455	1898.89
478.827	1867.25
479.198	1912
479.569	1965.1
479.94	1995.39
480.311	2053.69
480.682	2146.12
481.053	2192.22
481.424	2229.73
481.795	2219.79
482.166	2225.21
482.537	2207.36
482.908	2195.15
483.279	2166.23
483.65	2209.39
484.021	2242.84
484.391	2267.47
484.762	2303.4
485.133	2375.94
485.503	2407.13
485.874	2529.16
486.244	2568.03
486.615	2663.84
486.985	2692.99
487.356	2729.38
487.726	2699.77
488.097	2691.19
488.467	2674.46
488.837	2723.73
489.207	2649.15
489.578	2684.41
489.948	2703.62
490.318	2770.51
490.688	2802.82
491.058	2942.93
491.428	3036.94
491.798	3077.62
492.168	3169.82
492.538	3196.71
492.908	3194
493.278	3246.65
493.648	3178.18
494.017	3172.08
494.387	3165.52
494.757	3102.25
495.126	3130.04
495.496	3123.49
495.866	3155.81
496.235	3209.36
496.605	3271.06
496.974	3355.8
497.344	3439.42
497.713	3489.13
498.082	3558.06
498.452	3629.47
498.821	3673.53
499.19	3626.75
499.559	3622.24
499.928	3547.89
500.298	3541.11
500.667	3475.35
501.036	3432.41
501.405	3493.2
501.774	3467.44
502.143	3545.4
502.512	3570.26
502.88	3647.77
503.249	3729.13
503.618	3823.59
503.987	3858.61
504.356	3946.75
504.724	3963.92
505.093	3944.94
505.462	3890.48
505.83	3848.67
506.199	3795.79
506.567	3762.34
506.936	3724.61
507.304	3697.49
507.672	3699.3
508.041	3747.2
508.409	3771.38
508.777	3879.63
509.145	3905.62
509.514	3998.04
509.882	4057.48
510.25	4083.92
510.618	4203.91
510.986	4202.78
511.354	4232.84
511.722	4170.47
512.09	4148.32
512.458	4039.85
512.826	4012.28
513.193	3943.81
513.561	3919.18
513.929	3873.75
514.297	3967.31
514.664	4009.57
515.032	4078.72
515.4	4156.46
515.767	4216.12
516.135	4316.68
516.502	4316.45
516.869	4404.81
517.237	4455.21
517.604	4445.26
517.972	4475.09
518.339	4372.95
518.706	4286.17
519.073	4252.73
519.44	4191.26
519.808	4174.31
520.175	4090.92
520.542	4120.98
520.909	4157.14
521.276	4223.8
521.643	4320.3
522.009	4424.93
522.376	4516.45
522.743	4603.23
523.11	4661.3
523.477	4758.93
523.843	4842.77
524.21	4812.71
524.577	4770.91
524.943	4756.22
525.31	4700.17
525.676	4663.34
526.043	4598.48
526.409	4555.77
526.776	4510.57
527.142	4500.18
527.508	4521.87
527.874	4660.4
528.241	4754.18
528.607	4830.79
528.973	4959.38
529.339	5086.83
529.705	5233.27
530.071	5316.65
530.437	5393.49
530.803	5403.21
531.169	5391.45
531.535	5323.89
531.901	5266.71
532.267	5164.57
532.632	5185.13
532.998	5057.23
533.364	5042.08
533.73	5000.96
534.095	5091.8
534.461	5062.65
534.826	5193.04
535.192	5252.47
535.557	5397.33
535.923	5535.86
536.288	5637.32
536.653	5788.51
537.019	5890.65
537.384	5894.04
537.749	5978.33
538.114	5939.46
538.479	5934.49
538.845	5860.59
539.21	5731.56
539.575	5658.11
539.94	5585.8
540.305	5572.69
540.67	5514.84
541.034	5506.93
541.399	5580.38
541.764	5640.71
542.129	5781.73
542.494	5884.77
542.858	6021.04
543.223	6174.94
543.587	6238.66
543.952	6372.45
544.316	6440.69
544.681	6480.01
545.045	6524.98
545.41	6435.49
545.774	6487.92
546.138	6346.46
546.503	6274.82
546.867	6175.84
547.231	6131.77
547.595	6014.04
547.959	5981.72
548.324	6003.19
548.688	6014.26
549.052	6041.15
549.416	6113.24
549.779	6218.33
550.143	6462.16
550.507	6600.69
550.871	6677.52
551.235	6764.07
551.599	6869.83
551.962	6852.43
552.326	6831.42
552.689	6868.48
553.053	6710.97
553.417	6690.63
553.78	6603.85
554.143	6542.61
554.507	6414.48
554.87	6322.73
555.234	6262.84
555.597	6263.3
555.96	6280.24
556.323	6354.37
556.686	6366.57
557.05	6539.22
557.413	6671.65
557.776	6801.81
558.139	6908.48
558.502	7085.65
558.865	7158.64
559.228	7298.75
559.59	7338.3
559.953	7325.87
560.316	7315.47
560.679	7257.62
561.041	7170.84
561.404	7041.35
561.767	6906.67
562.129	6855.14
562.492	6748.25
562.854	6617.18
563.217	6618.99
563.579	6635.04
563.941	6756.84
564.304	6809.04
564.666	6958.64
565.028	7027.57
565.39	7216.94
565.753	7422.14
566.115	7569.93
566.477	7667.55
566.839	7703.03
567.201	7850.37
567.563	7850.15
567.925	7842.92
568.287	7802.69
568.648	7638.85
569.01	7593.43
569.372	7560.21
569.734	7341.91
570.095	7312.99
570.457	7314.79
570.819	7200.9
571.18	7152.09
571.542	7204.51
571.903	7229.15
572.265	7359.54
572.626	7578.06
572.987	7724.95
573.349	7932.18
573.71	8172.17
574.071	8330.13
574.432	8469.79
574.794	8569
575.155	8755.66
575.516	8759.5
575.877	8794.53
576.238	8720.86
576.599	8775.55
576.96	8674.53
577.32	8626.85
577.681	8599.96
578.042	8549.56
578.403	8544.82
578.763	8540.3
579.124	8608.54
579.485	8695.32
579.845	8837.01
580.206	9037.46
580.566	9343.21
580.927	9623.66
581.287	9957.66
581.648	10278.33
582.008	10676.29
582.368	11001.93
582.728	11350.17
583.089	11665.41
583.449	11903.83
583.809	12243.25
584.169	12538.84
584.529	12755.1
584.889	13035.77
585.249	13194.19
585.609	13348.08
585.969	13639.15
586.329	13854.73
586.688	14143.77
587.048	14450.43
587.408	14649.52
587.768	15070.07
588.127	15647
588.487	16024.17
588.846	16665.96
589.206	17223.46
589.565	17722.88
589.925	18430.21
590.284	19019.34
590.643	19694.58
591.003	20390.61
591.362	21042.79
591.721	21510.8
592.08	21970.23
592.44	22589.87
592.799	22838.45
593.158	23425.33
593.517	23819.9
593.876	24192.77
594.235	24566.77
594.593	24835.24
594.952	25351.61
595.311	25691.71
595.67	26259.83
596.029	26835.64
596.387	27131.67
596.746	27741.15
597.104	28250.06
597.463	28814.34
597.822	29667.65
598.18	30026.51
598.538	30668.3
598.897	31592.12
599.255	31918.67
599.613	33021.24
599.972	33201.34
600.33	33924.49
600.688	34301.2
601.046	34938.93
601.404	35416.2
601.762	35665.69
602.12	36147.03
602.478	36627.92
602.836	36813.9
603.194	36968.93
603.552	37198.08
603.91	37286.43
604.268	37878.28
604.625	38094.55
604.983	38553.75
605.341	38644.37
605.698	39428.3
606.056	39881.17
606.413	39976.76
606.771	40847.25
607.128	41247.91
607.485	41473.22
607.843	41929.48
608.2	42542.57
608.557	43077.24
608.914	43335.09
609.272	43916.77
609.629	44246.48
609.986	44626.58
610.343	44712.45
610.7	44916.52
611.057	45182.27
611.414	45289.84
611.771	45346.34
612.127	45573.45
612.484	45555.6
612.841	45756.95
613.198	45635.37
613.554	45924.17
613.911	46172.3
614.267	46197.16
614.624	46300.89
614.98	46564.61
615.337	46918.5
615.693	47135.67
616.05	47266.29
616.406	47671.47
616.762	47857.23
617.118	48095.19
617.475	48329.08
617.831	48628.96
618.187	48905.56
618.543	49023.53
618.899	49416.29
619.255	49388.72
619.611	49544.87
619.967	49590.74
620.323	49614.47
620.678	49653.12
621.034	49417.87
621.39	49508.49
621.746	49303.52
622.101	49735.6
622.457	49326.8
622.812	49456.74
623.168	49482.05
623.523	49492.44
623.879	49703.28
624.234	49487.47
624.589	49631.42
624.945	49745.09
625.3	49967.46
625.655	50128.13
626.01	50297.39
626.365	50345.98
626.72	50529.25
627.075	50659.42
627.43	50619.87
627.785	50791.39
628.14	50943.48
628.495	51131.95
628.85	51024.38
629.205	50926.75
629.559	51268.89
629.914	50961.33
630.269	50966.75
630.623	50809.92
630.978	50735.35
631.332	50774.44
631.687	50708
632.041	50436.15
632.396	50284.06
632.75	50241.57
633.104	50348.46
633.459	50193.44
633.813	50207
634.167	50178.75
634.521	50216.26
634.875	50385.98
635.229	50414.45
635.583	50333.55
635.937	50416.49
636.291	50477.73
636.645	50590.49
636.999	50718.17
637.352	50795.46
637.706	50639.3
638.06	50797.04
638.413	50787.1
638.767	50720.88
639.121	50751.84
639.474	50596.37
639.828	50585.75
640.181	50469.14
640.534	50436.15
640.888	50300.1
641.241	50051.75
641.594	49923.39
641.947	50012.43
642.301	49861.92
642.654	49928.14
643.007	49767.91
643.36	49671.65
643.713	49545.55
644.066	49740.12
644.419	49474.59
644.771	49348.04
645.124	48978.56
645.477	49045
645.83	48914.6
646.182	49028.95
646.535	49016.75
646.888	49212.22
647.24	49010.19
647.593	49417.87
647.945	49289.74
648.298	49288.38
648.65	49090.19
649.002	49055.62
649.355	49111.21
649.707	48988.73
650.059	49107.37
650.411	49514.81
650.763	49367.7
651.115	49630.29
651.467	49370.18
651.819	49360.24
652.171	49112.79
652.523	49060.81
652.875	48962.29
653.227	48698.11
653.578	48898.11
653.93	48740.14
654.282	48639.36
654.633	48543.09
654.985	48679.13
655.337	48693.59
655.688	48939.46
656.039	49014.04
656.391	48840.71
656.742	49005.67
657.094	49062.62
657.445	49352.56
657.796	49320.92
658.147	49264.65
658.498	49296.97
658.849	49420.13
659.2	49361.82
659.551	49331.32
659.902	49454.02
660.253	49316.85
660.604	49263.97
660.955	49050.19
661.306	49080.25
661.656	48914.6
662.007	48923.87
662.358	48714.83
662.708	48636.42
663.059	48409.98
663.409	48245.02
663.76	48423.54
664.11	48292.7
664.461	48272.36
664.811	48289.54
665.161	48237.56
665.511	48147.62
665.862	48241.4
666.212	48444.79
666.562	48482.07
666.912	48413.6
667.262	48471
667.612	48516.2
667.962	48632.13
668.312	48750.31
668.662	48882.97
669.011	48904.21
669.361	48818.11
669.711	48904.66
670.06	48855.4
670.41	48748.28
670.76	48678
671.109	48710.32
671.459	48639.13
671.808	48521.39
672.157	48491.56
672.507	48185.13
672.856	48107.17
673.205	48125.25
673.554	48064.46
673.904	47858.36
674.253	47999.6
674.602	47862.2
674.951	47230.35
675.3	46924.6
675.649	47490.91
675.998	47602.32
676.346	47527.52
676.695	47670.12
677.044	47477.13
677.393	47526.84
677.741	47658.37
678.09	47611.59
678.438	47598.48
678.787	48000.96
679.135	47760.74
679.484	47773.84
679.832	47956.21
680.181	47778.36
680.529	47935.65
680.877	47940.17
681.225	47768.65
681.573	48078.92
681.922	47729.78
682.27	47652.72
682.618	47664.02
682.966	47538.37
683.314	47484.13
683.661	47288.66
684.009	47025.61
684.357	46920.53
684.705	46677.6
685.053	46622.69
685.4	46519.41
685.748	46271.06
686.095	46125.52
686.443	46037.17
686.79	45877.17
687.138	45961.69
687.485	45871.75
687.832	45654.35
688.18	45907.45
688.527	45668.14
688.874	45779.77
689.221	45701.35
689.568	45650.51
689.915	45516.73
690.262	45621.36
690.609	45537.07
690.956	45595.14
691.303	45671.3
691.65	45707.46
691.997	45667.01
692.344	45508.82
692.69	45533
693.037	45594.46
693.383	45179.56
693.73	45319.9
694.077	45128.71
694.423	44927.82
694.769	44767.82
695.116	44657.31
695.462	44510.43
695.808	44230.66
696.155	44158.57
696.501	43722.88
696.847	43712.25
697.193	43107.07
697.539	43445.59
697.885	43043.35
698.231	43025.27
698.577	42711.83
698.923	42681.55
699.269	42535.34
699.614	42333.31
699.96	42303.7
700.306	42414.21
700.651	42169.47
700.997	42122.47
701.342	42297.83
701.688	42342.57
702.033	42076.14
702.379	42159.53
702.724	42264.16
703.069	42498.5
703.415	42018.97
703.76	42175.35
704.105	42110.71
704.45	42058.51
704.795	41911.85
705.14	41784.85
705.485	41793.21
705.83	41749.37
706.175	41625.76
706.52	41440.9
706.865	41296.5
707.209	41145.77
707.554	40941.71
707.899	41002.72
708.243	40597.08
708.588	40429.18
708.932	40125.23
709.277	40007.04
709.621	40036.19
709.966	39683.89
710.31	39647.5
710.654	39302.2
710.998	39329.09
711.342	39406.15
711.687	39269.43
712.031	39098.36
712.375	39024.02
712.719	39003.68
713.063	38979.72
713.407	39097.46
713.75	39031.7
714.094	39117.35
714.438	38999.61
714.782	39193.96
715.125	39105.14
715.469	39264.01
715.812	39102.21
716.156	38909.67
716.499	39107.86
716.843	39092.04
717.186	38891.82
717.53	39233.5
717.873	39097.91
718.216	38820.63
718.559	38752.39
718.902	38536.8
719.246	38544.71
719.589	38311.49
719.932	38182.68
720.275	38195.56
720.617	37943.14
720.96	37756.93
721.303	37650.95
721.646	37699.08
721.989	37436.04
722.331	37264.97
722.674	37247.34
723.016	37140.22
723.359	36950.4
723.701	36836.28
724.044	36781.59
724.386	36642.84
724.729	36767.58
725.071	36530.52
725.413	36616.4
725.755	36547.47
726.097	36396.06
726.439	36427.7
726.782	36523.97
727.124	36702.95
727.465	36545.21
727.807	36603.51
728.149	36492.11
728.491	36530.07
728.833	36598.32
729.175	36531.43
729.516	36555.38
729.858	36514.25
730.199	36636.06
730.541	36478.32
730.882	36440.13
731.224	36379.34
731.565	36220.25
731.906	36170.08
732.248	36237.65
732.589	36004.21
732.93	35800.82
733.271	35812.35
733.612	35819.81
733.953	35588.4
734.294	35419.59
734.635	35177.34
734.976	35201.74
735.317	35033.16
735.658	34923.11
735.999	34942.54
736.339	34745.48
736.68	34758.37
737.021	34606.51
737.361	34404.02
737.702	34586.84
738.042	34378.49
738.383	34348.43
738.723	34577.58
739.063	34367.42
739.404	34460.75
739.744	34481.08
740.084	34416.23
740.424	34538.71
740.764	34565.83
741.104	34534.64
741.444	34493.06
741.784	34470.46
742.124	34599.05
742.464	34535.77
742.804	34629.1
743.143	34555.21
743.483	34675.88
743.823	34407.41
744.162	34397.02
744.502	34563.79
744.841	34221.66
745.181	34402.44
745.52	34306.63
745.86	34340.75
746.199	34116.8
746.538	33866.41
746.877	34042.68
747.216	33759.75
747.556	33487.44
747.895	33525.63
748.234	33429.36
748.573	33149.82
748.911	33228.01
749.25	32941.46
749.589	32807
749.928	32687.69
750.267	32820.79
750.605	32591.19
750.944	32624.64
751.283	32416.05
751.621	32452.44
751.96	32278.88
752.298	32400.91
752.636	32177.19
752.975	32130.19
753.313	32044.09
753.651	32279.79
753.989	32010.87
754.327	32063.07
754.666	32103.52
755.004	32166.12
755.342	32217.42
755.679	32193.46
756.017	32130.19
756.355	32205.44
756.693	32046.8
757.031	32098.32
757.368	32005.22
757.706	32030.3
758.044	31859.23
758.381	31900.81
758.719	31702.4
759.056	31708.95
759.394	31583.31
759.731	31336.31
760.068	31434.16
760.405	31069.88
760.743	30949.88
761.08	31031.91
761.417	30777.45
761.754	30702.43
762.091	30631.92
762.428	30392.6
762.765	30117.36
763.102	30174.08
763.438	29877.82
763.775	29763.92
764.112	29714.66
764.449	29697.03
764.785	29383.59
765.122	29243.26
765.458	29119.19
765.795	29160.77
766.131	29156.93
766.467	28979.31
766.804	28947.67
767.14	28744.06
767.476	28904.96
767.812	28837.62
768.148	28779.77
768.485	28710.16
768.821	28577.74
769.157	28648.47
769.492	28623.84
769.828	28648.02
770.164	28438.31
770.5	28413.67
770.836	28486.44
771.171	28283.51
771.507	28341.59
771.842	28151.08
772.178	28120.12
772.513	28035.38
772.849	27958.77
773.184	28020.46
773.519	27784.99
773.855	27675.39
774.19	27604.88
774.525	27391.1
774.86	27397.88
775.195	27416.41
775.53	27017.55
775.865	26929.42
776.2	26560.62
776.535	26473.61
776.87	26322.43
777.205	26306.84
777.539	26094.19
777.874	26056.67
778.209	25671.37
778.543	25716.12
778.878	25441.32
779.212	25339.86
779.547	25361.32
779.881	25245.62
780.215	25193.19
780.55	25186.87
780.884	24952.52
781.218	24943.48
781.552	24955.01
781.886	24850.15
782.22	24713.43
782.554	24663.26
782.888	24460.56
783.222	24550.5
783.556	24465.53
783.889	24506.21
784.223	24298.98
784.557	24211.07
784.89	24373.33
785.224	24274.57
785.557	24292.65
785.891	24172.66
786.224	24130.17
786.558	24190.28
786.891	23910.74
787.224	23919.78
787.557	23883.85
787.891	23799.56
788.224	23878.88
788.557	23781.71
788.89	23690.63
789.223	23656.51
789.556	23379.23
789.888	23275.5
790.221	23248.61
790.554	23036.87
790.887	23016.53
791.219	22828.28
791.552	22786.48
791.884	22671.9
792.217	22507.84
792.549	22371.35
792.882	22181.3
793.214	21946.5
793.546	22033.95
793.879	21791.25
794.211	21729.33
794.543	21747.41
794.875	21622.89
795.207	21702.44
795.539	21583.8
795.871	21467.42
796.203	21217.48
796.535	21167.31
796.867	21106.07
797.198	21142.23
797.53	21131.38
797.862	20949.24
798.193	21074.66
798.525	21001.44
798.856	20974.32
799.188	20843.48
799.519	20856.36
799.85	20736.81
800.182	20841.22
800.513	20737.94
800.844	20637.38
801.175	20800.77
801.506	20806.87
801.837	20728
802.168	20744.04
802.499	20680.77
802.83	20542.69
803.161	20580.66
803.491	20415.69
803.822	20452.53
804.153	20254.57
804.483	20164.17
804.814	20187.22
805.145	20041.46
805.475	20060.67
805.805	19987
806.136	19987
806.466	19815.26
806.796	19730.06
807.126	19484.87
807.457	19486.45
807.787	19476.06
808.117	19285.78
808.447	19219.11
808.777	19229.06
809.107	19118.32
809.436	18975.5
809.766	18892.12
810.096	18861.83
810.426	18769.41
810.755	18698
811.085	18754.94
811.414	18612.12
811.744	18382.53
812.073	18459.13
812.403	18373.94
812.732	18367.38
813.061	18273.83
813.39	18355.86
813.719	18166.26
814.049	18370.32
814.378	18323.54
814.707	18283.54
815.036	18202.87
815.365	18155.19
815.693	18030.9
816.022	18091.46
816.351	18072.02
816.68	17995.87
817.008	18043.55
817.337	17954.51
817.665	17978.24
817.994	18055.3
818.322	18027.73
818.651	17975.98
818.979	17893.72
819.307	17934.18
819.636	17889.2
819.964	17908.41
820.292	17895.53
820.62	17805.14
820.948	17842.65
821.276	17802.65
821.604	17682.88
821.932	17710
822.259	17669.32
822.587	17663
822.915	17705.25
823.243	17734.86
823.57	17590.91
823.898	17599.27
824.225	17467.07
824.553	17489.22
824.88	17398.82
825.207	17403.34
825.535	17338.71
825.862	17264.14
826.189	17386.39
826.516	17383.91
826.843	17276.79
827.17	17192.5
827.497	17320.41
827.824	17242.44
828.151	17307.3
828.478	17117.02
828.805	17249.9
829.131	17110.69
829.458	17146.17
829.785	17133.52
830.111	17149.56
830.438	17226.17
830.764	17266.62
831.09	17267.07
831.417	17160.41
831.743	17188.66
832.069	17257.13
832.395	17241.99
832.722	17335.55
833.048	17277.24
833.374	17416.67
833.7	17210.35
834.026	17288.09
834.351	17383.91
834.677	17341.65
835.003	17329.22
835.329	17411.48
835.654	17445.83
835.98	17233.63
836.306	17301.65
836.631	17259.84
836.956	17260.29
837.282	17243.8
837.607	17141.2
837.932	17219.17
838.258	17185.95
838.583	17127.87
838.908	16986.4
839.233	17029.11
839.558	16984.6
839.883	16870.47
840.208	16879.74
840.533	16858.05
840.858	16710.03
841.182	16751.16
841.507	16667.77
841.832	16566.98
842.156	16610.14
842.481	16528.79
842.805	16465.29
843.13	16444.5
843.454	16334.44
843.778	16306.65
844.103	16166.76
844.427	16224.62
844.751	16081.57
845.075	16104.84
845.399	16056.94
845.723	15837.06
846.047	15928.58
846.371	15801.58
846.695	15791.18
847.019	15651.3
847.343	15649.49
847.666	15505.99
847.99	15538.98
848.313	15438.42
848.637	15451.75
848.96	15370.63
849.284	15314.36
849.607	15289.27
849.931	15250.63
850.254	15259.44
850.577	15115.04
850.9	15087.47
851.223	15167.24
851.546	15010.64
851.869	14958.66
852.192	14981.26
852.515	14883.18
852.838	14921.6
853.161	14971.32
853.483	14753.47
853.806	14795.73
854.129	14824.2
854.451	14642.06
854.774	14690.19
855.096	14650.19
855.419	14590.76
855.741	14480.03
856.063	14517.77
856.385	14411.56
856.708	14401.16
857.03	14327.94
857.352	14324.78
857.674	14212.24
857.996	14132.47
858.318	14091.79
858.64	13997.33
858.961	13882.53
859.283	13937.44
859.605	13840.95
859.926	13775.87
860.248	13708.07
860.57	13573.84
860.891	13712.37
861.212	13599.83
861.534	13549.21
861.855	13456.55
862.176	13362.77
862.498	13451.58
862.819	13404.35
863.14	13332.04
863.461	13238.71
863.782	13176.79
864.103	13204.13
864.424	13153.96
864.745	13256.11
865.065	13058.37
865.386	13046.17
865.707	13037.13
866.027	13042.33
866.348	13034.42
866.668	13104.7
866.989	13028.77
867.309	12967.07
867.63	13109.67
867.95	13028.09
868.27	12986.51
868.59	13033.97
868.91	13018.82
869.23	12921.88
869.55	12930.24
869.87	13055.66
870.19	13026.51
870.51	13025.15
870.83	13117.58
871.15	12977.7
871.469	12977.47
871.789	13034.87
872.109	12999.16
872.428	12976.11
872.748	13047.98
873.067	13051.59
873.386	12990.35
873.706	12996
874.025	12872.84
874.344	12882.78
874.663	12878.26
874.982	12862.67
875.301	12849.79
875.62	12780.41
875.939	12727.08
876.258	12635.11
876.577	12683.24
876.896	12547.2
877.214	12538.61
877.533	12607.54
877.852	12501.32
878.17	12437.6
878.489	12430.59
878.807	12427.2
879.125	12433.3
879.444	12368.45
879.762	12235.57
880.08	12293.87
880.398	12182.46
880.716	12182.24
881.034	11992.18
881.352	12111.73
881.67	12002.13
881.988	12061.79
882.306	11964.39
882.624	11934.33
882.941	11818.86
883.259	11795.35
883.577	11773.66
883.894	11794.45
884.212	11736.82
884.529	11763.49
884.846	11639.65
885.164	11695.24
885.481	11691.18
885.798	11727.11
886.115	11594
886.432	11682.14
886.75	11652.53
887.067	11679.42
887.383	11536.15
887.7	11642.59
888.017	11559.2
888.334	11627.9
888.651	11522.59
888.967	11577.05
889.284	11520.56
889.6	11527.34
889.917	11482.82
890.233	11549.94
890.55	11436.72
890.866	11489.83
891.182	11443.5
891.498	11414.12
891.815	11360.34
892.131	11316.27
892.447	11292.32
892.763	11250.06
893.079	11294.12
893.395	11264.29
893.71	11141.81
894.026	11165.77
894.342	11091.19
894.657	11059.55
894.973	11015.26
895.289	11100.23
895.604	11012.78
895.92	10850.52
896.235	10879.45
896.55	10825.21
896.865	10791.76
897.181	10678.55
897.496	10679.68
897.811	10684.65
898.126	10611.43
898.441	10504.09
898.756	10502.05
899.071	10443.75
899.386	10358.33
899.7	10326.01
900.015	10245.11
900.33	10125.79
900.644	10096.19
900.959	10101.39
901.273	10083.31
901.588	10001.95
901.902	9971.22
902.216	9906.59
902.531	9846.7
902.845	9784.33
903.159	9743.66
903.473	9786.37
903.787	9685.58
904.101	9603.55
904.415	9618.24
904.729	9592.93
905.042	9528.97
905.356	9481.52
905.67	9482.65
905.984	9533.72
906.297	9563.77
906.611	9429.54
906.924	9474.28
907.237	9434.96
907.551	9389.32
907.864	9348.86
908.177	9427.05
908.491	9354.51
908.804	9297.79
909.117	9303.67
909.43	9203.56
909.743	9180.06
910.056	9255.53
910.368	9195.87
910.681	9113.16
910.994	9213.27
911.307	9121.98
911.619	9059.15
911.932	9139.15
912.244	9010.12
912.557	9030.68
912.869	8928.31
913.181	8911.36
913.494	8889.44
913.806	8795.43
914.118	8799.73
914.43	8714.3
914.742	8704.14
915.054	8628.66
915.366	8607.64
915.678	8593.63
915.99	8512.73
916.302	8506.4
916.613	8428.44
916.925	8382.79
917.236	8425.05
917.548	8367.2
917.859	8327.2
918.171	8218.72
918.482	8228.22
918.794	8117.26
919.105	8136.01
919.416	8055.34
919.727	8045.62
920.038	7992.74
920.349	7943.93
920.66	7865.06
920.971	7911.16
921.282	7778.96
921.593	7773.31
921.903	7712.07
922.214	7601.57
922.525	7608.12
922.835	7620.77
923.146	7521.12
923.456	7526.77
923.767	7439.99
924.077	7449.71
924.387	7439.99
924.697	7350.72
925.008	7359.54
925.318	7272.76
925.628	7275.47
925.938	7245.42
926.248	7134.01
926.558	7155.25
926.867	7198.41
927.177	7200.9
927.487	7159.77
927.796	7123.61
928.106	7082.71
928.416	7042.48
928.725	7003.39
929.034	6968.14
929.344	6980.34
929.653	7020.34
929.962	6995.93
930.271	6960.68
930.581	6924.07
930.89	6893.34
931.199	6899.21
931.508	6837.52
931.817	6852.43
932.125	6842.26
932.434	6861.02
932.743	6751.64
933.051	6732.89
933.36	6705.77
933.669	6661.03
933.977	6668.26
934.286	6592.33
934.594	6653.57
934.902	6610.63
935.21	6522.5
935.519	6612.67
935.827	6518.43
936.135	6513.01
936.443	6416.29
936.751	6437.53
937.059	6393.69
937.367	6297.65
937.674	6346.91
937.982	6297.65
938.29	6207.03
938.597	6209.29
938.905	6193.69
939.213	6129.97
939.52	6065.79
939.827	6103.75
940.135	6029.4
940.442	5993.7
940.749	5967.71
941.056	5990.76
941.363	5882.51
941.67	5890.65
941.977	5848.17
942.284	5799.81
942.591	5769.3
942.898	5739.47
943.205	5771.33
943.511	5723.2
943.818	5728.17
944.125	5688.62
944.431	5637.1
944.738	5605.46
945.044	5571.56
945.35	5529.53
945.657	5463.77
945.963	5485.69
946.269	5429.65
946.575	5516.65
946.881	5427.84
947.187	5402.98
947.493	5388.29
947.799	5335.64
948.105	5304.68
948.41	5285.02
948.716	5247.5
949.022	5262.64
949.327	5223.1
949.633	5171.12
949.938	5131.12
950.244	5174.51
950.549	5190.33
950.854	5184
951.16	5159.37
951.465	5156.66
951.77	5104
952.075	5113.04
952.38	5071.69
952.685	5084.12
952.99	5043.89
953.294	5062.88
953.599	5065.59
953.904	4986.49
954.209	4916.89
954.513	4971.58
954.818	4934.74
955.122	4930.22
955.426	4894.29
955.731	4880.73
956.035	4850.45
956.339	4864.46
956.643	4854.07
956.948	4839.38
957.252	4798.25
957.556	4795.76
957.86	4756.22
958.163	4733.17
958.467	4681.87
958.771	4712.38
959.075	4695.88
959.378	4645.71
959.682	4697.69
959.985	4591.7
960.289	4607.75
960.592	4511.48
960.896	4579.27
961.199	4487.07
961.502	4502.21
961.805	4433.06
962.108	4391.25
962.411	4403.23
962.714	4371.59
963.017	4342.44
963.32	4343.35
963.623	4307.87
963.926	4329.11
964.228	4260.18
964.531	4236.23
964.833	4274.2
965.136	4194.65
965.438	4191.49
965.741	4106.74
966.043	4113.3
966.345	4109
966.648	4127.53
966.95	4063.13
967.252	4053.18
967.554	4039.85
967.856	4026.97
968.158	3994.2
968.46	3960.31
968.761	3955.11
969.063	3956.46
969.365	3950.14
969.666	3875.56
969.968	3880.76
970.269	3824.49
970.571	3843.7
970.872	3849.8
971.174	3798.95
971.475	3793.53
971.776	3810.93
972.077	3756.7
972.378	3770.48
972.679	3753.98
972.98	3716.24
973.281	3730.93
973.582	3719.63
973.883	3682.35
974.183	3681.22
974.484	3656.81
974.785	3634.44
975.085	3672.63
975.386	3656.36
975.686	3638.96
975.986	3613.65
976.287	3583.14
976.587	3594.67
976.887	3547.89
977.187	3555.34
977.487	3537.72
977.787	3493.88
978.087	3539.3
978.387	3549.69
978.687	3513.76
978.987	3498.17
979.286	3417.72
979.586	3470.37
979.885	3460.88
980.185	3444.84
980.484	3442.13
980.784	3419.98
981.083	3434.44
981.382	3386.08
981.682	3364.84
981.981	3324.16
982.28	3333.66
982.579	3276.03
982.878	3308.35
983.177	3270.83
983.475	3251.62
983.774	3254.34
984.073	3184.51
984.372	3156.71
984.67	3167.11
984.969	3181.12
985.267	3149.71
985.566	3130.72
985.864	3138.41
986.162	3101.35
986.461	3085.75
986.759	3060.22
987.057	3009.37
987.355	3003.04
987.653	3044.85
987.951	3004.62
988.249	2992.87
988.547	2964.85
988.844	2942.25
989.142	2908.13
989.44	2894.8
989.737	2892.54
990.035	2869.03
990.332	2849.83
990.63	2868.58
990.927	2859.54
991.224	2860.9
991.521	2842.59
991.819	2800.11
992.116	2789.26
992.413	2775.25
992.71	2758.76
993.006	2731.86
993.303	2731.19
993.6	2732.32
993.897	2709.49
994.193	2699.55
994.49	2700.23
994.787	2671.3
995.083	2660.23
995.379	2642.15
995.676	2632.88
995.972	2605.99
996.268	2594.69
996.565	2573.22
996.861	2595.82
997.157	2563.51
997.453	2530.96
997.749	2557.86
998.044	2514.92
998.34	2514.47
998.636	2547.46
998.932	2504.3
999.227	2495.94
999.523	2489.84
999.818	2471.08
1000.114	2488.25
1000.409	2457.07
1000.704	2473.11
1001	2450.51
1001.295	2415.94
1001.59	2429.72
1001.885	2398.76
1002.18	2394.02
1002.475	2379.1
1002.77	2357.86
1003.065	2347.01
1003.359	2373.45
1003.654	2321.7
1003.949	2327.81
1004.243	2295.94
1004.538	2263.17
1004.832	2275.38
1005.127	2293.23
1005.421	2252.78
1005.715	2258.88
1006.009	2209.39
1006.304	2240.58
1006.598	2184.31
1006.892	2196.74
1007.186	2158.32
1007.48	2146.12
1007.773	2159.9
1008.067	2152.67
1008.361	2161.93
1008.655	2109.05
1008.948	2101.6
1009.242	2085.55
1009.535	2073.58
1009.829	2074.25
1010.122	2017.98
1010.415	2029.06
1010.708	1985.67
1011.001	2012.33
1011.295	1997.19
1011.588	1978.21
1011.881	1957.87
1012.173	1954.48
1012.466	1923.3
1012.759	1923.07
1013.052	1911.32
1013.344	1867.93
1013.637	1883.3
1013.93	1865.9
1014.222	1855.95
1014.514	1825.22
1014.807	1848.04
1015.099	1829.74
1015.391	1800.14
1015.683	1777.99
1015.976	1822.06
1016.268	1780.93
1016.56	1720.82
1016.851	1735.28
1017.143	1774.37
1017.435	1725.34
1017.727	1690.99
1018.018	1702.74
1018.31	1712.23
1018.602	1686.01
1018.893	1700.93
1019.185	1652.8
1019.476	1627.71
1019.767	1646.24
1020.058	1614.38
1020.35	1639.01
1020.641	1607.82
1020.932	1598.33
1021.223	1581.61
1021.514	1561.95
1021.804	1557.2
1022.095	1542.06
1022.386	1570.54
1022.677	1534.61
1022.967	1522.4
1023.258	1514.95
1023.548	1517.88
1023.839	1501.84
1024.129	1491.44
1024.419	1483.08
1024.709	1459.35
1025	1461.61
1025.29	1462.07
1025.58	1449.19
1025.87	1424.55
1026.16	1438.11
1026.449	1422.29
1026.739	1442.18
1027.029	1405.12
1027.319	1409.86
1027.608	1399.24
1027.898	1412.58
1028.187	1350.43
1028.477	1357.89
1028.766	1388.4
1029.055	1365.8
1029.344	1330.32
1029.634	1336.42
1029.923	1287.16
1030.212	1315.86
1030.501	1301.62
1030.79	1323.76
1031.078	1289.87
1031.367	1281.28
1031.656	1270.21
1031.945	1258.91
1032.233	1259.13
1032.522	1213.94
1032.81	1251.22
1033.099	1221.17
1033.387	1204.9
1033.675	1201.51
1033.963	1212.13
1034.251	1161.28
1034.54	1170.32
1034.828	1166.71
1035.116	1148.18
1035.403	1162.41
1035.691	1133.04
1035.979	1158.8
1036.267	1133.94
1036.554	1123.54
1036.842	1119.48
1037.129	1098.69
1037.417	1095.3
1037.704	1091
1037.992	1081.74
1038.279	1071.79
1038.566	1069.76
1038.853	1069.76
1039.14	1069.76
