Data from red_shiny_book_FLMS001491_00013.txt Node
Date: Wed Feb 08 15:23:42 GMT 2017
User: dcchb
Spectrometer: FLMS00149
Trigger mode: 0
Integration Time (sec): 2.000000E-2
Scans to average: 10
Electric dark correction enabled: true
Nonlinearity correction enabled: false
Boxcar width: 0
XAxis mode: Wavelengths
Number of Pixels in Spectrum: 2048
>>>>>Begin Spectral Data<<<<<
341.393	-0.85
341.776	-0.85
342.16	-0.85
342.543	-68.64
342.927	-82.88
343.31	-70.9
343.693	-71.13
344.077	-71.13
344.46	-55.54
344.843	-53.95
345.226	-47.63
345.61	-37
345.993	-9.21
346.376	-4.92
346.759	25.14
347.142	0.96
347.525	52.71
347.908	49.77
348.291	79.15
348.674	105.36
349.057	108.3
349.44	108.3
349.823	135.87
350.206	171.13
350.588	202.54
350.971	235.08
351.354	235.3
351.737	253.84
352.119	257.45
352.502	271.24
352.884	285.25
353.267	295.19
353.65	317.79
354.032	319.14
354.414	312.36
354.797	316.66
355.179	327.96
355.562	369.99
355.944	353.72
356.326	331.12
356.709	358.01
357.091	336.54
357.473	335.19
357.855	354.17
358.238	361.85
358.62	363.89
359.002	340.16
359.384	369.09
359.766	354.4
360.148	345.13
360.53	352.82
360.912	349.2
361.294	365.47
361.676	349.2
362.057	347.17
362.439	340.84
362.821	361.18
363.203	343.78
363.584	343.32
363.966	327.96
364.348	351.23
364.729	340.84
365.111	322.99
365.493	328.18
365.874	320.95
366.256	318.47
366.637	336.32
367.019	341.06
367.4	347.62
367.781	348.52
368.163	320.05
368.544	337.67
368.925	353.49
369.306	343.78
369.688	346.71
370.069	352.14
370.45	333.83
370.831	337.9
371.212	339.26
371.593	344.23
371.974	322.08
372.355	342.42
372.736	334.74
373.117	349.2
373.498	342.19
373.879	336.32
374.26	330.9
374.641	324.12
375.021	347.17
375.402	355.98
375.783	355.53
376.163	321.4
376.544	369.54
376.925	345.36
377.305	364.34
377.686	362.76
378.066	367.5
378.447	373.38
378.827	356.66
379.208	374.51
379.588	373.15
379.968	374.28
380.349	379.71
380.729	365.7
381.109	362.98
381.489	368.86
381.87	360.95
382.25	365.92
382.63	370.89
383.01	369.76
383.39	363.44
383.77	364.57
384.15	361.4
384.53	386.04
384.91	371.12
385.29	397.56
385.67	393.72
386.049	401.85
386.429	384.68
386.809	390.55
387.189	398.01
387.568	389.88
387.948	382.19
388.328	413.6
388.707	431.46
389.087	394.4
389.466	405.47
389.846	390.1
390.225	403.89
390.605	401.18
390.984	404.34
391.363	395.3
391.743	446.82
392.122	410.89
392.501	423.77
392.881	437.56
393.26	439.59
393.639	423.55
394.018	431.68
394.397	426.26
394.776	408.41
395.155	449.31
395.534	419.25
395.913	414.28
396.292	449.54
396.671	420.61
397.05	438.92
397.429	433.94
397.808	441.17
398.186	461.74
398.565	456.09
398.944	442.76
399.323	460.84
399.701	449.31
400.08	452.47
400.458	454.96
400.837	461.51
401.215	457.22
401.594	466.71
401.972	459.48
402.351	443.43
402.729	463.55
403.107	475.75
403.486	461.51
403.864	450.89
404.242	485.02
404.62	466.71
404.999	475.98
405.377	512.81
405.755	474.85
406.133	473.04
406.511	483.89
406.889	494.51
407.267	513.26
407.645	519.82
408.023	520.72
408.401	501.51
408.779	531.12
409.156	527.05
409.534	526.82
409.912	517.11
410.29	543.55
410.667	554.39
411.045	565.47
411.422	548.29
411.8	566.37
412.178	551
412.555	579.7
412.933	554.84
413.31	560.72
413.687	546.26
414.065	568.18
414.442	595.52
414.819	616.54
415.197	616.76
415.574	640.49
415.951	620.38
416.328	593.94
416.705	616.09
417.082	617.89
417.46	621.06
417.837	647.27
418.214	608.85
418.591	637.1
418.967	654.5
419.344	656.76
419.721	678.68
420.098	669.19
420.475	683.43
420.852	666.93
421.228	657.89
421.605	657.44
421.982	673.03
422.358	684.11
422.735	707.83
423.111	713.48
423.488	714.39
423.864	721.17
424.241	713.94
424.617	726.59
424.994	716.87
425.37	689.53
425.746	704.22
426.123	702.86
426.499	723.2
426.875	775.86
427.251	771.11
427.627	790.54
428.003	771.11
428.379	776.31
428.756	788.28
429.132	798.23
429.507	795.06
429.883	768.62
430.259	754.61
430.635	774.27
431.011	814.27
431.387	819.24
431.763	837.55
432.138	834.16
432.514	853.82
432.89	852.92
433.265	848.62
433.641	858.79
434.016	846.36
434.392	863.31
434.767	868.06
435.143	854.95
435.518	872.35
435.894	897.66
436.269	922.29
436.644	916.42
437.02	964.55
437.395	955.06
437.77	961.61
438.145	943.08
438.52	951.67
438.895	949.18
439.271	939.69
439.646	968.62
440.021	949.18
440.395	972.69
440.77	983.31
441.145	1013.82
441.52	998.45
441.895	1020.59
442.27	1034.38
442.645	983.76
443.019	1010.88
443.394	1017.43
443.769	1010.65
444.143	998.22
444.518	1031.89
444.892	1025.79
445.267	1051.33
445.641	1071.44
446.016	1059.46
446.39	1071.44
446.764	1088.16
447.139	1080.48
447.513	1058.33
447.887	1042.97
448.262	1051.33
448.636	1046.36
449.01	1063.31
449.384	1099.24
449.758	1099.24
450.132	1118.45
450.506	1161.38
450.88	1157.77
451.254	1118.9
451.628	1141.95
452.002	1141.5
452.376	1128.16
452.75	1125.9
453.123	1126.13
453.497	1123.87
453.871	1153.7
454.244	1179.46
454.618	1173.58
454.992	1214.04
455.365	1206.13
455.739	1241.15
456.112	1251.55
456.486	1251.32
456.859	1259.01
457.232	1243.41
457.606	1205.45
457.979	1253.81
458.352	1223.08
458.725	1235.05
459.099	1228.72
459.472	1261.04
459.845	1326.12
460.218	1299.01
460.591	1338.55
460.964	1340.81
461.337	1369.51
461.71	1366.12
462.083	1377.42
462.456	1352.79
462.829	1336.07
463.201	1327.25
463.574	1312.56
463.947	1349.4
464.32	1379.91
464.692	1397.08
465.065	1458.78
465.438	1468.94
465.81	1478.21
466.183	1471.43
466.555	1491.99
466.928	1533.8
467.3	1484.09
467.672	1506.46
468.045	1486.35
468.417	1478.66
468.789	1461.94
469.161	1476.4
469.534	1524.54
469.906	1587.81
470.278	1640.24
470.65	1657.87
471.022	1682.95
471.394	1689.5
471.766	1732.44
472.138	1743.06
472.51	1748.03
472.882	1739.22
473.253	1728.82
473.625	1732.44
473.997	1693.35
474.369	1716.17
474.74	1741.48
475.112	1788.94
475.484	1868.03
475.855	1911.42
476.227	1953
476.598	1983.28
476.97	2003.39
477.341	2066.44
477.713	2044.52
478.084	2016.5
478.455	2063.51
478.827	2009.5
479.198	2040
479.569	2073.22
479.94	2070.96
480.311	2141.92
480.682	2193.67
481.053	2241.35
481.424	2331.97
481.795	2383.04
482.166	2418.3
482.537	2433.89
482.908	2502.59
483.279	2497.39
483.65	2517.96
484.021	2493.55
484.391	2511.63
484.762	2473.21
485.133	2496.49
485.503	2507.11
485.874	2584.17
486.244	2627.33
486.615	2736.03
486.985	2771.28
487.356	2889.47
487.726	2952.52
488.097	2993.42
488.467	3004.5
488.837	3048.79
489.207	3064.83
489.578	3025.29
489.948	3023.25
490.318	3000.43
490.688	3020.77
491.058	3001.33
491.428	3062.57
491.798	3145.74
492.168	3201.78
492.538	3292.4
492.908	3327.43
493.278	3429.8
493.648	3522.68
494.017	3569
494.387	3566.74
494.757	3584.37
495.126	3554.31
495.496	3505.95
495.866	3489.68
496.235	3474.09
496.605	3466.41
496.974	3449.91
497.344	3494.2
497.713	3531.72
498.082	3621.88
498.452	3750.69
498.821	3803.35
499.19	3860.97
499.559	3967.64
499.928	3937.35
500.298	3977.13
500.667	4011.48
501.036	3912.72
501.405	3955.43
501.774	3865.94
502.143	3832.95
502.512	3746.4
502.88	3797.7
503.249	3757.02
503.618	3827.98
503.987	3855.55
504.356	3964.92
504.724	4025.49
505.093	4063.68
505.462	4182.32
505.83	4230.23
506.199	4253.73
506.567	4267.74
506.936	4300.06
507.304	4230.45
507.672	4129.21
508.041	4122.66
508.409	4092.15
508.777	4038.37
509.145	4037.24
509.514	4021.19
509.882	4039.27
510.25	4097.35
510.618	4218.02
510.986	4262.54
511.354	4385.93
511.722	4440.84
512.09	4545.47
512.458	4571.69
512.826	4592.03
513.193	4552.03
513.561	4526.04
513.929	4439.71
514.297	4435.87
514.664	4381.86
515.032	4282.2
515.4	4296.67
515.767	4243.79
516.135	4278.59
516.502	4288.31
516.869	4388.19
517.237	4494.4
517.604	4601.52
517.972	4701.85
518.339	4770.1
518.706	4831.34
519.073	4837.9
519.44	4898.23
519.808	4842.87
520.175	4795.86
520.542	4665.7
520.909	4637.45
521.276	4580.05
521.643	4543.21
522.009	4525.14
522.376	4524.68
522.743	4566.72
523.11	4606.72
523.477	4684.68
523.843	4767.61
524.21	4945.46
524.577	5036.08
524.943	5161.73
525.31	5208.28
525.676	5320.59
526.043	5372.57
526.409	5265.91
526.776	5254.38
527.142	5285.79
527.508	5145.91
527.874	5105.23
528.241	5030.88
528.607	4980.49
528.973	4952.47
529.339	4972.81
529.705	5086.48
530.071	5140.49
530.437	5283.76
530.803	5404.21
531.169	5534.15
531.535	5642.39
531.901	5766.01
532.267	5823.86
532.632	5918.32
532.998	5934.82
533.364	5968.94
533.73	5926.91
534.095	5899.34
534.461	5807.14
534.826	5746.57
535.192	5603.52
535.557	5615.95
535.923	5545.22
536.288	5584.99
536.653	5638.78
537.019	5687.59
537.384	5775.5
537.749	5952.22
538.114	6123.74
538.479	6252.1
538.845	6408.02
539.21	6502.48
539.575	6515.37
539.94	6521.24
540.305	6612.31
540.67	6542.94
541.034	6462.94
541.399	6459.1
541.764	6288.25
542.129	6255.49
542.494	6199.22
542.858	6163.96
543.223	6111.31
543.587	6189.72
543.952	6205.32
544.316	6291.42
544.681	6415.48
545.045	6583.84
545.41	6757.62
545.774	6918.52
546.138	6961.68
546.503	7161.68
546.867	7179.3
547.231	7195.35
547.595	7170.72
547.959	7126.42
548.324	7072.41
548.688	6937.73
549.052	6792.65
549.416	6689.15
549.779	6599.43
550.143	6617.74
550.507	6606.89
550.871	6534.12
551.235	6590.17
551.599	6715.36
551.962	6763.49
552.326	6890.04
552.689	7078.06
553.053	7229.47
553.417	7273.76
553.78	7526.64
554.143	7558.73
554.507	7693.41
554.87	7593.08
555.234	7593.08
555.597	7489.13
555.96	7406.87
556.323	7280.32
556.686	7163.48
557.05	7055.46
557.413	6947.67
557.776	6881.91
558.139	6895.69
558.502	6952.64
558.865	6934.79
559.228	7115.35
559.59	7242.8
559.953	7376.36
560.316	7605.51
560.679	7739.29
561.041	7890.02
561.404	7979.96
561.767	8087.3
562.129	8150.58
562.492	8169.11
562.854	8148.54
563.217	8003.01
563.579	7913.52
563.941	7844.82
564.304	7714.2
564.666	7619.97
565.028	7486.19
565.39	7405.96
565.753	7418.62
566.115	7426.53
566.477	7445.28
566.839	7460.65
567.201	7662.68
567.563	7772.51
567.925	8004.37
568.287	8218.82
568.648	8363.9
569.01	8438.93
569.372	8649.09
569.734	8657.46
570.095	8780.16
570.457	8849.77
570.819	8818.13
571.18	8731.8
571.542	8682.54
571.903	8552.15
572.265	8471.7
572.626	8274.42
572.987	8185.38
573.349	8123.23
573.71	8144.7
574.071	8131.37
574.432	8162.55
574.794	8403.45
575.155	8467.4
575.516	8581.07
575.877	8843.67
576.238	9096.09
576.599	9373.6
576.96	9572.01
577.32	9773.81
577.681	9991.43
578.042	10199.11
578.403	10266.91
578.763	10368.37
579.124	10393.46
579.485	10417.86
579.845	10419.9
580.206	10434.81
580.566	10486.11
580.927	10467.35
581.287	10602.72
581.648	10584.64
582.008	10735.37
582.368	10978.3
582.728	11255.58
583.089	11585.06
583.449	11969.01
583.809	12368.54
584.169	12863.45
584.529	13320.16
584.889	13916.75
585.249	14425.21
585.609	14787.92
585.969	15399.2
586.329	15794.9
586.688	16267.65
587.048	16686.62
587.408	17125.93
587.768	17460.84
588.127	17746.71
588.487	18080.94
588.846	18434.83
589.206	18586.91
589.565	18947.35
589.925	19417.4
590.284	19658.3
590.643	20242.46
591.003	20685.16
591.362	21393.84
591.721	21931.01
592.08	22574.6
592.44	23233.12
592.799	23991.52
593.158	24649.13
593.517	25385.83
593.876	26159.37
594.235	26775.17
594.593	27498.54
594.952	28097.62
595.311	28591.85
595.67	29170.81
596.029	29848.99
596.387	30221.63
596.746	30806.93
597.104	31087.6
597.463	31417.08
597.822	31882.16
598.18	32023.85
598.538	32323.5
598.897	33021.56
599.255	33163.48
599.613	34160.06
599.972	34295.88
600.33	34946.71
600.688	35498.33
601.046	36205.21
601.404	36854.23
601.762	37319.98
602.12	38291.03
602.478	38744.12
602.836	39326.25
603.194	39618.68
603.552	40148.15
603.91	40574.36
604.268	41276.71
604.625	41655.46
604.983	42079.63
605.341	42151.72
605.698	42669.22
606.056	42833.96
606.413	42948.31
606.771	43271.69
607.128	43591.9
607.485	43476.65
607.843	43743.31
608.2	44139.23
608.557	44548.04
608.914	44563.18
609.272	45181.02
609.629	45443.16
609.986	46020.09
610.343	46152.29
610.7	46684.03
611.057	47083.34
611.414	47496.43
611.771	47843.09
612.127	48179.81
612.484	48411.44
612.841	48832.44
613.198	48873.8
613.554	48952.44
613.911	49351.98
614.267	49377.52
614.624	49487.57
614.98	49563.5
615.337	49761.01
615.693	49719.2
616.05	49655.7
616.406	50011.62
616.762	49814.34
617.118	49912.87
617.475	49967.33
617.831	50034.67
618.187	50184.05
618.543	50273.31
618.899	50511.5
619.255	50480.54
619.611	50695.9
619.967	50973.18
620.323	51300.63
620.678	51335.2
621.034	51474.64
621.39	51577.01
621.746	51669.43
622.101	52189.64
622.457	51952.59
622.812	52044.79
623.168	52202.3
623.523	52231.23
623.879	52507.6
624.234	52202.3
624.589	52286.82
624.945	52343.54
625.3	52289.76
625.655	52187.38
626.01	52124.34
626.365	52029.42
626.72	52042.98
627.075	51986.94
627.43	51996.88
627.785	51886.38
628.14	52021.51
628.495	52077.56
628.85	52204.11
629.205	52135.86
629.559	52425.57
629.914	52409.98
630.269	52516.64
630.623	52630.31
630.978	52730.42
631.332	52825.11
631.687	52970.87
632.041	52894.48
632.396	53029.62
632.75	52900.36
633.104	52926.8
633.459	52748.5
633.813	52819.46
634.167	52748.05
634.521	52677.77
634.875	52603.87
635.229	52534.27
635.583	52338.34
635.937	52126.37
636.291	52113.26
636.645	52066.48
636.999	51970.67
637.352	51952.59
637.706	51778.36
638.06	51927.96
638.413	51822.87
638.767	51849.54
639.121	51945.13
639.474	51748.07
639.828	51987.39
640.181	52154.84
640.534	52198.91
640.888	52210.89
641.241	52300.15
641.594	52315.97
641.947	52354.16
642.301	52375.85
642.654	52420.83
643.007	52457.43
643.36	52410.43
643.713	52316.65
644.066	52353.26
644.419	52105.58
644.771	51937.9
645.124	51448.87
645.477	51236.45
645.83	50877.59
646.182	50739.51
646.535	50633.98
646.888	50614.77
647.24	50436.02
647.593	50687.99
647.945	50474.21
648.298	50351.5
648.65	50203.71
649.002	50304.95
649.355	50389.24
649.707	50424.95
650.059	50492.51
650.411	51054.08
650.763	51220.18
651.115	51568.64
651.467	51455.65
651.819	51562.77
652.171	51523
652.523	51463.56
652.875	51568.42
653.227	51351.93
653.578	51669.21
653.93	51531.58
654.282	51322.1
654.633	51228.31
654.985	51182.21
655.337	51241.87
655.688	51134.08
656.039	51078.94
656.391	50694.54
656.742	50721.66
657.094	50723.47
657.445	50713.07
657.796	50618.84
658.147	50525.73
658.498	50476.24
658.849	50481.89
659.2	50437.83
659.551	50525.73
659.902	50598.5
660.253	50597.82
660.604	50859.96
660.955	50668.33
661.306	50976.8
661.656	50855.44
662.007	51005.72
662.358	51160.07
662.708	51158.94
663.059	51125.27
663.409	50924.59
663.76	51178.15
664.11	51298.59
664.461	51282.1
664.811	51246.84
665.161	51033.74
665.511	50932.73
665.862	50855.89
666.212	50861.09
666.562	50849.34
666.912	50553.98
667.262	50478.96
667.612	50461.1
667.962	50329.13
668.312	50171.62
668.662	50345.63
669.011	50019.31
669.361	49924.62
669.711	49956.94
670.06	49987.67
670.41	49910.38
670.76	49871.06
671.109	50048.01
671.459	50069.93
671.808	50090.26
672.157	50219.3
672.507	50159.19
672.856	50246.87
673.205	50270.83
673.554	50518.05
673.904	50412.74
674.253	50727.99
674.602	50608.44
674.951	50141.79
675.3	49943.6
675.649	50543.13
675.998	50425.4
676.346	50311.73
676.695	50390.37
677.044	50095.69
677.393	50113.99
677.741	50000.55
678.09	49862.93
678.438	49692.31
678.787	49716.94
679.135	49643.5
679.484	49327.12
679.832	49315.82
680.181	49016.85
680.529	49171.87
680.877	48959.67
681.225	48995.38
681.573	49263.39
681.922	48943.63
682.27	48920.8
682.618	49010.07
682.966	48970.75
683.314	49068.37
683.661	49071.53
684.009	49114.02
684.357	49086.22
684.705	49155.15
685.053	49210.74
685.4	49189.5
685.748	49112.89
686.095	49187.01
686.443	49113.12
686.79	49066.56
687.138	49174.81
687.485	49106.79
687.832	48856.85
688.18	48794.93
688.527	48606.24
688.874	48377.77
689.221	48300.93
689.568	48114.72
689.915	47898.46
690.262	47779.37
690.609	47591.12
690.956	47375.31
691.303	47331.24
691.65	46975.09
691.997	46944.13
692.344	46686.29
692.69	46736.45
693.037	46581.66
693.383	46417.59
693.73	46554.99
694.077	46351.38
694.423	46498.04
694.769	46358.16
695.116	46391.15
695.462	46429.12
695.808	46335.34
696.155	46545.05
696.501	46275.9
696.847	46338.73
697.193	46118.84
697.539	46360.65
697.885	46127.66
698.231	46144.61
698.577	46142.35
698.923	45944.84
699.269	45802.69
699.614	45691.06
699.96	45581.68
700.306	45423.49
700.651	45132.43
700.997	45105.09
701.342	44964.98
701.688	44809.5
702.033	44416.06
702.379	44348.95
702.724	44175.17
703.069	44207.48
703.415	43468.52
703.76	43604.11
704.105	43460.16
704.45	43399.37
704.795	43078.7
705.14	43102.88
705.485	43010.45
705.83	42922.77
706.175	42981.53
706.52	42892.71
706.865	42809.1
707.209	42882.77
707.554	42714.64
707.899	43019.04
708.243	42807.97
708.588	42915.31
708.932	42664.92
709.277	42756.67
709.621	42840.29
709.966	42681.87
710.31	42782.89
710.654	42453.4
710.998	42713.06
711.342	42524.81
711.687	42560.52
712.031	42313.07
712.375	42104.03
712.719	42076.01
713.063	41926.86
713.407	41893.19
713.75	41598.74
714.094	41496.14
714.438	41307.67
714.782	41109.71
715.125	40895.7
715.469	40874.69
715.812	40622.04
716.156	40352.89
716.499	40329.17
716.843	40267.25
717.186	40021.6
717.53	40301.6
717.873	40026.12
718.216	40024.77
718.559	39830.87
718.902	39563.76
719.246	39792.46
719.589	39739.12
719.932	39716.53
720.275	39703.87
720.617	39835.62
720.96	39894.37
721.303	39821.83
721.646	39990.87
721.989	39791.78
722.331	40055.95
722.674	39931.44
723.016	40008.5
723.359	39939.8
723.701	40016.18
724.044	39688.05
724.386	39481.05
724.729	39716.53
725.071	39609.41
725.413	39419.36
725.755	39358.57
726.097	39174.39
726.439	38896.21
726.782	38753.39
727.124	38838.36
727.465	38592.49
727.807	38520.63
728.149	38270.91
728.491	38128.09
728.833	37987.76
729.175	37889.46
729.516	37786.18
729.858	37752.28
730.199	37598.39
730.541	37501.22
730.882	37389.36
731.224	37573.98
731.565	37288.12
731.906	37325.18
732.248	37373.99
732.589	37217.61
732.93	37253.99
733.271	37377.6
733.612	37596.13
733.953	37491.73
734.294	37441.78
734.635	37469.13
734.976	37595.45
735.317	37574.66
735.658	37573.08
735.999	37563.14
736.339	37440.43
736.68	37678.16
737.021	37528.79
737.361	37417.83
737.702	37473.42
738.042	37301
738.383	37345.97
738.723	37329.7
739.063	37170.38
739.404	37006.54
739.744	36852.19
740.084	36678.87
740.424	36639.32
740.764	36436.61
741.104	36637.96
741.444	36201.59
741.784	36045.66
742.124	36020.35
742.464	35947.36
742.804	35730.64
743.143	35690.87
743.483	35646.35
743.823	35402.06
744.162	35419.01
744.502	35337.88
744.841	35256.98
745.181	35528.61
745.52	35326.59
745.86	35410.65
746.199	35346.47
746.538	35338.34
746.877	35468.95
747.216	35414.94
747.556	35418.11
747.895	35573.13
748.234	35425.34
748.573	35433.48
748.911	35425.34
749.25	35445.45
749.589	35476.41
749.928	35448.39
750.267	35562.06
750.605	35400.26
750.944	35312.57
751.283	35299.02
751.621	35297.89
751.96	34972.92
752.298	34995.29
752.636	35113.94
752.975	34690.67
753.313	34669.43
753.651	34704.23
753.989	34329.1
754.327	34247.29
754.666	34068.54
755.004	33995.77
755.342	33841.65
755.679	33788.09
756.017	33410.7
756.355	33396.69
756.693	33231.05
757.031	33267.43
757.368	33039.19
757.706	32879.64
758.044	32815.24
758.381	32804.39
758.719	32681.68
759.056	32628.13
759.394	32492.99
759.731	32420
760.068	32409.15
760.405	32227.23
760.743	32230.17
761.08	32259.77
761.417	32240.56
761.754	32185.42
762.091	32305.42
762.428	32058.2
762.765	32208.25
763.102	32222.71
763.438	32040.12
763.775	31981.81
764.112	32197.4
764.449	32250.06
764.785	31953.57
765.122	31834.02
765.458	31809.16
765.795	31720.13
766.131	31658.43
766.467	31573.92
766.804	31418.89
767.14	31077.21
767.476	31206.24
767.812	31010.77
768.148	30888.74
768.485	30799.02
768.821	30502.98
769.157	30340.5
769.492	30160.17
769.828	30175.31
770.164	29965.14
770.5	29683.8
770.836	29664.36
771.171	29394.54
771.507	29333.97
771.842	29035.45
772.178	28952.74
772.513	28894.66
772.849	28912.06
773.184	28653.99
773.519	28723.6
773.855	28577.61
774.19	28319.54
774.525	28425.52
774.86	28388.24
775.195	28312.53
775.53	28156.15
775.865	28168.36
776.2	27888.81
776.535	27800
776.87	27970.62
777.205	27824.41
777.539	27783.51
777.874	27750.74
778.209	27578.77
778.543	27731.08
778.878	27492.21
779.212	27530.41
779.547	27337.42
779.881	27555.94
780.215	27395.04
780.55	27417.19
780.884	27180.58
781.218	27055.62
781.552	27099.46
781.886	26870.54
782.22	26714.38
782.554	26619.24
782.888	26362.75
783.222	26320.95
783.556	26188.07
783.889	26076.66
784.223	25685.03
784.557	25742.43
784.89	25691.81
785.224	25580.63
785.557	25272.39
785.891	25218.38
786.224	25023.13
786.558	24922.79
786.891	24842.79
787.224	24601.9
787.557	24611.16
787.891	24604.38
788.224	24461.56
788.557	24313.54
788.89	24311.28
789.223	24332.52
789.556	24121
789.888	24031.29
790.221	23991.97
790.554	23838.3
790.887	24014.79
791.219	23889.15
791.552	23825.87
791.884	23722.82
792.217	23863.61
792.549	23777.06
792.882	23655.48
793.214	23567.57
793.546	23620
793.879	23403.06
794.211	23445.32
794.543	23514.01
794.875	23427.92
795.207	23537.29
795.539	23340.69
795.871	23366
796.203	23109.73
796.535	23043.74
796.867	23020.47
797.198	22937.53
797.53	22929.85
797.862	22756.29
798.193	22721.04
798.525	22547.03
798.856	22621.61
799.188	22282.86
799.519	22142.53
799.85	22012.59
800.182	22002.19
800.513	21964.68
800.844	21662.54
801.175	21810.33
801.506	21689.66
801.837	21605.14
802.168	21439.49
802.499	21244.02
802.83	21190.23
803.161	21152.95
803.491	20969.9
803.822	21072.5
804.153	20863.46
804.483	20731.71
804.814	20635.45
805.145	20683.13
805.475	20674.77
805.805	20595.67
806.136	20612.85
806.466	20589.12
806.796	20515.68
807.126	20364.04
807.457	20459.18
807.787	20542.12
808.117	20500.53
808.447	20347.77
808.777	20474.32
809.107	20424.83
809.436	20417.37
809.766	20300.09
810.096	20338.96
810.426	20208.34
810.755	20360.43
811.085	20185.51
811.414	20299.41
811.744	20061
812.073	20147.78
812.403	20100.32
812.732	19957.05
813.061	20029.36
813.39	19981.68
813.719	19856.48
814.049	19801.12
814.378	19686.54
814.707	19739.88
815.036	19553.67
815.365	19455.82
815.693	19235.93
816.022	19251.08
816.351	19173.56
816.68	19085.2
817.008	19080.91
817.337	18908.94
817.665	18869.39
817.994	18894.25
818.322	18755.5
818.651	18632.56
818.979	18616.74
819.307	18639.34
819.636	18417.88
819.964	18396.86
820.292	18349.4
820.62	18422.85
820.948	18285.9
821.276	18350.76
821.604	18261.27
821.932	18347.6
822.259	18333.36
822.587	18357.77
822.915	18305.11
823.243	18380.36
823.57	18300.37
823.898	18352.79
824.225	18311.21
824.553	18357.31
824.88	18378.56
825.207	18519.8
825.535	18450.87
825.862	18483.19
826.189	18454.71
826.516	18597.99
826.843	18668.94
827.17	18623.97
827.497	18755.5
827.824	18705.1
828.151	18746
828.478	18773.35
828.805	18905.1
829.131	18739.22
829.458	18676.4
829.785	18674.59
830.111	18638.66
830.438	18821.26
830.764	18605.67
831.09	18773.57
831.417	18602.51
831.743	18597.53
832.069	18563.18
832.395	18471.66
832.722	18546.46
833.048	18394.83
833.374	18362.51
833.7	18232.12
834.026	18318.22
834.351	18288.16
834.677	18220.82
835.003	18236.41
835.329	18146.47
835.654	18014.72
835.98	17906.7
836.306	17940.83
836.631	17861.51
836.956	17786.71
837.282	17747.61
837.607	17687.95
837.932	17664.9
838.258	17678.91
838.583	17722.08
838.908	17502.42
839.233	17544.68
839.558	17564.57
839.883	17465.81
840.208	17374.74
840.533	17557.79
840.858	17534.74
841.182	17509.88
841.507	17463.78
841.832	17439.6
842.156	17485.25
842.481	17509.88
842.805	17575.64
843.13	17371.58
843.454	17459.48
843.778	17515.98
844.103	17465.13
844.427	17465.13
844.751	17603.21
845.075	17427.62
845.399	17396.66
845.723	17408.64
846.047	17311.47
846.371	17242.54
846.695	17278.47
847.019	17136.78
847.343	17091.58
847.666	17010.23
847.99	16854.98
848.313	16955.09
848.637	16676.23
848.96	16757.36
849.284	16558.04
849.607	16414.54
849.931	16376.58
850.254	16262.45
850.577	16156.69
850.9	16036.7
851.223	16062.91
851.546	15869.7
851.869	15740.66
852.192	15819.3
852.515	15567.78
852.838	15490.5
853.161	15520.55
853.483	15382.7
853.806	15326.66
854.129	15214.8
854.451	15157.17
854.774	15047.12
855.096	15046.67
855.419	14982.26
855.741	14902.26
856.063	14787.92
856.385	14791.31
856.708	14703.4
857.03	14719.44
857.352	14787.01
857.674	14626.34
857.996	14640.12
858.318	14484.87
858.64	14603.06
858.961	14529.84
859.283	14537.53
859.605	14528.94
859.926	14550.41
860.248	14517.64
860.57	14413.46
860.891	14527.81
861.212	14431.99
861.534	14435.38
861.855	14441.48
862.176	14480.58
862.498	14507.7
862.819	14505.21
863.14	14400.36
863.461	14459.11
863.782	14377.08
864.103	14454.14
864.424	14389.51
864.745	14458.66
865.065	14307.7
865.386	14337.08
865.707	14207.82
866.027	14340.47
866.348	14190.64
866.668	14149.29
866.989	14151.32
867.309	14081.95
867.63	14056.86
867.95	14095.05
868.27	14005.79
868.59	14013.93
868.91	13876.75
869.23	13917.66
869.55	13735.29
869.87	13855.96
870.19	13752.69
870.51	13648.74
870.83	13715.63
871.15	13602.86
871.469	13572.13
871.789	13603.99
872.109	13499.81
872.428	13417.56
872.748	13433.38
873.067	13453.49
873.386	13396.77
873.706	13328.75
874.025	13246.49
874.344	13207.17
874.663	13176.43
874.982	13195.42
875.301	13177.34
875.62	13124.68
875.939	13054.18
876.258	13068.19
876.577	13015.99
876.896	12980.05
877.214	13006.72
877.533	13062.09
877.852	13047.17
878.17	13124.46
878.489	13020.51
878.807	13034.29
879.125	13060.5
879.444	13030.67
879.762	12991.58
880.08	13065.7
880.398	12957
880.716	13052.59
881.034	12989.09
881.352	12990.68
881.67	12917.68
881.988	13045.14
882.306	13007.17
882.624	12909.77
882.941	12980.73
883.259	12919.26
883.577	12922.43
883.894	12905.48
884.212	12828.19
884.529	12756.78
884.846	12866.84
885.164	12789.55
885.481	12759.95
885.798	12800.4
886.115	12670.23
886.432	12718.59
886.75	12594.3
887.067	12564.02
887.383	12448.09
887.7	12529.9
888.017	12446.06
888.334	12416.23
888.651	12421.2
888.967	12298.94
889.284	12227.31
889.6	12170.36
889.917	11995.45
890.233	12134.2
890.55	11982.11
890.866	12045.16
891.182	11892.4
891.498	11859.41
891.815	11837.26
892.131	11753.65
892.447	11661.67
892.763	11663.93
893.079	11636.36
893.395	11625.29
893.71	11552.3
894.026	11572.63
894.342	11493.77
894.657	11330.61
894.973	11418.51
895.289	11388.01
895.604	11315.24
895.92	11223.49
896.235	11145.53
896.55	11192.08
896.865	11221.23
897.181	11167.67
897.496	11161.12
897.811	11095.36
898.126	11109.37
898.441	11069.37
898.756	11112.53
899.071	11069.14
899.386	11039.99
899.7	10927
900.015	10999.32
900.33	10903.05
900.644	10872.09
900.959	10880.22
901.273	10882.03
901.588	10753.45
901.902	10797.51
902.216	10681.81
902.531	10767.23
902.845	10650.4
903.159	10635.48
903.473	10610.62
903.787	10557.97
904.101	10523.17
904.415	10521.14
904.729	10508.03
905.042	10424.19
905.356	10520.46
905.67	10360.91
905.984	10394.36
906.297	10377.64
906.611	10244.08
906.924	10229.62
907.237	10211.77
907.551	10168.6
907.864	10174.93
908.177	10040.7
908.491	9976.52
908.804	9904.88
909.117	9927.93
909.43	9794.83
909.743	9695.85
910.056	9739.69
910.368	9675.51
910.681	9649.75
910.994	9632.57
911.307	9477.77
911.619	9426.48
911.932	9431.67
912.244	9365.46
912.557	9304.9
912.869	9215.63
913.181	9190.78
913.494	9138.12
913.806	9049.08
914.118	9058.8
914.43	9034.4
914.742	8993.27
915.054	8908.97
915.366	8902.42
915.678	8821.75
915.99	8824.91
916.302	8731.13
916.613	8689.77
916.925	8676.66
917.236	8697.68
917.548	8600.06
917.859	8614.07
918.171	8529.78
918.482	8599.6
918.794	8524.35
919.105	8558.25
919.416	8430.12
919.727	8453.17
920.038	8428.08
920.349	8386.73
920.66	8462.43
920.971	8402.55
921.282	8358.48
921.593	8334.07
921.903	8304.24
922.214	8308.54
922.525	8344.02
922.835	8190.58
923.146	8179.73
923.456	8092.05
923.767	8102.44
924.077	8108.32
924.387	8097.7
924.697	7991.03
925.008	8070.58
925.318	8019.28
925.628	7994.2
925.938	7936.12
926.248	7897.7
926.558	7825.61
926.867	7787.87
927.177	7802.34
927.487	7727.08
927.796	7685.96
928.106	7667.88
928.416	7624.71
928.725	7641.21
929.034	7540.42
929.344	7525.28
929.653	7463.14
929.962	7495
930.271	7392.63
930.581	7352.18
930.89	7264.5
931.199	7251.17
931.508	7179.75
931.817	7149.02
932.125	7144.95
932.434	7104.05
932.743	6993.54
933.051	6991.51
933.36	6949.93
933.669	6871.74
933.977	6911.97
934.286	6846.88
934.594	6815.47
934.902	6794.68
935.21	6785.64
935.519	6729.37
935.827	6663.38
936.135	6628.58
936.443	6557.17
936.751	6587.68
937.059	6570.51
937.367	6521.24
937.674	6523.27
937.982	6505.2
938.29	6397.85
938.597	6433.11
938.905	6329.83
939.213	6335.48
939.52	6331.64
939.827	6377.06
940.135	6332.09
940.442	6283.06
940.749	6294.13
941.056	6271.08
941.363	6191.76
941.67	6182.72
941.977	6195.83
942.284	6127.58
942.591	6146.56
942.898	6114.47
943.205	6137.3
943.511	6100.46
943.818	6097.3
944.125	6092.33
944.431	6054.36
944.738	6057.07
945.044	6084.87
945.35	5967.58
945.657	5997.64
945.963	5980.92
946.269	5952.22
946.575	5977.98
946.881	5927.81
947.187	5894.36
947.493	5850.98
947.799	5806.01
948.105	5791.09
948.41	5729.4
948.716	5742.5
949.022	5714.71
949.327	5675.39
949.633	5667.7
949.938	5633.58
950.244	5630.19
950.549	5514.04
950.854	5514.71
951.16	5468.39
951.465	5475.62
951.77	5466.81
952.075	5460.7
952.38	5433.81
952.685	5393.81
952.99	5357.66
953.294	5333.93
953.599	5225.91
953.904	5262.29
954.209	5259.58
954.513	5173.48
954.818	5147.72
955.122	5149.75
955.426	5102.97
955.731	5046.7
956.035	5023.88
956.339	5065.46
956.643	4993.15
956.948	4969.87
957.252	4930.1
957.556	4925.12
957.86	4889.87
958.163	4908.4
958.467	4851.91
958.771	4813.04
959.075	4804.22
959.378	4753.15
959.682	4804.45
959.985	4713.6
960.289	4725.58
960.592	4698.24
960.896	4658.69
961.199	4667.5
961.502	4627.05
961.805	4570.33
962.108	4549.99
962.411	4604.91
962.714	4574.17
963.017	4544.57
963.32	4542.08
963.623	4491.46
963.926	4516.77
964.228	4524.91
964.531	4453.72
964.833	4467.28
965.136	4438.36
965.438	4421.64
965.741	4427.28
966.043	4462.54
966.345	4359.72
966.648	4375.31
966.95	4331.24
967.252	4366.5
967.554	4301.64
967.856	4348.64
968.158	4263.22
968.46	4279.04
968.761	4263.9
969.063	4265.26
969.365	4246.05
969.666	4218.25
969.968	4186.16
970.269	4203.79
970.571	4176.9
970.872	4157.69
971.174	4118.59
971.475	4118.59
971.776	4082.89
972.077	4117.46
972.378	4076.11
972.679	4055.32
972.98	4051.93
973.281	4056.9
973.582	3995.21
973.883	3962.89
974.183	3952.95
974.484	3902.55
974.785	3890.35
975.085	3924.93
975.386	3886.73
975.686	3864.14
975.986	3848.99
976.287	3792.5
976.587	3775.32
976.887	3700.98
977.187	3756.57
977.487	3702.11
977.787	3703.24
978.087	3665.5
978.387	3645.84
978.687	3618.27
978.987	3604.48
979.286	3617.59
979.586	3578.72
979.885	3498.5
980.185	3572.84
980.484	3518.61
980.784	3522.22
981.083	3477.03
981.382	3445.16
981.682	3440.87
981.981	3430.47
982.28	3389.35
982.579	3357.26
982.878	3326.3
983.177	3344.38
983.475	3330.82
983.774	3344.83
984.073	3339.63
984.372	3287.2
984.67	3283.36
984.969	3304.15
985.267	3263.7
985.566	3252.4
985.864	3206.98
986.162	3247.2
986.461	3192.51
986.759	3178.28
987.057	3133.08
987.355	3155.45
987.653	3151.61
987.951	3136.47
988.249	3123.59
988.547	3121.78
988.844	3086.3
989.142	3076.59
989.44	3059.64
989.737	3046.53
990.035	3040.2
990.332	3056.25
990.63	3039.3
990.927	3035.23
991.224	3076.59
991.521	3029.81
991.819	3019.19
992.116	3009.02
992.413	3011.5
992.71	2967.89
993.006	2975.12
993.303	2967.44
993.6	2935.35
993.897	2908.91
994.193	2917.49
994.49	2872.07
994.787	2864.84
995.083	2858.29
995.379	2849.7
995.676	2820.32
995.972	2802.92
996.268	2783.71
996.565	2775.35
996.861	2757.72
997.157	2742.13
997.453	2751.62
997.749	2719.98
998.044	2705.97
998.34	2680.44
998.636	2711.17
998.932	2679.99
999.227	2652.42
999.523	2634.56
999.818	2642.92
1000.114	2607.9
1000.409	2586.88
1000.704	2580.1
1001	2568.58
1001.295	2573.77
1001.59	2529.26
1001.885	2509.14
1002.18	2496.49
1002.475	2463.95
1002.77	2494
1003.065	2422.37
1003.359	2419.43
1003.654	2424.85
1003.949	2390.28
1004.243	2384.85
1004.538	2371.07
1004.832	2360.9
1005.127	2327.45
1005.421	2327.9
1005.715	2313.22
1006.009	2286.78
1006.304	2251.75
1006.598	2256.49
1006.892	2266.44
1007.186	2211.98
1007.48	2211.98
1007.773	2178.98
1008.067	2178.3
1008.361	2182.82
1008.655	2138.76
1008.948	2155.25
1009.242	2163.39
1009.535	2133.79
1009.829	2093.33
1010.122	2103.96
1010.415	2103.5
1010.708	2083.39
1011.001	2063.28
1011.295	2049.72
1011.588	2038.42
1011.881	2031.42
1012.173	2040
1012.466	2007.69
1012.759	1998.42
1013.052	2003.39
1013.344	2029.83
1013.637	1969.72
1013.93	1976.73
1014.222	1940.57
1014.514	1936.5
1014.807	1919.78
1015.099	1923.62
1015.391	1917.29
1015.683	1892.44
1015.976	1911.87
1016.268	1892.44
1016.56	1872.32
1016.851	1845.88
1017.143	1881.14
1017.435	1867.13
1017.727	1827.81
1018.018	1828.93
1018.31	1814.02
1018.602	1789.61
1018.893	1775.83
1019.185	1804.75
1019.476	1757.3
1019.767	1769.05
1020.058	1766.56
1020.35	1746.9
1020.641	1707.81
1020.932	1721.37
1021.223	1721.14
1021.514	1693.8
1021.804	1659.9
1022.095	1664.87
1022.386	1673.23
1022.677	1642.95
1022.967	1632.78
1023.258	1616.29
1023.548	1602.27
1023.839	1621.48
1024.129	1557.98
1024.419	1549.62
1024.709	1548.72
1025	1527.47
1025.29	1533.35
1025.58	1513.46
1025.87	1512.11
1026.16	1514.14
1026.449	1487.7
1026.739	1503.29
1027.029	1448.83
1027.319	1464.42
1027.608	1449.96
1027.898	1440.92
1028.187	1450.87
1028.477	1390.08
1028.766	1412.22
1029.055	1396.4
1029.344	1427.36
1029.634	1387.59
1029.923	1362.73
1030.212	1358.66
1030.501	1345.56
1030.79	1317.31
1031.078	1340.59
1031.367	1294.26
1031.656	1292.68
1031.945	1280.93
1032.233	1290.42
1032.522	1268.95
1032.81	1263.75
1033.099	1278.89
1033.387	1263.98
1033.675	1258.1
1033.963	1231.21
1034.251	1234.6
1034.54	1220.36
1034.828	1199.35
1035.116	1182.17
1035.403	1166.35
1035.691	1174.49
1035.979	1161.83
1036.267	1156.86
1036.554	1145.34
1036.842	1149.4
1037.129	1126.58
1037.417	1128.16
1037.704	1135.62
1037.992	1115.73
1038.279	1116.86
1038.566	1089.52
1038.853	1089.52
1039.14	1089.52
