Data from red_shiny_book_FLMS001491_00019.txt Node
Date: Wed Feb 08 15:23:43 GMT 2017
User: dcchb
Spectrometer: FLMS00149
Trigger mode: 0
Integration Time (sec): 2.000000E-2
Scans to average: 10
Electric dark correction enabled: true
Nonlinearity correction enabled: false
Boxcar width: 0
XAxis mode: Wavelengths
Number of Pixels in Spectrum: 2048
>>>>>Begin Spectral Data<<<<<
341.393	-8.15
341.776	-8.15
342.16	-8.15
342.543	-38.43
342.927	-73.23
343.31	-54.93
343.693	-59.45
344.077	-56.96
344.46	-74.36
344.843	-66
345.226	-31.65
345.61	-15.15
345.993	-9.28
346.376	-19
346.759	5.64
347.142	31.17
347.525	25.07
347.908	53.54
348.291	76.37
348.674	75.24
349.057	119.76
349.44	133.09
349.823	133.77
350.206	149.59
350.588	206.53
350.971	228.23
351.354	244.73
351.737	258.96
352.119	244.73
352.502	273.88
352.884	292.41
353.267	300.77
353.65	301.9
354.032	303.25
354.414	303.48
354.797	312.75
355.179	348
355.562	353.2
355.944	350.49
356.326	353.42
356.709	338.06
357.091	368.79
357.473	356.36
357.855	340.99
358.238	344.61
358.62	365.63
359.002	361.78
359.384	351.62
359.766	358.62
360.148	352.07
360.53	345.51
360.912	369.47
361.294	359.75
361.676	355.68
362.057	332.18
362.439	330.82
362.821	359.75
363.203	339.86
363.584	348
363.966	340.77
364.348	339.19
364.729	340.32
365.111	340.09
365.493	324.72
365.874	327.43
366.256	325.63
366.637	343.25
367.019	330.15
367.4	340.32
367.781	334.67
368.163	337.38
368.544	353.65
368.925	343.71
369.306	364.72
369.688	354.78
370.069	340.09
370.45	329.69
370.831	323.59
371.212	313.65
371.593	354.78
371.974	348.45
372.355	331.73
372.736	361.33
373.117	323.59
373.498	331.5
373.879	338.06
374.26	318.4
374.641	324.05
375.021	330.37
375.402	338.51
375.783	360.43
376.163	349.81
376.544	351.16
376.925	359.07
377.305	348.9
377.686	344.61
378.066	332.41
378.447	355.68
378.827	351.39
379.208	371.95
379.588	378.06
379.968	365.4
380.349	392.29
380.729	363.82
381.109	375.34
381.489	387.32
381.87	366.3
382.25	373.99
382.63	350.94
383.01	367.21
383.39	381.44
383.77	391.16
384.15	385.29
384.53	387.77
384.91	395
385.29	390.94
385.67	378.28
386.049	375.34
386.429	377.38
386.809	394.1
387.189	379.18
387.568	387.09
387.948	385.29
388.328	377.38
388.707	400.43
389.087	393.42
389.466	407.21
389.846	402.24
390.225	411.95
390.605	384.16
390.984	392.97
391.363	384.61
391.743	419.18
392.122	402.24
392.501	420.31
392.881	415.34
393.26	413.31
393.639	416.92
394.018	413.53
394.397	410.14
394.776	399.98
395.155	427.55
395.534	416.92
395.913	445.85
396.292	426.42
396.671	432.97
397.05	420.99
397.429	407.21
397.808	421.22
398.186	439.3
398.565	440.2
398.944	433.42
399.323	440.43
399.701	456.7
400.08	450.37
400.458	447.21
400.837	442.91
401.215	465.74
401.594	480.2
401.972	454.44
402.351	453.76
402.729	487.2
403.107	473.87
403.486	463.7
403.864	486.3
404.242	477.49
404.62	475.68
404.999	504.61
405.377	483.14
405.755	483.81
406.133	489.01
406.511	496.02
406.889	506.19
407.267	508.9
407.645	508.22
408.023	501.89
408.401	500.54
408.779	499.41
409.156	507.32
409.534	508
409.912	505.28
410.29	533.53
410.667	538.5
411.045	545.28
411.422	546.86
411.8	547.32
412.178	568.11
412.555	575.79
412.933	581.44
413.31	573.3
413.687	555.23
414.065	575.79
414.442	612.17
414.819	559.29
415.197	587.77
415.574	594.77
415.951	596.58
416.328	632.51
416.705	597.26
417.082	618.05
417.46	606.07
417.837	603.13
418.214	622.79
418.591	625.05
418.967	654.66
419.344	659.63
419.721	645.62
420.098	659.63
420.475	689.46
420.852	663.02
421.228	660.99
421.605	646.52
421.982	675.45
422.358	684.49
422.735	698.27
423.111	700.08
423.488	734.66
423.864	723.36
424.241	727.42
424.617	738.05
424.994	750.47
425.37	698.95
425.746	703.47
426.123	728.55
426.499	735.11
426.875	751.15
427.251	756.58
427.627	775.78
428.003	773.07
428.379	778.27
428.756	781.89
429.132	784.82
429.507	776.01
429.883	782.34
430.259	778.95
430.635	781.43
431.011	803.35
431.387	808.33
431.763	860.08
432.138	844.03
432.514	853.52
432.89	850.36
433.265	860.08
433.641	855.1
434.016	860.75
434.392	874.77
434.767	865.5
435.143	879.28
435.518	887.19
435.894	898.04
436.269	902.79
436.644	927.87
437.02	929.45
437.395	957.25
437.77	940.98
438.145	927.87
438.52	947.31
438.895	929.23
439.271	953.86
439.646	930.58
440.021	954.09
440.395	951.37
440.77	990.69
441.145	985.5
441.52	1036.57
441.895	1028.43
442.27	1031.82
442.645	990.47
443.019	996.12
443.394	1004.71
443.769	994.08
444.143	998.83
444.518	1012.39
444.892	1034.08
445.267	1053.74
445.641	1075.89
446.016	1073.86
446.39	1077.7
446.764	1088.32
447.139	1084.25
447.513	1065.04
447.887	1050.81
448.262	1036.79
448.636	1050.13
449.01	1068.88
449.384	1057.81
449.758	1090.8
450.132	1120.18
450.506	1144.14
450.88	1141.2
451.254	1136.45
451.628	1155.66
452.002	1139.39
452.376	1123.57
452.75	1119.05
453.123	1107.53
453.497	1143.68
453.871	1122.44
454.244	1161.09
454.618	1150.69
454.992	1204.25
455.365	1204.47
455.739	1266.85
456.112	1225.26
456.486	1253.74
456.859	1239.28
457.232	1248.31
457.606	1218.71
457.979	1218.94
458.352	1201.54
458.725	1225.72
459.099	1252.16
459.472	1238.37
459.845	1318.6
460.218	1343.68
460.591	1367.41
460.964	1339.61
461.337	1355.2
461.71	1373.28
462.083	1351.59
462.456	1348.42
462.829	1295.09
463.201	1351.36
463.574	1332.38
463.947	1338.26
464.32	1343.45
464.692	1385.26
465.065	1437.69
465.438	1458.48
465.81	1477.69
466.183	1497.8
466.555	1513.84
466.928	1524.69
467.3	1507.06
467.672	1490.34
468.045	1492.15
468.417	1509.78
468.789	1475.88
469.161	1473.17
469.534	1545.48
469.906	1550.68
470.278	1617.8
470.65	1631.58
471.022	1661.41
471.394	1717.23
471.766	1746.61
472.138	1740.28
472.51	1755.19
472.882	1757.68
473.253	1675.42
473.625	1691.92
473.997	1710.45
474.369	1717.45
474.74	1756.55
475.112	1816.44
475.484	1843.33
475.855	1886.49
476.227	1933.95
476.598	2017.11
476.97	2032.02
477.341	2062.3
477.713	2082.19
478.084	2035.41
478.455	2089.87
478.827	2037.22
479.198	2065.02
479.569	2047.39
479.94	2097.33
480.311	2086.48
480.682	2159.48
481.053	2226.59
481.424	2304.78
481.795	2359.7
482.166	2429.53
482.537	2458.23
482.908	2490.77
483.279	2487.83
483.65	2513.59
484.021	2525.34
484.391	2531.9
484.762	2478.34
485.133	2480.82
485.503	2529.18
485.874	2594.72
486.244	2569.18
486.615	2711.33
486.985	2775.73
487.356	2876.52
487.726	2933.69
488.097	2992
488.467	3013.47
488.837	3082.84
489.207	3059.79
489.578	3041.71
489.948	3007.36
490.318	2974.37
490.688	2994.48
491.058	3048.95
491.428	3034.48
491.798	3098.89
492.168	3198.77
492.538	3286.91
492.908	3370.29
493.278	3439.22
493.648	3489.61
494.017	3559.44
494.387	3598.31
494.757	3573.68
495.126	3537.75
495.496	3522.15
495.866	3482.38
496.235	3470.86
496.605	3462.95
496.974	3423.62
497.344	3497.75
497.713	3534.13
498.082	3592.66
498.452	3681.25
498.821	3769.6
499.19	3859.32
499.559	3911.75
499.928	3956.49
500.298	3969.37
500.667	4059.31
501.036	4007.79
501.405	3934.35
501.774	3800.34
502.143	3836.95
502.512	3797.85
502.88	3762.15
503.249	3774.35
503.618	3789.04
503.987	3851.64
504.356	3914.01
504.724	4003.04
505.093	4102.93
505.462	4170.95
505.83	4245.52
506.199	4277.39
506.567	4307.67
506.936	4281.46
507.304	4297.73
507.672	4202.81
508.041	4136.6
508.409	4115.81
508.777	3995.14
509.145	3986.1
509.514	3977.51
509.882	4100.22
510.25	4076.26
510.618	4177.5
510.986	4256.82
511.354	4418.63
511.722	4446.65
512.09	4512.41
512.458	4562.13
512.826	4548.34
513.193	4581.56
513.561	4507.21
513.929	4431.73
514.297	4407.1
514.664	4357.61
515.032	4313.77
515.4	4299.53
515.767	4264.28
516.135	4279.42
516.502	4258.63
516.869	4439.87
517.237	4466.76
517.604	4546.76
517.972	4701.11
518.339	4744.49
518.706	4793.76
519.073	4866.07
519.44	4901.78
519.808	4855.23
520.175	4811.84
520.542	4751.27
520.909	4668.34
521.276	4574.78
521.643	4555.57
522.009	4525.52
522.376	4533.2
522.743	4537.27
523.11	4612.75
523.477	4727.55
523.843	4777.49
524.21	4944.94
524.577	5091.6
524.943	5153.97
525.31	5218.61
525.676	5351.03
526.043	5316.46
526.409	5365.49
526.776	5285.04
527.142	5264.93
527.508	5142.9
527.874	5139.74
528.241	4987.88
528.607	4979.29
528.973	4987.2
529.339	4974.54
529.705	5075.11
530.071	5209.34
530.437	5288.43
530.803	5373.63
531.169	5542.89
531.535	5687.97
531.901	5759.61
532.267	5827.63
532.632	5955.31
532.998	5954.63
533.364	5970.22
533.73	5857.01
534.095	5861.75
534.461	5764.35
534.826	5730.46
535.192	5649.1
535.557	5600.97
535.923	5577.01
536.288	5627.86
536.653	5665.37
537.019	5696.79
537.384	5859.49
537.749	5972.26
538.114	6151.01
538.479	6264.45
538.845	6395.52
539.21	6471.23
539.575	6508.74
539.94	6608.17
540.305	6646.14
540.67	6550.1
541.034	6468.29
541.399	6433.49
541.764	6328.18
542.129	6262.19
542.494	6217
542.858	6121.86
543.223	6141.97
543.587	6155.98
543.952	6240.95
544.316	6303.1
544.681	6438.01
545.045	6599.13
545.41	6765.23
545.774	6886.13
546.138	7007.26
546.503	7052.91
546.867	7208.16
547.231	7214.94
547.595	7219.91
547.959	7115.5
548.324	7049.74
548.688	6941.05
549.052	6843.87
549.416	6772.01
549.779	6622.18
550.143	6571.56
550.507	6557.1
550.871	6560.49
551.235	6602.75
551.599	6715.74
551.962	6795.06
552.326	6950.99
552.689	7109.86
553.053	7226.24
553.417	7348.27
553.78	7548.04
554.143	7551.88
554.507	7612.67
554.87	7682.27
555.234	7615.83
555.597	7485.21
555.96	7398.66
556.323	7303.52
556.686	7184.43
557.05	7071.89
557.413	6975.4
557.776	6976.3
558.139	6904.89
558.502	6893.14
558.865	6927.04
559.228	7056.52
559.59	7209.29
559.953	7379.23
560.316	7609.5
560.679	7721.36
561.041	7870.97
561.404	8022.83
561.767	8157.74
562.129	8141.92
562.492	8129.04
562.854	8142.6
563.217	8061.92
563.579	7941.02
563.941	7820.12
564.304	7701.03
564.666	7618.99
565.028	7535.15
565.39	7447.47
565.753	7444.54
566.115	7432.33
566.477	7518.43
566.839	7489.51
567.201	7680.46
567.563	7821.02
567.925	7978.76
568.287	8151.86
568.648	8295.81
569.01	8503.72
569.372	8710.49
569.734	8727.21
570.095	8817.61
570.457	8867.55
570.819	8836.14
571.18	8767.66
571.542	8706.2
571.903	8584.84
572.265	8420.78
572.626	8364.74
572.987	8188.92
573.349	8159.32
573.71	8148.47
574.071	8138.75
574.432	8176.04
574.794	8375.13
575.155	8475.7
575.516	8627.78
575.877	8842.47
576.238	9108.9
576.599	9401.09
576.96	9580.52
577.32	9746.62
577.681	9962.89
578.042	10174.86
578.403	10229.1
578.763	10366.72
579.124	10407.62
579.485	10456.21
579.845	10521.74
580.206	10474.96
580.566	10446.94
580.927	10533.49
581.287	10559.03
581.648	10568.52
582.008	10795.63
582.368	11054.16
582.728	11225.68
583.089	11633.35
583.449	11874.25
583.809	12347.68
584.169	12891.85
584.529	13330.26
584.889	13994.65
585.249	14309.21
585.609	14791.91
585.969	15430.54
586.329	15933.35
586.688	16330.63
587.048	16759.32
587.408	17061.46
587.768	17489.24
588.127	17760.87
588.487	18038.16
588.846	18472.72
589.206	18707.29
589.565	19058.02
589.925	19449.42
590.284	19773.25
590.643	20307.25
591.003	20761.25
591.362	21274.23
591.721	21940.43
592.08	22469.68
592.44	23341.97
592.799	23993.93
593.158	24656.51
593.517	25395.48
593.876	26135.34
594.235	26776
594.593	27452.6
594.952	28123.09
595.311	28647.37
595.67	29166.45
596.029	29824.29
596.387	30279.42
596.746	30918.95
597.104	30907.2
597.463	31290.69
597.822	31820.62
598.18	32030.56
598.538	32474.61
598.897	33082.28
599.255	33101.04
599.613	34299.42
599.972	34391.4
600.33	35018.73
600.688	35515.21
601.046	36158.81
601.404	36854.38
601.762	37371.21
602.12	38329.6
602.478	38787.44
602.836	39282.57
603.194	39751.03
603.552	40260.62
603.91	40643.44
604.268	41331.33
604.625	41447.71
604.983	42137.18
605.341	42242.26
605.698	42636.15
606.056	42894.9
606.413	43017.84
606.771	43311.62
607.128	43751.38
607.485	43513.64
607.843	43791.6
608.2	44264.13
608.557	44525.37
608.914	44638.13
609.272	45177.33
609.629	45519.47
609.986	46013.69
610.343	46152.44
610.7	46834.01
611.057	47121.46
611.414	47365.29
611.771	47780.42
612.127	48166.63
612.484	48381.31
612.841	48662.21
613.198	48906.95
613.554	49039.83
613.911	49424.9
614.267	49477.55
614.624	49549.19
614.98	49622.64
615.337	49816.53
615.693	49669.64
616.05	49747.15
616.406	49927.49
616.762	49849.97
617.118	49779.69
617.475	49974.04
617.831	50104.21
618.187	50167.03
618.543	50239.79
618.899	50534.7
619.255	50609.05
619.611	50778.76
619.967	51111.18
620.323	51334.23
620.678	51379.88
621.034	51448.12
621.39	51633.88
621.746	51780.09
622.101	52159.74
622.457	51983.25
622.812	52165.62
623.168	52282.9
623.523	52388.89
623.879	52370.81
624.234	52162.91
624.589	52216.01
624.945	52263.02
625.3	52309.12
625.655	52204.04
626.01	52154.09
626.365	52156.81
626.72	52058.05
627.075	52007.66
627.43	51988.9
627.785	51976.25
628.14	52122.68
628.495	52168.11
628.85	52140.76
629.205	52164.04
629.559	52440.87
629.914	52468.89
630.269	52531.49
630.623	52619.17
630.978	52712.95
631.332	52929.89
631.687	53024.13
632.041	52951.59
632.396	52957.01
632.75	52862.1
633.104	53019.38
633.459	52830.91
633.813	52828.43
634.167	52789.11
634.521	52592.05
634.875	52749.33
635.229	52598.15
635.583	52301.89
635.937	52187.31
636.291	52191.83
636.645	52077.26
636.999	52034.1
637.352	51996.13
637.706	51792.52
638.06	52013.08
638.413	51892.63
638.767	51870.26
639.121	51950.03
639.474	51728.8
639.828	51910.94
640.181	52116.13
640.534	52240.65
640.888	52249.91
641.241	52131.04
641.594	52286.75
641.947	52453.52
642.301	52403.81
642.654	52491.71
643.007	52472.5
643.36	52452.39
643.713	52345.5
644.066	52341.66
644.419	52129.69
644.771	51914.1
645.124	51334.68
645.477	51254.68
645.83	50950.28
646.182	50837.97
646.535	50706.9
646.888	50651.99
647.24	50455.38
647.593	50648.15
647.945	50446.8
648.298	50270.98
648.65	50243.18
649.002	50095.39
649.355	50372.45
649.707	50289.51
650.059	50507.36
650.411	50954.35
650.763	51055.37
651.115	51594.34
651.467	51523.83
651.819	51564.51
652.171	51532.64
652.523	51531.51
652.875	51538.97
653.227	51388.92
653.578	51691.51
653.93	51666.42
654.282	51366.77
654.633	51375.81
654.985	51219.66
655.337	51253.33
655.688	51174.69
656.039	51222.59
656.391	50715.94
656.742	50808.82
657.094	50729.27
657.445	50708.03
657.796	50592.78
658.147	50522.27
658.498	50417.87
658.849	50555.49
659.2	50543.29
659.551	50436.4
659.902	50667.35
660.253	50622.38
660.604	50769.05
660.955	50639.56
661.306	50950.96
661.656	50946.44
662.007	50962.26
662.358	51105.31
662.708	51108.02
663.059	51175.14
663.409	50971.75
663.76	51258.98
664.11	51329.71
664.461	51345.3
664.811	51118.87
665.161	51038.42
665.511	50983.96
665.862	50924.75
666.212	50977.18
666.562	50833.23
666.912	50636.62
667.262	50563.63
667.612	50434.14
667.962	50271.21
668.312	50261.72
668.662	50229.4
669.011	50116.63
669.361	50043.64
669.711	49953.02
670.06	49969.97
670.41	49907.15
670.76	49896.08
671.109	50001.16
671.459	50044.77
671.808	50106.24
672.157	50213.13
672.507	50093.58
672.856	50336.06
673.205	50350.07
673.554	50473.46
673.904	50332
674.253	50666.45
674.602	50696.28
674.951	50184.88
675.3	49979.69
675.649	50458.55
675.998	50494.48
676.346	50395.95
676.695	50463.29
677.044	50130.87
677.393	50233.47
677.741	50167.03
678.09	49998.67
678.438	49766.36
678.787	49832.35
679.135	49583.99
679.484	49242.08
679.832	49390.78
680.181	49131.35
680.529	49104.46
680.877	49052.26
681.225	48902.88
681.573	49213.61
681.922	49014.74
682.27	48767.52
682.618	49018.58
682.966	48909.66
683.314	49046.83
683.661	49054.06
684.009	49113.72
684.357	49127.06
684.705	49135.64
685.053	49319.59
685.4	49281.63
685.748	49120.28
686.095	49259.93
686.443	49154.17
686.79	49047.06
687.138	49231.23
687.485	49120.95
687.832	48952.6
688.18	48828.31
688.527	48537.01
688.874	48600.06
689.221	48285.95
689.568	48130.25
689.915	47872.85
690.262	47840.76
690.609	47582.69
690.956	47460.88
691.303	47308.35
691.65	47012.31
691.997	46893.44
692.344	46620.91
692.69	46729.38
693.037	46730.51
693.383	46429.5
693.73	46675.82
694.077	46325.1
694.423	46391.08
694.769	46382.27
695.116	46489.84
695.462	46429.05
695.808	46290.07
696.155	46575.94
696.501	46307.02
696.847	46424.08
697.193	46165.55
697.539	46402.38
697.885	46139.79
698.231	46025.22
698.577	46204.19
698.923	46055.27
699.269	45911.1
699.614	45628.39
699.96	45566.25
700.306	45533.25
700.651	45214.39
700.997	44941.4
701.342	45013.27
701.688	44882.42
702.033	44583.67
702.379	44450.12
702.724	44110.24
703.069	44202.21
703.415	43631.83
703.76	43673.64
704.105	43544.15
704.45	43385.74
704.795	43010.83
705.14	43056.93
705.485	43079.53
705.83	42842.93
706.175	42978.06
706.52	42887.9
706.865	42915.24
707.209	42898.29
707.554	42828.69
707.899	43038.4
708.243	42867.56
708.588	42888.58
708.932	42832.08
709.277	42758.86
709.621	42996.14
709.966	42616.27
710.31	42763.83
710.654	42451.75
710.998	42657.17
711.342	42779.43
711.687	42363.17
712.031	42264.41
712.375	42010.86
712.719	42076.62
713.063	41906.45
713.407	41904.65
713.75	41713.47
714.094	41463.3
714.438	41274.38
714.782	41126.36
715.125	40928.63
715.469	40934.73
715.812	40608.18
716.156	40435.76
716.499	40374.74
716.843	40297.46
717.186	40115.99
717.53	40186.73
717.873	40119.16
718.216	40124.35
718.559	39803.91
718.902	39639.85
719.246	39772.95
719.589	39781.09
719.932	39730.69
720.275	39769.79
720.617	39881.88
720.96	39872.38
721.303	40031.7
721.646	40009.56
721.989	39856.34
722.331	40074.86
722.674	40148.08
723.016	40010.46
723.359	39884.36
723.701	39972.95
724.044	39767.08
724.386	39523.24
724.729	39761.88
725.071	39453.86
725.413	39511.49
725.755	39350.59
726.097	39287.09
726.439	38938.85
726.782	38897.27
727.124	38796.93
727.465	38547.67
727.807	38409.37
728.149	38337.51
728.491	38136.16
728.833	38095.48
729.175	37894.81
729.516	37825.21
729.858	37692.33
730.199	37643.97
730.541	37495.95
730.882	37491.66
731.224	37511.99
731.565	37142.74
731.906	37387.48
732.248	37415.5
732.589	37371.21
732.93	37284.88
733.271	37321.94
733.612	37509.96
733.953	37684.42
734.294	37381.6
734.635	37347.93
734.976	37528.72
735.317	37522.84
735.658	37481.26
735.999	37611.43
736.339	37476.29
736.68	37778.65
737.021	37554.7
737.361	37317.42
737.702	37612.56
738.042	37414.82
738.383	37285.79
738.723	37389.29
739.063	37091.21
739.404	37254.37
739.744	36956.08
740.084	36810.54
740.424	36845.57
740.764	36592.02
741.104	36552.7
741.444	36196.55
741.784	36157.68
742.124	36173.27
742.464	36091.92
742.804	35883.56
743.143	35653.29
743.483	35725.6
743.823	35443.57
744.162	35360.41
744.502	35454.19
744.841	35413.97
745.181	35483.12
745.52	35399.06
745.86	35419.17
746.199	35216.69
746.538	35377.59
746.877	35503.46
747.216	35393.18
747.556	35481.09
747.895	35536.9
748.234	35407.19
748.573	35511.14
748.911	35429.56
749.25	35513.63
749.589	35397.25
749.928	35398.15
750.267	35473.63
750.605	35357.02
750.944	35359.73
751.283	35308.66
751.621	35312.5
751.96	35136.01
752.298	35102.57
752.636	34909.12
752.975	34754.33
753.313	34548
753.651	34563.82
753.989	34336.03
754.327	34350.95
754.666	33963.61
755.004	34021.69
755.342	34042.03
755.679	33738.31
756.017	33503.96
756.355	33602.04
756.693	33204.76
757.031	33261.03
757.368	33060.59
757.706	33000.47
758.044	32798.67
758.381	32678
758.719	32681.61
759.056	32651.1
759.394	32597.09
759.731	32438
760.068	32311.68
760.405	32300.38
760.743	32215.64
761.08	32310.55
761.417	32280.49
761.754	32306.48
762.091	32258.12
762.428	32249.31
762.765	32099.71
763.102	32167.05
763.438	32112.81
763.775	32098.8
764.112	32166.6
764.449	32158.91
764.785	32099.48
765.122	31833.27
765.458	31830.11
765.795	31749.89
766.131	31707.4
766.467	31694.29
766.804	31372.27
767.14	31214.08
767.476	31270.12
767.812	30953.07
768.148	31029.68
768.485	30692.74
768.821	30507.66
769.157	30449.81
769.492	30306.08
769.828	30138.4
770.164	29810.05
770.5	29722.37
770.836	29686.89
771.171	29439.66
771.507	29317.18
771.842	29013.91
772.178	29031.31
772.513	29059.33
772.849	29004.65
773.184	28654.83
773.519	28741.6
773.855	28489.86
774.19	28468.62
774.525	28224.1
774.86	28387.71
775.195	28292.8
775.53	28149.75
775.865	28085.35
776.2	27974.62
776.535	27886.26
776.87	27874.28
777.205	27821.63
777.539	27768.52
777.874	27799.25
778.209	27670.22
778.543	27603.55
778.878	27571.01
779.212	27588.86
779.547	27511.8
779.881	27520.39
780.215	27354.07
780.55	27504.8
780.884	27206.05
781.218	27167.63
781.552	27055.09
781.886	26957.92
782.22	26797.02
782.554	26634.77
782.888	26409.01
783.222	26179.18
783.556	26191.84
783.889	26053.54
784.223	25678.86
784.557	25815.13
784.89	25692.64
785.224	25611.52
785.557	25325.87
785.891	25232.32
786.224	25062.83
786.558	25020.8
786.891	24794.81
787.224	24793.46
787.557	24656.74
787.891	24478.21
788.224	24491.32
788.557	24458.33
788.89	24272.34
789.223	24403.41
789.556	24130.42
789.888	24071.22
790.221	24004.55
790.554	23927.04
790.887	23987.6
791.219	23837.78
791.552	23898.11
791.884	23911.9
792.217	23696.76
792.549	23694.28
792.882	23630.78
793.214	23573.83
793.546	23706.03
793.879	23525.24
794.211	23393.27
794.543	23527.05
794.875	23425.13
795.207	23524.11
795.539	23383.55
795.871	23375.64
796.203	23071.24
796.535	23129.55
796.867	23136.78
797.198	22901.08
797.53	22850.23
797.862	22784.92
798.193	22824.24
798.525	22609.56
798.856	22610.92
799.188	22332.73
799.519	22213.19
799.85	22059.97
800.182	21964.61
800.513	21968.67
800.844	21697.04
801.175	21895.23
801.506	21694.1
801.837	21551.06
802.168	21357.84
802.499	21353.32
802.83	21171.18
803.161	21042.37
803.491	21175.02
803.822	21123.5
804.153	20913.56
804.483	20664.08
804.814	20748.82
805.145	20762.15
805.475	20533.68
805.805	20592.66
806.136	20593.34
806.466	20637.86
806.796	20612.33
807.126	20462.27
807.457	20536.62
807.787	20500.24
808.117	20434.25
808.447	20386.57
808.777	20429.05
809.107	20385.44
809.436	20439.67
809.766	20438.77
810.096	20347.25
810.426	20290.98
810.755	20359.9
811.085	20356.74
811.414	20203.75
811.744	20176.4
812.073	20074.94
812.403	20017.09
812.732	19979.8
813.061	19930.08
813.39	19938.22
813.719	19932.8
814.049	19832.01
814.378	19688.96
814.707	19676.76
815.036	19613.93
815.365	19395.18
815.693	19371.23
816.022	19401.28
816.351	19159.26
816.68	19030.22
817.008	19112.03
817.337	18930.79
817.665	18858.25
817.994	18850.79
818.322	18872.71
818.651	18587.07
818.979	18497.58
819.307	18533.51
819.636	18499.39
819.964	18399.05
820.292	18430.46
820.62	18464.81
820.948	18288.77
821.276	18409.9
821.604	18246.96
821.932	18379.84
822.259	18286.74
822.587	18272.95
822.915	18307.75
823.243	18334.65
823.57	18360.18
823.898	18363.57
824.225	18317.7
824.553	18413.74
824.88	18394.3
825.207	18490.35
825.535	18437.24
825.862	18561.31
826.189	18505.94
826.516	18632.94
826.843	18723.56
827.17	18617.8
827.497	18724.47
827.824	18774.41
828.151	18821.19
828.478	18698.03
828.805	18768.76
829.131	18713.39
829.458	18700.74
829.785	18599.5
830.111	18733.73
830.438	18840.62
830.764	18676.1
831.09	18812.82
831.417	18551.59
831.743	18602.21
832.069	18622.32
832.395	18436.11
832.722	18502.1
833.048	18421.87
833.374	18420.07
833.7	18290.58
834.026	18327.19
834.351	18268.21
834.677	18208.09
835.003	18189.11
835.329	18118.83
835.654	18118.61
835.98	18000.64
836.306	17957.71
836.631	17830.03
836.956	17786.41
837.282	17827.77
837.607	17699.63
837.932	17723.14
838.258	17596.81
838.583	17625.06
838.908	17484.5
839.233	17626.87
839.558	17552.29
839.883	17566.3
840.208	17480.88
840.533	17457.38
840.858	17557.94
841.182	17507.55
841.507	17530.37
841.832	17407.21
842.156	17504.38
842.481	17596.13
842.805	17594.55
843.13	17477.04
843.454	17509.81
843.778	17496.25
844.103	17453.54
844.427	17390.94
844.751	17586.64
845.075	17472.07
845.399	17435.91
845.723	17375.35
846.047	17352.75
846.371	17268.91
846.695	17259.19
847.019	17196.37
847.343	17014.68
847.666	16973.1
847.99	16924.51
848.313	16842.93
848.637	16763.16
848.96	16690.39
849.284	16590.74
849.607	16390.29
849.931	16382.15
850.254	16325.66
850.577	16179.45
850.9	16103.74
851.223	16019.9
851.546	15887.93
851.869	15733.81
852.192	15883.86
852.515	15633.25
852.838	15558.22
853.161	15531.78
853.483	15444.33
853.806	15309.41
854.129	15235.74
854.451	15282.52
854.774	15138.12
855.096	15065.58
855.419	14983.55
855.741	14865.36
856.063	14913.49
856.385	14767.51
856.708	14802.76
857.03	14701.52
857.352	14729.77
857.674	14785.81
857.996	14629.66
858.318	14575.2
858.64	14714.63
858.961	14528.64
859.283	14593.05
859.605	14572.48
859.926	14549.89
860.248	14484.12
860.57	14545.14
860.891	14581.52
861.212	14452.04
861.534	14494.07
861.855	14493.62
862.176	14406.16
862.498	14522.32
862.819	14498.81
863.14	14358.25
863.461	14416.78
863.782	14351.02
864.103	14443
864.424	14364.58
864.745	14400.29
865.065	14297.46
865.386	14337.24
865.707	14190.57
866.027	14317.58
866.348	14152.16
866.668	14190.12
866.989	14161.42
867.309	14094.98
867.63	14126.85
867.95	14047.98
868.27	13957.13
868.59	14017.7
868.91	13865.61
869.23	13845.72
869.55	13807.31
869.87	13864.71
870.19	13746.52
870.51	13700.19
870.83	13701.32
871.15	13588.56
871.469	13662.68
871.789	13572.96
872.109	13538.16
872.428	13425.85
872.748	13480.76
873.067	13437.6
873.386	13333.19
873.706	13222.69
874.025	13330.93
874.344	13158.74
874.663	13238.06
874.982	13125.52
875.301	13212.75
875.62	13017.27
875.939	13131.62
876.258	13106.76
876.577	13018.63
876.896	13064.95
877.214	13014.56
877.533	12952.87
877.852	13026.31
878.17	13126.65
878.489	13073.54
878.807	13026.54
879.125	12996.93
879.444	13042.35
879.762	13017.95
880.08	13003.26
880.398	12924.39
880.716	12975.92
881.034	13024.28
881.352	12954.22
881.67	12967.78
881.988	13044.84
882.306	12989.7
882.624	12983.83
882.941	12908.35
883.259	12939.98
883.577	12888.23
883.894	12899.76
884.212	12928.46
884.529	12826.99
884.846	12833.77
885.164	12744.51
885.481	12739.99
885.798	12717.62
886.115	12676.26
886.432	12683.49
886.75	12650.05
887.067	12502.26
887.383	12486.89
887.7	12492.31
888.017	12448.7
888.334	12457.06
888.651	12401.02
888.967	12335.71
889.284	12242.6
889.6	12108.82
889.917	12013.23
890.233	11990.63
890.55	12022.04
890.866	11928.26
891.182	11973.23
891.498	11879.22
891.815	11805.33
892.131	11779.56
892.447	11694.37
892.763	11630.41
893.079	11576.18
893.395	11573.01
893.71	11472.45
894.026	11512.9
894.342	11521.04
894.657	11356.52
894.973	11324.66
895.289	11372.79
895.604	11302.29
895.92	11300.93
896.235	11180.03
896.55	11260.03
896.865	11171.9
897.181	11138.45
897.496	11145.91
897.811	11021.62
898.126	11102.29
898.441	11116.08
898.756	11036.53
899.071	11019.13
899.386	10980.94
899.7	11008.96
900.015	10896.42
900.33	10893.03
900.644	10927.38
900.959	10914.5
901.273	10879.25
901.588	10793.6
901.902	10786.82
902.216	10738.69
902.531	10685.81
902.845	10739.82
903.159	10612.36
903.473	10621.85
903.787	10606.94
904.101	10468.86
904.415	10603.77
904.729	10487.17
905.042	10444.46
905.356	10448.07
905.67	10439.03
905.984	10380.73
906.297	10362.2
906.611	10311.58
906.924	10289.66
907.237	10210.56
907.551	10131.47
907.864	10126.73
908.177	10084.01
908.491	10020.51
908.804	9935.32
909.117	9821.65
909.43	9825.49
909.743	9733.06
910.056	9703.01
910.368	9679.51
910.681	9581.2
910.994	9601.32
911.307	9494.43
911.619	9429.34
911.932	9424.82
912.244	9306.18
912.557	9282.68
912.869	9250.82
913.181	9242.23
913.494	9079.97
913.806	9098.28
914.118	9022.8
914.43	8937.83
914.742	8978.96
915.054	8889.7
915.366	8903.03
915.678	8832.97
915.99	8721.79
916.302	8739.87
916.613	8668.46
916.925	8704.16
917.236	8657.39
917.548	8676.37
917.859	8633.88
918.171	8594.34
918.482	8649.7
918.794	8563.6
919.105	8575.35
919.416	8509.82
919.727	8476.15
920.038	8452.42
920.349	8470.95
920.66	8468.24
920.971	8335.81
921.282	8354.34
921.593	8334.68
921.903	8252.2
922.214	8232.99
922.525	8242.03
922.835	8255.81
923.146	8149.38
923.456	8135.37
923.767	8091.98
924.077	8161.81
924.387	8136.5
924.697	8131.98
925.008	8098.98
925.318	8042.26
925.628	8004.97
925.938	7968.14
926.248	7808.82
926.558	7802.94
926.867	7736.73
927.177	7786.45
927.487	7725.66
927.796	7659.9
928.106	7676.62
928.416	7654.7
928.725	7576.74
929.034	7546.23
929.344	7493.57
929.653	7509.39
929.962	7450.64
930.271	7417.64
930.581	7359.57
930.89	7281.83
931.199	7227.14
931.508	7207.25
931.817	7217.88
932.125	7156.63
932.434	7094.94
932.743	7019.69
933.051	6992.12
933.36	6992.34
933.669	6929.97
933.977	6909.41
934.286	6838.68
934.594	6837.77
934.902	6759.58
935.21	6754.16
935.519	6783.99
935.827	6759.36
936.135	6651.34
936.443	6540.83
936.751	6617.89
937.059	6499.7
937.367	6475.07
937.674	6480.95
937.982	6502.19
938.29	6414.73
938.597	6482.75
938.905	6315.3
939.213	6344
939.52	6365.69
939.827	6389.42
940.135	6291.35
940.442	6296.54
940.749	6264.23
941.056	6269.2
941.363	6220.39
941.67	6187.62
941.977	6161.63
942.284	6160.28
942.591	6169.09
942.898	6201.18
943.205	6115.53
943.511	6119.15
943.818	6124.34
944.125	6075.98
944.431	6098.81
944.738	6056.55
945.044	6038.02
945.35	5966.83
945.657	5971.13
945.963	5982.88
946.269	5900.4
946.575	5940.17
946.881	5907.4
947.187	5916.21
947.493	5872.83
947.799	5776.56
948.105	5831.02
948.41	5743.34
948.716	5776.11
949.022	5708.31
949.327	5695.2
949.633	5650.23
949.938	5623.79
950.244	5613.17
950.549	5525.26
950.854	5513.29
951.16	5497.69
951.465	5463.8
951.77	5437.58
952.075	5460.18
952.38	5423.57
952.685	5367.53
952.99	5340.41
953.294	5347.87
953.599	5260.86
953.904	5254.99
954.209	5178.15
954.513	5180.19
954.818	5154.43
955.122	5105.61
955.426	5097.7
955.731	5073.07
956.035	5043.24
956.339	5041.44
956.643	5014.54
956.948	4962.34
957.252	4942
957.556	4965.05
957.86	4843.47
958.163	4878.95
958.467	4813.64
958.771	4793.53
959.075	4796.24
959.378	4749.69
959.682	4819.75
959.985	4714.21
960.289	4693.65
960.592	4687.32
960.896	4666.76
961.199	4616.14
961.502	4586.76
961.805	4608.9
962.108	4578.62
962.411	4556.7
962.714	4568.45
963.017	4582.24
963.32	4566.87
963.623	4539.08
963.926	4523.26
964.228	4475.57
964.531	4436.03
964.833	4496.82
965.136	4423.82
965.438	4393.77
965.741	4399.87
966.043	4379.31
966.345	4400.77
966.648	4367.55
966.95	4367.78
967.252	4325.3
967.554	4334.79
967.856	4305.18
968.158	4297.5
968.46	4305.86
968.761	4334.79
969.063	4276.71
969.365	4213.89
969.666	4253.43
969.968	4224.28
970.269	4175.7
970.571	4161.01
970.872	4154.45
971.174	4119.2
971.475	4129.82
971.776	4114.45
972.077	4071.07
972.378	4085.08
972.679	4066.55
972.98	4052.99
973.281	4005.53
973.582	4023.16
973.883	3984.97
974.183	3921.46
974.484	3928.24
974.785	3891.18
975.085	3862.03
975.386	3865.42
975.686	3852.09
975.986	3817.96
976.287	3777.51
976.587	3756.27
976.887	3820.22
977.187	3739.32
977.487	3715.82
977.787	3645.09
978.087	3668.59
978.387	3627.69
978.687	3662.04
978.987	3603.96
979.286	3585.43
979.586	3610.74
979.885	3542.04
980.185	3584.52
980.484	3519.67
980.784	3490.97
981.083	3483.28
981.382	3454.13
981.682	3462.72
981.981	3474.7
982.28	3403.51
982.579	3390.86
982.878	3354.25
983.177	3344.53
983.475	3372.55
983.774	3313.12
984.073	3334.36
984.372	3269.73
984.67	3280.58
984.969	3279
985.267	3275.15
985.566	3248.71
985.864	3196.06
986.162	3167.59
986.461	3199.45
986.759	3166.91
987.057	3170.75
987.355	3170.98
987.653	3183.18
987.951	3147.47
988.249	3133.69
988.547	3108.15
988.844	3142.5
989.142	3100.47
989.44	3074.03
989.737	3084.42
990.035	3036.52
990.332	3069.74
990.63	3010.3
990.927	3048.27
991.224	3035.39
991.521	2994.94
991.819	3008.72
992.116	2991.77
992.413	2993.58
992.71	2960.81
993.006	2958.55
993.303	2950.19
993.6	2963.52
993.897	2919.68
994.193	2902.96
994.49	2904.54
994.787	2881.49
995.083	2868.16
995.379	2835.62
995.676	2821.38
995.972	2813.25
996.268	2798.33
996.565	2771.21
996.861	2754.49
997.157	2778.67
997.453	2691.89
997.749	2704.55
998.044	2705.45
998.34	2696.19
998.636	2705.23
998.932	2666.13
999.227	2688.28
999.523	2650.99
999.818	2634.49
1000.114	2600.14
1000.409	2601.05
1000.704	2580.03
1001	2533.03
1001.295	2510.88
1001.59	2550.88
1001.885	2511.78
1002.18	2465.91
1002.475	2444.89
1002.77	2468.85
1003.065	2452.8
1003.359	2429.75
1003.654	2443.54
1003.949	2395.63
1004.243	2395.63
1004.538	2359.7
1004.832	2334.61
1005.127	2354.95
1005.421	2319.02
1005.715	2354.95
1006.009	2280.6
1006.304	2262.07
1006.598	2281.51
1006.892	2225.24
1007.186	2214.84
1007.48	2210.78
1007.773	2188.18
1008.067	2236.99
1008.361	2177.1
1008.655	2151.57
1008.948	2160.61
1009.242	2154.96
1009.535	2145.92
1009.829	2123.55
1010.122	2081.74
1010.415	2105.02
1010.708	2047.16
1011.001	2059.37
1011.295	2069.08
1011.588	2058.24
1011.881	2014.85
1012.173	2033.38
1012.466	2009.2
1012.759	2013.04
1013.052	2000.61
1013.344	2006.03
1013.637	2002.87
1013.93	1973.49
1014.222	1938.47
1014.514	1907.28
1014.807	1921.97
1015.099	1929.43
1015.391	1938.01
1015.683	1926.71
1015.976	1918.35
1016.268	1848.98
1016.56	1869.77
1016.851	1855.08
1017.143	1870.67
1017.435	1843.33
1017.727	1818.47
1018.018	1818.47
1018.31	1810.33
1018.602	1768.98
1018.893	1796.77
1019.185	1776.21
1019.476	1780.96
1019.767	1769.88
1020.058	1728.98
1020.35	1749.09
1020.641	1769.2
1020.932	1729.43
1021.223	1713.39
1021.514	1702.99
1021.804	1689.43
1022.095	1694.63
1022.386	1673.39
1022.677	1669.55
1022.967	1618.93
1023.258	1605.37
1023.548	1609.44
1023.839	1610.56
1024.129	1591.81
1024.419	1594.75
1024.709	1555.65
1025	1574.86
1025.29	1546.61
1025.58	1554.97
1025.87	1477.69
1026.16	1485.82
1026.449	1519.72
1026.739	1505.26
1027.029	1484.92
1027.319	1460.74
1027.608	1441.3
1027.898	1433.85
1028.187	1421.19
1028.477	1427.97
1028.766	1385.49
1029.055	1422.77
1029.344	1383.23
1029.634	1371.02
1029.923	1356.79
1030.212	1340.29
1030.501	1369.89
1030.79	1332.15
1031.078	1322.21
1031.367	1325.83
1031.656	1295.55
1031.945	1258.94
1032.233	1258.26
1032.522	1293.29
1032.81	1245.15
1033.099	1246.05
1033.387	1224.81
1033.675	1256.68
1033.963	1231.37
1034.251	1224.36
1034.54	1225.04
1034.828	1195.21
1035.116	1175.55
1035.403	1176.68
1035.691	1155.21
1035.979	1179.62
1036.267	1141.2
1036.554	1163.35
1036.842	1152.27
1037.129	1155.89
1037.417	1132.61
1037.704	1150.92
1037.992	1130.8
1038.279	1094.65
1038.566	1112.05
1038.853	1112.05
1039.14	1112.05
