Data from red_cardboard_box_FLMS001491_00002.txt Node
Date: Wed Feb 08 11:31:23 GMT 2017
User: dcchb
Spectrometer: FLMS00149
Trigger mode: 0
Integration Time (sec): 2.000000E-2
Scans to average: 10
Electric dark correction enabled: true
Nonlinearity correction enabled: false
Boxcar width: 0
XAxis mode: Wavelengths
Number of Pixels in Spectrum: 2048
>>>>>Begin Spectral Data<<<<<
341.393	-18.29
341.776	-18.29
342.16	-18.29
342.543	-63.49
342.927	-65.75
343.31	-71.85
343.693	-69.59
344.077	-52.64
344.46	-60.78
344.843	-41.79
345.226	-49.7
345.61	-34.56
345.993	-23.26
346.376	-14.22
346.759	20.35
347.142	18.32
347.525	55.38
347.908	54.25
348.291	55.61
348.674	84.53
349.057	129.95
349.44	108.49
349.823	132.89
350.206	151.65
350.588	170.41
350.971	212.44
351.354	225.09
351.737	232.1
352.119	234.81
352.502	258.09
352.884	283.17
353.267	278.2
353.65	296.28
354.032	302.83
354.414	312.32
354.797	309.38
355.179	327.01
355.562	323.17
355.944	334.47
356.326	339.44
356.709	348.71
357.091	327.92
357.473	335.6
357.855	347.58
358.238	339.89
358.62	326.79
359.002	347.58
359.384	338.54
359.766	344.19
360.148	332.43
360.53	341.47
360.912	320.91
361.294	348.03
361.676	335.37
362.057	353.68
362.439	325.2
362.821	346.9
363.203	321.36
363.584	324.75
363.966	327.69
364.348	303.96
364.729	330.17
365.111	329.72
365.493	314.36
365.874	332.43
366.256	303.06
366.637	309.84
367.019	307.12
367.4	298.31
367.781	325.88
368.163	323.4
368.544	308.03
368.925	306.22
369.306	321.14
369.688	307.58
370.069	302.61
370.45	298.99
370.831	294.02
371.212	317.52
371.593	322.94
371.974	303.73
372.355	330.63
372.736	305.32
373.117	322.72
373.498	316.16
373.879	305.99
374.26	324.53
374.641	327.24
375.021	315.03
375.402	298.76
375.783	327.01
376.163	313.9
376.544	323.62
376.925	324.3
377.305	319.33
377.686	325.43
378.066	319.55
378.447	316.39
378.827	323.17
379.208	324.07
379.588	320.01
379.968	335.37
380.349	329.72
380.729	332.66
381.109	323.17
381.489	327.69
381.87	334.92
382.25	315.26
382.63	344.86
383.01	329.72
383.39	329.95
383.77	329.95
384.15	328.37
384.53	334.24
384.91	331.3
385.29	330.85
385.67	326.33
386.049	341.7
386.429	336.05
386.809	348.25
387.189	353.9
387.568	343.06
387.948	346.67
388.328	350.29
388.707	333.34
389.087	336.28
389.466	345.77
389.846	345.54
390.225	342.6
390.605	382.15
390.984	361.13
391.363	341.02
391.743	357.74
392.122	343.96
392.501	359.78
392.881	350.51
393.26	367.01
393.639	359.1
394.018	381.7
394.397	362.49
394.776	343.73
395.155	347.35
395.534	361.59
395.913	367.24
396.292	370.4
396.671	356.61
397.05	349.61
397.429	359.78
397.808	379.21
398.186	366.56
398.565	371.53
398.944	362.26
399.323	387.12
399.701	373.11
400.08	367.01
400.458	375.6
400.837	379.44
401.215	385.09
401.594	382.38
401.972	382.6
402.351	369.72
402.729	400
403.107	380.12
403.486	371.53
403.864	396.39
404.242	389.61
404.62	390.96
404.999	393.22
405.377	399.1
405.755	394.35
406.133	392.32
406.511	379.89
406.889	397.29
407.267	425.99
407.645	408.36
408.023	417.4
408.401	394.81
408.779	424.64
409.156	402.72
409.534	408.59
409.912	442.04
410.29	407.24
410.667	430.29
411.045	421.7
411.422	425.99
411.8	442.94
412.178	409.49
412.555	421.7
412.933	418.08
413.31	428.93
413.687	425.77
414.065	432.77
414.442	439.32
414.819	453.11
415.197	430.96
415.574	457.18
415.951	455.6
416.328	438.19
416.705	416.73
417.082	448.36
417.46	460.79
417.837	450.4
418.214	467.12
418.591	452.43
418.967	472.32
419.344	476.84
419.721	467.57
420.098	451.08
420.475	487.23
420.852	462.6
421.228	475.48
421.605	451.53
421.982	482.71
422.358	452.21
422.735	498.08
423.111	485.65
423.488	479.55
423.864	488.81
424.241	468.48
424.617	493.11
424.994	487.46
425.37	484.52
425.746	509.38
426.123	510.06
426.499	491.53
426.875	482.49
427.251	490.17
427.627	497.4
428.003	510.96
428.379	527.46
428.756	496.72
429.132	504.86
429.507	539.21
429.883	515.25
430.259	542.6
430.635	535.37
431.011	521.13
431.387	550.73
431.763	538.53
432.138	535.37
432.514	559.1
432.89	559.1
433.265	565.42
433.641	563.39
434.016	570.39
434.392	560.9
434.767	586.89
435.143	566.1
435.518	571.75
435.894	577.63
436.269	576.72
436.644	576.04
437.02	585.54
437.395	596.83
437.77	583.05
438.145	593.44
438.52	615.37
438.895	587.8
439.271	595.25
439.646	606.55
440.021	598.42
440.395	602.26
440.77	597.74
441.145	626.66
441.52	626.66
441.895	607.23
442.27	639.09
442.645	639.09
443.019	627.34
443.394	634.8
443.769	631.41
444.143	642.03
444.518	656.95
444.892	637.96
445.267	628.02
445.641	642.03
446.016	656.04
446.39	672.31
446.764	659.88
447.139	647.91
447.513	685.65
447.887	642.03
448.262	643.39
448.636	670.05
449.01	666.44
449.384	690.84
449.758	670.73
450.132	691.52
450.506	689.49
450.88	699.88
451.254	687.68
451.628	700.79
452.002	682.93
452.376	700.33
452.75	686.55
453.123	701.24
453.497	710.96
453.871	706.44
454.244	732.65
454.618	712.76
454.992	732.42
455.365	750.28
455.739	740.11
456.112	744.18
456.486	769.26
456.859	745.53
457.232	766.55
457.606	758.41
457.979	765.42
458.352	785.76
458.725	788.24
459.099	770.84
459.472	796.15
459.845	789.15
460.218	801.12
460.591	814.91
460.964	816.94
461.337	839.99
461.71	835.47
462.083	830.73
462.456	844.96
462.829	830.73
463.201	800.67
463.574	824.4
463.947	860.33
464.32	875.47
464.692	872.31
465.065	868.24
465.438	854.45
465.81	877.73
466.183	883.15
466.555	893.78
466.928	916.6
467.3	897.62
467.672	927.9
468.045	898.07
468.417	924.28
468.789	949.37
469.161	945.75
469.534	950.5
469.906	966.54
470.278	970.16
470.65	989.37
471.022	983.72
471.394	1005.41
471.766	1001.34
472.138	1042.92
472.51	997.73
472.882	1041.79
473.253	1066.88
473.625	1062.36
473.997	1086.99
474.369	1079.76
474.74	1107.33
475.112	1105.07
475.484	1107.33
475.855	1156.82
476.227	1129.93
476.598	1160.66
476.97	1173.09
477.341	1196.14
477.713	1215.35
478.084	1212.19
478.455	1224.39
478.827	1219.42
479.198	1279.08
479.569	1278.62
479.94	1277.49
480.311	1280.43
480.682	1312.07
481.053	1370.6
481.424	1352.75
481.795	1364.5
482.166	1388
482.537	1401.33
482.908	1416.25
483.279	1440.43
483.65	1448.11
484.021	1508.9
484.391	1504.61
484.762	1513.19
485.133	1474.33
485.503	1551.84
485.874	1552.52
486.244	1579.86
486.615	1589.35
486.985	1613.08
487.356	1628.9
487.726	1633.87
488.097	1653.98
488.467	1686.3
488.837	1735.11
489.207	1708.9
489.578	1759.52
489.948	1733.75
490.318	1739.86
490.688	1751.15
491.058	1817.59
491.428	1824.6
491.798	1841.55
492.168	1887.87
492.538	1855.33
492.908	1882.9
493.278	1904.37
493.648	1927.42
494.017	1940.75
494.387	1969.91
494.757	1964.71
495.126	1999.51
495.496	1973.07
495.866	2026.4
496.235	2026.4
496.605	2055.55
496.974	2054.2
497.344	2098.26
497.713	2105.72
498.082	2123.35
498.452	2114.99
498.821	2133.97
499.19	2169.67
499.559	2174.65
499.928	2182.56
500.298	2228.43
500.667	2193.4
501.036	2207.64
501.405	2263.23
501.774	2249.67
502.143	2272.5
502.512	2256.68
502.88	2298.03
503.249	2297.81
503.618	2315.89
503.987	2327.86
504.356	2354.98
504.724	2339.16
505.093	2359.95
505.462	2406.28
505.83	2393.17
506.199	2428.88
506.567	2477.69
506.936	2460.29
507.304	2465.26
507.672	2475.88
508.041	2499.16
508.409	2546.39
508.777	2539.38
509.145	2566.5
509.514	2577.12
509.882	2559.72
510.25	2607.18
510.618	2572.38
510.986	2586.16
511.354	2640.85
511.722	2636.78
512.09	2695.08
512.458	2676.78
512.826	2710.23
513.193	2698.7
513.561	2767.62
513.929	2790.22
514.297	2815.08
514.664	2806.27
515.032	2790.22
515.4	2837.23
515.767	2850.11
516.135	2899.82
516.502	2843.56
516.869	2900.95
517.237	2921.07
517.604	2915.19
517.972	2961.29
518.339	2985.25
518.706	2985.47
519.073	3004
519.44	3040.16
519.808	3056.43
520.175	3052.59
520.542	3129.2
520.909	3136.88
521.276	3115.41
521.643	3129.42
522.009	3173.26
522.376	3220.95
522.743	3214.62
523.11	3208.07
523.477	3262.3
523.843	3272.24
524.21	3299.59
524.577	3353.6
524.943	3359.25
525.31	3418.23
525.676	3431.11
526.043	3465.91
526.409	3485.12
526.776	3502.07
527.142	3524.22
527.508	3494.84
527.874	3583.65
528.241	3582.97
528.607	3604.89
528.973	3614.83
529.339	3667.71
529.705	3650.31
530.071	3734.83
530.437	3710.43
530.803	3765.56
531.169	3784.32
531.535	3778.22
531.901	3804.43
532.267	3790.87
532.632	3842.62
532.998	3867.71
533.364	3914.26
533.73	3895.73
534.095	3897.31
534.461	3978.67
534.826	4008.04
535.192	4001.72
535.557	4032.68
535.923	4058.89
536.288	4036.97
536.653	4043.52
537.019	4070.87
537.384	4080.13
537.749	4141.6
538.114	4144.31
538.479	4154.71
538.845	4188.38
539.21	4252.33
539.575	4202.39
539.94	4217.76
540.305	4286.23
540.67	4248.26
541.034	4265.21
541.399	4352.44
541.764	4324.65
542.129	4351.31
542.494	4379.79
542.858	4398.77
543.223	4412.55
543.587	4395.6
543.952	4433.57
544.316	4476.28
544.681	4440.12
545.045	4499.1
545.41	4592.66
545.774	4581.14
546.138	4576.84
546.503	4555.83
546.867	4584.98
547.231	4634.92
547.595	4666.33
547.959	4701.36
548.324	4688.7
548.688	4697.97
549.052	4694.13
549.416	4785.65
549.779	4768.7
550.143	4805.09
550.507	4831.75
550.871	4873.11
551.235	4863.39
551.599	4899.32
551.962	4940.45
552.326	4963.95
552.689	5021.13
553.053	4972.54
553.417	4973.22
553.78	5088.69
554.143	5113.1
554.507	5118.75
554.87	5147.68
555.234	5224.96
555.597	5220.89
555.96	5229.03
556.323	5254.57
556.686	5299.31
557.05	5333.21
557.413	5388.12
557.776	5440.1
558.139	5426.09
558.502	5471.06
558.865	5510.38
559.228	5560.09
559.59	5614.56
559.953	5622.47
560.316	5697.72
560.679	5733.87
561.041	5743.14
561.404	5855
561.767	5858.62
562.129	5891.38
562.492	6009.8
562.854	5955.79
563.217	5987.43
563.579	6073.07
563.941	6173.41
564.304	6206.18
564.666	6262.67
565.028	6332.73
565.39	6359.39
565.753	6338.6
566.115	6442.56
566.477	6514.87
566.839	6569.11
567.201	6625.6
567.563	6656.79
567.925	6755.09
568.287	6784.69
568.648	6797.58
569.01	6927.74
569.372	6949.44
569.734	7021.3
570.095	7110.79
570.457	7176.55
570.819	7190.79
571.18	7307.17
571.542	7356.2
571.903	7398.92
572.265	7489.08
572.626	7526.37
572.987	7594.62
573.349	7706.03
573.71	7746.25
574.071	7782.86
574.432	7878.68
574.794	8080.71
575.155	8077.99
575.516	8139.46
575.877	8251.77
576.238	8309.85
576.599	8430.3
576.96	8501.94
577.32	8553.69
577.681	8730.63
578.042	8821.03
578.403	8888.14
578.763	8962.49
579.124	9103.28
579.485	9207.23
579.845	9327.9
580.206	9464.4
580.566	9473.89
580.927	9648.12
581.287	9781
581.648	9830.94
582.008	10033.42
582.368	10111.84
582.728	10237.49
583.089	10425.5
583.449	10518.16
583.809	10648.1
584.169	10858.49
584.529	10973.06
584.889	11257.8
585.249	11274.07
585.609	11463.89
585.969	11657.56
586.329	11795.86
586.688	12041.28
587.048	12154.95
587.408	12417.31
587.768	12623.19
588.127	12900.92
588.487	12966.9
588.846	13297.97
589.206	13434.92
589.565	13615.48
589.925	13929.37
590.284	14120.77
590.643	14416.58
591.003	14665.62
591.362	14965.5
591.721	15146.51
592.08	15474.86
592.44	15673.95
592.799	16032.13
593.158	16268.74
593.517	16490.43
593.876	16760.03
594.235	17078.66
594.593	17428.03
594.952	17820.79
595.311	17985.08
595.67	18299.87
596.029	18666.87
596.387	19008.33
596.746	19364.48
597.104	19581.65
597.463	19863.45
597.822	20192.03
598.18	20580.04
598.538	20748.17
598.897	21251.43
599.255	21483.74
599.613	21971.41
599.972	22256.38
600.33	22549.7
600.688	22829.47
601.046	23220.87
601.404	23629.9
601.762	23831.93
602.12	24319.37
602.478	24692.92
602.836	25014.5
603.194	25238.45
603.552	25586.23
603.91	25800.47
604.268	26223.05
604.625	26493.55
604.983	26960.21
605.341	27122.92
605.698	27491.27
606.056	27887.64
606.413	28233.17
606.771	28498.25
607.128	28932.36
607.485	28868.63
607.843	29271.79
608.2	29693.02
608.557	30025.67
608.914	30132.56
609.272	30525.77
609.629	30836.27
609.986	31208.01
610.343	31312.19
610.7	31829.01
611.057	31958.27
611.414	32071.26
611.771	32381.54
612.127	32809.32
612.484	32840.51
612.841	33223.55
613.198	33277.33
613.554	33446.59
613.911	33973.36
614.267	33938.78
614.624	34252.67
614.98	34449.96
615.337	34658.09
615.693	34608.6
616.05	34908.02
616.406	35371.74
616.762	35355.24
617.118	35559.08
617.475	35714.1
617.831	36017.37
618.187	36086.3
618.543	36228.89
618.899	36741.19
619.255	36613.51
619.611	36676.34
619.967	37092.82
620.323	37253.72
620.678	37278.58
621.034	37244.46
621.39	37484.23
621.746	37512.7
622.101	38029.07
622.457	37810.77
622.812	37926.02
623.168	38242.4
623.523	38280.82
623.879	38424.09
624.234	38234.49
624.589	38461.38
624.945	38632.9
625.3	38679.9
625.655	38802.16
626.01	38888.26
626.365	38844.64
626.72	39012.55
627.075	39010.29
627.43	39142.04
627.785	39231.52
628.14	39291.86
628.495	39415.25
628.85	39454.57
629.205	39340
629.559	39694.79
629.914	39558.75
630.269	39657.5
630.623	39651.17
630.978	39605.3
631.332	39807.33
631.687	39852.07
632.041	39784.96
632.396	39835.12
632.75	39753.09
633.104	39796.71
633.459	39878.29
633.813	39810.04
634.167	39920.55
634.521	39941.34
634.875	40083.48
635.229	39910.83
635.583	39830.61
635.937	39899.98
636.291	39849.59
636.645	39975.69
636.999	39898.4
637.352	39953.09
637.706	39776.37
638.06	39903.82
638.413	39916.48
638.767	39884.62
639.121	40065.63
639.474	39792.64
639.828	40000.54
640.181	39940.43
640.534	40062.69
640.888	39954.67
641.241	39920.09
641.594	39873.77
641.947	40069.02
642.301	39862.24
642.654	39984.05
643.007	40085.97
643.36	40013.43
643.713	39990.83
644.066	40041.67
644.419	39816.82
644.771	39506.09
645.124	39248.25
645.477	39122.15
645.83	38835.15
646.182	39019.1
646.535	38876.05
646.888	38992.89
647.24	38867.24
647.593	39170.28
647.945	38926
648.298	38863.85
648.65	38830.86
649.002	38751.99
649.355	38858.2
649.707	38821.59
650.059	38976.16
650.411	39532.99
650.763	39474
651.115	39987.44
651.467	39869.25
651.819	39717.39
652.171	39592.19
652.523	39646.66
652.875	39729.36
653.227	39590.39
653.578	39805.3
653.93	39808.23
654.282	39580.67
654.633	39559.65
654.985	39668.58
655.337	39662.7
655.688	39608.92
656.039	39780.89
656.391	39481.91
656.742	39533.44
657.094	39597.84
657.445	39610.95
657.796	39478.3
658.147	39680.78
658.498	39501.57
658.849	39512.87
659.2	39433.55
659.551	39563.95
659.902	39574.34
660.253	39525.98
660.604	39553.1
660.955	39364.4
661.306	39474.68
661.656	39374.12
662.007	39498.86
662.358	39464.51
662.708	39545.64
663.059	39413.44
663.409	39273.56
663.76	39521.91
664.11	39703.38
664.461	39630.16
664.811	39599.42
665.161	39564.4
665.511	39437.62
665.862	39577.96
666.212	39589.93
666.562	39639.42
666.912	39508.13
667.262	39424.97
667.612	39521.23
667.962	39515.13
668.312	39354.46
668.662	39649.82
669.011	39576.15
669.361	39387.91
669.711	39281.92
670.06	39456.83
670.41	39281.02
670.76	39275.37
671.109	39489.37
671.459	39287.79
671.808	39327.57
672.157	39426.77
672.507	39067.24
672.856	39251.64
673.205	39223.84
673.554	39394.46
673.904	39078.08
674.253	39379.54
674.602	39177.06
674.951	38583.86
675.3	38590.86
675.649	39152.66
675.998	39073.34
676.346	39166.22
676.695	39147.01
677.044	39035.82
677.393	39005.99
677.741	39167.35
678.09	38974.58
678.438	38953.79
678.787	38983.85
679.135	38979.78
679.484	38627.02
679.832	38961.02
680.181	38679.68
680.529	38815.72
680.877	38664.31
681.225	38710.86
681.573	38811.2
681.922	38514.93
682.27	38617.3
682.618	38449.4
682.966	38342.06
683.314	38375.5
683.661	38300.02
684.009	38126.92
684.357	38077.88
684.705	37990.88
685.053	38144.32
685.4	38050.99
685.748	37799.02
686.095	37902.97
686.443	37776.65
686.79	37728.97
687.138	37880.15
687.485	37754.28
687.832	37722.41
688.18	37700.49
688.527	37566.26
688.874	37415.08
689.221	37391.12
689.568	37188.87
689.915	37057.57
690.262	37138.7
690.609	37102.09
690.956	36829.78
691.303	36888.76
691.65	36779.61
691.997	36712.04
692.344	36554.08
692.69	36599.5
693.037	36627.53
693.383	36205.84
693.73	36412.16
694.077	36187.09
694.423	36311.83
694.769	36124.49
695.116	35995.23
695.462	36035
695.808	35878.17
696.155	36018.05
696.501	35695.35
696.847	35614.22
697.193	35301.68
697.539	35557.5
697.885	35337.16
698.231	35261.91
698.577	35261.01
698.923	35195.47
699.269	34974.69
699.614	34769.04
699.96	34854.92
700.306	34835.93
700.651	34592.1
700.997	34608.14
701.342	34421.03
701.688	34500.12
702.033	34398.88
702.379	34326.12
702.724	34110.53
703.069	34191.88
703.415	34036.18
703.76	33833.02
704.105	33863.76
704.45	33790.31
704.795	33607.72
705.14	33598.23
705.485	33667.38
705.83	33526.36
706.175	33434.62
706.52	33311
706.865	33270.78
707.209	33323.66
707.554	32968.86
707.899	33106.49
708.243	32878.02
708.588	32813.16
708.932	32743.11
709.277	32760.06
709.621	32863.78
709.966	32598.93
710.31	32541.08
710.654	32325.04
710.998	32345.15
711.342	32466.51
711.687	32307.87
712.031	32171.82
712.375	31984.03
712.719	32083.01
713.063	32049.34
713.407	32052.5
713.75	31977.03
714.094	31955.56
714.438	31654.1
714.782	31821.32
715.125	31538.17
715.469	31752.17
715.812	31537.72
716.156	31340.88
716.499	31490.71
716.843	31487.55
717.186	31290.49
717.53	31399.41
717.873	31343.14
718.216	31249.36
718.559	31115.81
718.902	31013.89
719.246	31008.01
719.589	31035.36
719.932	30875.81
720.275	31028.12
720.617	30869.26
720.96	30797.17
721.303	30670.62
721.646	30649.38
721.989	30507.01
722.331	30635.82
722.674	30645.76
723.016	30630.17
723.359	30432.43
723.701	30355.15
724.044	30274.7
724.386	30237.41
724.729	30263.85
725.071	30182.72
725.413	30218.65
725.755	30303.4
726.097	29998.55
726.439	29916.74
726.782	30025.89
727.124	30010.98
727.465	29800.13
727.807	29813.24
728.149	29837.65
728.491	29712.23
728.833	29897.53
729.175	29632.46
729.516	29526.47
729.858	29521.05
730.199	29605.11
730.541	29534.83
730.882	29568.5
731.224	29542.74
731.565	29407.83
731.906	29382.52
732.248	29395.4
732.589	29204.44
732.93	29193.6
733.271	29281.73
733.612	29101.4
733.953	29108.4
734.294	29100.27
734.635	29028.18
734.976	29131.45
735.317	28945.02
735.658	28968.97
735.999	28915.19
736.339	28841.52
736.68	28977.33
737.021	28838.13
737.361	28705.7
737.702	28849.2
738.042	28717.23
738.383	28673.16
738.723	28656.44
739.063	28612.14
739.404	28612.37
739.744	28519.04
740.084	28444.01
740.424	28418.25
740.764	28483.56
741.104	28412.83
741.444	28289.21
741.784	28222.32
742.124	28335.09
742.464	28206.28
742.804	28193.4
743.143	28153.85
743.483	28215.54
743.823	28048.09
744.162	28068.2
744.502	28089.9
744.841	27881.09
745.181	28086.28
745.52	27901.88
745.86	27984.82
746.199	27823.69
746.538	27891.48
746.877	27878.83
747.216	27880.86
747.556	27616.01
747.895	27791.15
748.234	27642.45
748.573	27698.72
748.911	27548.44
749.25	27592.96
749.589	27423.02
749.928	27409.69
750.267	27473.64
750.605	27460.54
750.944	27384.38
751.283	27216.7
751.621	27349.58
751.96	27247.66
752.298	27161.11
752.636	27101.22
752.975	27002.69
753.313	26917.95
753.651	27023.94
753.989	27033.43
754.327	26825.3
754.666	26699.2
755.004	26807.67
755.342	26799.31
755.679	26719.99
756.017	26558.41
756.355	26675.47
756.693	26528.81
757.031	26582.37
757.368	26413.78
757.706	26361.35
758.044	26361.81
758.381	26220.34
758.719	26201.13
759.056	26267.12
759.394	25984.64
759.731	25984.87
760.068	26023.06
760.405	25949.61
760.743	25708.72
761.08	25861.48
761.417	25679.34
761.754	25622.84
762.091	25517.31
762.428	25482.96
762.765	25347.82
763.102	25326.81
763.438	25192.35
763.775	25097.21
764.112	25229.63
764.449	25200.26
764.785	24953.93
765.122	24842.07
765.458	24839.14
765.795	24714.84
766.131	24743.54
766.467	24722.3
766.804	24556.43
767.14	24414.97
767.476	24468.98
767.812	24267.17
768.148	24310.79
768.485	24160.96
768.821	23996.67
769.157	24050.46
769.492	24033.05
769.828	23865.83
770.164	23777.24
770.5	23638.04
770.836	23709.67
771.171	23503.35
771.507	23511.71
771.842	23387.2
772.178	23435.33
772.513	23273.75
772.849	23204.38
773.184	23027.66
773.519	23023.14
773.855	23070.37
774.19	22864.27
774.525	22855.91
774.86	22835.8
775.195	22725.29
775.53	22576.37
775.865	22534.34
776.2	22495.47
776.535	22256.6
776.87	22187.91
777.205	22086.44
777.539	22116.72
777.874	22191.97
778.209	21929.16
778.543	21847.58
778.878	21727.58
779.212	21710.86
779.547	21596.06
779.881	21741.59
780.215	21429.73
780.55	21485.1
780.884	21335.72
781.218	21342.5
781.552	21396.29
781.886	21142.51
782.22	21111.32
782.554	21019.8
782.888	20834.04
783.222	20795.85
783.556	20641.96
783.889	20671.79
784.223	20463.43
784.557	20531.45
784.89	20411.91
785.224	20292.81
785.557	20170.33
785.891	20227.96
786.224	20151.12
786.558	20227.28
786.891	20083.33
787.224	19849.44
787.557	19962.88
787.891	19878.59
788.224	19810.11
788.557	19887.85
788.89	19772.38
789.223	19633.62
789.556	19539.61
789.888	19434.98
790.221	19408.54
790.554	19264.59
790.887	19278.15
791.219	19155.67
791.552	19141.43
791.884	19009.01
792.217	18973.98
792.549	18870.7
792.882	18798.62
793.214	18696.47
793.546	18689.92
793.879	18677.49
794.211	18439.76
794.543	18635.68
794.875	18472.75
795.207	18540.09
795.539	18358.85
795.871	18385.07
796.203	18302.36
796.535	18238.86
796.867	18107.79
797.198	18162.47
797.53	18100.78
797.862	17890.84
798.193	17971.52
798.525	17841.13
798.856	17841.58
799.188	17738.08
799.519	17657.4
799.85	17621.25
800.182	17615.6
800.513	17541.7
800.844	17410.18
801.175	17561.13
801.506	17482.94
801.837	17329.28
802.168	17364.53
802.499	17255.61
802.83	17188.49
803.161	17148.49
803.491	17119.11
803.822	17084.99
804.153	16967.48
804.483	16834.15
804.814	16777.65
805.145	16809.97
805.475	16758.67
805.805	16695.85
806.136	16717.31
806.466	16710.76
806.796	16606.36
807.126	16484.78
807.457	16442.97
807.787	16521.61
808.117	16274.84
808.447	16354.61
808.777	16389.19
809.107	16277.1
809.436	16266.25
809.766	16181.74
810.096	16148.97
810.426	16085.47
810.755	16102.19
811.085	16085.01
811.414	16018.8
811.744	15945.13
812.073	15882.08
812.403	15846.15
812.732	15877.11
813.061	15788.53
813.39	15691.8
813.719	15587.4
814.049	15679.6
814.378	15590.34
814.707	15563.67
815.036	15531.13
815.365	15518.93
815.693	15379.27
816.022	15388.08
816.351	15272.38
816.68	15171.82
817.008	15214.08
817.337	15059.73
817.665	15151.25
817.994	15190.58
818.322	15182.21
818.651	15075.1
818.979	15034.42
819.307	15076.23
819.636	15044.59
819.964	14946.29
820.292	14943.35
820.62	14986.96
820.948	14862.9
821.276	14993.52
821.604	14921.88
821.932	14957.13
822.259	14950.36
822.587	14907.19
822.915	14887.76
823.243	14869.91
823.57	14865.39
823.898	14796.46
824.225	14719.63
824.553	14816.57
824.88	14808.89
825.207	14785.61
825.535	14811.83
825.862	14975.21
826.189	14761.43
826.516	14837.36
826.843	14878.49
827.17	14913.52
827.497	14893.18
827.824	14818.83
828.151	14874.88
828.478	14805.95
828.805	14856.57
829.131	14845.5
829.458	14869.91
829.785	14622.23
830.111	14677.37
830.438	14797.82
830.764	14748.33
831.09	14792.85
831.417	14706.75
831.743	14829.45
832.069	14725.73
832.395	14650.02
832.722	14750.59
833.048	14701.1
833.374	14704.49
833.7	14643.02
834.026	14697.93
834.351	14773.19
834.677	14618.61
835.003	14679.85
835.329	14704.03
835.654	14640.53
835.98	14561.67
836.306	14562.34
836.631	14440.99
836.956	14598.73
837.282	14507.66
837.607	14472.63
837.932	14461.55
838.258	14464.04
838.583	14447.77
838.908	14330.71
839.233	14517.82
839.558	14364.61
839.883	14344.27
840.208	14208.68
840.533	14235.8
840.858	14288
841.182	14311.05
841.507	14250.03
841.832	14241.9
842.156	14166.42
842.481	14165.52
842.805	14067.21
843.13	14063.15
843.454	14070.83
843.778	14062.7
844.103	13874
844.427	13907.45
844.751	13913.77
845.075	13887.33
845.399	13867.9
845.723	13704.96
846.047	13784.74
846.371	13615.93
846.695	13664.74
847.019	13496.16
847.343	13467.68
847.666	13435.14
847.99	13348.59
848.313	13355.82
848.637	13241.93
848.96	13218.65
849.284	13261.59
849.607	12994.47
849.931	13028.15
850.254	13018.2
850.577	12967.13
850.9	12886.91
851.223	12822.05
851.546	12786.34
851.869	12708.61
852.192	12834.25
852.515	12596.52
852.838	12654.6
853.161	12606.69
853.483	12485.34
853.806	12463.87
854.129	12374.15
854.451	12430.87
854.774	12377.99
855.096	12272.91
855.419	12290.54
855.741	12276.98
856.063	12233.14
856.385	12172.58
856.708	12140.94
857.03	12119.24
857.352	12114.72
857.674	12055.97
857.996	12031.56
858.318	11912.92
858.64	11947.72
858.961	11878.35
859.283	11795.41
859.605	11754.28
859.926	11846.26
860.248	11715.19
860.57	11719.03
860.891	11736.2
861.212	11608.97
861.534	11618.92
861.855	11578.47
862.176	11606.04
862.498	11641.06
862.819	11564.68
863.14	11512.48
863.461	11473.61
863.782	11453.72
864.103	11433.39
864.424	11368.3
864.745	11441.07
865.065	11411.69
865.386	11472.03
865.707	11400.17
866.027	11376.44
866.348	11248.53
866.668	11209.21
866.989	11225.03
867.309	11222.09
867.63	11175.77
867.95	11298.93
868.27	11225.48
868.59	11135.77
868.91	11205.14
869.23	11128.54
869.55	11083.11
869.87	11008.31
870.19	11020.74
870.51	11125.37
870.83	11130.79
871.15	11059.16
871.469	10996.34
871.789	11065.94
872.109	10987.3
872.428	10901.2
872.748	10973.51
873.067	10975.09
873.386	10892.16
873.706	10911.59
874.025	10887.41
874.344	10787.3
874.663	10804.25
874.982	10798.6
875.301	10823.01
875.62	10811.26
875.939	10762.44
876.258	10778.71
876.577	10750.24
876.896	10790.92
877.214	10692.84
877.533	10688.77
877.852	10653.75
878.17	10645.16
878.489	10636.8
878.807	10583.01
879.125	10609
879.444	10613.29
879.762	10560.41
880.08	10570.58
880.398	10525.84
880.716	10514.99
881.034	10499.63
881.352	10472.96
881.67	10461.43
881.988	10479.51
882.306	10442.68
882.624	10431.6
882.941	10384.83
883.259	10281.78
883.577	10311.61
883.894	10269.57
884.212	10332.4
884.529	10298.95
884.846	10233.19
885.164	10178.5
885.481	10147.54
885.798	10190.25
886.115	10110.03
886.432	10077.49
886.75	10035
887.067	10086.98
887.383	10035.23
887.7	10022.12
888.017	9965.4
888.334	9988.45
888.651	9961.11
888.967	9841.34
889.284	9808.57
889.6	9828.91
889.917	9775.8
890.233	9763.37
890.55	9717.95
890.866	9785.07
891.182	9660.78
891.498	9716.82
891.815	9579.65
892.131	9615.35
892.447	9576.26
892.763	9501.69
893.079	9564.73
893.395	9509.82
893.71	9537.62
894.026	9511.18
894.342	9412.87
894.657	9334.23
894.973	9357.51
895.289	9303.95
895.604	9325.87
895.92	9263.27
896.235	9268.02
896.55	9192.77
896.865	9214.24
897.181	9212.43
897.496	9181.92
897.811	9040.91
898.126	9053.34
898.441	9050.4
898.756	8979.44
899.071	9038.19
899.386	8957.07
899.7	8859.22
900.015	8845.43
900.33	8789.84
900.644	8760.69
900.959	8840.69
901.273	8788.71
901.588	8744.64
901.902	8666
902.216	8680.92
902.531	8664.87
902.845	8595.27
903.159	8577.64
903.473	8527.02
903.787	8505.78
904.101	8479.34
904.415	8467.59
904.729	8450.19
905.042	8384.43
905.356	8376.74
905.67	8299.91
905.984	8289.74
906.297	8277.99
906.611	8165.22
906.924	8245
907.237	8165.68
907.551	8067.15
907.864	8103.08
908.177	8064.21
908.491	8069.18
908.804	8015.85
909.117	7936.3
909.43	8002.74
909.743	7854.04
910.056	7877.55
910.368	7924.78
910.681	7797.32
910.994	7794.39
911.307	7739.7
911.619	7654.05
911.932	7674.84
912.244	7618.8
912.557	7638.91
912.869	7594.16
913.181	7585.58
913.494	7538.8
913.806	7471.91
914.118	7519.14
914.43	7437.11
914.742	7389.2
915.054	7318.01
915.366	7340.16
915.678	7293.38
915.99	7310.56
916.302	7195.76
916.613	7211.58
916.925	7178.13
917.236	7109.66
917.548	7129.09
917.859	7120.28
918.171	7093.84
918.482	6996.89
918.794	7011.58
919.105	7004.35
919.416	6936.55
919.727	6895.88
920.038	6884.13
920.349	6773.85
920.66	6861.08
920.971	6848.65
921.282	6735.2
921.593	6746.05
921.903	6692.27
922.214	6732.27
922.525	6643.91
922.835	6609.78
923.146	6572.72
923.456	6570.24
923.767	6559.39
924.077	6601.2
924.387	6513.97
924.697	6429.68
925.008	6459.51
925.318	6458.83
925.628	6412.73
925.938	6421.09
926.248	6339.06
926.558	6255.22
926.867	6268.32
927.177	6272.84
927.487	6229.45
927.796	6182.22
928.106	6160.98
928.416	6106.29
928.725	6151.26
929.034	6072.85
929.344	6140.87
929.653	6059.74
929.962	6054.54
930.271	5990.37
930.581	6004.15
930.89	5949.69
931.199	5905.17
931.508	5919.41
931.817	5903.36
932.125	5848.9
932.434	5817.49
932.743	5748.11
933.051	5743.14
933.36	5756.02
933.669	5707.43
933.977	5669.7
934.286	5696.14
934.594	5657.04
934.902	5601
935.21	5569.36
935.519	5584.27
935.827	5630.6
936.135	5485.75
936.443	5479.42
936.751	5468.12
937.059	5430.83
937.367	5428.12
937.674	5446.2
937.982	5436.93
938.29	5354.68
938.597	5371.4
938.905	5281.91
939.213	5264.73
939.52	5255.7
939.827	5262.7
940.135	5171.4
940.442	5178.18
940.749	5150.39
941.056	5199.2
941.363	5127.34
941.67	5152.42
941.977	5162.14
942.284	5044.4
942.591	5061.8
942.898	4963.95
943.205	4997.85
943.511	4965.53
943.818	4957.4
944.125	4928.02
944.431	4962.82
944.738	4896.38
945.044	4849.83
945.35	4865.65
945.657	4778.65
945.963	4776.39
946.269	4800.34
946.575	4757.63
946.881	4731.42
947.187	4766.22
947.493	4683.51
947.799	4695.26
948.105	4637.86
948.41	4627.92
948.716	4619.1
949.022	4622.04
949.327	4640.12
949.633	4556.5
949.938	4582.94
950.244	4579.78
950.549	4500.01
950.854	4465.66
951.16	4448.71
951.465	4407.13
951.77	4455.94
952.075	4412.1
952.38	4396.96
952.685	4388.37
952.99	4337.75
953.294	4352.67
953.599	4304.31
953.904	4280.35
954.209	4267.47
954.513	4277.87
954.818	4249.39
955.122	4208.72
955.426	4189.96
955.731	4228.15
956.035	4178.89
956.339	4123.52
956.643	4146.57
956.948	4122.17
957.252	4074.94
957.556	4098.21
957.86	4065.9
958.163	4069.29
958.467	4009.63
958.771	3988.16
959.075	3992.9
959.378	3961.27
959.682	3958.55
959.985	3949.74
960.289	3886.92
960.592	3909.97
960.896	3874.49
961.199	3899.8
961.502	3853.7
961.805	3835.85
962.108	3794.49
962.411	3791.1
962.714	3808.28
963.017	3780.25
963.32	3813.02
963.623	3695.06
963.926	3725.79
964.228	3700.26
964.531	3724.89
964.833	3710.43
965.136	3671.78
965.438	3585.91
965.741	3633.36
966.043	3603.99
966.345	3580.71
966.648	3571.67
966.95	3577.55
967.252	3533.25
967.554	3526.93
967.856	3486.7
968.158	3521.96
968.46	3503.88
968.761	3446.25
969.063	3449.19
969.365	3415.52
969.666	3455.52
969.968	3401.28
970.269	3394.05
970.571	3411.22
970.872	3352.02
971.174	3337.33
971.475	3308.85
971.776	3291.68
972.077	3276.54
972.378	3263.43
972.679	3260.95
972.98	3270.21
973.281	3275.18
973.582	3236.31
973.883	3208.52
974.183	3171.46
974.484	3175.98
974.785	3190.44
975.085	3143.89
975.386	3161.29
975.686	3127.16
975.986	3116.54
976.287	3107.05
976.587	3073.38
976.887	3070.44
977.187	3051.23
977.487	3015.98
977.787	3033.38
978.087	3033.38
978.387	3018.92
978.687	3032.48
978.987	2987.73
979.286	2942.31
979.586	2940.05
979.885	2960.39
980.185	2894.63
980.484	2900.5
980.784	2893.72
981.083	2907.73
981.382	2907.06
981.682	2865.48
981.981	2891.92
982.28	2865.93
982.579	2845.82
982.878	2845.59
983.177	2772.37
983.475	2799.49
983.774	2780.28
984.073	2764.69
984.372	2737.57
984.67	2738.25
984.969	2736.44
985.267	2726.72
985.566	2742.99
985.864	2694.86
986.162	2693.5
986.461	2653.73
986.759	2655.99
987.057	2651.92
987.355	2622.54
987.653	2631.81
987.951	2619.38
988.249	2597.69
988.547	2600.17
988.844	2598.82
989.142	2557.91
989.44	2565.6
989.737	2577.57
990.035	2539.38
990.332	2512.26
990.63	2492.6
990.927	2470.46
991.224	2504.81
991.521	2505.48
991.819	2423
992.116	2454.86
992.413	2437.01
992.71	2419.16
993.006	2422.32
993.303	2371.03
993.6	2409.44
993.897	2375.54
994.193	2335.09
994.49	2360.18
994.787	2355.21
995.083	2347.52
995.379	2331.93
995.676	2293.29
995.972	2314.76
996.268	2284.7
996.565	2257.13
996.861	2265.72
997.157	2310.91
997.453	2212.16
997.749	2209.45
998.044	2211.26
998.34	2204.7
998.636	2202.67
998.932	2179.17
999.227	2156.57
999.523	2153.18
999.818	2128.77
1000.114	2121.77
1000.409	2120.86
1000.704	2127.19
1001	2099.85
1001.295	2098.49
1001.59	2082.45
1001.885	2113.63
1002.18	2055.1
1002.475	2061.2
1002.77	2011.49
1003.065	2018.49
1003.359	2031.83
1003.654	2034.76
1003.949	1994.76
1004.243	1964.93
1004.538	1976.69
1004.832	2004.71
1005.127	1982.79
1005.421	1970.58
1005.715	1932.84
1006.009	1922.45
1006.304	1898.95
1006.598	1911.38
1006.892	1916.57
1007.186	1932.39
1007.48	1856.46
1007.773	1875.9
1008.067	1855.78
1008.361	1846.97
1008.655	1845.39
1008.948	1823.24
1009.242	1803.81
1009.535	1773.53
1009.829	1790.7
1010.122	1787.31
1010.415	1780.53
1010.708	1790.25
1011.001	1769.23
1011.295	1764.94
1011.588	1725.39
1011.881	1697.37
1012.173	1710.7
1012.466	1688.33
1012.759	1681.55
1013.052	1662.12
1013.344	1669.12
1013.637	1672.29
1013.93	1640.87
1014.222	1671.83
1014.514	1646.3
1014.807	1606.75
1015.099	1606.98
1015.391	1602.68
1015.683	1578.05
1015.976	1587.32
1016.268	1580.09
1016.56	1561.78
1016.851	1544.15
1017.143	1569.24
1017.435	1551.61
1017.727	1512.52
1018.018	1493.53
1018.31	1509.13
1018.602	1464.38
1018.893	1497.38
1019.185	1477.04
1019.476	1442.01
1019.767	1451.05
1020.058	1455.12
1020.35	1430.48
1020.641	1406.98
1020.932	1429.81
1021.223	1414.89
1021.514	1387.77
1021.804	1391.84
1022.095	1366.53
1022.386	1368.79
1022.677	1362.69
1022.967	1346.42
1023.258	1359.75
1023.548	1348.23
1023.839	1338.51
1024.129	1320.21
1024.419	1296.48
1024.709	1313.88
1025	1309.13
1025.29	1276.59
1025.58	1279.98
1025.87	1278.85
1026.16	1239.08
1026.449	1232.75
1026.739	1235.46
1027.029	1231.39
1027.319	1216.71
1027.608	1232.3
1027.898	1229.13
1028.187	1185.97
1028.477	1202.69
1028.766	1205.86
1029.055	1183.94
1029.344	1158.63
1029.634	1192.3
1029.923	1155.24
1030.212	1156.82
1030.501	1163.15
1030.79	1105.3
1031.078	1126.54
1031.367	1126.54
1031.656	1082.47
1031.945	1104.62
1032.233	1119.53
1032.522	1111.4
1032.81	1053.32
1033.099	1079.76
1033.387	1049.93
1033.675	1069.59
1033.963	1068.01
1034.251	1055.35
1034.54	1056.71
1034.828	1048.8
1035.116	1040.21
1035.403	1023.49
1035.691	1022.59
1035.979	1028.69
1036.267	1025.75
1036.554	1010.61
1036.842	963.38
1037.129	964.73
1037.417	977.16
1037.704	967.67
1037.992	973.32
1038.279	966.99
1038.566	965.19
1038.853	965.19
1039.14	965.19
