Data from red_shiny_book_FLMS001491_00099.txt Node
Date: Wed Feb 08 15:25:38 GMT 2017
User: dcchb
Spectrometer: FLMS00149
Trigger mode: 0
Integration Time (sec): 2.000000E-2
Scans to average: 10
Electric dark correction enabled: true
Nonlinearity correction enabled: false
Boxcar width: 0
XAxis mode: Wavelengths
Number of Pixels in Spectrum: 2048
>>>>>Begin Spectral Data<<<<<
341.393	-22.97
341.776	-22.97
342.16	-22.97
342.543	-84.88
342.927	-52.8
343.31	-73.81
343.693	-58.67
344.077	-74.26
344.46	-70.65
344.843	-47.37
345.226	-37.2
345.61	-1.72
345.993	-30.65
346.376	-4.89
346.759	17.94
347.142	32.4
347.525	44.15
347.908	57.71
348.291	60.87
348.674	94.77
349.057	91.38
349.44	132.51
349.823	144.94
350.206	136.35
350.588	191.72
350.971	203.47
351.354	217.25
351.737	249.57
352.119	260.42
352.502	258.84
352.884	260.87
353.267	266.74
353.65	291.6
354.032	301.32
354.414	301.55
354.797	313.97
355.179	323.01
355.562	327.99
355.944	322.11
356.326	339.51
356.709	324.14
357.091	335.9
357.473	349.68
357.855	350.13
358.238	335.9
358.62	347.87
359.002	347.65
359.384	331.6
359.766	335.9
360.148	327.31
360.53	323.69
360.912	360.3
361.294	336.8
361.676	320.08
362.057	309.91
362.439	339.74
362.821	346.29
363.203	337.93
363.584	333.18
363.966	324.37
364.348	314.2
364.729	314.88
365.111	319.85
365.493	340.19
365.874	325.27
366.256	313.97
366.637	297.93
367.019	316.01
367.4	313.97
367.781	324.37
368.163	313.07
368.544	310.59
368.925	326.18
369.306	320.98
369.688	318.72
370.069	315.56
370.45	298.16
370.831	322.11
371.212	331.38
371.593	314.2
371.974	315.78
372.355	305.84
372.736	299.96
373.117	318.49
373.498	345.39
373.879	313.97
374.26	300.64
374.641	314.65
375.021	331.6
375.402	321.66
375.783	337.7
376.163	331.15
376.544	304.94
376.925	340.64
377.305	314.65
377.686	318.04
378.066	328.21
378.447	314.43
378.827	341.09
379.208	342.45
379.588	319.17
379.968	327.53
380.349	349
380.729	345.61
381.109	337.03
381.489	330.92
381.87	352.84
382.25	327.31
382.63	352.39
383.01	341.32
383.39	338.15
383.77	348.32
384.15	342.67
384.53	324.6
384.91	352.62
385.29	340.64
385.67	372.73
386.049	362.56
386.429	351.94
386.809	353.3
387.189	355.78
387.568	347.87
387.948	359.17
388.328	359.4
388.707	352.39
389.087	362.79
389.466	369.34
389.846	377.02
390.225	376.57
390.605	377.7
390.984	375.89
391.363	360.08
391.743	360.3
392.122	382.45
392.501	376.12
392.881	375.67
393.26	377.7
393.639	376.8
394.018	368.21
394.397	375.22
394.776	411.37
395.155	379.28
395.534	381.09
395.913	385.61
396.292	390.13
396.671	397.81
397.05	404.59
397.429	390.13
397.808	398.27
398.186	387.19
398.565	414.31
398.944	389.45
399.323	421.09
399.701	400.75
400.08	421.99
400.458	402.11
400.837	423.35
401.215	422.67
401.594	407.08
401.972	394.88
402.351	425.61
402.729	415.22
403.107	430.58
403.486	442.33
403.864	444.82
404.242	422.67
404.62	423.12
404.999	439.85
405.377	409.11
405.755	424.93
406.133	413.18
406.511	418.83
406.889	427.42
407.267	448.21
407.645	448.89
408.023	452.5
408.401	450.69
408.779	463.8
409.156	461.09
409.534	464.48
409.912	477.36
410.29	468.32
410.667	465.38
411.045	466.97
411.422	466.51
411.8	472.84
412.178	485.72
412.555	492.95
412.933	500.64
413.31	506.74
413.687	507.64
414.065	516.68
414.442	537.92
414.819	505.16
415.197	520.07
415.574	518.26
415.951	544.03
416.328	536.79
416.705	532.73
417.082	526.62
417.46	541.99
417.837	551.26
418.214	563.69
418.591	559.62
418.967	559.17
419.344	553.29
419.721	569.56
420.098	544.93
420.475	546.74
420.852	587.87
421.228	582.89
421.605	600.07
421.982	605.94
422.358	610.46
422.735	591.26
423.111	593.74
423.488	598.71
423.864	567.98
424.241	589.9
424.617	598.49
424.994	609.79
425.37	597.36
425.746	635.32
426.123	654.53
426.499	627.86
426.875	635.1
427.251	648.88
427.627	647.75
428.003	654.98
428.379	646.62
428.756	624.48
429.132	655.21
429.507	654.08
429.883	676.68
430.259	688.88
430.635	711.48
431.011	715.77
431.387	701.99
431.763	720.97
432.138	698.6
432.514	704.47
432.89	683.68
433.265	711.7
433.641	708.54
434.016	732.04
434.392	733.62
434.767	756.9
435.143	774.53
435.518	782.66
435.894	764.81
436.269	761.65
436.644	770.23
437.02	764.13
437.395	752.38
437.77	751.48
438.145	806.17
438.52	793.51
438.895	810.46
439.271	812.04
439.646	818.14
440.021	841.19
440.395	847.07
440.77	820.63
441.145	850.46
441.52	848.88
441.895	848.42
442.27	848.88
442.645	812.04
443.019	827.18
443.394	842.55
443.769	865.37
444.143	882.55
444.518	884.81
444.892	880.74
445.267	883.45
445.641	899.27
446.016	890.68
446.39	876.9
446.764	885.94
447.139	871.7
447.513	866.95
447.887	898.82
448.262	883.68
448.636	920.96
449.01	923.22
449.384	925.48
449.758	945.6
450.132	943.56
450.506	960.29
450.88	965.71
451.254	940.62
451.628	932.04
452.002	921.64
452.376	904.24
452.75	892.04
453.123	945.14
453.497	930.23
453.871	946.5
454.244	993.96
454.618	1002.32
454.992	1019.04
455.365	1031.47
455.739	1040.51
456.112	997.8
456.486	1008.19
456.859	1002.32
457.232	1016.56
457.606	1021.3
457.979	1020.4
458.352	1022.43
458.725	1021.53
459.099	1063.79
459.472	1062.43
459.845	1094.97
460.218	1113.5
460.591	1118.93
460.964	1115.76
461.337	1114.18
461.71	1133.39
462.083	1100.39
462.456	1077.12
462.829	1075.99
463.201	1104.91
463.574	1090.23
463.947	1145.14
464.32	1175.2
464.692	1182.2
465.065	1204.35
465.438	1224.69
465.81	1251.13
466.183	1243.44
466.555	1227.17
466.928	1202.99
467.3	1212.26
467.672	1198.02
468.045	1203.44
468.417	1214.97
468.789	1238.02
469.161	1222.65
469.534	1269.88
469.906	1322.08
470.278	1343.33
470.65	1347.85
471.022	1352.82
471.394	1405.7
471.766	1403.89
472.138	1385.36
472.51	1375.19
472.882	1396.43
473.253	1390.33
473.625	1390.56
473.997	1398.24
474.369	1393.27
474.74	1423.55
475.112	1468.29
475.484	1500.61
475.855	1534.28
476.227	1573.83
476.598	1631.68
476.97	1625.58
477.341	1648.18
477.713	1645.92
478.084	1626.71
478.455	1618.57
478.827	1635.52
479.198	1669.65
479.569	1643.43
479.94	1688.63
480.311	1690.44
480.682	1735.86
481.053	1806.36
481.424	1850.88
481.795	1892.46
482.166	1939.47
482.537	2002.97
482.908	2010.88
483.279	2023.53
483.65	2031.44
484.021	2042.97
484.391	1998.45
484.762	1998.68
485.133	1977.89
485.503	1981.28
485.874	1997.55
486.244	2066.25
486.615	2162.06
486.985	2193.02
487.356	2260.36
487.726	2339.01
488.097	2372.68
488.467	2393.24
488.837	2441.83
489.207	2415.16
489.578	2487.25
489.948	2434.15
490.318	2422.85
490.688	2420.59
491.058	2411.32
491.428	2425.78
491.798	2469.17
492.168	2527.93
492.538	2521.37
492.908	2605.89
493.278	2656.74
493.648	2738.09
494.017	2804.3
494.387	2816.06
494.757	2865.55
495.126	2872.55
495.496	2862.61
495.866	2844.53
496.235	2831.42
496.605	2848.82
496.974	2799.33
497.344	2762.5
497.713	2754.36
498.082	2810.41
498.452	2825.77
498.821	2882.04
499.19	2931.76
499.559	3023.96
499.928	3066.9
500.298	3137.63
500.667	3187.12
501.036	3226.89
501.405	3257.85
501.774	3170.85
502.143	3141.25
502.512	3089.95
502.88	3094.69
503.249	3009.72
503.618	3038.2
503.987	3032.55
504.356	3028.25
504.724	3045.2
505.093	3093.34
505.462	3182.15
505.83	3251.07
506.199	3305.53
506.567	3381.69
506.936	3394.12
507.304	3446.55
507.672	3422.14
508.041	3459.88
508.409	3379.66
508.777	3333.78
509.145	3286.33
509.514	3264.63
509.882	3207.23
510.25	3222.37
510.618	3204.75
510.986	3216.05
511.354	3275.93
511.722	3323.16
512.09	3410.39
512.458	3463.95
512.826	3491.74
513.193	3550.95
513.561	3613.32
513.929	3658.52
514.297	3678.41
514.664	3698.29
515.032	3612.42
515.4	3606.77
515.767	3508.02
516.135	3478.19
516.502	3399.32
516.869	3376.95
517.237	3397.51
517.604	3384.63
517.972	3464.4
518.339	3489.48
518.706	3549.6
519.073	3622.36
519.44	3692.87
519.808	3809.7
520.175	3856.71
520.542	3921.79
520.909	3895.12
521.276	3864.39
521.643	3871.85
522.009	3842.7
522.376	3804.73
522.743	3682.25
523.11	3646.54
523.477	3654.9
523.843	3627.11
524.21	3648.35
524.577	3643.38
524.943	3696.26
525.31	3775.58
525.676	3846.99
526.043	4009.7
526.409	4082.01
526.776	4145.51
527.142	4244.27
527.508	4266.64
527.874	4279.97
528.241	4296.24
528.607	4294.44
528.973	4263.02
529.339	4197.49
529.705	4167.88
530.071	4107.1
530.437	4066.87
530.803	4014.67
531.169	4068.68
531.535	4074.33
531.901	4105.74
532.267	4170.37
532.632	4307.54
532.998	4386.86
533.364	4493.75
533.73	4598.16
534.095	4704.82
534.461	4771.94
534.826	4829.56
535.192	4835.66
535.557	4840.41
535.923	4766.74
536.288	4739.4
536.653	4689.9
537.019	4582.79
537.384	4537.59
537.749	4550.02
538.114	4485.84
538.479	4487.2
538.845	4503.92
539.21	4545.5
539.575	4623.47
539.94	4724.25
540.305	4824.82
540.67	4922.89
541.034	5033.62
541.399	5171.25
541.764	5262.32
542.129	5326.27
542.494	5310.91
542.858	5359.49
543.223	5267.52
543.587	5282.43
543.952	5180.51
544.316	5089.67
544.681	4982.1
545.045	5004.7
545.41	4948.88
545.774	4947.07
546.138	4902.78
546.503	4930.35
546.867	4993.4
547.231	5092.38
547.595	5206.05
547.959	5240.85
548.324	5378.47
548.688	5477.68
549.052	5589.32
549.416	5618.69
549.779	5725.13
550.143	5717.22
550.507	5680.84
550.871	5698.01
551.235	5604.01
551.599	5564.23
551.962	5434.07
552.326	5349.77
552.689	5286.95
553.053	5235.2
553.417	5161.76
553.78	5223.22
554.143	5146.39
554.507	5222.55
554.87	5300.51
555.234	5351.13
555.597	5474.74
555.96	5598.36
556.323	5701.18
556.686	5827.73
557.05	5922.19
557.413	5977.1
557.776	5991.57
558.139	6066.82
558.502	5985.24
558.865	5938.91
559.228	5960.83
559.59	5814.17
559.953	5723.32
560.316	5730.33
560.679	5573.95
561.041	5523.56
561.404	5541.18
561.767	5488.3
562.129	5453.73
562.492	5560.39
562.854	5653.72
563.217	5711.12
563.579	5820.04
563.941	5969.19
564.304	6125.8
564.666	6223.65
565.028	6294.38
565.39	6350.88
565.753	6465.68
566.115	6456.41
566.477	6450.08
566.839	6380.26
567.201	6330.99
567.563	6228.4
567.925	6202.41
568.287	6085.35
568.648	6042.19
569.01	5961.96
569.372	5922.87
569.734	5861.4
570.095	5914.73
570.457	5958.57
570.819	6015.75
571.18	6048.51
571.542	6202.18
571.903	6333.03
572.265	6523.08
572.626	6673.36
572.987	6734.6
573.349	6919.68
573.71	7059.11
574.071	7097.98
574.432	7159.44
574.794	7161.03
575.155	7193.79
575.516	7110.18
575.877	7105.66
576.238	6984.53
576.599	6965.78
576.96	6879
577.32	6872.9
577.681	6865.89
578.042	6891.43
578.403	6911.99
578.763	7101.59
579.124	7203.06
579.485	7385.65
579.845	7627.45
580.206	7800.11
580.566	8114
580.927	8382.01
581.287	8728.67
581.648	8928.44
582.008	9245.04
582.368	9456.33
582.728	9694.52
583.089	9851.13
583.449	10087.05
583.809	10287.5
584.169	10423.77
584.529	10574.95
584.889	10791.44
585.249	10904.2
585.609	11054.26
585.969	11325.21
586.329	11511.87
586.688	11778.98
587.048	12140.1
587.408	12418.74
587.768	12869.12
588.127	13192.05
588.487	13705.71
588.846	14205.13
589.206	14578.46
589.565	15134.15
589.925	15742.72
590.284	16231.07
590.643	16694.79
591.003	17253.87
591.362	17698.83
591.721	18203.9
592.08	18653.61
592.44	19010.88
592.799	19380.37
593.158	19683.18
593.517	20073.46
593.876	20370.62
594.235	20666.89
594.593	20985.07
594.952	21468.45
595.311	21546.41
595.67	21990.02
596.029	22566.95
596.387	22998.12
596.746	23488.28
597.104	23823.41
597.463	24301.59
597.822	24859.54
598.18	25311.28
598.538	25936.13
598.897	26528.88
599.255	26978.13
599.613	27832.12
599.972	28059.91
600.33	28597.3
600.688	28966.1
601.046	29451.51
601.404	29930.6
601.762	30152.96
602.12	30634.08
602.478	30984.58
602.836	31145.03
603.194	31226.38
603.552	31573.72
603.91	31604.45
604.268	31873.14
604.625	32029.07
604.983	32486.91
605.341	32566.46
605.698	32988.6
606.056	33521.01
606.413	33748.58
606.771	34189.69
607.128	34692.96
607.485	34822.67
607.843	35203.45
608.2	35793.72
608.557	36184.9
608.914	36502.18
609.272	36943.75
609.629	37338.76
609.986	37769.71
610.343	37896.49
610.7	38191.62
611.057	38342.81
611.414	38489.24
611.771	38783.92
612.127	38798.61
612.484	38776.69
612.841	39035.67
613.198	38937.82
613.554	39044.93
613.911	39195.44
614.267	39358.37
614.624	39363.8
614.98	39518.59
615.337	39853.73
615.693	39995.42
616.05	40136.2
616.406	40637.66
616.762	40568.28
617.118	40820.03
617.475	41138.89
617.831	41482.16
618.187	41709.27
618.543	42009.38
618.899	42267.45
619.255	42410.04
619.611	42421.34
619.967	42841.67
620.323	43002.34
620.678	42811.61
621.034	42832.4
621.39	42805.06
621.746	42814.1
622.101	43069.91
622.457	42798.73
622.812	42769.13
623.168	42996.02
623.523	42827.66
623.879	42826.3
624.234	42634.22
624.589	42912.18
624.945	42880.31
625.3	42872.18
625.655	42882.57
626.01	43114.66
626.365	43261.32
626.72	43322.56
627.075	43498.38
627.43	43574.31
627.785	43694.98
628.14	43934.07
628.495	44088.64
628.85	44162.31
629.205	44135.2
629.559	44437.56
629.914	44422.19
630.269	44529.08
630.623	44451.57
630.978	44427.62
631.332	44523.66
631.687	44431.68
632.041	44081.41
632.396	44087.51
632.75	43900.17
633.104	43887.52
633.459	43546.28
633.813	43440.98
634.167	43423.58
634.521	43410.69
634.875	43311.04
635.229	43344.26
635.583	43099.06
635.937	43102.23
636.291	43216.12
636.645	43189.46
636.999	43332.73
637.352	43591.71
637.706	43430.81
638.06	43792.15
638.413	43767.07
638.767	43773.4
639.121	43856.11
639.474	43806.84
639.828	43891.36
640.181	43855.65
640.534	43951.02
640.888	43932.49
641.241	43613.18
641.594	43721.42
641.947	43701.31
642.301	43602.1
642.654	43492.95
643.007	43263.35
643.36	43208.67
643.713	42999.18
644.066	42975
644.419	42761.9
644.771	42318.07
645.124	41940.22
645.477	41721.02
645.83	41485.77
646.182	41378.43
646.535	41369.84
646.888	41431.09
647.24	41338.66
647.593	41741.36
647.945	41636.96
648.298	41638.31
648.65	41564.19
649.002	41582.04
649.355	41939.32
649.707	41812.54
650.059	42102.25
650.411	42565.07
650.763	42652.97
651.115	43173.86
651.467	42947.43
651.819	42864.04
652.171	42664.5
652.523	42635.35
652.875	42606.2
653.227	42429.25
653.578	42497.27
653.93	42407.11
654.282	42047.79
654.633	41802.83
654.985	41785.2
655.337	41720.12
655.688	41698.2
656.039	41691.19
656.391	41382.5
656.742	41445.55
657.094	41395.15
657.445	41588.37
657.796	41488.71
658.147	41509.28
658.498	41639.89
658.849	41751.76
659.2	41716.95
659.551	41800.12
659.902	41929.83
660.253	42142.48
660.604	42052.99
660.955	42164.63
661.306	42215.25
661.656	42292.08
662.007	42286.88
662.358	42376.6
662.708	42337.95
663.059	42125.98
663.409	41977.51
663.76	42160.78
664.11	42134.12
664.461	42103.38
664.811	41978.19
665.161	41648.03
665.511	41487.13
665.862	41443.29
666.212	41467.92
666.562	41388.38
666.912	41188.83
667.262	40918.1
667.612	40995.62
667.962	40861.16
668.312	40831.78
668.662	41139.57
669.011	41067.03
669.361	40930.08
669.711	41046.92
670.06	41041.72
670.41	41003.53
670.76	41098.67
671.109	41385.66
671.459	41230.64
671.808	41340.92
672.157	41627.24
672.507	41339.56
672.856	41525.55
673.205	41524.19
673.554	41710.4
673.904	41471.31
674.253	41843.28
674.602	41563.74
674.951	41022.51
675.3	40767.37
675.649	41312.9
675.998	41078.33
676.346	41214.59
676.695	41127.36
677.044	40629.75
677.393	40762.4
677.741	40647.15
678.09	40444.9
678.438	40272.25
678.787	40286.94
679.135	40155.19
679.484	39900.5
679.832	39999.71
680.181	39760.85
680.529	39849.66
680.877	39793.39
681.225	39783.67
681.573	40172.59
681.922	39977.79
682.27	40007.39
682.618	40029.31
682.966	40000.16
683.314	40182.53
683.661	40119.03
684.009	40143.44
684.357	40032.25
684.705	40207.62
685.053	40118.58
685.4	40182.31
685.748	39993.61
686.095	39972.14
686.443	39900.5
686.79	39672.71
687.138	39762.43
687.485	39738.02
687.832	39401.31
688.18	39528.31
688.527	39127.42
688.874	39047.87
689.221	38944.37
689.568	38621.44
689.915	38555
690.262	38346.65
690.609	38218.97
690.956	38090.16
691.303	37987.56
691.65	37716.61
691.997	37715.48
692.344	37534.92
692.69	37485.65
693.037	37531.3
693.383	37343.96
693.73	37657.85
694.077	37461.47
694.423	37505.09
694.769	37331.53
695.116	37349.84
695.462	37353.9
695.808	37483.39
696.155	37520.45
696.501	37341.02
696.847	37420.57
697.193	37169.95
697.539	37299.22
697.885	37186.23
698.231	37088.15
698.577	36863.52
698.923	36942.62
699.269	36680.93
699.614	36527.94
699.96	36442.29
700.306	36520.71
700.651	36149.87
700.997	36078.01
701.342	35883.44
701.688	35674.85
702.033	35451.58
702.379	35395.31
702.724	35238.03
703.069	35188.54
703.415	34753.97
703.76	34639.4
704.105	34807.53
704.45	34701.09
704.795	34458.61
705.14	34318.96
705.485	34269.69
705.83	34184.5
706.175	34228.34
706.52	34122.13
706.865	34164.16
707.209	34125.97
707.554	34150.15
707.899	34287.32
708.243	34147.21
708.588	34213.87
708.932	34013.65
709.277	34231.05
709.621	34269.01
709.966	33983.82
710.31	34164.38
710.654	33874
710.998	33892.98
711.342	33959.19
711.687	33801.23
712.031	33667
712.375	33569.82
712.719	33482.14
713.063	33365.76
713.407	33348.13
713.75	33252.32
714.094	33043.96
714.438	32853.46
714.782	32773.69
715.125	32494.6
715.469	32588.83
715.812	32237.43
716.156	32160.6
716.499	32005.34
716.843	32041.05
717.186	31847.38
717.53	32005.57
717.873	31894.61
718.216	31836.99
718.559	31700.95
718.902	31529.2
719.246	31659.37
719.589	31540.05
719.932	31416.43
720.275	31504.34
720.617	31618.01
720.96	31562.87
721.303	31639.25
721.646	31663.43
721.989	31620.72
722.331	31898.91
722.674	31669.99
723.016	31698.01
723.359	31586.37
723.701	31683.77
724.044	31480.84
724.386	31434.06
724.729	31537.79
725.071	31434.06
725.413	31427.96
725.755	31287.85
726.097	31202.43
726.439	31067.52
726.782	30922.21
727.124	31015.31
727.465	30786.85
727.807	30693.97
728.149	30530.58
728.491	30398.38
728.833	30345.73
729.175	30178.95
729.516	29999.3
729.858	30071.38
730.199	30001.78
730.541	29831.62
730.882	29689.47
731.224	29733.31
731.565	29494.22
731.906	29689.25
732.248	29649.93
732.589	29550.27
732.93	29547.56
733.271	29511.17
733.612	29621.23
733.953	29676.82
734.294	29635.46
734.635	29663.49
734.976	29648.57
735.317	29600.66
735.658	29771.73
735.999	29732.41
736.339	29680.43
736.68	29849.24
737.021	29746.65
737.361	29572.64
737.702	29744.39
738.042	29683.82
738.383	29691.06
738.723	29754.33
739.063	29549.82
739.404	29554.34
739.744	29472.98
740.084	29320.44
740.424	29394.79
740.764	29135.59
741.104	29367.45
741.444	28973.79
741.784	28775.83
742.124	28936.95
742.464	28673.91
742.804	28659.22
743.143	28446.57
743.483	28459.22
743.823	28268.49
744.162	28250.87
744.502	28205.67
744.841	28077.31
745.181	28082.51
745.52	27953.25
745.86	27999.35
746.199	27876.87
746.538	27880.26
746.877	27948.05
747.216	27928.62
747.556	27934.49
747.895	27866.02
748.234	27808.85
748.573	27903.08
748.911	27847.26
749.25	27938.79
749.589	27783.54
749.928	28025.34
750.267	27995.28
750.605	27997.54
750.944	28033.25
751.283	27954.38
751.621	27988.95
751.96	27788.73
752.298	27752.12
752.636	27889.75
752.975	27624.44
753.313	27598.68
753.651	27617.89
753.989	27506.93
754.327	27369.99
754.666	27298.12
755.004	27265.81
755.342	27138.13
755.679	26961.64
756.017	26912.15
756.355	26814.07
756.693	26720.51
757.031	26698.82
757.368	26426.96
757.706	26327.98
758.044	26211.15
758.381	26076.91
758.719	25949.46
759.056	25965.05
759.394	25835.79
759.731	25669.24
760.068	25568
760.405	25535.46
760.743	25461.79
761.08	25486.19
761.417	25320.55
761.754	25380.21
762.091	25326.2
762.428	25254.34
762.765	25231.06
763.102	25290.95
763.438	25127.33
763.775	25131.63
764.112	25267.89
764.449	25244.62
764.785	25169.37
765.122	25057.73
765.458	24974.34
765.795	25031.97
766.131	25067.67
766.467	24981.8
766.804	24838.98
767.14	24857.74
767.476	24758.98
767.812	24846.21
768.148	24732.54
768.485	24522.83
768.821	24460.23
769.157	24337.3
769.492	24378.2
769.828	24199.9
770.164	24027.93
770.5	23952.9
770.836	23845.79
771.171	23656.86
771.507	23524.44
771.842	23409.41
772.178	23226.37
772.513	23199.47
772.849	23122.19
773.184	22843.78
773.519	22866.38
773.855	22692.14
774.19	22492.6
774.525	22467.06
774.86	22415.31
775.195	22352.94
775.53	22246.73
775.865	22192.27
776.2	21999.05
776.535	21846.52
776.87	21861.2
777.205	21813.75
777.539	21682.9
777.874	21962.45
778.209	21568.11
778.543	21663.24
778.878	21533.08
779.212	21550.93
779.547	21437.94
779.881	21590.48
780.215	21401.78
780.55	21483.14
780.884	21402.91
781.218	21360.2
781.552	21433.65
781.886	21315.91
782.22	21211.05
782.554	21117.72
782.888	21023.03
783.222	20966.54
783.556	21001.57
783.889	20847.22
784.223	20741.46
784.557	20739.88
784.89	20698.3
785.224	20528.36
785.557	20344.18
785.891	20424.63
786.224	20229.61
786.558	20214.69
786.891	20000.24
787.224	19846.79
787.557	19797.98
787.891	19680.47
788.224	19618.55
788.557	19598.21
788.89	19494.49
789.223	19352.57
789.556	19216.3
789.888	19126.81
790.221	19073.03
790.554	18841.62
790.887	18951
791.219	18730.44
791.552	18711.46
791.884	18666.26
792.217	18643.44
792.549	18450.45
792.882	18373.16
793.214	18421.52
793.546	18410.45
793.879	18172.94
794.211	18171.36
794.543	18347.62
794.875	18276.67
795.207	18357.34
795.539	18303.33
795.871	18262.66
796.203	18097.91
796.535	18095.2
796.867	18165.48
797.198	18083.45
797.53	18060.85
797.862	17988.31
798.193	18000.06
798.525	17816.57
798.856	17989.67
799.188	17865.83
799.519	17834.42
799.85	17696.57
800.182	17711.48
800.513	17687.3
800.844	17569.57
801.175	17563.92
801.506	17503.58
801.837	17433.3
802.168	17307.88
802.499	17223.81
802.83	17155.34
803.161	17009.36
803.491	17004.38
803.822	16868.12
804.153	16807.33
804.483	16610.72
804.814	16561.01
805.145	16549.25
805.475	16440.1
805.805	16307.23
806.136	16326.89
806.466	16441.23
806.796	16276.49
807.126	16112.88
807.457	16010.74
807.787	16100.68
808.117	16047.12
808.447	15946.56
808.777	16008.48
809.107	15950.63
809.436	15854.36
809.766	15830.18
810.096	15856.39
810.426	15747.69
810.755	15738.65
811.085	15691.2
811.414	15798.99
811.744	15649.39
812.073	15589.51
812.403	15649.84
812.732	15606.23
813.061	15673.57
813.39	15535.04
813.719	15560.13
814.049	15648.03
814.378	15633.35
814.707	15575.04
815.036	15516.06
815.365	15512.22
815.693	15412.11
816.022	15450.53
816.351	15368.49
816.68	15305.9
817.008	15319.23
817.337	15195.84
817.665	15169.86
817.994	15262.28
818.322	15198.1
818.651	15104.55
818.979	15013.25
819.307	15111.1
819.636	14917.66
819.964	14834.27
820.292	14952.46
820.62	14796.53
820.948	14763.09
821.276	14786.81
821.604	14713.6
821.932	14768.06
822.259	14617.55
822.587	14631.11
822.915	14532.36
823.243	14565.13
823.57	14580.94
823.898	14541.62
824.225	14473.15
824.553	14413.27
824.88	14401.97
825.207	14400.61
825.535	14329.65
825.862	14451
826.189	14347.73
826.516	14442.87
826.843	14546.37
827.17	14454.39
827.497	14524.9
827.824	14467.5
828.151	14531.45
828.478	14478.57
828.805	14640.38
829.131	14495.97
829.458	14489.87
829.785	14448.29
830.111	14522.41
830.438	14646.03
830.764	14597.22
831.09	14669.3
831.417	14581.62
831.743	14605.35
832.069	14651.45
832.395	14592.47
832.722	14766.25
833.048	14650.32
833.374	14683.09
833.7	14674.28
834.026	14715.63
834.351	14643.32
834.677	14658
835.003	14618.23
835.329	14695.97
835.654	14709.98
835.98	14512.02
836.306	14544.56
836.631	14434.51
836.956	14531.23
837.282	14429.76
837.607	14342.98
837.932	14293.72
838.258	14328.3
838.583	14261.18
838.908	14168.75
839.233	14175.76
839.558	14121.75
839.883	14103.22
840.208	14032.03
840.533	13949.32
840.858	13871.13
841.182	13912.26
841.507	13860.51
841.832	13717.24
842.156	13695.77
842.481	13673.17
842.805	13579.39
843.13	13614.19
843.454	13521.99
843.778	13577.81
844.103	13504.59
844.427	13505.72
844.751	13452.61
845.075	13485.61
845.399	13462.56
845.723	13392.27
846.047	13396.12
846.371	13260.98
846.695	13383.91
847.019	13234.09
847.343	13236.8
847.666	13100.08
847.99	13146.18
848.313	13180.76
848.637	13025.5
848.96	13020.53
849.284	12974.66
849.607	12960.87
849.931	12927.2
850.254	12870.93
850.577	12821.22
850.9	12771.5
851.223	12766.08
851.546	12715.68
851.869	12664.61
852.192	12797.04
852.515	12616.48
852.838	12550.49
853.161	12604.95
853.483	12566.99
853.806	12522.92
854.129	12377.84
854.451	12384.62
854.774	12316.15
855.096	12266.2
855.419	12270.04
855.741	12161.57
856.063	12061.24
856.385	12071.18
856.708	12032.31
857.03	11923.61
857.352	11922.26
857.674	11839.32
857.996	11777.18
858.318	11706.44
858.64	11672.32
858.961	11592.32
859.283	11576.96
859.605	11568.37
859.926	11591.42
860.248	11491.76
860.57	11383.06
860.891	11349.39
861.212	11296.28
861.534	11285.89
861.855	11247.47
862.176	11203.86
862.498	11272.78
862.819	11188.04
863.14	11144.42
863.461	11152.33
863.782	11056.52
864.103	11166.12
864.424	11076.63
864.745	11104.88
865.065	11049.29
865.386	11019.23
865.707	10991.66
866.027	11048.38
866.348	10989.85
866.668	10997.76
866.989	11000.02
867.309	11016.97
867.63	11027.59
867.95	11025.56
868.27	10974.03
868.59	10967.48
868.91	11007.48
869.23	11002.06
869.55	10934.03
869.87	10991.21
870.19	10970.42
870.51	11043.18
870.83	11030.3
871.15	10963.41
871.469	11028.27
871.789	11003.19
872.109	10964.99
872.428	10903.75
872.748	10982.62
873.067	10896.97
873.386	10967.93
873.706	10850.65
874.025	10853.58
874.344	10837.77
874.663	10807.03
874.982	10752.12
875.301	10769.52
875.62	10688.17
875.939	10628.96
876.258	10681.84
876.577	10617.66
876.896	10532.24
877.214	10476.19
877.533	10539.24
877.852	10463.76
878.17	10466.93
878.489	10471.67
878.807	10415.18
879.125	10292.02
879.444	10301.51
879.762	10302.86
880.08	10259.48
880.398	10193.26
880.716	10227.61
881.034	10059.03
881.352	10111.91
881.67	10078.24
881.988	10103.1
882.306	10051.8
882.624	10032.82
882.941	9958.02
883.259	9911.69
883.577	9969.99
883.894	9881.86
884.212	9896.77
884.529	9926.83
884.846	9895.19
885.164	9782.65
885.481	9853.61
885.798	9902.42
886.115	9805.48
886.432	9812.93
886.75	9787.17
887.067	9830.79
887.383	9752.37
887.7	9818.81
888.017	9774.07
888.334	9761.18
888.651	9756.44
888.967	9714.41
889.284	9765.25
889.6	9718.02
889.917	9662.66
890.233	9767.06
890.55	9737.68
890.866	9691.36
891.182	9631.02
891.498	9630.34
891.815	9587.86
892.131	9544.01
892.447	9524.81
892.763	9559.61
893.079	9448.65
893.395	9419.95
893.71	9388.31
894.026	9403.68
894.342	9381.53
894.657	9377.01
894.973	9301.76
895.289	9299.95
895.604	9301.54
895.92	9165.95
896.235	9172.27
896.55	9096.34
896.865	9044.14
897.181	9065.16
897.496	9044.14
897.811	8970.92
898.126	8926.86
898.441	8883.69
898.756	8889.79
899.071	8809.12
899.386	8788.78
899.7	8719.63
900.015	8727.09
900.33	8594.21
900.644	8568.45
900.959	8541.56
901.273	8486.19
901.588	8449.13
901.902	8428.11
902.216	8394.67
902.531	8337.94
902.845	8347.66
903.159	8222.02
903.473	8210.49
903.787	8137.5
904.101	8149.47
904.415	8123.94
904.729	8123.71
905.042	8020.21
905.356	8064.05
905.67	8045.75
905.984	8002.36
906.297	8017.05
906.611	7972.53
906.924	7965.75
907.237	7939.54
907.551	7902.48
907.864	7845.98
908.177	7956.49
908.491	7828.58
908.804	7853.44
909.117	7803.95
909.43	7773.89
909.743	7808.24
910.056	7758.98
910.368	7771.63
910.681	7687.57
910.994	7739.77
911.307	7668.36
911.619	7587.46
911.932	7677.62
912.244	7582.94
912.557	7617.29
912.869	7573.44
913.181	7492.77
913.494	7506.78
913.806	7434.47
914.118	7450.96
914.43	7354.47
914.742	7363.05
915.054	7330.74
915.366	7317.63
915.678	7259.33
915.99	7225.43
916.302	7143.85
916.613	7170.52
916.925	7105.66
917.236	7108.6
917.548	7057.07
917.859	7038.77
918.171	6968.72
918.482	6932.11
918.794	6959.22
919.105	6869.06
919.416	6832.9
919.727	6806.46
920.038	6760.81
920.349	6684.43
920.66	6673.58
920.971	6679.46
921.282	6631.32
921.593	6537.31
921.903	6522.85
922.214	6540.7
922.525	6480.59
922.835	6392.23
923.146	6401.5
923.456	6361.73
923.767	6381.39
924.077	6362.4
924.387	6281.5
924.697	6255.74
925.008	6203.99
925.318	6208.51
925.628	6136.42
925.938	6129.87
926.248	6072.92
926.558	6066.37
926.867	6040.83
927.177	6049.42
927.487	5963.32
927.796	5969.65
928.106	5966.26
928.416	5986.59
928.725	5928.74
929.034	5910.66
929.344	5894.85
929.653	5870.66
929.962	5819.14
930.271	5891.91
930.581	5852.59
930.89	5748.41
931.199	5781.85
931.508	5773.94
931.817	5740.27
932.125	5769.65
932.434	5731.01
932.743	5723.32
933.051	5638.35
933.36	5689.43
933.669	5669.99
933.977	5653.27
934.286	5631.58
934.594	5622.31
934.902	5579.6
935.21	5576.66
935.519	5525.59
935.827	5478.81
936.135	5521.3
936.443	5474.07
936.751	5441.07
937.059	5451.01
937.367	5392.94
937.674	5410.34
937.982	5386.38
938.29	5322.43
938.597	5289.44
938.905	5233.85
939.213	5263.68
939.52	5190.23
939.827	5255.31
940.135	5175.99
940.442	5177.35
940.749	5114.98
941.056	5121.76
941.363	5042.89
941.67	5032.27
941.977	5034.3
942.284	4972.16
942.591	4988.88
942.898	4984.13
943.205	4948.66
943.511	4864.82
943.818	4857.58
944.125	4829.56
944.431	4761.09
944.738	4773.29
945.044	4722.67
945.35	4723.35
945.657	4668.21
945.963	4682.45
946.269	4688.1
946.575	4640.64
946.881	4634.99
947.187	4613.07
947.493	4563.81
947.799	4528.78
948.105	4524.94
948.41	4466.86
948.716	4467.99
949.022	4453.08
949.327	4460.08
949.633	4383.7
949.938	4379.63
950.244	4365.85
950.549	4370.59
950.854	4347.32
951.16	4357.71
951.465	4314.32
951.77	4319.75
952.075	4265.51
952.38	4321.55
952.685	4263.93
952.99	4248.56
953.294	4265.28
953.599	4240.88
953.904	4232.74
954.209	4174.89
954.513	4178.51
954.818	4161.78
955.122	4184.61
955.426	4118.62
955.731	4140.99
956.035	4111.62
956.339	4102.8
956.643	4117.72
956.948	4066.19
957.252	4091.73
957.556	4065.74
957.86	4004.5
958.163	3984.39
958.467	4007.66
958.771	3999.53
959.075	3992.75
959.378	4001.56
959.682	3955.46
959.985	3901.23
960.289	3965.18
960.592	3878.85
960.896	3881.11
961.199	3863.49
961.502	3842.7
961.805	3842.47
962.108	3816.26
962.411	3788.91
962.714	3779.65
963.017	3765.41
963.32	3781.45
963.623	3739.42
963.926	3733.55
964.228	3668.24
964.531	3676.15
964.833	3680.67
965.136	3654.45
965.438	3634.34
965.741	3583.04
966.043	3559.09
966.345	3535.13
966.648	3533.33
966.95	3508.02
967.252	3451.52
967.554	3448.36
967.856	3453.55
968.158	3426.89
968.46	3374.23
968.761	3411.29
969.063	3358.19
969.365	3354.57
969.666	3344.86
969.968	3315.93
970.269	3300.79
970.571	3274.8
970.872	3277.06
971.174	3251.98
971.475	3279.09
971.776	3258.53
972.077	3189.83
972.378	3188.7
972.679	3201.81
972.98	3189.38
973.281	3161.13
973.582	3120.45
973.883	3148.02
974.183	3119.55
974.484	3136.95
974.785	3087.24
975.085	3079.33
975.386	3085.88
975.686	3063.51
975.986	3029.84
976.287	3035.49
976.587	3001.36
976.887	3018.76
977.187	3012.43
977.487	2937.86
977.787	2970.85
978.087	2956.17
978.387	2957.3
978.687	2988.25
978.987	2948.26
979.286	2905.09
979.586	2938.31
979.885	2918.43
980.185	2872.33
980.484	2896.05
980.784	2904.42
981.083	2891.08
981.382	2871.2
981.682	2833.91
981.981	2866.45
982.28	2856.73
982.579	2802.95
982.878	2832.33
983.177	2842.72
983.475	2806.56
983.774	2803.63
984.073	2754.59
984.372	2732.22
984.67	2741.48
984.969	2739
985.267	2751.88
985.566	2731.99
985.864	2709.84
986.162	2698.09
986.461	2710.97
986.759	2670.52
987.057	2657.87
987.355	2627.81
987.653	2664.2
987.951	2610.19
988.249	2597.53
988.547	2563.41
988.844	2574.03
989.142	2563.41
989.44	2531.77
989.737	2563.18
990.035	2522.5
990.332	2482.96
990.63	2453.35
990.927	2481.6
991.224	2445.44
991.521	2454.48
991.819	2454.48
992.116	2410.87
992.413	2416.07
992.71	2410.87
993.006	2415.61
993.303	2375.62
993.6	2335.39
993.897	2335.84
994.193	2355.73
994.49	2302.62
994.787	2294.26
995.083	2296.07
995.379	2266.24
995.676	2283.19
995.972	2227.37
996.268	2222.85
996.565	2196.41
996.861	2223.76
997.157	2215.62
997.453	2162.97
997.749	2165.45
998.044	2163.87
998.34	2149.63
998.636	2148.05
998.932	2141.95
999.227	2100.59
999.523	2136.75
999.818	2120.03
1000.114	2103.53
1000.409	2100.14
1000.704	2083.19
1001	2085.23
1001.295	2042.06
1001.59	2056.08
1001.885	2042.29
1002.18	2026.02
1002.475	2027.6
1002.77	2017.21
1003.065	1997.32
1003.359	1991.44
1003.654	1994.61
1003.949	1980.6
1004.243	1956.19
1004.538	1966.81
1004.832	1946.02
1005.127	1927.94
1005.421	1930.66
1005.715	1910.77
1006.009	1909.19
1006.304	1876.87
1006.598	1863.31
1006.892	1874.39
1007.186	1877.78
1007.48	1871
1007.773	1861.96
1008.067	1861.28
1008.361	1823.31
1008.655	1830.77
1008.948	1820.15
1009.242	1806.36
1009.535	1820.38
1009.829	1801.62
1010.122	1766.37
1010.415	1761.85
1010.708	1778.57
1011.001	1749.87
1011.295	1729.53
1011.588	1705.12
1011.881	1696.76
1012.173	1736.99
1012.466	1709.64
1012.759	1652.47
1013.052	1695.41
1013.344	1682.3
1013.637	1671.45
1013.93	1642.08
1014.222	1648.63
1014.514	1659.48
1014.807	1615.64
1015.099	1632.13
1015.391	1584.68
1015.683	1596.2
1015.976	1605.92
1016.268	1563.43
1016.56	1559.14
1016.851	1567.73
1017.143	1553.04
1017.435	1522.53
1017.727	1538.8
1018.018	1485.02
1018.31	1478.69
1018.602	1489.99
1018.893	1498.8
1019.185	1450.44
1019.476	1460.84
1019.767	1434.85
1020.058	1455.41
1020.35	1432.36
1020.641	1407.73
1020.932	1373.83
1021.223	1409.09
1021.514	1380.16
1021.804	1373.38
1022.095	1330.67
1022.386	1363.21
1022.677	1327.06
1022.967	1365.02
1023.258	1311.46
1023.548	1327.96
1023.839	1335.19
1024.129	1282.31
1024.419	1289.32
1024.709	1302.2
1025	1249.77
1025.29	1267.17
1025.58	1255.87
1025.87	1240.05
1026.16	1238.24
1026.449	1197.79
1026.739	1210.45
1027.029	1187.4
1027.319	1195.31
1027.608	1216.1
1027.898	1216.32
1028.187	1195.53
1028.477	1175.42
1028.766	1196.66
1029.055	1154.18
1029.344	1169.32
1029.634	1152.82
1029.923	1159.38
1030.212	1139.49
1030.501	1129.32
1030.79	1114.41
1031.078	1125.03
1031.367	1114.63
1031.656	1113.28
1031.945	1098.59
1032.233	1111.69
1032.522	1081.19
1032.81	1080.96
1033.099	1053.84
1033.387	1086.84
1033.675	1068.31
1033.963	1034.41
1034.251	1044.13
1034.54	1028.08
1034.828	1056.78
1035.116	1015.88
1035.403	1037.57
1035.691	1010.91
1035.979	1012.04
1036.267	997.35
1036.554	993.5
1036.842	983.11
1037.129	971.13
1037.417	981.3
1037.704	954.41
1037.992	975.2
1038.279	957.57
1038.566	941.75
1038.853	941.75
1039.14	941.75
