Data from red_shiny_book_FLMS001491_00067.txt Node
Date: Wed Feb 08 15:25:13 GMT 2017
User: dcchb
Spectrometer: FLMS00149
Trigger mode: 0
Integration Time (sec): 2.000000E-2
Scans to average: 10
Electric dark correction enabled: true
Nonlinearity correction enabled: false
Boxcar width: 0
XAxis mode: Wavelengths
Number of Pixels in Spectrum: 2048
>>>>>Begin Spectral Data<<<<<
341.393	1
341.776	1
342.16	1
342.543	-54.81
342.927	-64.76
343.31	-56.62
343.693	-79.22
344.077	-59.33
344.46	-70.41
344.843	-63.63
345.226	-36.74
345.61	-39.22
345.993	-7.81
346.376	5.07
346.759	12.98
347.142	24.96
347.525	46.2
347.908	76.93
348.291	57.05
348.674	86.65
349.057	103.15
349.44	126.2
349.823	134.33
350.206	160.32
350.588	178.17
350.971	215.91
351.354	216.82
351.737	221.34
352.119	263.14
352.502	253.2
352.884	264.27
353.267	293.65
353.65	299.75
354.032	305.63
354.414	306.31
354.797	321.22
355.179	310.37
355.562	325.29
355.944	316.93
356.326	319.86
356.709	334.55
357.091	347.43
357.473	308.34
357.855	351.73
358.238	352.41
358.62	340.65
359.002	330.03
359.384	342.91
359.766	347.66
360.148	340.65
360.53	331.16
360.912	341.56
361.294	350.37
361.676	345.17
362.057	333.2
362.439	327.55
362.821	328.68
363.203	309.47
363.584	311.28
363.966	314.67
364.348	313.54
364.729	344.5
365.111	323.93
365.493	306.31
365.874	330.71
366.256	316.47
366.637	304.27
367.019	318.51
367.4	325.06
367.781	303.37
368.163	309.92
368.544	307.66
368.925	312.86
369.306	298.17
369.688	305.4
370.069	321.9
370.45	299.53
370.831	302.24
371.212	295.01
371.593	319.86
371.974	306.08
372.355	308.79
372.736	325.06
373.117	328
373.498	310.37
373.879	317.83
374.26	309.02
374.641	316.25
375.021	304.95
375.402	313.76
375.783	300.66
376.163	324.61
376.544	307.44
376.925	313.99
377.305	350.37
377.686	309.7
378.066	336.36
378.447	321.9
378.827	311.96
379.208	337.72
379.588	324.38
379.968	325.06
380.349	308.57
380.729	331.62
381.109	321.22
381.489	332.52
381.87	320.32
382.25	340.43
382.63	319.64
383.01	331.39
383.39	323.93
383.77	338.4
384.15	352.41
384.53	360.09
384.91	336.36
385.29	329.36
385.67	343.14
386.049	338.62
386.429	334.78
386.809	334.55
387.189	359.41
387.568	353.54
387.948	337.49
388.328	348.56
388.707	357.38
389.087	345.4
389.466	348.79
389.846	372.07
390.225	343.59
390.605	333.42
390.984	355.12
391.363	353.76
391.743	338.85
392.122	363.71
392.501	351.5
392.881	340.43
393.26	354.21
393.639	359.86
394.018	351.05
394.397	362.58
394.776	372.97
395.155	392.4
395.534	354.44
395.913	360.54
396.292	379.07
396.671	343.14
397.05	355.12
397.429	350.6
397.808	378.62
398.186	373.65
398.565	363.93
398.944	386.98
399.323	355.57
399.701	381.78
400.08	354.89
400.458	375.23
400.837	368.9
401.215	365.06
401.594	377.49
401.972	360.99
402.351	380.88
402.729	370.03
403.107	350.37
403.486	393.08
403.864	393.76
404.242	390.37
404.62	395.34
404.999	382.91
405.377	386.98
405.755	383.37
406.133	385.85
406.511	386.08
406.889	405.74
407.267	399.41
407.645	410.48
408.023	385.4
408.401	395.57
408.779	393.99
409.156	420.2
409.534	415.23
409.912	407.77
410.29	391.73
410.667	440.31
411.045	408.45
411.422	412.52
411.8	419.07
412.178	419.3
412.555	453.65
412.933	429.47
413.31	433.99
413.687	430.6
414.065	439.64
414.442	455.91
414.819	436.7
415.197	448.67
415.574	450.71
415.951	437.15
416.328	451.61
416.705	472.18
417.082	461.33
417.46	468.79
417.837	448.22
418.214	471.27
418.591	468.79
418.967	473.53
419.344	494.78
419.721	476.02
420.098	463.36
420.475	478.73
420.852	483.7
421.228	491.39
421.605	497.03
421.982	506.75
422.358	500.65
422.735	468.56
423.111	514.66
423.488	518.05
423.864	511.5
424.241	523.47
424.617	502.91
424.994	509.24
425.37	528.22
425.746	519.86
426.123	517.6
426.499	516.7
426.875	501.33
427.251	529.35
427.627	532.51
428.003	529.8
428.379	526.86
428.756	563.93
429.132	530.71
429.507	553.3
429.883	533.64
430.259	517.6
430.635	542.23
431.011	549.24
431.387	563.93
431.763	569.35
432.138	585.85
432.514	569.8
432.89	568.45
433.265	573.64
433.641	585.62
434.016	606.86
434.392	581.55
434.767	586.52
435.143	586.3
435.518	576.35
435.894	608.9
436.269	604.83
436.644	598.73
437.02	648.44
437.395	610.7
437.77	617.26
438.145	648.67
438.52	617.94
438.895	619.97
439.271	620.87
439.646	631.72
440.021	641.44
440.395	630.14
440.77	625.17
441.145	653.64
441.52	643.25
441.895	651.38
442.27	657.26
442.645	636.24
443.019	639.63
443.394	650.25
443.769	640.31
444.143	651.16
444.518	682.57
444.892	659.74
445.267	678.73
445.641	656.8
446.016	657.71
446.39	695.9
446.764	697.48
447.139	669.01
447.513	678.73
447.887	672.85
448.262	683.7
448.636	665.62
449.01	665.62
449.384	683.92
449.758	688.44
450.132	703.36
450.506	716.01
450.88	717.59
451.254	700.65
451.628	704.94
452.002	738.61
452.376	714.88
452.75	720.31
453.123	690.25
453.497	706.97
453.871	689.8
454.244	723.47
454.618	730.02
454.992	693.41
455.365	708.33
455.739	730.02
456.112	724.37
456.486	755.11
456.859	769.8
457.232	763.47
457.606	750.59
457.979	749.23
458.352	732.51
458.725	761.21
459.099	738.84
459.472	749.91
459.845	750.14
460.218	762.79
460.591	768.67
460.964	778.84
461.337	777.93
461.71	802.11
462.083	819.29
462.456	776.8
462.829	816.35
463.201	789.68
463.574	789.91
463.947	810.93
464.32	786.29
464.692	801.21
465.065	806.41
465.438	791.72
465.81	803.24
466.183	830.13
466.555	840.53
466.928	829.68
467.3	842.11
467.672	841.43
468.045	860.42
468.417	857.03
468.789	851.38
469.161	865.39
469.534	861.77
469.906	838.49
470.278	874.88
470.65	879.4
471.022	863.58
471.394	903.8
471.766	896.35
472.138	899.51
472.51	920.98
472.882	953.75
473.253	951.94
473.625	945.61
473.997	963.01
474.369	946.74
474.74	965.5
475.112	968.89
475.484	961.66
475.855	977.7
476.227	961.43
476.598	989.45
476.97	1015.67
477.341	1053.18
477.713	1057.47
478.084	1076.91
478.455	1083.91
478.827	1098.38
479.198	1095.44
479.569	1101.54
479.94	1108.54
480.311	1098.15
480.682	1121.43
481.053	1122.78
481.424	1125.04
481.795	1153.74
482.166	1158.26
482.537	1177.24
482.908	1208.2
483.279	1232.16
483.65	1257.01
484.021	1261.99
484.391	1283.45
484.762	1311.02
485.133	1318.48
485.503	1292.72
485.874	1316.45
486.244	1347.18
486.615	1340.63
486.985	1335.43
487.356	1363.23
487.726	1371.36
488.097	1385.6
488.467	1437.35
488.837	1458.14
489.207	1503.56
489.578	1539.72
489.948	1553.73
490.318	1556.89
490.688	1529.32
491.058	1548.76
491.428	1580.85
491.798	1570.91
492.168	1563
492.538	1566.39
492.908	1598.93
493.278	1581.07
493.648	1593.96
494.017	1658.36
494.387	1658.59
494.757	1687.74
495.126	1728.87
495.496	1721.86
495.866	1779.49
496.235	1819.71
496.605	1763.22
496.974	1780.84
497.344	1791.24
497.713	1762.54
498.082	1767.51
498.452	1734.29
498.821	1754.63
499.19	1755.53
499.559	1775.87
499.928	1794.4
500.298	1800.5
500.667	1812.48
501.036	1871.69
501.405	1863.1
501.774	1882.54
502.143	1910.33
502.512	1914.4
502.88	1935.19
503.249	1910.11
503.618	1895.64
503.987	1898.35
504.356	1868.07
504.724	1875.53
505.093	1881.18
505.462	1868.52
505.83	1868.3
506.199	1855.64
506.567	1900.61
506.936	1947.84
507.304	1961.4
507.672	1986.49
508.041	1991.01
508.409	1994.4
508.777	2006.83
509.145	2024
509.514	2016.09
509.882	1991.46
510.25	1953.72
510.618	1966.83
510.986	1927.05
511.354	1906.26
511.722	1945.13
512.09	1919.37
512.458	1906.04
512.826	1941.52
513.193	1995.98
513.561	1950.33
513.929	1975.19
514.297	2046.82
514.664	2023.1
515.032	2038.01
515.4	2038.01
515.767	2058.35
516.135	2041.4
516.502	2001.85
516.869	2016.32
517.237	2007.28
517.604	1972.93
517.972	1929.09
518.339	1914.4
518.706	1920.05
519.073	1964.12
519.44	1955.75
519.808	1976.54
520.175	1987.39
520.542	1992.59
520.909	2040.72
521.276	2099.7
521.643	2085.92
522.009	2093.83
522.376	2102.42
522.743	2082.3
523.11	2064.23
523.477	2071.23
523.843	2025.36
524.21	2043.21
524.577	2028.97
524.943	2014.06
525.31	1990.78
525.676	2025.81
526.043	2048.86
526.409	2068.07
526.776	2093.15
527.142	2114.62
527.508	2141.29
527.874	2198.46
528.241	2216.76
528.607	2234.39
528.973	2284.33
529.339	2276.88
529.705	2273.71
530.071	2261.96
530.437	2258.57
530.803	2239.59
531.169	2185.13
531.535	2203.88
531.901	2171.34
532.267	2211.34
532.632	2199.59
532.998	2226.93
533.364	2253.15
533.73	2268.97
534.095	2329.53
534.461	2353.48
534.826	2428.96
535.192	2445.01
535.557	2503.54
535.923	2518
536.288	2532.01
536.653	2526.13
537.019	2511.67
537.384	2494.04
537.749	2473.25
538.114	2448.17
538.479	2435.52
538.845	2427.38
539.21	2414.5
539.575	2420.83
539.94	2443.42
540.305	2452.92
540.67	2486.59
541.034	2545.12
541.399	2568.39
541.764	2603.65
542.129	2701.5
542.494	2734.94
542.858	2752.57
543.223	2756.41
543.587	2798.22
543.952	2760.7
544.316	2809.29
544.681	2741.27
545.045	2731.78
545.41	2710.08
545.774	2681.16
546.138	2665.11
546.503	2670.09
546.867	2650.65
547.231	2682.74
547.595	2672.8
547.959	2690.88
548.324	2734.49
548.688	2767.71
549.052	2815.39
549.416	2835.96
549.779	2828.5
550.143	2927.03
550.507	2928.16
550.871	2929.51
551.235	2923.64
551.599	2877.31
551.962	2870.98
552.326	2827.6
552.689	2821.72
553.053	2809.06
553.417	2734.72
553.78	2758.9
554.143	2717.09
554.507	2717.99
554.87	2722.06
555.234	2742.63
555.597	2734.49
555.96	2756.64
556.323	2787.14
556.686	2837.99
557.05	2891.1
557.413	2936.74
557.776	2925.45
558.139	2979.91
558.502	2979.46
558.865	2998.21
559.228	3001.38
559.59	2938.1
559.953	2920.93
560.316	2935.84
560.679	2884.54
561.041	2866.46
561.404	2828.27
561.767	2801.83
562.129	2800.7
562.492	2768.39
562.854	2779.46
563.217	2779.46
563.579	2837.76
563.941	2870.31
564.304	2931.32
564.666	2960.02
565.028	2980.59
565.39	3051.77
565.753	3089.51
566.115	3085.44
566.477	3098.1
566.839	3103.75
567.201	3136.97
567.563	3090.41
567.925	3062.17
568.287	3040.47
568.648	3006.35
569.01	3014.48
569.372	2987.59
569.734	2956.86
570.095	2943.98
570.457	2975.16
570.819	2933.13
571.18	2951.89
571.542	3024.88
571.903	3087.02
572.265	3086.57
572.626	3183.52
572.987	3265.55
573.349	3298.77
573.71	3330.86
574.071	3414.7
574.432	3461.93
574.794	3527.92
575.155	3526.79
575.516	3552.55
575.877	3600
576.238	3587.12
576.599	3601.36
576.96	3588.93
577.32	3640.68
577.681	3654.47
578.042	3708.48
578.403	3753.9
578.763	3804.97
579.124	3908.02
579.485	4015.36
579.845	4143.49
580.206	4279.31
580.566	4399.98
580.927	4581.67
581.287	4723.36
581.648	4897.15
582.008	5117.7
582.368	5327.87
582.728	5528.99
583.089	5783.45
583.449	5949.09
583.809	6138.47
584.169	6353.6
584.529	6523.77
584.889	6880.14
585.249	6998.11
585.609	7228.16
585.969	7511.54
586.329	7741.14
586.688	8076.27
587.048	8328.24
587.408	8636.48
587.768	8964.38
588.127	9276.47
588.487	9609.79
588.846	10133.39
589.206	10424.01
589.565	10822.41
589.925	11323.19
590.284	11757.76
590.643	12182.83
591.003	12801.12
591.362	13036.37
591.721	13447.65
592.08	13885.61
592.44	14402.66
592.799	14833.61
593.158	15166.71
593.517	15662.29
593.876	15928.72
594.235	16344.08
594.593	16701.81
594.952	17272.87
595.311	17563.48
595.67	17972.06
596.029	18533.4
596.387	18873.05
596.746	19273.49
597.104	19647.49
597.463	20082.28
597.822	20634.81
598.18	21035.03
598.538	21476.6
598.897	21941.67
599.255	22310.92
599.613	23039.27
599.972	23376.89
600.33	23973.25
600.688	24257.31
601.046	24756.74
601.404	25139.78
601.762	25476.04
602.12	25904.5
602.478	26280.99
602.836	26671.49
603.194	26929.56
603.552	27145.37
603.91	27355.76
604.268	27859.03
604.625	28188.06
604.983	28535.39
605.341	28537.88
605.698	29205.21
606.056	29474.58
606.413	29771.07
606.771	30106.2
607.128	30454.89
607.485	30758.84
607.843	31029.57
608.2	31430.23
608.557	31905.7
608.914	32020.05
609.272	32585
609.629	32808.5
609.986	33292.56
610.343	33319
610.7	33857.74
611.057	33918.3
611.414	34138.18
611.771	34341.79
612.127	34674.22
612.484	34818.17
612.841	35007.54
613.198	34952.4
613.554	35117.14
613.911	35471.26
614.267	35411.37
614.624	35715.54
614.98	35868.53
615.337	36190.11
615.693	36212.93
616.05	36287.05
616.406	36790.32
616.762	36681.85
617.118	36893.14
617.475	37131.1
617.831	37398.66
618.187	37523.63
618.543	37906.67
618.899	38059.89
619.255	38235.7
619.611	38258.98
619.967	38577.84
620.323	38655.13
620.678	38701.91
621.034	38581.46
621.39	38782.13
621.746	38767.44
622.101	39278.39
622.457	38978.96
622.812	39058.96
623.168	39235.23
623.523	39249.91
623.879	39412.85
624.234	39063.93
624.589	39300.99
624.945	39315.22
625.3	39474.32
625.655	39367.65
626.01	39446.75
626.365	39739.62
626.72	39694.42
627.075	39738.04
627.43	39747.53
627.785	39811.03
628.14	40114.75
628.495	40136.44
628.85	40139.61
629.205	40194.75
629.559	40288.31
629.914	40321.3
630.269	40472.03
630.623	40375.53
630.978	40422.31
631.332	40475.64
631.687	40445.14
632.041	40338.47
632.396	40447.85
632.75	40113.85
633.104	40270.68
633.459	40080.17
633.813	39933.06
634.167	39966.05
634.521	39985.49
634.875	39904.81
635.229	39976.22
635.583	39778.04
635.937	39882.21
636.291	39845.6
636.645	39857.58
636.999	39812.84
637.352	39967.41
637.706	39810.58
638.06	39986.17
638.413	40063.23
638.767	39933.74
639.121	40088.54
639.474	39930.8
639.828	39943.68
640.181	40102.32
640.534	40134.18
640.888	40070.46
641.241	39794.53
641.594	39854.42
641.947	40000.86
642.301	39834.31
642.654	39807.64
643.007	39862.78
643.36	39720.64
643.713	39683.12
644.066	39750.92
644.419	39365.84
644.771	38999.07
645.124	38673.66
645.477	38657.16
645.83	38449.03
646.182	38167.68
646.535	38200
646.888	38386.66
647.24	38207
647.593	38439.31
647.945	38397.06
648.298	38202.48
648.65	38215.82
649.002	38070.51
649.355	38386.43
649.707	38312.31
650.059	38521.57
650.411	38973.31
650.763	38966.98
651.115	39323.58
651.467	39206.07
651.819	39139.63
652.171	39041.33
652.523	39051.5
652.875	38915.46
653.227	38687.44
653.578	39019.64
653.93	38759.53
654.282	38647.9
654.633	38508.01
654.985	38600.21
655.337	38484.74
655.688	38510.27
656.039	38629.14
656.391	38263.73
656.742	38364.51
657.094	38281.58
657.445	38449.94
657.796	38461.46
658.147	38361.35
658.498	38329.26
658.849	38577.39
659.2	38395.02
659.551	38430.27
659.902	38609.93
660.253	38564.96
660.604	38552.76
660.955	38480.89
661.306	38742.81
661.656	38609.71
662.007	38666.88
662.358	38599.31
662.708	38527.22
663.059	38496.26
663.409	38207.46
663.76	38475.02
664.11	38388.69
664.461	38340.11
664.811	38315.93
665.161	38184.86
665.511	38087.46
665.862	38186.44
666.212	38047.01
666.562	38152.54
666.912	37949.61
667.262	37897.18
667.612	37967.46
667.962	37949.84
668.312	37820.57
668.662	38013.34
669.011	37855.6
669.361	37811.53
669.711	37887.69
670.06	37833
670.41	37931.53
670.76	37906.67
671.109	37997.29
671.459	38022.38
671.808	37965.65
672.157	38149.83
672.507	37890.63
672.856	37915.94
673.205	38002.72
673.554	38076.16
673.904	37830.97
674.253	38013.56
674.602	37929.95
674.951	37391.43
675.3	37207.03
675.649	37671.65
675.998	37618.77
676.346	37467.36
676.695	37749.84
677.044	37350.53
677.393	37449.96
677.741	37292.23
678.09	37268.5
678.438	37219.01
678.787	37135.17
679.135	37256.07
679.484	36939.92
679.832	37093.59
680.181	36666.03
680.529	37077.09
680.877	36890.65
681.225	36845.46
681.573	37026.02
681.922	36886.81
682.27	36758.68
682.618	36868.51
682.966	36845.01
683.314	36910.99
683.661	36817.66
684.009	36853.37
684.357	36646.37
684.705	36661.96
685.053	36728.4
685.4	36582.41
685.748	36426.49
686.095	36400.5
686.443	36367.73
686.79	36332.93
687.138	36281.4
687.485	36338.58
687.832	36082.54
688.18	36089.32
688.527	35858.59
688.874	35638.03
689.221	35608.65
689.568	35478.26
689.915	35462.22
690.262	35378.38
690.609	35184.48
690.956	35013.87
691.303	35109.01
691.65	34829.69
691.997	34877.6
692.344	34624.95
692.69	34700.43
693.037	34777.72
693.383	34444.39
693.73	34481.68
694.077	34451.62
694.423	34458.85
694.769	34297.73
695.116	34359.65
695.462	34386.09
695.808	34248.69
696.155	34304.28
696.501	34131.4
696.847	34005.31
697.193	33911.3
697.539	33993.33
697.885	33848.47
698.231	33667.46
698.577	33601.93
698.923	33615.94
699.269	33450.97
699.614	33216.63
699.96	33197.42
700.306	33145.44
700.651	32958.33
700.997	32750.2
701.342	32726.47
701.688	32505.68
702.033	32568.73
702.379	32496.87
702.724	32385.91
703.069	32345.92
703.415	32070.44
703.76	32137.33
704.105	32068.63
704.45	31906.83
704.795	31813.27
705.14	31725.14
705.485	31672.03
705.83	31687.63
706.175	31691.47
706.52	31599.95
706.865	31563.56
707.209	31522.21
707.554	31497.58
707.899	31488.08
708.243	31349.11
708.588	31395.66
708.932	31169.9
709.277	31096
709.621	31209.45
709.966	30941.21
710.31	31109.79
710.654	30790.25
710.998	30743.92
711.342	30807.42
711.687	30752.96
712.031	30556.13
712.375	30455.34
712.719	30392.97
713.063	30372.86
713.407	30430.03
713.75	30197.04
714.094	30080.89
714.438	30019.42
714.782	29985.53
715.125	29716.61
715.469	29787.34
715.812	29554.58
716.156	29461.25
716.499	29545.99
716.843	29535.59
717.186	29350.29
717.53	29434.81
717.873	29330.18
718.216	29280.46
718.559	29250.63
718.902	29047.92
719.246	29189.16
719.589	29070.75
719.932	29103.06
720.275	29127.69
720.617	29143.97
720.96	29071.88
721.303	29071.2
721.646	29151.87
721.989	28814.93
722.331	28928.6
722.674	28838.21
723.016	28905.78
723.359	28862.84
723.701	28859.91
724.044	28605.9
724.386	28633.02
724.729	28642.28
725.071	28514.15
725.413	28309.64
725.755	28438
726.097	28298.79
726.439	28134.27
726.782	28077.1
727.124	28157.55
727.465	27958.23
727.807	27939.25
728.149	27873.26
728.491	27764.79
728.833	27768.41
729.175	27664.23
729.516	27735.64
729.858	27595.98
730.199	27564.57
730.541	27555.53
730.882	27413.39
731.224	27548.3
731.565	27373.16
731.906	27404.35
732.248	27449.55
732.589	27300.17
732.93	27362.77
733.271	27361.19
733.612	27361.87
733.953	27375.2
734.294	27255.2
734.635	27306.73
734.976	27395.76
735.317	27108.54
735.658	27118.48
735.999	27184.92
736.339	27080.06
736.68	27184.24
737.021	27145.37
737.361	26936.11
737.702	27137.69
738.042	26984.93
738.383	26912.39
738.723	26925.04
739.063	26765.72
739.404	26818.38
739.744	26693.41
740.084	26579.51
740.424	26604.15
740.764	26553.75
741.104	26509.46
741.444	26411.83
741.784	26308.33
742.124	26276.92
742.464	26124.38
742.804	26143.37
743.143	26141.56
743.483	26039.41
743.823	25918.06
744.162	25915.12
744.502	25874.45
744.841	25810.27
745.181	25914.9
745.52	25824.96
745.86	25833.32
746.199	25836.03
746.538	25791.51
746.877	25847.1
747.216	25846.88
747.556	25741.79
747.895	25687.11
748.234	25611.18
748.573	25646.43
748.911	25587
749.25	25597.17
749.589	25530.05
749.928	25584.06
750.267	25577.73
750.605	25530.05
750.944	25483.27
751.283	25490.73
751.621	25416.83
751.96	25232.43
752.298	25337.51
752.636	25214.13
752.975	25057.29
753.313	25022.72
753.651	25020.68
753.989	24788.6
754.327	24803.29
754.666	24582.5
755.004	24618.21
755.342	24607.81
755.679	24514.93
756.017	24326.24
756.355	24412.79
756.693	24177.09
757.031	24248.73
757.368	24064.32
757.706	24005.34
758.044	24016.64
758.381	24029.75
758.719	23860.49
759.056	23862.3
759.394	23853.48
759.731	23635.18
760.068	23671.11
760.405	23524.68
760.743	23564
761.08	23518.12
761.417	23397.68
761.754	23389.99
762.091	23390.44
762.428	23319.71
762.765	23220.05
763.102	23282.88
763.438	23251.46
763.775	23216.44
764.112	23038.36
764.449	23135.54
764.785	23102.77
765.122	22983.9
765.458	22812.83
765.795	22931.25
766.131	22841.76
766.467	22591.37
766.804	22677.02
767.14	22481.54
767.476	22474.54
767.812	22350.92
768.148	22437.25
768.485	22174.66
768.821	22079.97
769.157	21971.95
769.492	21931.05
769.828	21831.62
770.164	21607.67
770.5	21616.25
770.836	21670.49
771.171	21413.32
771.507	21310.72
771.842	21141.92
772.178	21174.01
772.513	21135.59
772.849	21011.07
773.184	20936.27
773.519	20898.76
773.855	20767.46
774.19	20641.14
774.525	20619.67
774.86	20660.12
775.195	20546.23
775.53	20493.57
775.865	20485.66
776.2	20308.49
776.535	20178.33
776.87	20237.31
777.205	20140.36
777.539	20052.45
777.874	20197.76
778.209	19921.61
778.543	19914.6
778.878	19876.64
779.212	19824.89
779.547	19700.15
779.881	19714.16
780.215	19629.19
780.55	19728.85
780.884	19565.69
781.218	19550.77
781.552	19508.74
781.886	19461.96
782.22	19304.22
782.554	19269.2
782.888	18972.26
783.222	18867.4
783.556	18889.09
783.889	18800.73
784.223	18701.3
784.557	18598.03
784.89	18685.48
785.224	18543.11
785.557	18433.06
785.891	18344.48
786.224	18285.04
786.558	18225.16
786.891	17975.9
787.224	17944.26
787.557	17906.97
787.891	17852.06
788.224	17876.46
788.557	17779.74
788.89	17744.72
789.223	17702.01
789.556	17540.2
789.888	17460.88
790.221	17337.72
790.554	17257.72
790.887	17446.42
791.219	17265.41
791.552	17234.22
791.884	17203.26
792.217	17229.48
792.549	17092.98
792.882	17031.52
793.214	17010.5
793.546	17075.36
793.879	16951.97
794.211	16817.06
794.543	16878.75
794.875	16754.91
795.207	16810.05
795.539	16804.63
795.871	16685.99
796.203	16628.59
796.535	16546.1
796.867	16477.41
797.198	16503.62
797.53	16459.33
797.862	16249.16
798.193	16369.84
798.525	16241.03
798.856	16257.75
799.188	16070.64
799.519	16090.3
799.85	15961.49
800.182	15990.19
800.513	15915.84
800.844	15717.2
801.175	15754.71
801.506	15748.39
801.837	15642.63
802.168	15663.42
802.499	15537.54
802.83	15358.79
803.161	15393.37
803.491	15386.13
803.822	15284.67
804.153	15256.87
804.483	15058.46
804.814	15138.23
805.145	15139.14
805.475	15063.66
805.805	14965.58
806.136	15023.43
806.466	14996.31
806.796	14898.01
807.126	14893.94
807.457	14802.87
807.787	14880.61
808.117	14732.59
808.447	14705.7
808.777	14749.32
809.107	14752.25
809.436	14514.52
809.766	14699.6
810.096	14562.43
810.426	14478.59
810.755	14535.31
811.085	14611.24
811.414	14513.62
811.744	14424.13
812.073	14430
812.403	14382.32
812.732	14367.86
813.061	14288.99
813.39	14249.67
813.719	14212.61
814.049	14250.35
814.378	14234.98
814.707	14194.53
815.036	14205.6
815.365	14091.93
815.693	13902.11
816.022	13979.62
816.351	13838.61
816.68	13857.81
817.008	13849.68
817.337	13691.04
817.665	13684.48
817.994	13762.67
818.322	13599.74
818.651	13512.74
818.979	13518.39
819.307	13558.16
819.636	13510.03
819.964	13398.84
820.292	13547.31
820.62	13398.84
820.948	13385.28
821.276	13382.57
821.604	13366.75
821.932	13361.56
822.259	13309.58
822.587	13352.74
822.915	13243.14
823.243	13329.01
823.57	13294.44
823.898	13343.93
824.225	13283.14
824.553	13246.53
824.88	13312.97
825.207	13332.4
825.535	13263.03
825.862	13371.05
826.189	13365.85
826.516	13364.72
826.843	13391.39
827.17	13423.7
827.497	13373.76
827.824	13328.56
828.151	13428.45
828.478	13314.33
828.805	13507.99
829.131	13396.58
829.458	13367.66
829.785	13344.83
830.111	13380.54
830.438	13433.42
830.764	13349.35
831.09	13471.84
831.417	13321.1
831.743	13352.97
832.069	13466.19
832.395	13301.9
832.722	13393.87
833.048	13273.2
833.374	13313.65
833.7	13220.09
834.026	13263.03
834.351	13193.88
834.677	13154.1
835.003	13223.25
835.329	13243.82
835.654	13162.01
835.98	13056.03
836.306	13031.39
836.631	13013.09
836.956	13024.39
837.282	13046.31
837.607	12911.17
837.932	12912.3
838.258	12899.19
838.583	12901.68
838.908	12806.99
839.233	12828.01
839.558	12853.77
839.883	12784.17
840.208	12719.31
840.533	12743.72
840.858	12696.94
841.182	12696.94
841.507	12712.98
841.832	12621.24
842.156	12565.19
842.481	12640.44
842.805	12546.44
843.13	12508.7
843.454	12598.64
843.778	12538.3
844.103	12506.89
844.427	12474.35
844.751	12522.48
845.075	12491.07
845.399	12448.81
845.723	12423.28
846.047	12390.73
846.371	12244.07
846.695	12287.69
847.019	12223.28
847.343	12151.42
847.666	12108.93
847.99	12143.51
848.313	12065.54
848.637	11930.63
848.96	11995.04
849.284	11882.05
849.607	11821.93
849.931	11785.33
850.254	11725.89
850.577	11648.38
850.9	11578.55
851.223	11597.99
851.546	11504.88
851.869	11469.63
852.192	11546.46
852.515	11415.62
852.838	11375.39
853.161	11367.48
853.483	11168.17
853.806	11166.36
854.129	11205
854.451	11099.47
854.774	11085.68
855.096	10969.53
855.419	11042.07
855.741	10893.6
856.063	10878.23
856.385	10772.25
856.708	10814.05
857.03	10741.96
857.352	10757.56
857.674	10676.43
857.996	10636.43
858.318	10598.24
858.64	10575.41
858.961	10516.43
859.283	10546.26
859.605	10490.9
859.926	10474.17
860.248	10468.98
860.57	10484.57
860.891	10520.27
861.212	10413.61
861.534	10338.36
861.855	10356.21
862.176	10408.41
862.498	10383.1
862.819	10408.86
863.14	10323.44
863.461	10275.08
863.782	10231.69
864.103	10317.79
864.424	10273.05
864.745	10281.64
865.065	10243.22
865.386	10240.06
865.707	10220.17
866.027	10226.04
866.348	10163.9
866.668	10201.86
866.989	10166.84
867.309	10158.02
867.63	10180.17
867.95	10131.36
868.27	10108.08
868.59	10090
868.91	10055.88
869.23	10039.38
869.55	10056.78
869.87	9986.95
870.19	10008.42
870.51	10005.71
870.83	9969.1
871.15	9957.58
871.469	9921.87
871.789	9913.28
872.109	9852.04
872.428	9758.03
872.748	9815.43
873.067	9824.02
873.386	9793.97
873.706	9771.82
874.025	9718.26
874.344	9690.24
874.663	9664.03
874.982	9675.55
875.301	9638.49
875.62	9652.05
875.939	9569.56
876.258	9499.96
876.577	9502.45
876.896	9488.44
877.214	9454.54
877.533	9503.13
877.852	9458.16
878.17	9534.09
878.489	9421.09
878.807	9381.32
879.125	9421.09
879.444	9478.95
879.762	9342.9
880.08	9382
880.398	9295.45
880.716	9360.53
881.034	9377.93
881.352	9385.39
881.67	9323.92
881.988	9285.05
882.306	9286.41
882.624	9197.82
882.941	9184.72
883.259	9225.84
883.577	9170.48
883.894	9191.5
884.212	9174.32
884.529	9103.36
884.846	9195.79
885.164	9090.48
885.481	9097.03
885.798	9114.89
886.115	9065.17
886.432	9008.22
886.75	8994.21
887.067	9033.31
887.383	9003.25
887.7	9025.4
888.017	8970.71
888.334	9036.7
888.651	8980.65
888.967	8960.99
889.284	8858.17
889.6	8855.01
889.917	8778.63
890.233	8792.64
890.55	8730.94
890.866	8732.52
891.182	8749.7
891.498	8735.46
891.815	8612.53
892.131	8638.74
892.447	8622.7
892.763	8598.74
893.079	8534.56
893.395	8457.5
893.71	8419.31
894.026	8462.48
894.342	8481.23
894.657	8339.77
894.973	8322.82
895.289	8299.54
895.604	8270.16
895.92	8210.73
896.235	8229.49
896.55	8228.58
896.865	8127.12
897.181	8165.31
897.496	8198.53
897.811	8060.9
898.126	8013.45
898.441	8029.27
898.756	8043.5
899.071	7954.47
899.386	7944.07
899.7	7913.34
900.015	7898.87
900.33	7879.44
900.644	7750.86
900.959	7793.57
901.273	7786.33
901.588	7779.78
901.902	7732.78
902.216	7697.98
902.531	7738.65
902.845	7659.56
903.159	7607.58
903.473	7528.94
903.787	7574.59
904.101	7587.24
904.415	7539.11
904.729	7484.42
905.042	7461.15
905.356	7499.34
905.67	7459.56
905.984	7454.59
906.297	7446
906.611	7391.99
906.924	7359.91
907.237	7343.63
907.551	7318.55
907.864	7266.35
908.177	7239.68
908.491	7278.1
908.804	7158.55
909.117	7125.11
909.43	7090.08
909.743	7079.23
910.056	7079.69
910.368	7030.42
910.681	7010.08
910.994	7045.34
911.307	6974.15
911.619	6908.62
911.932	6880.82
912.244	6886.7
912.557	6821.16
912.869	6801.05
913.181	6767.38
913.494	6730.54
913.806	6665.91
914.118	6698.45
914.43	6599.93
914.742	6603.77
915.054	6519.7
915.366	6585.46
915.678	6499.59
915.99	6450.78
916.302	6415.75
916.613	6389.76
916.925	6399.25
917.236	6331.68
917.548	6335.75
917.859	6262.08
918.171	6288.52
918.482	6231.57
918.794	6193.38
919.105	6258.24
919.416	6157.45
919.727	6154.74
920.038	6175.3
920.349	6072.93
920.66	6074.97
920.971	6098.24
921.282	6022.99
921.593	6007.4
921.903	5961.3
922.214	5972.82
922.525	5909.77
922.835	5891.24
923.146	5914.29
923.456	5832.71
923.767	5856.22
924.077	5824.58
924.387	5809.44
924.697	5810.34
925.008	5733.51
925.318	5701.42
925.628	5722.89
925.938	5702.1
926.248	5644.24
926.558	5675.2
926.867	5636.79
927.177	5613.96
927.487	5550.46
927.796	5581.65
928.106	5540.52
928.416	5532.38
928.725	5491.03
929.034	5483.8
929.344	5501.42
929.653	5468.43
929.962	5357.02
930.271	5416.68
930.581	5361.54
930.89	5383.69
931.199	5319.06
931.508	5295.1
931.817	5286.97
932.125	5306.63
932.434	5272.5
932.743	5187.08
933.051	5158.61
933.36	5129.68
933.669	5097.14
933.977	5116.8
934.286	5135.78
934.594	5069.8
934.902	5023.92
935.21	5010.59
935.519	4971.04
935.827	4996.35
936.135	4911.38
936.443	4865.51
936.751	4839.52
937.059	4880.2
937.367	4828.22
937.674	4813.08
937.982	4785.51
938.29	4770.14
938.597	4779.18
938.905	4714.78
939.213	4692.4
939.52	4707.32
939.827	4694.89
940.135	4668
940.442	4651.28
940.749	4611.73
941.056	4581
941.363	4579.19
941.67	4559.75
941.977	4515.69
942.284	4518.62
942.591	4498.51
942.898	4418.74
943.205	4497.38
943.511	4476.37
943.818	4441.56
944.125	4435.01
944.431	4388.91
944.738	4405.63
945.044	4331.06
945.35	4364.73
945.657	4345.07
945.963	4289.25
946.269	4296.48
946.575	4297.39
946.881	4235.02
947.187	4258.97
947.493	4244.51
947.799	4230.72
948.105	4210.84
948.41	4193.89
948.716	4161.57
949.022	4224.62
949.327	4130.39
949.633	4074.34
949.938	4116.6
950.244	4119.31
950.549	4042.7
950.854	4016.26
951.16	4018.75
951.465	4014.23
951.77	3993.21
952.075	3996.6
952.38	3967
952.685	3988.47
952.99	3947.11
953.294	3912.09
953.599	3900.56
953.904	3890.62
954.209	3859.88
954.513	3848.81
954.818	3816.72
955.122	3824.18
955.426	3767.23
955.731	3800
956.035	3765.65
956.339	3722.03
956.643	3700.79
956.948	3729.94
957.252	3718.87
957.556	3713
957.86	3638.65
958.163	3663.28
958.467	3647.01
958.771	3647.46
959.075	3644.07
959.378	3605.2
959.682	3576.73
959.985	3573.56
960.289	3537.41
960.592	3526.33
960.896	3470.06
961.199	3480.01
961.502	3442.04
961.805	3441.82
962.108	3436.17
962.411	3404.3
962.714	3387.81
963.017	3354.13
963.32	3345.32
963.623	3351.42
963.926	3343.29
964.228	3321.59
964.531	3290.41
964.833	3308.49
965.136	3286.34
965.438	3270.3
965.741	3238.21
966.043	3234.14
966.345	3222.39
966.648	3208.6
966.95	3209.96
967.252	3169.51
967.554	3189.62
967.856	3156.17
968.158	3155.5
968.46	3158.21
968.761	3132.67
969.063	3124.76
969.365	3114.37
969.666	3088.15
969.968	3047.48
970.269	3057.87
970.571	3040.47
970.872	3056.06
971.174	3055.84
971.475	2986.69
971.776	3010.19
972.077	2967.48
972.378	2977.87
972.679	2980.59
972.98	2946.91
973.281	2933.13
973.582	2917.31
973.883	2886.35
974.183	2921.15
974.484	2880.93
974.785	2894.03
975.085	2880.7
975.386	2880.93
975.686	2851.55
975.986	2835.73
976.287	2837.31
976.587	2813.58
976.887	2809.52
977.187	2781.27
977.487	2777.43
977.787	2791.66
978.087	2763.87
978.387	2739.69
978.687	2757.77
978.987	2740.14
979.286	2702.17
979.586	2687.71
979.885	2702.4
980.185	2675.73
980.484	2673.47
980.784	2619.01
981.083	2633.02
981.382	2617.43
981.682	2605
981.981	2602.97
982.28	2583.08
982.579	2576.08
982.878	2565.23
983.177	2572.69
983.475	2526.59
983.774	2541.05
984.073	2531.11
984.372	2454.95
984.67	2493.37
984.969	2499.24
985.267	2468.28
985.566	2426.02
985.864	2453.82
986.162	2465.57
986.461	2411.11
986.759	2412.01
987.057	2381.73
987.355	2371.79
987.653	2387.15
987.951	2342.18
988.249	2367.95
988.547	2363.2
988.844	2335.4
989.142	2322.75
989.44	2311.22
989.737	2270.32
990.035	2301.73
990.332	2284.56
990.63	2268.97
990.927	2231.23
991.224	2233.94
991.521	2251.11
991.819	2230.77
992.116	2233.26
992.413	2199.14
992.71	2186.71
993.006	2198.91
993.303	2181.51
993.6	2177.89
993.897	2194.84
994.193	2177.67
994.49	2162.98
994.787	2112.36
995.083	2135.18
995.379	2126.6
995.676	2104.9
995.972	2088.63
996.268	2089.08
996.565	2083.43
996.861	2068.29
997.157	2073.72
997.453	2065.58
997.749	2048.86
998.044	2022.87
998.34	2027.16
998.636	1987.62
998.932	2030.33
999.227	1982.19
999.523	2010.44
999.818	1956.66
1000.114	1983.1
1000.409	1972.93
1000.704	1965.47
1001	1946.71
1001.295	1925.25
1001.59	1918.24
1001.885	1926.15
1002.18	1907.62
1002.475	1920.5
1002.77	1904.23
1003.065	1893.61
1003.359	1884.34
1003.654	1841.86
1003.949	1840.73
1004.243	1871.24
1004.538	1822.2
1004.832	1838.69
1005.127	1800.05
1005.421	1796.89
1005.715	1773.84
1006.009	1790.56
1006.304	1750.56
1006.598	1721.64
1006.892	1738.36
1007.186	1729.54
1007.48	1725.03
1007.773	1705.59
1008.067	1686.16
1008.361	1679.38
1008.655	1662.88
1008.948	1653.84
1009.242	1696.55
1009.535	1650.68
1009.829	1625.82
1010.122	1614.52
1010.415	1573.84
1010.708	1610.9
1011.001	1611.13
1011.295	1586.72
1011.588	1601.19
1011.881	1566.61
1012.173	1583.56
1012.466	1546.72
1012.759	1555.54
1013.052	1567.29
1013.344	1558.7
1013.637	1523.45
1013.93	1521.19
1014.222	1519.83
1014.514	1466.73
1014.807	1469.44
1015.099	1480.06
1015.391	1456.11
1015.683	1472.15
1015.976	1470.34
1016.268	1452.72
1016.56	1449.78
1016.851	1424.69
1017.143	1421.53
1017.435	1418.59
1017.727	1408.65
1018.018	1390.12
1018.31	1386.96
1018.602	1375.88
1018.893	1384.7
1019.185	1325.04
1019.476	1355.09
1019.767	1342.66
1020.058	1321.19
1020.35	1298.14
1020.641	1326.17
1020.932	1320.97
1021.223	1300.63
1021.514	1282.78
1021.804	1274.87
1022.095	1261.99
1022.386	1283.91
1022.677	1259.95
1022.967	1220.18
1023.258	1241.2
1023.548	1228.54
1023.839	1242.55
1024.129	1222.89
1024.419	1200.29
1024.709	1199.16
1025	1218.37
1025.29	1158.49
1025.58	1178.37
1025.87	1189.22
1026.16	1157.58
1026.449	1160.97
1026.739	1156.23
1027.029	1141.54
1027.319	1129.79
1027.608	1139.28
1027.898	1138.6
1028.187	1134.98
1028.477	1127.53
1028.766	1129.33
1029.055	1078.94
1029.344	1095.44
1029.634	1070.13
1029.923	1077.81
1030.212	1064.7
1030.501	1069.22
1030.79	1062.44
1031.078	1038.72
1031.367	1044.14
1031.656	1034.42
1031.945	1026.06
1032.233	1036.23
1032.522	1026.51
1032.81	1023.12
1033.099	1010.24
1033.387	987.42
1033.675	985.38
1033.963	996
1034.251	998.72
1034.54	963.92
1034.828	980.41
1035.116	967.98
1035.403	955.55
1035.691	933.86
1035.979	961.88
1036.267	950.81
1036.554	948.32
1036.842	939.28
1037.129	895.89
1037.417	898.83
1037.704	923.24
1037.992	897.7
1038.279	876.46
1038.566	877.14
1038.853	877.14
1039.14	877.14
